
Devices
1200
,,BP Load cell - Voltage,String Length - Voltage,Clutch Active - Voltage,#7 iPecs - Voltage,,,,,,,,,EMG 1-8 Left - Voltage,,,,,,,,Pylon Force - Voltage,EMG 9-16 Right - Voltage,,,,,,,,
Frame,Sub Frame,BP Load Cell,String Length,From Arduino Logic,A45,A135,A225,A315,S0,S90,S180,S270,ZSum,EMG 1 Glut Max,EMG 2 Glut Med,EMG 3 Biceps Femoris Long,EMG 4 Rectus Femoris,EMG 5 Vastus Medialis,EMG 6 Tib Ant,EMG 7 Med Gas,EMG 8 Soleus,Pylon volts,EMG 9 Glut Max,EMG 10 Glut Med,EMG 11 Biceps Femoris Long,EMG 12 Rectus Femoris,EMG 13 Vastus Medialis,EMG 14 Tib Ant,EMG 15 Med Gas,EMG 16 Soleus
,,V,V,V,V,V,V,V,V,V,V,V,V,V,V,V,V,V,V,V,V,V,V,V,V,V,V,V,V,V
1,0,9.1393,-0.0012207,-0.0050354,-2.42653,0.0562914,-0.0747579,0.0519917,0.0142076,-0.0986396,0.145013,-0.128818,-0.0840963,0.00526428,0.0537872,0.032692,0.018959,0.0109482,-0.0886536,0.0488281,-0.00213623,-9.97986,-0.00896454,-0.00278473,0.0888443,0.000457764,-0.158195,-0.0102234,0.0189972,0.08255
1,1,-0.344953,-0.000305176,-0.00854492,-2.4247,0.0575121,-0.0741475,0.0532125,-0.00562879,-0.0968086,0.148675,-0.130039,-0.0834859,0.00476837,0.0662231,0.0304413,0.0158691,0.00774384,-0.0790405,0.0486374,0.00286102,-9.97986,-0.00564575,0.00415802,0.0784302,-0.0421906,-0.160332,-0.00549316,0.0234222,0.0819778
1,2,-7.53703,0.00183105,-0.00961304,-2.42501,0.0572069,-0.0723164,0.0538228,-0.0166151,-0.0949775,0.146539,-0.130344,-0.0822652,7.62939e-005,0.0569153,0.0130844,0.022583,0.00114441,-0.0696182,0.0466537,0.00705719,-9.97986,-0.00331879,0.00495911,0.0738144,-0.0971603,-0.164299,-0.00854492,0.0271988,0.0878906
1,3,-9.99003,-0.00274658,-0.00778198,-2.4247,0.0559862,-0.0735371,0.0547383,0.00932483,-0.0916206,0.145318,-0.128208,-0.0813497,0.00213623,0.0184631,0.00442505,0.0180435,-0.00221252,-0.059166,0.0436783,0.00526428,-9.97986,-0.000419617,0.00110626,0.0619888,-0.136452,-0.186424,-0.00713348,0.0350189,0.0891876
1,4,-9.99003,-0.000305176,-0.00549316,-2.42531,0.0559862,-0.0741475,0.0556539,0.0450304,-0.0903999,0.14776,-0.126072,-0.0825704,0.000991821,0.00259399,0.0114822,-0.000114441,-0.0123978,-0.0464249,0.0425339,0.00106812,-9.97986,0.000267029,0.00156403,0.0478745,-0.184479,-0.20031,-0.00644684,0.0374222,0.0866699
1,5,-9.99003,0.0012207,-0.00488281,-2.42531,0.0562914,-0.0744527,0.0547383,0.058153,-0.090705,0.145318,-0.126682,-0.0844015,0.00549316,0.0104141,0.0146866,0.0147629,-0.0172424,-0.0278091,0.0390244,0.00247955,-9.97986,-0.00457764,0.00473022,0.0296021,-0.243149,-0.197487,-0.00411987,0.0432587,0.0863647
1,6,-9.99003,0.000610352,-0.00549316,-2.42745,0.0544603,-0.0735371,0.054128,0.065172,-0.0931465,0.144403,-0.126072,-0.0847066,0.000610352,0.0135803,0.0198364,0.0299454,-0.0165939,-0.00999451,0.0377274,0.00904083,-9.97986,-0.00385284,0.00453949,0.0157547,-0.294685,-0.196648,-0.0043869,0.044899,0.0867081
1,7,-9.99003,0.00152588,-0.00289917,-2.4247,0.0550706,-0.0744527,0.055959,0.128038,-0.0842964,0.145929,-0.121494,-0.0837911,0.00217438,0.0223923,0.0234222,0.0228119,-0.027504,0.0062561,0.0368118,0.0113678,-9.97986,-0.00427246,0.000228882,0.00957489,-0.35408,-0.16571,-0.000114441,0.0440216,0.0803757
1,8,-2.45036,0.000915527,-0.000915527,-2.42714,0.0541551,-0.0753682,0.0547383,0.144823,-0.0879585,0.143487,-0.121494,-0.085317,0.00415802,0.030632,0.030899,0.0234985,-0.0334549,0.019722,0.0351334,0.0197983,-9.97986,-0.00263214,0.00232697,0.000991821,-0.396271,-0.16674,-0.0111008,0.0446701,0.0839996
1,9,5.62795,-0.00152588,0.000610352,-2.42867,0.0535448,-0.0695699,0.0532125,0.153978,-0.088874,0.144098,-0.121494,-0.0871481,0.000953674,0.0431061,0.0331879,0.0157928,-0.0271606,0.0352478,0.0360107,0.0302124,-9.97986,-0.00587463,0.0156021,-0.0117111,-0.431137,-0.161285,-0.0131989,0.0418854,0.0776291
2,0,10.0097,0,0.000305176,-2.43081,0.0526292,-0.0781148,0.0513814,0.139025,-0.0928413,0.143792,-0.12363,-0.0877584,0.00434875,0.0397873,0.0376511,0.0169754,-0.0315475,0.0467682,0.0339127,0.0371933,-9.97986,-0.00255585,0.0110626,-0.0211334,-0.473175,-0.16243,-0.0119019,0.0495529,0.0714493
2,1,10.0097,0.000305176,-0.0012207,-2.43081,0.0538499,-0.0771993,0.0495503,0.0944689,-0.0971137,0.142877,-0.126072,-0.0898946,0.0056839,0.0255203,0.0356674,0.0139618,-0.0351334,0.0616455,0.0359344,0.0375748,-9.97986,-0.000724792,0.00110626,-0.0209427,-0.502129,-0.159874,-0.0107956,0.0577927,0.0696564
2,2,10.0097,0.00152588,-0.00320435,-2.4302,0.0541551,-0.0762837,0.0501607,0.0801256,-0.095893,0.142572,-0.127292,-0.0895895,0.00133514,0.0141144,0.0309372,0.00621796,-0.0364304,0.0737,0.0289536,0.0450516,-9.97986,0.0037384,-0.00221252,-0.0108337,-0.522842,-0.152664,-0.0221634,0.059166,0.0673676
2,3,10.0097,0.00152588,-0.00259399,-2.42898,0.0538499,-0.0765889,0.0526021,0.0746324,-0.094062,0.144403,-0.126987,-0.0874532,0.000495911,0.0124741,0.0352859,0.00804901,-0.0420761,0.085907,0.0325012,0.0400162,-9.97986,0.00846863,-0.00419617,-0.0175858,-0.549507,-0.148544,-0.0277328,0.0580597,0.0636673
2,4,10.0097,0.00183105,-0.0038147,-2.42837,0.0541551,-0.0741475,0.0522969,0.0724962,-0.0952827,0.145624,-0.126682,-0.0865377,0.0031662,0.0684357,0.0397491,0.0108337,-0.0370407,0.0946045,0.0294876,0.0345612,-9.97986,0.00602722,-0.00991821,-0.0344467,-0.590286,-0.148621,-0.032196,0.0478745,0.0590134
2,5,10.0097,0.0012207,-0.00198364,-2.42837,0.0541551,-0.0738423,0.0535176,0.0706652,-0.0937568,0.145318,-0.126987,-0.085317,0.00232697,0.0939178,0.0453186,0.0143433,-0.0416565,0.107803,0.0310135,0.0288391,-9.97986,0.00751495,-0.00297546,-0.0381088,-0.615845,-0.140228,-0.0323105,0.0493622,0.0577927
2,6,10.0097,0,-0.00213623,-2.42714,0.0547655,-0.0735371,0.0522969,0.0712755,-0.0931465,0.145624,-0.124851,-0.0856222,0.00595093,0.0748444,0.0265884,0.0113678,-0.0434494,0.112152,0.0260162,0.00965118,-9.97986,0.00740051,-0.00404358,-0.0454712,-0.626984,-0.134773,-0.0298309,0.0453186,0.0572586
2,7,10.0097,-0.00305176,-0.000457764,-2.42318,0.055681,-0.0747579,0.0538228,0.0734117,-0.0919257,0.145318,-0.125156,-0.0822652,0.0113678,0.0557709,0.0163269,0.0126266,-0.0402832,0.119667,0.0210571,-0.00751495,-9.97986,0.00511169,-0.00934601,-0.053978,-0.63591,-0.124931,-0.0293732,0.043335,0.0542068
2,8,10.0097,0.000915527,-0.000762939,-2.4247,0.055681,-0.0723164,0.054128,0.0715807,-0.0919257,0.146234,-0.124546,-0.0804342,0.0062561,0.00576019,0.0170517,0.00518799,-0.0447083,0.124893,0.0211716,-0.0154114,-9.97986,0.0141907,-0.00476837,-0.0498962,-0.634499,-0.112228,-0.026474,0.0446701,0.0545883
2,9,10.0097,-0.000305176,-0.000305176,-2.42623,0.0547655,-0.0738423,0.0544332,0.0666979,-0.0922309,0.14837,-0.12363,-0.0813497,0.0101852,-0.000724792,0.0209427,0.00469208,-0.0414658,0.118599,0.0189972,-0.0196838,-9.97986,0.0161362,-0.00736237,-0.0504684,-0.63488,-0.107841,-0.030899,0.0421524,0.047493
3,0,9.27663,0,-0.00244141,-2.42714,0.0550706,-0.075063,0.0510762,0.0145128,-0.0980293,0.145013,-0.128513,-0.0837911,0.00801086,0.0030899,0.0153351,0.0118637,-0.0375366,0.125008,0.0268936,-0.0203705,-9.97986,0.0183105,-0.00450134,-0.048027,-0.634499,-0.103073,-0.0331116,0.0481415,0.04879
3,1,-0.213728,0.00152588,-0.00549316,-2.42531,0.0569017,-0.0741475,0.0538228,-0.00654431,-0.095893,0.146844,-0.129429,-0.0822652,0.0104904,-0.00869751,0.00385284,0.0125122,-0.032692,0.13134,0.0252533,-0.00648499,-9.97986,0.0222397,-0.00606537,-0.0549316,-0.650635,-0.0974655,-0.0326538,0.0440979,0.0461578
3,2,-7.37773,0,-0.0050354,-2.4247,0.0572069,-0.0747579,0.0544332,-0.0175306,-0.0965034,0.147455,-0.13187,-0.0807394,0.00789642,0.00617981,0.0281525,0.00907898,-0.0278854,0.128822,0.0207901,0.00282288,-9.97986,0.0231934,-0.0043869,-0.0747299,-0.638046,-0.0835419,-0.0298691,0.0436401,0.0394821
3,3,-9.99003,0.0012207,-0.00198364,-2.42501,0.0547655,-0.0747579,0.0547383,0.00932483,-0.0925361,0.14776,-0.128513,-0.080129,0.0149536,0.0270081,0.0496292,0.00801086,-0.0256729,0.134354,0.0227737,0.0105286,-9.97986,0.0237656,-0.00183105,-0.0880051,-0.615807,-0.0896072,-0.0249481,0.0485611,0.0387192
3,4,-9.99003,0.00183105,0.000152588,-2.4244,0.0562914,-0.0726216,0.0550435,0.0456407,-0.0897895,0.146234,-0.127292,-0.0804342,0.0126266,0.0302505,0.0530624,0.00637054,-0.0282669,0.13092,0.0144196,0.0118637,-9.97986,0.0205612,-0.00320435,-0.112534,-0.604477,-0.0852585,-0.0233841,0.0498962,0.0331879
3,5,-9.99003,-0.000915527,0.00213623,-2.42714,0.0559862,-0.0738423,0.0553487,0.0593737,-0.0900947,0.145624,-0.125766,-0.0819601,0.0102234,0.029335,0.0582123,0.000572205,-0.0225449,0.140877,0.0123596,0.0183487,-9.97986,0.0224304,-0.00312805,-0.128708,-0.571098,-0.068779,-0.0202179,0.0526047,0.0321198
3,6,-9.99003,-0.0012207,0.00244141,-2.42623,0.0553758,-0.0744527,0.054128,0.0654772,-0.090705,0.143792,-0.126072,-0.0831808,0.0140762,-0.0176239,0.0289917,-0.0050354,-0.0166321,0.141602,0.00995636,0.018425,-9.97986,0.0218964,-0.00850677,-0.143623,-0.549736,-0.0486374,-0.0218964,0.0492859,0.0269318
3,7,-9.99003,-0.000610352,0.00396729,-2.4247,0.0553758,-0.0735371,0.0571797,0.128038,-0.0852119,0.145318,-0.121189,-0.0816549,0.0127029,-0.0625229,0.000915527,-0.0104523,-0.015564,0.14328,0.00461578,0.0159836,-9.97986,0.0263977,-0.00888824,-0.154533,-0.519485,-0.00850677,-0.0186539,0.0548935,0.0231934
3,8,-2.24711,0.00244141,0.00610352,-2.42776,0.0547655,-0.0759786,0.0535176,0.145738,-0.0873481,0.145013,-0.121494,-0.0834859,0.00831604,-0.0522614,-0.00328064,-0.0138474,-0.0127792,0.145683,0.0126266,0.0141525,-9.97986,0.0238419,-0.0165939,-0.172882,-0.490837,0.0107574,-0.020256,0.0537109,0.0144958
3,9,5.81319,0.00152588,0.00717163,-2.42806,0.0532396,-0.0753682,0.0522969,0.153978,-0.0894843,0.143792,-0.121799,-0.0837911,0.0125122,-0.0323868,0.00370026,-0.0150681,-0.018692,0.144043,0.0170898,0.0172043,-9.97986,0.0211334,-0.0114441,-0.181694,-0.456352,0.0304413,-0.0195694,0.0567627,0.0114822
4,0,10.0097,0.000915527,0.00640869,-2.4305,0.0535448,-0.0762837,0.050771,0.137499,-0.0946723,0.144098,-0.12363,-0.0856222,0.0133514,-0.0231552,0.00450134,-0.0116348,-0.0115204,0.147209,0.0180435,0.0118256,-9.97986,0.0201416,-0.00411987,-0.191116,-0.434227,0.0466156,-0.0159836,0.0577927,0.00663757
4,1,10.0097,0,0.00366211,-2.42989,0.0538499,-0.0753682,0.0498555,0.0941637,-0.0983344,0.141656,-0.125766,-0.0883688,0.0114441,-0.0146103,0.000114441,-0.0147247,-0.00751495,0.152206,0.0165558,0.0155258,-9.97986,0.0203323,0.00671387,-0.201073,-0.411224,0.0662613,-0.012207,0.0580215,0.00354767
4,2,10.0097,0.0012207,0.00259399,-2.42928,0.0526292,-0.0756734,0.0513814,0.0801256,-0.095893,0.143182,-0.125766,-0.0865377,0.0100708,-0.013504,0.00221252,-0.0173569,0.00160217,0.14679,0.00526428,0.014534,-9.97986,0.0207901,0.00995636,-0.20607,-0.369759,0.0827789,-0.0094223,0.0595093,-0.00137329
4,3,10.0097,-0.000610352,0.00442505,-2.42867,0.0550706,-0.0756734,0.0519917,0.0740221,-0.0949775,0.143487,-0.127903,-0.0847066,0.0132751,-0.00297546,-0.000152588,-0.0128937,0.00812531,0.144463,-0.00926971,0.0144577,-9.97986,0.0139236,0.00602722,-0.213966,-0.31517,0.0964737,-0.0144196,0.0544357,-0.00434875
4,4,10.0097,0.0012207,0.00396729,-2.42714,0.055681,-0.0744527,0.0535176,0.0737169,-0.0919257,0.145318,-0.126377,-0.0840963,0.0136185,-0.00408173,0.00133514,-0.0150299,0.00804901,0.144005,-0.0187302,0.0110626,-9.97986,0.0207901,-0.00865936,-0.220032,-0.275383,0.112457,-0.0147247,0.0527191,-0.00862122
4,5,10.0097,0.000610352,0.00366211,-2.42714,0.0547655,-0.0759786,0.0532125,0.0715807,-0.094062,0.145624,-0.126072,-0.0837911,0.0122452,0.00591278,0.0165939,0.0131989,0.0181198,0.142403,-0.0211334,0.0118256,-9.97986,0.018425,-0.00946045,-0.226326,-0.245781,0.128059,-0.00888824,0.0498962,-0.010376
4,6,10.0097,-0.000305176,0.00213623,-2.42592,0.0538499,-0.0747579,0.0532125,0.0706652,-0.0931465,0.144403,-0.125461,-0.0831808,0.0148392,0.00476837,0.0234985,0.0305939,0.0193787,0.141296,-0.0201035,0.0239563,-9.97986,0.0130844,-0.00728607,-0.232697,-0.227623,0.139847,-0.00450134,0.0428772,-0.0153732
4,7,10.0097,0.000305176,0.00244141,-2.42562,0.0559862,-0.073232,0.054128,0.0728014,-0.0928413,0.146234,-0.123935,-0.0819601,0.0110626,0.0115585,0.0369644,0.0222397,0.0236893,0.139198,-0.00888824,0.0288391,-9.97986,0.0172424,-0.00534058,-0.235405,-0.208893,0.147362,-0.00148773,0.0434113,-0.0169754
4,8,10.0097,0.0012207,0.00289917,-2.42531,0.055681,-0.0729268,0.0550435,0.0731066,-0.090705,0.148065,-0.124546,-0.080129,0.0134659,0.0123978,0.0437927,0.0191879,0.0237274,0.14576,7.62939e-005,0.0260925,-9.97986,0.0183487,-0.00614166,-0.237694,-0.185471,0.163231,0.00156403,0.0392151,-0.0198746
4,9,10.0097,0.000610352,0.00274658,-2.42684,0.0562914,-0.0741475,0.054128,0.0673082,-0.0922309,0.145318,-0.124851,-0.0810445,0.00896454,0.0141907,0.0501633,0.0219345,0.0208282,0.135651,0.0146103,0.0211716,-9.97986,0.0196075,-0.0134277,-0.233459,-0.155334,0.178566,0.00968933,0.0398636,-0.0239563
5,0,9.10665,-0.000610352,0.000610352,-2.42714,0.0559862,-0.0738423,0.0519917,0.0151232,-0.0989448,0.147455,-0.128513,-0.0825704,-0.00442505,0.0162125,0.0525665,0.0219727,0.0317383,0.132904,0.0282288,0.0235748,-9.97986,0.0142288,-0.0120163,-0.239105,-0.120201,0.184669,0.00965118,0.0350952,-0.0247955
5,1,-0.348005,-0.00183105,-0.00106812,-2.42409,0.0575121,-0.0735371,0.0547383,-0.00654431,-0.0961982,0.147149,-0.129429,-0.080129,-0.0183105,0.0192261,0.0598526,0.0209045,0.0328445,0.129013,0.0289536,0.0250244,-9.97986,0.0141525,-0.00778198,-0.246201,-0.0807953,0.202065,0.00274658,0.0346375,-0.0281143
5,2,-7.58647,-0.000610352,-0.00198364,-2.42531,0.0581224,-0.0729268,0.054128,-0.018141,-0.0983344,0.146539,-0.130649,-0.0810445,-0.0231934,0.0218582,0.0550842,0.0231552,0.0321198,0.129204,0.0195313,0.0221252,-9.97986,0.0130081,-0.00709534,-0.239601,-0.0488281,0.207939,0.00125885,0.0342178,-0.0259781
5,3,-9.99003,-0.000305176,0.000610352,-2.4244,0.0572069,-0.0729268,0.0556539,0.00932483,-0.0928413,0.146234,-0.128818,-0.0795187,-0.029335,0.0242233,0.0544357,0.00686646,0.0331116,0.13195,0.0135803,0.0265503,-9.97986,0.0169373,-0.0138474,-0.228577,-0.0119781,0.19783,0.0056839,0.0296783,-0.0254822
5,4,-9.99003,-0.000305176,0.00289917,-2.42531,0.0547655,-0.0747579,0.0565694,0.0453356,-0.0903999,0.146234,-0.127292,-0.0804342,-0.0170517,0.0247955,0.0431442,-0.0101852,0.0302505,0.129547,0.00110626,0.0266266,-9.97986,0.0144958,-0.00968933,-0.229073,0.0284576,0.196495,0.00385284,0.0283813,-0.0302124
5,5,-9.99003,0,0.00320435,-2.42653,0.0559862,-0.0756734,0.0553487,0.0602892,-0.0900947,0.146234,-0.126682,-0.0810445,0.0104141,0.0226974,0.0357437,0.00331879,0.0337219,0.133667,-0.0102615,0.030632,-9.97986,0.0117874,-0.00343323,-0.224838,0.0593185,0.199661,0.0108337,0.0268936,-0.031395
5,6,-9.99003,0,0.00366211,-2.42776,0.0559862,-0.0747579,0.054128,0.0648668,-0.0922309,0.145318,-0.125766,-0.0828756,0.022049,0.0248718,0.0232315,0.015831,0.0321579,0.129242,-0.00644684,0.0402069,-9.97986,0.0104141,-0.00476837,-0.221519,0.0985336,0.20298,0.0148392,0.0278473,-0.0313187
5,7,-9.99003,0.00152588,0.00564575,-2.42531,0.0544603,-0.0744527,0.0568746,0.128038,-0.0842964,0.144098,-0.120578,-0.0807394,0.0209045,0.0222015,0.013504,0.0167465,0.0332642,0.126762,0.0110626,0.0448608,-9.97986,0.0112152,-0.0018692,-0.213699,0.139503,0.228119,0.00946045,0.0226593,-0.0310898
5,8,-2.46745,-0.000305176,0.00732422,-2.42745,0.0544603,-0.0753682,0.0553487,0.145738,-0.0879585,0.142877,-0.122104,-0.0819601,0.0220871,0.0204468,0.0152969,0.0112534,0.0350189,0.114708,0.0217819,0.0411606,-9.97986,0.00530243,0.00331879,-0.203896,0.176506,0.226517,0.00759125,0.0206757,-0.034523
5,9,5.59957,0.000610352,0.00762939,-2.42806,0.0541551,-0.0744527,0.054128,0.154588,-0.088874,0.143182,-0.121189,-0.0837911,0.0239944,0.0148773,0.00621796,0.00640869,0.040741,0.107613,0.027771,0.0457382,-9.97986,0.00240326,-0.00305176,-0.191078,0.2108,0.230522,0.0104523,0.0195694,-0.0361633
6,0,10.0097,-0.000610352,0.00701904,-2.4305,0.0529344,-0.0765889,0.0504659,0.140245,-0.0928413,0.142572,-0.12302,-0.0862325,0.0229645,0.0182724,0.00480652,0.00968933,0.0380325,0.0978851,0.0261688,0.0475311,-9.97986,0.000419617,-0.00724792,-0.185738,0.242195,0.228462,0.0162506,0.0168991,-0.0375748
6,1,10.0097,0.000610352,0.00366211,-2.43081,0.0547655,-0.0759786,0.0501607,0.0941637,-0.101691,0.142877,-0.125156,-0.0874532,0.0253677,0.0154495,0.00328064,0.010376,0.0411224,0.091362,0.0169373,0.0460815,-9.97986,-0.00434875,-0.000648499,-0.178223,0.276299,0.237007,0.0114822,0.00988007,-0.0369644
6,2,10.0097,-0.000305176,0.00289917,-2.42898,0.0538499,-0.0747579,0.0513814,0.0801256,-0.0974189,0.142572,-0.126682,-0.0874532,0.0305939,0.0113297,0.00553131,0.0117874,0.0413513,0.084877,0.00797272,0.0439072,-9.97986,-0.000839233,-3.8147e-005,-0.170937,0.307312,0.230598,0.0104141,0.00904083,-0.0401688
6,3,10.0097,-0.000610352,0.00350952,-2.42867,0.0553758,-0.0762837,0.0519917,0.0743273,-0.095893,0.145624,-0.126682,-0.0865377,0.0373459,0.00587463,0.0178528,0.00286102,0.0460052,0.0849533,0.00240326,0.0528717,-9.97986,-0.00480652,-0.00659943,-0.161362,0.349274,0.222855,-0.00320435,0.00854492,-0.0418854
6,4,10.0097,0.0012207,0.00442505,-2.42714,0.0547655,-0.0744527,0.0526021,0.072191,-0.0946723,0.143792,-0.126072,-0.0837911,0.0305557,0.00953674,0.0230789,-0.00427246,0.0455093,0.0754929,0.00270844,0.0512314,-9.97986,-0.00156403,-0.00556946,-0.147667,0.392227,0.224838,-0.0120926,0.00522614,-0.0404358
6,5,10.0097,0.0012207,0.00366211,-2.42714,0.0541551,-0.075063,0.0544332,0.0715807,-0.0922309,0.145013,-0.126377,-0.0840963,0.0260925,0.00869751,0.0214386,-0.0126648,0.0429916,0.0742722,0.0103378,0.045433,-9.97986,0.00152588,-0.000686646,-0.14492,0.421181,0.219765,-0.0192642,0.00404358,-0.0440216
6,6,10.0097,0.000915527,0.00350952,-2.42623,0.055681,-0.0753682,0.0535176,0.0709703,-0.0937568,0.145929,-0.125766,-0.0825704,0.0191498,0.00530243,0.0224686,-0.0215912,0.0481415,0.0680542,0.0214386,0.0442505,-9.97986,-0.00358582,0.00190735,-0.135193,0.445251,0.21389,-0.0208282,0.000495911,-0.0462723
6,7,10.0097,0.00183105,0.00289917,-2.4244,0.0565965,-0.0738423,0.0553487,0.0715807,-0.0928413,0.145929,-0.12363,-0.0810445,0.0201797,0.00297546,0.0274658,-0.0394058,0.0460052,0.0605011,0.0242996,0.043335,-9.97986,0.00450134,-0.00301361,-0.119095,0.466919,0.211983,-0.0133133,-0.00347137,-0.0449371
6,8,10.0097,-0.000305176,0.00305176,-2.42531,0.0565965,-0.0738423,0.0550435,0.0728014,-0.090705,0.146234,-0.124241,-0.0789083,0.0210953,-0.000648499,0.0274277,-0.0616455,0.0418854,0.0479889,0.0247574,0.0446701,-9.97986,0.00507355,-0.00934601,-0.107765,0.49942,0.207291,-0.00904083,-0.00823975,-0.0471878
6,9,10.0097,0.00213623,0.00305176,-2.42623,0.0569017,-0.0735371,0.0547383,0.065172,-0.0928413,0.145013,-0.125156,-0.0810445,0.0129318,-0.00144958,0.0274658,-0.0556946,0.0437546,0.0407028,0.027771,0.0413513,-9.97986,0.00961304,-0.0212479,-0.0973511,0.532722,0.19722,-0.0031662,-0.0087738,-0.0482178
7,0,9.13198,0.00213623,0.00137329,-2.42684,0.055681,-0.0747579,0.0513814,0.0132921,-0.0995551,0.143792,-0.128513,-0.0828756,0.0215149,0.00377655,0.0344467,-0.0625992,0.0432587,0.031929,0.0274277,0.0362396,-9.97986,0.0112534,-0.0282669,-0.0834274,0.553017,0.191612,0.00564575,-0.0138092,-0.0462341
7,1,-0.335188,0.000305176,-0.000915527,-2.42623,0.0569017,-0.0738423,0.054128,-0.00623914,-0.0971137,0.147149,-0.128513,-0.0822652,0.0176239,0.00255585,0.0350952,-0.118828,0.0421524,0.0182724,0.0253677,0.0305939,-9.97986,0.0124741,-0.0187683,-0.070076,0.587044,0.183716,0.00617981,-0.0211716,-0.0457382
7,2,-7.49797,-0.0012207,-0.00137329,-2.42501,0.0572069,-0.0729268,0.0544332,-0.0184462,-0.095893,0.146844,-0.130954,-0.0807394,0.0175095,0.00705719,0.0390244,-0.156212,0.0477219,0.0145721,0.0291443,0.0187683,-9.97986,0.0103378,-0.010643,-0.0593567,0.616722,0.180473,0.0094223,-0.0177002,-0.0450134
7,3,-9.99003,-0.000610352,-0.000915527,-2.4247,0.0550706,-0.0744527,0.0556539,0.00901965,-0.0931465,0.145624,-0.128818,-0.0804342,0.0183487,0.0138474,0.0408936,-0.108871,0.0496674,0.0102615,0.0356674,0.00946045,-9.97986,0.00240326,-0.00335693,-0.0450897,0.636787,0.16037,0.00415802,-0.0227737,-0.0478745
7,4,-9.99003,0.0012207,0.000762939,-2.42562,0.0569017,-0.0744527,0.0568746,0.0453356,-0.0891792,0.146844,-0.125766,-0.0816549,0.0162125,0.019455,0.0410843,-0.0295258,0.0471878,0.00343323,0.0433731,0.00118256,-9.97986,0.00602722,0.00972748,-0.031395,0.64785,0.13958,0.0044632,-0.0270462,-0.0459671
7,5,-9.99003,0,0.0012207,-2.42531,0.055681,-0.075063,0.0562642,0.0596788,-0.0910102,0.145929,-0.125766,-0.0816549,0.0178528,0.0288391,0.0354767,0.00221252,0.0491714,-0.0050354,0.0493622,-0.00232697,-9.97986,0.0037384,0.0146484,-0.0170898,0.660324,0.134392,0.00587463,-0.0283051,-0.0450897
7,6,-9.99003,0.000305176,0.00167847,-2.42745,0.0547655,-0.0744527,0.0535176,0.0642565,-0.0928413,0.145013,-0.127292,-0.0834859,0.0131607,0.0307083,0.0302124,0.0223541,0.0529861,-0.0124741,0.0447845,0.000686646,-9.97986,0.00953674,0.0150299,-0.00133514,0.671043,0.126572,0.000495911,-0.0313568,-0.0445938
7,7,-9.99003,-0.000610352,0.00320435,-2.42501,0.0547655,-0.075063,0.0580953,0.127733,-0.0855171,0.144708,-0.121494,-0.0816549,0.0131226,0.0436783,0.0324631,0.0831604,0.0522232,-0.0199127,0.0281906,0.00907898,-9.97986,0.0108337,0.0196457,0.00743866,0.676422,0.143661,-0.00114441,-0.031662,-0.0447464
7,8,-2.40519,0.000610352,0.00427246,-2.42837,0.0532396,-0.0759786,0.0553487,0.145738,-0.0873481,0.143792,-0.121189,-0.0844015,0.0043869,0.0479889,0.0296402,0.156479,0.0489426,-0.028801,0.0115585,0.00743866,-9.97986,0.0154114,0.0100327,0.0268936,0.689964,0.133743,-0.00873566,-0.0402832,-0.0461578
7,9,5.6899,0.00152588,0.00595093,-2.42837,0.0541551,-0.0762837,0.0532125,0.153978,-0.0897895,0.143792,-0.121494,-0.0847066,0.00671387,0.0556564,0.0337982,0.200691,0.051918,-0.0297546,-0.00492096,0.00423431,-9.97986,0.0201797,0.0030899,0.0418472,0.711327,0.128288,-0.00926971,-0.0389481,-0.0406265
8,0,10.0097,0.000610352,0.00595093,-2.4302,0.0523241,-0.0756734,0.0516866,0.137804,-0.0937568,0.142572,-0.122715,-0.0865377,0.00598907,0.0587463,0.0308228,0.178757,0.045166,-0.0358963,-0.0191879,0.0104141,-9.97986,0.0254059,-0.0138092,0.058403,0.723,0.117378,-0.0101471,-0.0382996,-0.0441742
8,1,10.0097,0.000915527,0.00320435,-2.43142,0.0544603,-0.0768941,0.050771,0.0944689,-0.0983344,0.144098,-0.125156,-0.0883688,0.00644684,0.0642776,0.0276184,0.124054,0.0521088,-0.0395584,-0.00133514,0.0165176,-9.97986,0.0202179,-0.000991821,0.0772476,0.737839,0.108261,-0.00961304,-0.0397873,-0.0421524
8,2,10.0097,-0.00183105,0.00137329,-2.4302,0.0535448,-0.0762837,0.0522969,0.0795153,-0.0946723,0.142267,-0.126682,-0.0877584,0.00740051,0.0691605,0.0260162,0.0896835,0.0464249,-0.048027,0.0188828,0.0204086,-9.97986,0.02388,0.0222778,0.0896835,0.742531,0.102692,-0.0130844,-0.0448227,-0.0400543
8,3,10.0097,0.0012207,0.000762939,-2.42837,0.0541551,-0.075063,0.0519917,0.0737169,-0.0946723,0.144098,-0.127292,-0.0868429,0.00453949,0.0684738,0.0191879,0.0741577,0.0411606,-0.0495148,0.046463,0.0197601,-9.97986,0.019455,0.0185394,0.111961,0.749855,0.0946808,-0.0118637,-0.0402451,-0.0400543
8,4,10.0097,-0.000915527,0.000457764,-2.42837,0.0547655,-0.0756734,0.0544332,0.0728014,-0.0949775,0.144708,-0.126682,-0.0850118,0.00701904,0.067215,0.00774384,0.0530243,0.0430679,-0.0490189,0.0639725,0.022049,-9.97986,0.0223541,0.00465393,0.127754,0.749779,0.0902176,-0.0100708,-0.0429153,-0.034523
8,5,10.0097,0.0012207,0.000305176,-2.42684,0.0550706,-0.0762837,0.0544332,0.0706652,-0.0937568,0.142572,-0.126072,-0.0856222,0.00774384,0.0584412,-0.00576019,0.0389481,0.0413132,-0.0509262,0.0652313,0.0239182,-9.97986,0.0226974,0.00553131,0.143242,0.750084,0.0902176,-0.0123215,-0.0437927,-0.033226
8,6,10.0097,0,0.000610352,-2.42745,0.055681,-0.0738423,0.0556539,0.0715807,-0.0931465,0.145318,-0.12363,-0.0850118,0.0101471,0.0459671,-0.0069809,0.0364304,0.0452423,-0.0484085,0.0504684,0.0232315,-9.97986,0.0220871,0.00469208,0.158043,0.748558,0.0840378,-0.0101471,-0.038414,-0.0257111
8,7,10.0097,0,0,-2.42653,0.0553758,-0.0744527,0.0550435,0.07036,-0.0928413,0.146539,-0.123935,-0.0816549,0.0063324,0.0433731,-0.00995636,0.030899,0.0429535,-0.0487137,0.0286865,0.0241089,-9.97986,0.0218201,0.0154877,0.174408,0.739632,0.0826263,-0.00740051,-0.0345612,-0.0267029
8,8,10.0097,-0.000610352,-0.000305176,-2.42501,0.0565965,-0.073232,0.0538228,0.0715807,-0.0910102,0.146844,-0.123935,-0.0819601,0.00465393,0.0372314,-0.00736237,0.0138092,0.0408936,-0.0538254,0.00846863,0.0190735,-9.97986,0.0212479,0.0233841,0.192299,0.720978,0.0806046,-0.00396729,-0.0350571,-0.0235748
8,9,10.0097,-0.000305176,-0.00106812,-2.42562,0.0553758,-0.0744527,0.0547383,0.065172,-0.0922309,0.145624,-0.126682,-0.0816549,0.00640869,0.0341797,-0.00743866,-0.00591278,0.0423431,-0.0647736,-0.00167847,0.0120544,-9.97986,0.0204849,0.0113297,0.198555,0.703011,0.0717545,-0.00514984,-0.0359726,-0.0199509
9,0,9.07979,0.0012207,-0.0038147,-2.42623,0.0553758,-0.075063,0.0522969,0.0129869,-0.0980293,0.146234,-0.128513,-0.0844015,0.00865936,0.0393677,-0.00747681,-0.0288773,0.0445175,-0.0656509,-0.0172424,0.00350952,-9.97986,0.0213623,0.0082016,0.214615,0.683899,0.0651932,-0.00564575,-0.0333405,-0.0167847
9,1,-0.463056,0.000305176,-0.00732422,-2.42562,0.0572069,-0.0720113,0.0526021,-0.00410291,-0.0968086,0.146539,-0.128513,-0.0819601,0.0123596,0.0424957,0.000839233,-0.0450897,0.046463,-0.0652695,-0.00679016,0.00347137,-9.97986,0.0200653,0.00915527,0.226974,0.657806,0.0623322,-0.00545502,-0.0294876,-0.0196075
9,2,-7.64506,0.0012207,-0.00671387,-2.42653,0.0569017,-0.0735371,0.0532125,-0.0190565,-0.095893,0.146234,-0.130954,-0.0819601,0.00980377,0.0396729,0.00663757,-0.0105286,0.0481415,-0.0658035,0.00106812,0.0088501,-9.97986,0.021019,-0.000610352,0.236511,0.63343,0.0493622,0.000610352,-0.0254822,-0.0177002
9,3,-9.99003,0.00152588,-0.00473022,-2.4244,0.0578172,-0.073232,0.0565694,0.0102404,-0.0922309,0.145013,-0.128208,-0.0810445,0.0231934,0.0305557,0.0170517,0.0434494,0.0493622,-0.0691223,0.010376,0.014267,-9.97986,0.021019,-0.00171661,0.253601,0.621948,0.0228882,-0.00106812,-0.0210953,-0.0170898
9,4,-9.99003,0.00152588,-0.00289917,-2.42562,0.0559862,-0.075063,0.0565694,0.0474718,-0.0913154,0.146539,-0.126987,-0.0816549,0.0285721,0.0377274,0.0133133,0.0656509,0.0496292,-0.0695419,0.0128937,0.0141907,-9.97986,0.0191498,-0.00289917,0.261307,0.599136,0.00946045,0.00213623,-0.0252914,-0.0153351
9,5,-9.99003,0.000305176,-0.00152588,-2.42562,0.0538499,-0.0738423,0.0553487,0.0596788,-0.0913154,0.145013,-0.125766,-0.0822652,0.0134659,0.0407028,0.0218582,0.0465393,0.0495148,-0.0737,0.00644684,0.0167084,-9.97986,0.0163651,-0.0107193,0.267601,0.578537,0.00209808,-0.00217438,-0.0174713,-0.0146866
9,6,-9.99003,-0.000610352,-0.00198364,-2.42684,0.0553758,-0.0744527,0.054128,0.0648668,-0.0928413,0.145624,-0.126072,-0.0844015,0.0115585,0.0426102,0.0283051,0.0337219,0.0443268,-0.0850296,-0.00297546,0.0094223,-9.97986,0.0230408,-0.0131226,0.26989,0.559006,-0.00865936,-0.00415802,-0.017662,-0.0135803
9,7,-9.99003,0,0.000305176,-2.42745,0.0559862,-0.0738423,0.0574849,0.128038,-0.0839912,0.146234,-0.122104,-0.0819601,0.0113297,0.0356293,0.0349426,0.016861,0.0519562,-0.0816727,-0.00659943,-0.00221252,-9.97986,0.0201416,-0.0183868,0.282059,0.532608,0.00988007,-0.00507355,-0.0144196,-0.0109863
9,8,-2.46837,-0.0012207,0.000305176,-2.42776,0.0526292,-0.0744527,0.0547383,0.145738,-0.0864326,0.142877,-0.12363,-0.0856222,0.00808716,0.0297165,0.0362015,0.0215149,0.0534821,-0.0825119,-0.0100327,-0.00572205,-9.97986,0.0202179,-0.00965118,0.285568,0.497475,0.00232697,0.000953674,-0.0133514,-0.00888824
9,9,5.5663,0.000610352,0.000610352,-2.42837,0.0532396,-0.0768941,0.0532125,0.153673,-0.0897895,0.144403,-0.121494,-0.0868429,0.014534,0.0236893,0.0243378,0.0453186,0.04776,-0.0859833,-0.0107193,0.00179291,-9.97986,0.0244904,-0.000991821,0.286407,0.471268,-0.000228882,-0.00305176,-0.0104904,-0.00915527
10,0,10.0097,0,0.00198364,-2.42928,0.0538499,-0.0762837,0.0510762,0.139025,-0.0928413,0.142572,-0.12363,-0.0880636,0.0114822,0.0282669,0.0179672,0.0643158,0.0471878,-0.0875854,-0.0107193,-0.00293732,-9.97986,0.0214005,0.0139999,0.293579,0.439415,-0.00648499,-0.00659943,-0.00854492,-0.01091
10,1,10.0097,-0.000610352,-0.00167847,-2.42989,0.0538499,-0.0762837,0.050771,0.0941637,-0.0977241,0.142877,-0.125766,-0.0895895,0.00354767,0.0352097,0.0137711,0.0532913,0.0498962,-0.094986,-0.00652313,-0.000152588,-9.97986,0.015564,0.00640869,0.291557,0.406914,-0.0144577,-0.00213623,-0.00720978,-0.00915527
10,2,10.0097,0,-0.00289917,-2.42989,0.0538499,-0.0762837,0.050771,0.0804308,-0.0965034,0.143487,-0.126072,-0.0883688,0.0121307,0.0357056,0.00507355,0.0397491,0.0453186,-0.10437,-0.0128937,-0.00408173,-9.97986,0.0151825,-0.00217438,0.290604,0.371475,-0.0226974,-0.00549316,-0.00434875,-0.00934601
10,3,10.0097,0.000915527,-0.00350952,-2.42837,0.0535448,-0.0756734,0.0519917,0.075548,-0.0952827,0.144098,-0.126987,-0.0877584,0.0088501,0.0341034,0.0107193,0.00961304,0.0455093,-0.108337,-0.0177002,-0.00785828,-9.97986,0.00236511,-0.00835419,0.285759,0.326424,-0.0254059,-0.00587463,0.00118256,-0.00999451
10,4,10.0097,-0.000610352,-0.00396729,-2.42714,0.0553758,-0.0741475,0.0535176,0.072191,-0.0946723,0.145013,-0.126072,-0.085317,0.00896454,0.0313187,0.00740051,-0.0306702,0.0486755,-0.114822,-0.0189209,0.00110626,-9.97986,-0.0144196,-0.0106812,0.289078,0.29213,-0.0347137,0.00385284,0.00320435,-0.00926971
10,5,10.0097,-0.000915527,-0.00320435,-2.42806,0.0547655,-0.0747579,0.0532125,0.07036,-0.0931465,0.144403,-0.126072,-0.085317,0.0127411,0.0289917,0.0107193,-0.0482559,0.0486374,-0.119858,-0.0222778,0.001297,-9.97986,-0.0237656,-0.0043869,0.280571,0.257988,-0.0435638,0.00274658,0.00209808,-0.00869751
10,6,10.0097,0.00152588,-0.00350952,-2.42653,0.0553758,-0.0738423,0.0535176,0.07036,-0.0922309,0.145318,-0.126377,-0.085317,0.0104141,0.0286102,0.024147,-0.0432587,0.0487137,-0.12146,-0.0222015,0.0122452,-9.97986,-0.0275803,0.0119781,0.276031,0.219193,-0.0544357,0.0056076,0.00827789,-0.00846863
10,7,10.0097,-0.000915527,-0.00305176,-2.42531,0.0562914,-0.0738423,0.054128,0.0715807,-0.0922309,0.145624,-0.125156,-0.0828756,0.00328064,0.0225449,0.0286484,-0.0447083,0.0465393,-0.12291,-0.0270462,0.023613,-9.97986,-0.0361633,0.00476837,0.263023,0.19062,-0.052948,0.000457764,0.00946045,-0.00583649
10,8,10.0097,-0.000610352,-0.00289917,-2.42501,0.0565965,-0.0747579,0.0529073,0.0700548,-0.0922309,0.146234,-0.124241,-0.0819601,-0.00442505,0.0178528,0.0349045,-0.0530243,0.0460052,-0.134583,-0.0231552,0.0296021,-9.97986,-0.0395584,-0.00389099,0.254898,0.155449,-0.0585938,-0.0063324,0.0105286,-0.00808716
10,9,10.0097,-0.00183105,-0.00366211,-2.42592,0.0553758,-0.073232,0.0538228,0.0648668,-0.0928413,0.145624,-0.123325,-0.0825704,-0.00537872,0.0107574,0.0337219,-0.0511551,0.0422668,-0.141068,-0.0249863,0.0375366,-9.97986,-0.0258255,-0.0157166,0.249863,0.121422,-0.0642395,-0.00827789,0.016861,-0.00751495
11,0,9.13808,-0.000305176,-0.00564575,-2.42714,0.0559862,-0.075063,0.0510762,0.0139025,-0.0998603,0.143792,-0.128818,-0.0840963,0.00667572,0.00846863,0.0359726,-0.0567627,0.0442505,-0.142288,-0.0285339,0.0415802,-9.97986,-0.0165939,-0.022049,0.236511,0.0868988,-0.0709915,-0.0119019,0.0182724,-0.00656128
11,1,-0.358686,0,-0.00823975,-2.42562,0.0572069,-0.073232,0.0516866,-0.00562879,-0.0961982,0.14776,-0.129429,-0.0828756,0.00679016,0.00663757,0.0304031,-0.0534439,0.0408173,-0.152054,-0.0300217,0.038414,-9.97986,0.00190735,-0.00366211,0.224762,0.039978,-0.0739288,-0.00804901,0.0198364,-0.00629425
11,2,-7.62645,0,-0.00823975,-2.42501,0.0578172,-0.0738423,0.054128,-0.0190565,-0.0968086,0.146844,-0.130039,-0.0819601,0.0144577,0.00907898,0.0125504,-0.0100708,0.0460052,-0.149651,-0.0275421,0.0211716,-9.97986,0.00938416,-0.00202179,0.213661,0.00774384,-0.0800705,-0.00137329,0.0240326,-0.00587463
11,3,-9.99003,-0.000305176,-0.00610352,-2.42379,0.0569017,-0.0735371,0.0553487,0.0102404,-0.0925361,0.145624,-0.126682,-0.0819601,0.0261688,0.0136185,0.00705719,0.0853348,0.043335,-0.154648,-0.0290298,0.0237274,-9.97986,0.00850677,-0.00392914,0.208282,-0.0154495,-0.105247,0.00118256,0.0238419,-0.00415802
11,4,-9.99003,0,-0.00411987,-2.42562,0.0553758,-0.0723164,0.0562642,0.0474718,-0.0897895,0.147455,-0.126682,-0.0813497,0.0251389,0.00598907,0.00839233,0.163956,0.0403214,-0.161362,-0.0326538,0.0187683,-9.97986,-0.00228882,-0.00267029,0.189819,-0.043335,-0.118217,-0.00305176,0.0307083,-0.00202179
11,5,-9.99003,0,-0.00335693,-2.42623,0.0559862,-0.0747579,0.0553487,0.0587633,-0.0919257,0.146234,-0.125766,-0.0819601,0.0265121,0.00766754,0.00717163,0.168037,0.0350189,-0.167847,-0.0353622,0.018425,-9.97986,-0.0102997,-0.00778198,0.170593,-0.0751114,-0.125542,0.00038147,0.0369644,-0.00190735
11,6,-9.99003,0.00152588,-0.00274658,-2.42684,0.0538499,-0.0747579,0.0535176,0.0657823,-0.0913154,0.143182,-0.126072,-0.0844015,0.018959,0.0130844,0.0263977,0.1054,0.0381851,-0.170631,-0.033989,0.021019,-9.97986,-0.000953674,-0.014267,0.166283,-0.109787,-0.128326,0.00564575,0.0374222,-0.000953674
11,7,-9.99003,0.00152588,-0.000915527,-2.42531,0.055681,-0.075063,0.055959,0.128038,-0.0852119,0.145624,-0.121799,-0.0828756,0.0171661,0.00343323,0.0337601,0.0580978,0.0322723,-0.169106,-0.0326157,0.0223541,-9.97986,0.0136566,-0.0193405,0.149803,-0.134964,-0.104103,0.00648499,0.0395966,3.8147e-005
11,8,-2.2874,-0.000610352,0.00106812,-2.42562,0.0526292,-0.0747579,0.0550435,0.147569,-0.0879585,0.144403,-0.122104,-0.085317,0.0141525,-0.000762939,0.0281525,0.0241852,0.0323486,-0.174026,-0.0306702,0.0143814,-9.97986,0.0461197,-0.0152588,0.14061,-0.155983,-0.108376,0.0114059,0.0415802,-0.00320435
11,9,5.81929,-0.000610352,0.00106812,-2.42776,0.0538499,-0.0756734,0.0547383,0.155809,-0.0885688,0.143792,-0.121494,-0.0862325,0.0228119,0.000991821,0.0247574,-0.00205994,0.0315094,-0.179367,-0.0347137,0.021286,-9.97986,0.0801468,-0.0143051,0.126572,-0.194092,-0.112762,0.0104523,0.044136,0.00137329
12,0,10.0097,-0.000305176,-0.000152588,-2.43172,0.0535448,-0.0771993,0.0510762,0.137499,-0.094062,0.142267,-0.12363,-0.0886739,0.017128,0.00247955,0.0252151,0.00282288,0.0274658,-0.170975,-0.0357056,0.0297546,-9.97986,0.109901,-0.00694275,0.118866,-0.228615,-0.113144,0.00324249,0.0483322,0.00278473
12,1,10.0097,-0.000305176,-0.00167847,-2.4302,0.0538499,-0.0759786,0.0498555,0.0941637,-0.0955879,0.142267,-0.125766,-0.0886739,0.0175476,0.0148773,0.0189972,0.0343704,0.0234604,-0.173378,-0.0321579,0.0257111,-9.97986,0.111732,-0.0127029,0.105896,-0.257378,-0.11364,-0.0185776,0.050087,-0.000152588
12,2,10.0097,-0.00183105,-0.00274658,-2.42898,0.0535448,-0.0762837,0.0529073,0.0798204,-0.0977241,0.143487,-0.126682,-0.0889791,0.0153351,0.0186539,0.00808716,0.0368118,0.0243378,-0.168648,-0.0378036,0.0281906,-9.97986,0.0972748,-0.022049,0.0928879,-0.287399,-0.121536,-0.02285,0.0480652,0.0031662
12,3,10.0097,0.000305176,-0.00320435,-2.42928,0.0523241,-0.0759786,0.0513814,0.0740221,-0.0955879,0.143487,-0.126072,-0.0874532,0.0139999,0.0142288,0.00518799,0.0314713,0.0232315,-0.167618,-0.0423813,0.0304413,-9.97986,0.0752258,-0.02388,0.08255,-0.329094,-0.118561,-0.0114822,0.0507355,-0.00038147
12,4,10.0097,-0.0012207,-0.00335693,-2.42684,0.0541551,-0.0744527,0.0522969,0.0718859,-0.0934516,0.144403,-0.126377,-0.0868429,0.0156403,0.0152969,-0.000991821,0.0358582,0.0215912,-0.164566,-0.0461578,0.0362015,-9.97986,0.0642776,-0.0205994,0.0745392,-0.362892,-0.122948,-0.00408173,0.050087,0.00465393
12,5,10.0097,0.00152588,-0.00305176,-2.42714,0.0547655,-0.075063,0.0535176,0.0712755,-0.0946723,0.144098,-0.125766,-0.085317,0.0128555,0.0043869,0.00778198,0.0312042,0.0227737,-0.164719,-0.0429916,0.0436783,-9.97986,0.0483322,-0.0182724,0.0634766,-0.383987,-0.127945,0.00507355,0.0530243,0.00621796
12,6,10.0097,0.000610352,-0.00244141,-2.42531,0.0547655,-0.0747579,0.0538228,0.0709703,-0.0925361,0.144708,-0.125766,-0.0837911,0.0122452,-0.00663757,0.00488281,0.0139618,0.019722,-0.159874,-0.0459671,0.0427628,-9.97986,0.0418854,-0.0138855,0.0538254,-0.401382,-0.123749,0.00926971,0.0480652,0.00770569
12,7,10.0097,0.000305176,-0.000305176,-2.42562,0.0559862,-0.0756734,0.0532125,0.0718859,-0.0922309,0.145318,-0.123935,-0.0825704,0.0174332,0.00907898,0.000610352,-0.00278473,0.0177765,-0.155449,-0.0419998,0.0388336,-9.97986,0.0333786,-0.00778198,0.0447083,-0.399818,-0.123558,0.00522614,0.0488281,0.00434875
12,8,10.0097,0.0012207,-0.000152588,-2.42501,0.055681,-0.0738423,0.054128,0.0724962,-0.0913154,0.146234,-0.124241,-0.0813497,0.0158691,0.0104904,-0.00484467,-0.0230408,0.014534,-0.151405,-0.0267029,0.0448608,-9.97986,0.0293732,-0.00118256,0.0334549,-0.407715,-0.123863,0.00537872,0.0527954,0.00892639
12,9,10.0097,0.00152588,-0.000610352,-2.42653,0.0575121,-0.0738423,0.0532125,0.0642565,-0.0937568,0.144403,-0.125461,-0.0816549,0.0119781,0.00869751,-0.0155258,-0.0305176,0.0210953,-0.149155,-0.0292587,0.0460815,-9.97986,0.0235748,0.00480652,0.0244141,-0.419617,-0.125427,0.00495911,0.0469208,0.0106049
13,0,9.10024,-0.000610352,-0.00213623,-2.42745,0.0575121,-0.075063,0.0519917,0.0126818,-0.101386,0.145624,-0.129734,-0.0828756,0.0175095,0.00961304,-0.0133896,-0.0460434,0.0158691,-0.146713,-0.0283813,0.0494003,-9.97986,0.0204468,0.000724792,0.0172043,-0.422401,-0.124092,-0.00511169,0.0402069,0.0101471
13,1,-0.445661,0.000610352,-0.00579834,-2.42501,0.0581224,-0.0738423,0.0532125,-0.00623914,-0.095893,0.14776,-0.129429,-0.0825704,0.016098,0.00396729,-0.022049,-0.0440979,0.0139999,-0.137787,-0.0357819,0.0484085,-9.97986,0.0191498,-0.00320435,0.0122833,-0.438194,-0.128174,0.0018692,0.0400543,0.0118637
13,2,-7.71953,0.000610352,-0.00640869,-2.4247,0.0562914,-0.0729268,0.0538228,-0.0187513,-0.0965034,0.146844,-0.129734,-0.0825704,0.0153351,7.62939e-005,-0.020256,-0.0523758,0.0143814,-0.130234,-0.051918,0.047226,-9.97986,0.0139618,-0.00320435,0.00328064,-0.455322,-0.130539,0.00686646,0.0354004,0.00923157
13,3,-9.99003,0.000305176,-0.00411987,-2.4244,0.0575121,-0.0741475,0.0556539,0.0102404,-0.0903999,0.145929,-0.128513,-0.0813497,0.0138092,0.000534058,-0.00797272,-0.0656128,0.0105667,-0.125504,-0.0603485,0.0454712,-9.97986,0.0168228,-0.00358582,-0.0012207,-0.467186,-0.145378,0.0143433,0.0337601,0.0120163
13,4,-9.99003,-0.000610352,-0.00244141,-2.42501,0.0565965,-0.0747579,0.0556539,0.0459459,-0.0891792,0.146234,-0.126987,-0.0819601,0.0134277,-0.00164032,0.00457764,-0.0430679,0.0113297,-0.119438,-0.0609207,0.0391769,-9.97986,0.0107956,-0.00507355,-0.0112915,-0.489578,-0.153542,0.0205231,0.0285721,0.0117874
13,5,-9.99003,0.0012207,-0.00320435,-2.42501,0.0559862,-0.0744527,0.0556539,0.0593737,-0.0916206,0.145318,-0.126072,-0.0825704,0.0206757,-0.0075531,0.0120544,-0.0553131,0.0148773,-0.114632,-0.0498581,0.0353241,-9.97986,0.00522614,-0.00984192,-0.0159073,-0.519943,-0.149117,0.0209808,0.0318146,0.0130463
13,6,-9.99003,0,-0.00259399,-2.42653,0.0559862,-0.0753682,0.054128,0.0639513,-0.0916206,0.144708,-0.126987,-0.0840963,0.0208664,-0.00144958,0.0243759,-0.0780869,0.0134659,-0.11013,-0.030899,0.0230789,-9.97986,0.00915527,-0.014534,-0.0167465,-0.541306,-0.13958,0.0180817,0.028801,0.0165176
13,7,-9.99003,0.00152588,0.000610352,-2.42531,0.055681,-0.0738423,0.0577901,0.127733,-0.0864326,0.145013,-0.121189,-0.0840963,0.0141907,0.00892639,0.0446701,-0.0701523,0.0162506,-0.0983429,-0.0233459,0.0185776,-9.97986,0.00770569,-0.0126648,-0.0246429,-0.548325,-0.103226,0.0158691,0.0330734,0.0166321
13,8,-2.41618,0.000305176,0.00106812,-2.42745,0.0541551,-0.0756734,0.054128,0.146044,-0.0870429,0.145013,-0.121799,-0.085317,0.0167084,0.000953674,0.0611115,-0.0449753,0.0169754,-0.0934219,-0.0242615,0.0116348,-9.97986,0.00858307,-0.00862122,-0.0283051,-0.586395,-0.0951004,0.0112534,0.0369263,0.0187683
13,9,5.65999,0.0012207,0.000457764,-2.42745,0.0538499,-0.0759786,0.0526021,0.153978,-0.0876533,0.143487,-0.121189,-0.0868429,0.0156784,0.00164032,0.0761795,0.0159454,0.0139618,-0.0815201,-0.0314713,-0.00640869,-9.97986,0.00518799,-0.00919342,-0.027771,-0.629387,-0.0889587,0.0131607,0.03685,0.0184631
14,0,10.0097,0,-0.000305176,-2.42989,0.0532396,-0.0765889,0.050771,0.138414,-0.094062,0.142572,-0.122715,-0.0880636,0.0170898,-0.00572205,0.076828,0.0403214,0.0136185,-0.0683212,-0.0344849,-0.0247192,-9.97986,0.00629425,-0.000915527,-0.0314713,-0.673218,-0.0883102,0.0138092,0.0311279,0.0220108
14,1,10.0097,0.000610352,-0.00366211,-2.43081,0.0541551,-0.0775044,0.04894,0.0941637,-0.095893,0.143792,-0.126072,-0.0901998,0.0170517,0.00389099,0.077095,0.0366211,0.0163651,-0.0493622,-0.0373077,-0.0293732,-9.97986,0.00545502,0.00110626,-0.0370789,-0.723534,-0.0914001,0.00961304,0.0304031,0.0222778
14,2,10.0097,0.0012207,-0.00442505,-2.4302,0.0535448,-0.0768941,0.0513814,0.0804308,-0.0971137,0.144403,-0.126377,-0.0898946,0.0104141,0.0569153,0.0730896,0.0419998,0.0178146,-0.0387955,-0.0310135,-0.00808716,-9.97986,0.0129318,0.00377655,-0.0419617,-0.762062,-0.0886536,0.0111771,0.028801,0.0251389
14,3,10.0097,0.00183105,-0.00396729,-2.42837,0.0538499,-0.0753682,0.0510762,0.0749376,-0.0952827,0.144403,-0.126072,-0.0868429,0.00823975,0.10479,0.0566483,0.0391388,0.0175476,-0.0213623,-0.0269699,-0.000190735,-9.97986,0.0124741,-0.00183105,-0.0475311,-0.797501,-0.0885773,0.0126648,0.0313187,0.0285339
14,4,10.0097,0.0012207,-0.00289917,-2.42745,0.0541551,-0.0747579,0.0529073,0.072191,-0.0937568,0.144403,-0.126377,-0.0862325,0.00667572,0.0899124,0.0315094,0.0535583,0.0186539,-0.00530243,-0.0232315,0.0135803,-9.97986,0.0131989,-0.0101471,-0.0482178,-0.820007,-0.0814438,0.0144958,0.0326157,0.0291061
14,5,10.0097,0,-0.00167847,-2.42684,0.0547655,-0.0753682,0.0529073,0.0718859,-0.0934516,0.143792,-0.126682,-0.0850118,0.00667572,0.0513077,0.0118637,0.0489426,0.0177002,0.0141144,-0.0184631,0.018158,-9.97986,0.0134659,-0.0115204,-0.0537872,-0.828819,-0.0747681,0.0144196,0.0308609,0.0302505
14,6,10.0097,0.115356,-0.000915527,-2.42653,0.0553758,-0.075063,0.0532125,0.0715807,-0.0897895,0.168512,-0.126072,-0.0840963,0.00400543,0.030365,-0.00392914,0.0391006,0.0185013,0.0333786,-0.0153351,0.0286102,-9.97986,0.0154877,-0.0139618,-0.0518799,-0.839729,-0.0675583,0.0127029,0.0308228,0.0294495
14,7,10.0097,0.00671387,0,-2.42379,0.0559862,-0.0729268,0.0535176,0.072191,-0.0925361,0.154168,-0.124851,-0.0822652,0.00408173,0.0200272,-0.0180054,0.00518799,0.0238419,0.0410461,-0.0143814,0.034523,-9.97986,0.0156784,-0.0108337,-0.0543213,-0.834389,-0.0550461,0.00728607,0.0314713,0.0357437
14,8,10.0097,0.00244141,0,-2.42562,0.0553758,-0.0738423,0.0550435,0.0718859,-0.090705,0.149591,-0.124241,-0.0810445,0.00682831,0.0240707,-0.0253677,-0.041275,0.0213242,0.0579453,-0.0193405,0.0317001,-9.97986,0.0144196,-0.00614166,-0.0537491,-0.827408,-0.0483704,0.00751495,0.0305557,0.0346375
14,9,10.0097,0.00152588,0.000152588,-2.42745,0.0562914,-0.0735371,0.054128,0.0657823,-0.0922309,0.147455,-0.123325,-0.0810445,0.00694275,0.0332642,-0.0304031,-0.0528336,0.0244141,0.0697327,-0.0216293,0.0279236,-9.97986,0.0105286,-0.00705719,-0.0552368,-0.824738,-0.0411606,0.00450134,0.0292206,0.0369644
15,0,9.06941,0.0012207,-0.00289917,-2.42562,0.055681,-0.0747579,0.0516866,0.0132921,-0.0980293,0.146844,-0.129123,-0.0825704,0.0123596,0.0283051,-0.0276566,-0.0606918,0.0275421,0.078392,-0.0184631,0.0204468,-9.97986,0.0147247,-0.00137329,-0.0542068,-0.818405,-0.0285721,0.00507355,0.0318909,0.0400925
15,1,-0.475569,0.00213623,-0.00518799,-2.42501,0.0565965,-0.073232,0.0532125,-0.00654431,-0.0961982,0.14837,-0.129734,-0.0816549,0.0154877,0.0335312,-0.0279999,-0.0584793,0.0250626,0.0903702,-0.0149918,0.00259399,-9.97986,0.0100327,0.00343323,-0.0535965,-0.82325,-0.0196075,0.0056839,0.0292206,0.0381088
15,2,-7.71495,0.00366211,-0.0062561,-2.42653,0.0572069,-0.0726216,0.054128,-0.0184462,-0.095893,0.14837,-0.129429,-0.0825704,0.0180817,0.028801,-0.0204086,-0.0291443,0.019989,0.102921,-0.0157547,0.0031662,-9.97986,0.0140762,0.000915527,-0.0576401,-0.844955,-0.0137329,0.00183105,0.0310135,0.0430679
15,3,-9.99003,0.00183105,-0.00396729,-2.4247,0.0590379,-0.073232,0.0568746,0.0117662,-0.0931465,0.147455,-0.128208,-0.0813497,0.00976563,0.0281525,-0.0165558,0.00656128,0.0309372,0.113487,-0.0183105,0.00278473,-9.97986,0.0212097,-0.00205994,-0.0549698,-0.8461,-0.02388,0.00102997,0.0270844,0.0406265
15,4,-9.99003,0.000305176,-0.00228882,-2.42531,0.0553758,-0.0747579,0.0553487,0.0483873,-0.0894843,0.146234,-0.126682,-0.0813497,0.0135422,0.0269699,-0.00392914,0.0655365,0.0274658,0.121384,-0.0144958,0.0197983,-9.97986,0.0225067,0.000648499,-0.0574493,-0.854645,-0.0204086,0.00793457,0.023613,0.0395203
15,5,-9.99003,0.000915527,-0.00183105,-2.42592,0.0541551,-0.0744527,0.0556539,0.0587633,-0.0913154,0.145624,-0.126682,-0.0822652,0.0110626,0.0312805,0.0175476,0.11898,0.0313187,0.124474,-0.0148773,0.0233078,-9.97986,0.0270081,-0.00202179,-0.0576782,-0.873947,-0.0182724,0.00240326,0.0212479,0.047493
15,6,-9.99003,0.00244141,0.000915527,-2.42837,0.0565965,-0.0762837,0.0544332,0.0654772,-0.0925361,0.145013,-0.126072,-0.0831808,0.00793457,0.0421143,0.0358582,0.123253,0.0325775,0.133858,-0.0140762,0.0302505,-9.97986,0.030365,0.00469208,-0.0594711,-0.849838,-0.00720978,-0.00518799,0.0233078,0.0433731
15,7,-9.99003,0.00213623,0.00411987,-2.42592,0.0550706,-0.0747579,0.0571797,0.124681,-0.0846015,0.146539,-0.12241,-0.0816549,0.0115585,0.0500107,0.0593185,0.0785828,0.0344086,0.148544,-0.0170135,0.0359726,-9.97986,0.027771,0.00259399,-0.0618362,-0.816917,0.02285,-0.000457764,0.0215912,0.0440598
15,8,-2.43236,0.000305176,0.00549316,-2.42714,0.0538499,-0.0747579,0.0547383,0.145738,-0.0876533,0.145318,-0.121494,-0.0840963,0.0110626,0.0547791,0.0681305,0.0297928,0.0341415,0.159988,-0.0174332,0.0450516,-9.97986,0.0202942,0.00797272,-0.0640869,-0.794106,0.0288391,-0.00335693,0.0197601,0.0434113
15,9,5.64687,0.000915527,0.00762939,-2.42837,0.0535448,-0.0759786,0.0535176,0.153063,-0.088874,0.145013,-0.120578,-0.0847066,0.00900269,0.0616455,0.0676346,0.0184631,0.0344467,0.165215,-0.0228119,0.0586319,-9.97986,0.0128937,0.0056076,-0.0610352,-0.755997,0.0344086,-0.00385284,0.0161362,0.0476074
16,0,10.0097,0.00152588,0.00701904,-2.42959,0.0532396,-0.0771993,0.0516866,0.137499,-0.0925361,0.142267,-0.12363,-0.0871481,0.0108719,0.0524902,0.0606918,0.014534,0.0364304,0.171967,-0.00808716,0.0667572,-9.97986,0.00900269,-0.000572205,-0.0645447,-0.725021,0.0362396,-0.00499725,0.0148392,0.0476837
16,1,10.0097,0.000915527,0.00442505,-2.43111,0.0532396,-0.0765889,0.050771,0.094774,-0.0968086,0.143182,-0.125766,-0.0880636,0.00957489,0.0408936,0.0596619,-0.0159454,0.0367355,0.186539,0.0155258,0.0761414,-9.97986,0.0125885,0.000991821,-0.0649643,-0.686035,0.0456619,-0.000686646,0.0123596,0.0439072
16,2,10.0097,0.00152588,0.00289917,-2.42928,0.0538499,-0.0756734,0.0513814,0.0789049,-0.0965034,0.142572,-0.126682,-0.0874532,0.00404358,0.0343704,0.0596619,-0.0394821,0.0392532,0.181923,0.0346756,0.069313,-9.97986,0.00911713,-0.000267029,-0.0650406,-0.660744,0.0515366,-0.00339508,0.00644684,0.043869
16,3,10.0097,0.00183105,0.00289917,-2.42837,0.0547655,-0.0759786,0.0529073,0.0761583,-0.0952827,0.144403,-0.125766,-0.0850118,0.00652313,0.0352478,0.0691223,-0.03685,0.0356293,0.189781,0.0613785,0.0496292,-9.97986,0.0140381,0.00423431,-0.0643539,-0.62561,0.0579453,-0.00144958,0.00686646,0.0508881
16,4,10.0097,0.000915527,0.00473022,-2.42837,0.0550706,-0.0747579,0.0513814,0.0718859,-0.0943672,0.143792,-0.126377,-0.0840963,0.00614166,0.0427246,0.0704193,-0.0438309,0.0405121,0.189514,0.0860214,0.0365067,-9.97986,0.0147629,-0.00305176,-0.0638962,-0.567398,0.0637817,0.000991821,0.0037384,0.0477219
16,5,10.0097,0,0.00534058,-2.43233,0.055681,-0.075063,0.0532125,0.0691393,-0.0937568,0.144098,-0.125766,-0.0822652,0.0153351,0.0674057,0.070076,-0.0627899,0.0365067,0.193253,0.102005,0.0109482,-9.97986,0.0107193,-0.00385284,-0.0677872,-0.505867,0.0623322,0.000915527,-0.00118256,0.0492096
16,6,10.0097,-0.0012207,0.00579834,-2.42653,0.0550706,-0.0753682,0.0532125,0.0715807,-0.0919257,0.145929,-0.126072,-0.0816549,0.0162506,0.109329,0.0470734,-0.066185,0.0403595,0.206604,0.11837,-0.0106049,-9.97986,0.00804901,-0.0012207,-0.0653076,-0.439377,0.0673294,-0.00198364,-0.00160217,0.0475693
16,7,10.0097,0.000610352,0.00640869,-2.42501,0.0565965,-0.0729268,0.054128,0.0718859,-0.0916206,0.146844,-0.124546,-0.0798238,0.0114441,0.127106,0.0141144,-0.0387573,0.0392914,0.199585,0.154533,-0.014801,-9.97986,0.000648499,0.0043869,-0.0645828,-0.375824,0.0684738,-0.00595093,-0.00450134,0.0465393
16,8,10.0097,0.000305176,0.00579834,-2.42531,0.055681,-0.0729268,0.0553487,0.0728014,-0.0919257,0.147149,-0.123935,-0.0798238,0.00991821,0.129051,0.00827789,0.0242615,0.0376511,0.189667,0.1791,-0.00976563,-9.97986,-0.00217438,0.0119019,-0.0714111,-0.321732,0.0691223,-0.00854492,-0.00484467,0.0432205
16,9,10.0097,0.000610352,0.0050354,-2.42592,0.0569017,-0.0744527,0.0529073,0.0642565,-0.0937568,0.145624,-0.124851,-0.0798238,0.0114822,0.0976944,0.0158691,0.0495148,0.0347137,0.18364,0.195847,-0.0139999,-9.97986,-0.001297,0.0118256,-0.0674057,-0.279617,0.0727463,-0.00751495,-0.0130081,0.0455093
17,0,9.08071,0.00213623,0.0012207,-2.42745,0.0544603,-0.0747579,0.0513814,0.0114611,-0.100165,0.144403,-0.128818,-0.0813497,0.0137711,0.044632,0.0157928,0.0257874,0.0323105,0.181389,0.219498,-0.0131226,-9.97986,0.0075531,0.001297,-0.0682831,-0.249405,0.0783539,-0.00976563,-0.00930786,0.0440216
17,1,-0.484724,0.00152588,-0.000915527,-2.42653,0.0611742,-0.073232,0.0532125,-0.00654431,-0.0968086,0.145624,-0.128818,-0.080129,0.0127029,-0.0107574,-0.00968933,0.028801,0.0369263,0.173454,0.237617,-0.0154877,-9.97986,0.0113678,-0.00862122,-0.0653839,-0.214577,0.0778198,-0.0106812,-0.00995636,0.0445938
17,2,-7.80406,0.00213623,-0.00183105,-2.42501,0.0565965,-0.0747579,0.054128,-0.0190565,-0.0961982,0.145624,-0.129429,-0.0813497,0.0117111,-0.037384,-0.0206757,0.059967,0.0289154,0.170403,0.270004,-0.0249481,-9.97986,0.0165558,-0.0102234,-0.0670624,-0.192184,0.0798798,-0.00846863,-0.0102615,0.0442505
17,3,-9.99003,0.00274658,0,-2.42348,0.0572069,-0.0729268,0.0550435,0.0108507,-0.0919257,0.14776,-0.127903,-0.0798238,0.0136566,0.000572205,0.00762939,0.0619125,0.0315475,0.16716,0.298271,-0.0247955,-9.97986,0.0214767,-0.00198364,-0.0683594,-0.157433,0.0595856,-0.00694275,-0.0125885,0.0389862
17,4,-9.99003,-0.00152588,0.0012207,-2.42348,0.0559862,-0.0747579,0.0547383,0.047777,-0.0885688,0.14776,-0.126377,-0.0810445,0.0128174,0.0490952,0.0465393,0.00911713,0.0322342,0.163689,0.315018,-0.0233459,-9.97986,0.021553,0.00247955,-0.0637436,-0.150337,0.0575256,-0.0107574,-0.0116348,0.0410461
17,5,-9.99003,0.0012207,0.000457764,-2.42684,0.0553758,-0.075063,0.0544332,0.059984,-0.090705,0.145624,-0.126072,-0.0822652,0.0140762,0.0650024,0.057869,-0.0405502,0.0289536,0.154686,0.334473,-0.0241089,-9.97986,0.0189972,0.0018692,-0.0657272,-0.147209,0.0535583,-0.00907898,-0.0126266,0.0403976
17,6,-9.99003,-0.00152588,0.00167847,-2.42653,0.0565965,-0.0756734,0.054128,0.0660875,-0.0916206,0.143792,-0.126072,-0.0837911,0.0128174,0.0334167,0.0458908,-0.0678635,0.0270844,0.147285,0.361061,-0.00343323,-9.97986,0.0296783,0.00312805,-0.0641632,-0.139732,0.0557327,-0.00938416,-0.0141907,0.041275
17,7,-9.99003,0.000610352,0.000305176,-2.42379,0.0550706,-0.075063,0.0562642,0.128038,-0.0849067,0.144708,-0.122715,-0.0825704,0.00865936,-0.0366592,0.0113297,-0.0854874,0.0239944,0.140228,0.370331,0.00518799,-9.97986,0.0280762,0.00110626,-0.0638962,-0.184822,0.0808716,-0.0127029,-0.0178146,0.0365448
17,8,-2.59593,-0.000305176,-0.000152588,-2.42684,0.0547655,-0.0747579,0.0562642,0.145433,-0.0861274,0.144098,-0.121799,-0.0847066,0.0174713,-0.0510025,-0.0183868,-0.0946426,0.0290298,0.126114,0.389481,0.0157166,-9.97986,0.0294113,0.0075531,-0.0621796,-0.225677,0.0854492,-0.00843048,-0.0146484,0.034256
17,9,5.47078,-0.000915527,0.00289917,-2.42745,0.0544603,-0.0762837,0.0535176,0.153368,-0.0885688,0.143487,-0.120884,-0.0850118,0.0152588,-0.0210571,-0.0434875,-0.0653839,0.0258636,0.116425,0.39814,0.00904083,-9.97986,0.0222015,0.0109482,-0.0590515,-0.215073,0.0880432,-0.00953674,-0.0135803,0.0344849
18,0,10.0097,-0.000610352,0.00732422,-2.42623,0.0532396,-0.0762837,0.0510762,0.140856,-0.0934516,0.142877,-0.12241,-0.0856222,0.0178909,-0.0110626,-0.0650024,0.0130081,0.0215149,0.111656,0.404053,0.0031662,-9.97986,0.0216293,0.00572205,-0.0598145,-0.16037,0.0895691,-0.00751495,-0.0143433,0.0317001
18,1,10.0097,0.000305176,0.00717163,-2.4305,0.0532396,-0.0762837,0.0498555,0.0953844,-0.0977241,0.143182,-0.125156,-0.0865377,0.0181198,-0.0283051,-0.0857544,0.0710678,0.0270844,0.105057,0.408783,0.00263214,-9.97986,0.0216293,0.000190735,-0.0581741,-0.0733948,0.0854874,-0.00911713,-0.0126648,0.0334167
18,2,10.0097,0,0.00762939,-2.42989,0.0541551,-0.0753682,0.0510762,0.0801256,-0.0968086,0.144403,-0.126072,-0.085317,0.0161362,-0.0259399,-0.0779724,0.120239,0.0183487,0.0979996,0.420113,0.00125885,-9.97986,0.0196075,0.00541687,-0.0552368,0.00362396,0.0881577,-0.0108337,-0.010376,0.0325775
18,3,10.0097,0.000610352,0.00762939,-2.42714,0.055681,-0.0741475,0.0529073,0.0746324,-0.0937568,0.143792,-0.126377,-0.0844015,0.0144196,-0.0295258,-0.0509644,0.132599,0.0188065,0.0899124,0.421295,-0.00499725,-9.97986,0.0203323,-0.00087738,-0.0523758,0.0802994,0.090332,-0.00854492,-0.0135803,0.0284958
18,4,10.0097,0.000610352,0.00579834,-2.42745,0.0550706,-0.0744527,0.0526021,0.0731066,-0.094062,0.145013,-0.125766,-0.0831808,0.0159073,-0.0418854,-0.0440979,0.113144,0.0214005,0.0822449,0.425797,-0.00965118,-9.97986,0.021553,0.00400543,-0.0475311,0.121269,0.0900269,-0.00869751,-0.014801,0.0267792
18,5,10.0097,-0.000305176,0.00274658,-2.42714,0.055681,-0.0747579,0.0532125,0.0718859,-0.0928413,0.145318,-0.126377,-0.0834859,0.0114059,-0.045433,-0.050354,0.138779,0.0164795,0.0764084,0.424309,-0.0101471,-9.97986,0.0297928,0.00484467,-0.0472641,0.138206,0.0868225,-0.0082016,-0.0159836,0.026207
18,6,10.0097,-0.000610352,0.00457764,-2.42684,0.0559862,-0.0741475,0.0532125,0.0709703,-0.0928413,0.145013,-0.126377,-0.0822652,0.0144196,-0.0548172,-0.0402069,0.146561,0.0215149,0.0660324,0.424271,-0.00968933,-9.97986,0.0261688,0.00263214,-0.0427246,0.194778,0.080986,-0.0113678,-0.017662,0.023613
18,7,10.0097,0.000305176,0.00747681,-2.42501,0.0562914,-0.0726216,0.0538228,0.07036,-0.0922309,0.147455,-0.125156,-0.0798238,0.0135422,-0.0447845,-0.0219727,0.115852,0.0178146,0.0610733,0.424232,-0.00827789,-9.97986,0.0231934,0.00602722,-0.0421524,0.285988,0.0811386,-0.0137711,-0.0199127,0.0223923
18,8,10.0097,0.00183105,0.0088501,-2.4247,0.055681,-0.0735371,0.0550435,0.0715807,-0.0916206,0.145318,-0.122715,-0.0786031,0.00896454,-0.0243378,-0.0126648,0.0618744,0.0185394,0.0617218,0.424194,-0.00480652,-9.97986,0.0185013,0.00312805,-0.0418472,0.384598,0.0827408,-0.0104523,-0.0179672,0.0228119
18,9,10.0097,0.0012207,0.00900269,-2.42684,0.0569017,-0.0735371,0.0532125,0.0654772,-0.0934516,0.146539,-0.124241,-0.0789083,0.0104141,-0.0149536,0.00366211,0.0340271,0.0138092,0.0535583,0.419884,0.00331879,-9.97986,0.0217819,0.00808716,-0.0401688,0.484848,0.0852203,-0.0113297,-0.0162125,0.0162506
19,0,9.17684,0,0.00747681,-2.42745,0.055681,-0.0744527,0.0519917,0.0105455,-0.100471,0.146539,-0.127903,-0.0810445,0.0107193,-0.00110626,0.0331879,0.045166,0.0120926,0.0551987,0.418205,0.00354767,-9.97986,0.0188065,0.00350952,-0.0359344,0.579338,0.0836182,-0.0195694,-0.0179291,0.0178909
19,1,-0.294904,0.000610352,0.00610352,-2.42592,0.0559862,-0.0735371,0.054128,-0.00593396,-0.0961982,0.146539,-0.129123,-0.0798238,0.0043869,0.00724792,0.0574112,0.0595093,0.0165558,0.0510025,0.414543,-0.00434875,-9.97986,0.0190353,-0.000190735,-0.0350189,0.695686,0.0789261,-0.0159454,-0.0217438,0.0177002
19,2,-7.59807,0.000305176,0.00518799,-2.42501,0.0562914,-0.0735371,0.0535176,-0.0184462,-0.0965034,0.147149,-0.130649,-0.0789083,0.00652313,0.0188828,0.0745392,0.0600815,0.0149155,0.0470352,0.411568,0.00606537,-9.97986,0.0201797,-0.0030899,-0.0296402,0.789032,0.0756073,-0.0158691,-0.0191879,0.017128
19,3,-9.99003,-0.000915527,0.00640869,-2.42501,0.0559862,-0.0744527,0.0550435,0.00963,-0.0937568,0.145929,-0.128818,-0.0776876,0.00881195,0.0228119,0.07164,0.0362778,0.0123215,0.0436401,0.401764,0.0108719,-9.97986,0.0164795,-0.00553131,-0.0282669,0.874214,0.0559235,-0.0144958,-0.0162888,0.0162125
19,4,-9.99003,0.000610352,0.00869751,-2.4247,0.0553758,-0.073232,0.0562642,0.0462511,-0.0894843,0.146844,-0.126682,-0.0779928,0.00907898,0.0289917,0.055275,0.0235367,0.00988007,0.0363922,0.387993,0.0222397,-9.97986,0.0217438,-0.000534058,-0.0255585,0.986366,0.0498962,-0.0102234,-0.0143433,0.0112152
19,5,-9.99003,-0.000915527,0.00930786,-2.42531,0.0550706,-0.0744527,0.055959,0.0590685,-0.0897895,0.145624,-0.126072,-0.0804342,0.00598907,0.0315094,0.0283432,0.0100327,0.011673,0.0344849,0.367317,0.0292969,-9.97986,0.0127411,0.00495911,-0.023613,1.06483,0.0475311,-0.00572205,-0.0109482,0.0111008
19,6,-9.99003,-0.0012207,0.00732422,-2.42714,0.0553758,-0.0747579,0.0547383,0.0654772,-0.0913154,0.144403,-0.126377,-0.0807394,0.00904083,0.036087,0.0107193,-0.0243378,0.0119019,0.0318527,0.32486,0.0431824,-9.97986,0.0161743,0.000534058,-0.018425,1.12652,0.0492859,-0.00457764,-0.00652313,0.00812531
19,7,-9.99003,-0.0012207,0.0108337,-2.42592,0.0553758,-0.075063,0.0577901,0.129259,-0.0852119,0.145318,-0.121799,-0.0807394,0.00984192,0.03582,-0.00823975,-0.0230408,0.00915527,0.0310135,0.268631,0.0527954,-9.97986,0.0157928,0.000534058,-0.0175095,1.22074,0.075264,-0.00492096,-0.00415802,0.00686646
19,8,-2.23643,0.00152588,0.0119019,-2.42714,0.0547655,-0.0753682,0.0553487,0.146044,-0.0870429,0.145013,-0.121799,-0.0822652,0.00526428,0.0276947,-0.0296402,-0.00247955,0.00869751,0.0311661,0.206757,0.057106,-9.97986,0.0144958,0.00247955,-0.0201416,1.24996,0.0776672,-0.00682831,0.000915527,0.00747681
19,9,5.83821,-0.00152588,0.0123596,-2.42928,0.0538499,-0.0771993,0.0535176,0.155809,-0.0900947,0.143487,-0.121189,-0.0825704,0.00518799,0.0388336,-0.0260544,0.0127411,-0.00038147,0.0267029,0.140762,0.0572968,-9.97986,0.0101471,0.00457764,-0.0176239,1.24996,0.0809479,-0.00640869,0.00133514,0.00667572
20,0,10.0097,-0.000610352,0.0134277,-2.4302,0.0535448,-0.0771993,0.0516866,0.135973,-0.094062,0.143792,-0.123935,-0.0844015,0.0094223,0.0515747,-0.00450134,0.0110626,-0.012207,0.020752,0.0706482,0.0501251,-9.97986,0.00534058,0.00621796,-0.0136185,1.24996,0.0802994,-0.0088501,0.0012207,0.00511169
20,1,10.0097,0.00152588,0.0100708,-2.4302,0.0544603,-0.0756734,0.0498555,0.0938585,-0.0983344,0.142877,-0.125461,-0.0862325,0.00724792,0.0555801,0.0118637,0.0149536,-0.0210953,0.0180054,-0.000267029,0.0546646,-9.97986,0.0038147,-0.00141144,-0.00804901,1.24996,0.0846863,-0.00610352,0.0069809,0.00583649
20,2,10.0097,0.00183105,0.00656128,-2.4302,0.0535448,-0.0753682,0.050771,0.0792101,-0.0974189,0.143487,-0.126987,-0.0868429,0.0111389,0.0341797,0.0268936,0.00289917,-0.0312424,0.00858307,-0.0531006,0.0627899,-9.97986,0.00331879,0.00480652,-0.0120926,1.24996,0.0876617,-0.00835419,0.0149155,0.00167847
20,3,10.0097,0,0.00717163,-2.42837,0.0541551,-0.0756734,0.0522969,0.0740221,-0.0949775,0.142572,-0.126072,-0.0834859,0.0102234,-0.00339508,0.0340271,-0.0174332,-0.0352097,0.0031662,-0.108185,0.0619125,-9.97986,0.000915527,0.00904083,-0.00740051,1.24996,0.0849915,-0.00526428,0.0177765,0.00221252
20,4,10.0097,0,0.00610352,-2.42745,0.0547655,-0.0756734,0.0522969,0.0718859,-0.0946723,0.144098,-0.125461,-0.0834859,0.0130081,-0.0146484,0.0379944,-0.0546265,-0.0429916,-0.00343323,-0.148201,0.0466919,-9.97986,-0.00576019,0.0037384,-0.0112152,1.24996,0.0773239,-0.010643,0.0149155,-0.00267029
20,5,10.0097,-0.00183105,0.00488281,-2.42745,0.0553758,-0.0747579,0.0532125,0.0718859,-0.094062,0.144403,-0.126377,-0.0828756,0.0146103,0.00495911,0.0522232,-0.0706482,-0.045433,-0.0121307,-0.173683,0.0383759,-9.97986,-0.000762939,0.00179291,-0.0119781,1.24996,0.0760651,-0.00644684,0.0218964,-0.00106812
20,6,10.0097,0.000915527,0.00244141,-2.42562,0.0541551,-0.0741475,0.0532125,0.0709703,-0.0928413,0.144708,-0.125766,-0.0837911,0.0159836,0.0149155,0.0523758,-0.0356293,-0.0595093,-0.0177383,-0.203552,0.0245285,-9.97986,-0.000991821,-0.00366211,-0.00816345,1.24996,0.0698471,-0.0131989,0.0209427,-0.00106812
20,7,10.0097,0.0012207,0,-2.42074,0.0569017,-0.0738423,0.0550435,0.0706652,-0.0913154,0.147455,-0.124546,-0.0831808,0.0118256,0.0245285,0.0564194,-0.0145721,-0.0704575,-0.00846863,-0.200081,0.0167465,-9.97986,-0.0030899,-0.000343323,-0.00808716,1.24996,0.072403,-0.0152969,0.0220108,0.000343323
20,8,10.0097,0.000305176,-0.000915527,-2.42592,0.0550706,-0.0753682,0.0538228,0.0712755,-0.0925361,0.146844,-0.124546,-0.0816549,0.0145721,0.0363922,0.0548172,-0.0349808,-0.0822449,-0.015831,-0.196648,0.00408173,-9.97986,-0.00499725,0.00740051,-0.00679016,1.24996,0.0711441,-0.014801,0.0233078,-0.00183105
20,9,10.0097,-0.000305176,-0.00350952,-2.42501,0.0559862,-0.0738423,0.054128,0.0615099,-0.0934516,0.146844,-0.124546,-0.0825704,0.0105667,0.0556183,0.0443649,-0.0283813,-0.0915909,-0.0172424,-0.174904,-0.00995636,-9.97986,-0.00202179,-0.00125885,-0.00465393,1.24996,0.0697708,-0.0134277,0.0289154,-0.00156403
21,0,8.85762,0.000305176,-0.00610352,-2.42653,0.0559862,-0.0768941,0.0513814,0.0102404,-0.0989448,0.146844,-0.128818,-0.0844015,0.013237,0.060463,0.034523,-0.051918,-0.103188,-0.0235748,-0.152397,-0.0143051,-9.97986,0.00259399,-0.00263214,-0.0094223,1.24996,0.0724792,-0.0197601,0.0254059,-0.00427246
21,1,-0.68736,-0.00244141,-0.0088501,-2.42653,0.0572069,-0.0738423,0.0532125,-0.00623914,-0.0961982,0.147455,-0.128513,-0.0831808,0.0116348,0.0807953,0.0314713,-0.0995255,-0.121346,-0.0237274,-0.128822,-0.0271606,-9.97986,0.00846863,0.00144958,-0.00392914,1.24996,0.0723648,-0.0180054,0.034256,-0.0056839
21,2,-7.95939,0.000915527,-0.010376,-2.42562,0.0569017,-0.073232,0.0529073,-0.0184462,-0.0974189,0.146539,-0.128818,-0.0837911,0.0104523,0.0570679,0.0177765,-0.11795,-0.12001,-0.0237656,-0.113983,-0.0333023,-9.97986,0.010376,-0.000534058,-0.00141144,1.24996,0.0740433,-0.0179291,0.0328064,-0.00389099
21,3,-9.99003,0.000610352,-0.00961304,-2.4247,0.0569017,-0.0738423,0.055959,0.0135973,-0.0916206,0.144708,-0.127598,-0.0819601,0.0111389,-0.0069809,7.62939e-005,-0.0741577,-0.124283,-0.0218582,-0.106277,-0.0286102,-9.97986,0.0125122,-0.00495911,-0.00350952,1.24996,0.0459671,-0.0164032,0.0369263,-0.00419617
21,4,-9.99003,0.00183105,-0.0062561,-2.4244,0.055681,-0.0744527,0.0568746,0.0483873,-0.0900947,0.145013,-0.126987,-0.0825704,0.0148392,-0.0274277,-0.00175476,-0.00190735,-0.132599,-0.0208664,-0.104485,-0.0201797,-9.97986,0.0158691,-0.00762939,0.000686646,1.24996,0.0508118,-0.0123215,0.0392914,-0.00694275
21,5,-9.99003,0.0012207,-0.00640869,-2.42684,0.055681,-0.0744527,0.0565694,0.0584581,-0.0910102,0.146844,-0.125461,-0.0844015,0.0117493,-0.00545502,0.00450134,0.0620651,-0.13752,-0.0147629,-0.108528,-0.0106049,-9.97986,0.0221634,-0.00907898,-0.00133514,1.24996,0.0534439,-0.00896454,0.0418854,-0.00854492
21,6,-9.99003,0.00213623,-0.00732422,-2.42653,0.0553758,-0.0747579,0.0550435,0.0642565,-0.0928413,0.145013,-0.125766,-0.0856222,0.00598907,0.00274658,0.0266266,0.108604,-0.14122,-0.0119019,-0.108261,0.00431061,-9.97986,0.0230026,-0.00984192,0.00408173,1.22025,0.053978,-0.00526428,0.0440979,-0.00347137
21,7,-9.99003,0.000610352,-0.00579834,-2.42623,0.0544603,-0.0753682,0.0556539,0.128954,-0.0864326,0.145624,-0.121799,-0.0844015,0.00816345,0.00209808,0.0410843,0.129166,-0.138283,-0.000915527,-0.10952,0.00602722,-9.97986,0.0263214,-0.0144958,0.0018692,1.12453,0.0749969,-0.0062561,0.0423813,-0.0069046
21,8,-2.60814,0.00152588,-0.00656128,-2.42684,0.0538499,-0.0765889,0.0547383,0.144823,-0.0879585,0.144403,-0.121189,-0.0883688,0.00656128,-0.00278473,0.0341415,0.125809,-0.14267,-0.000457764,-0.104332,0.0122452,-9.97986,0.0254059,-0.0191498,0.00411987,1.01093,0.0767136,0.00106812,0.0450897,-0.00419617
21,9,5.43141,0.0012207,-0.0062561,-2.42837,0.0535448,-0.0756734,0.0538228,0.153368,-0.0897895,0.143182,-0.121799,-0.0883688,0.00812531,0.00911713,0.02491,0.0865936,-0.14183,0.000190735,-0.116005,0.0177383,-9.97986,0.0269318,-0.0144196,0.00843048,0.894089,0.0733566,-7.62939e-005,0.0473022,-0.00717163
22,0,10.0097,0.000610352,-0.0062561,-2.42989,0.0529344,-0.0778096,0.050771,0.141771,-0.0925361,0.145013,-0.122104,-0.0901998,0.00671387,0.0189209,0.019455,0.0393295,-0.144386,0.00141144,-0.119133,0.0177383,-9.97986,0.0247192,-0.0112915,0.00038147,0.787849,0.0728226,-0.000953674,0.051384,-0.00553131
22,1,10.0097,-0.000610352,-0.00778198,-2.4302,0.0535448,-0.0762837,0.0495503,0.0953844,-0.0965034,0.142572,-0.125766,-0.092336,0.0069046,0.030632,0.018425,0.0202179,-0.139542,0.0112534,-0.116692,0.0160599,-9.97986,0.0214767,-0.0177383,0.00801086,0.69046,0.0716019,-0.00102997,0.0465012,-0.00701904
22,2,10.0097,0,-0.00976563,-2.4302,0.0547655,-0.0759786,0.0510762,0.080736,-0.0965034,0.144098,-0.126377,-0.0914205,0.00495911,0.0331879,0.00675201,0.0037384,-0.138664,0.0114441,-0.119438,0.0175476,-9.97986,0.021286,-0.0182724,0.00827789,0.592308,0.0698853,0.000343323,0.0488281,-0.0069046
22,3,10.0097,-0.000305176,-0.00991821,-2.42837,0.0544603,-0.0765889,0.0519917,0.0743273,-0.0952827,0.143792,-0.126682,-0.0892843,0.00343323,0.0398254,0.00408173,-0.0111771,-0.129509,0.0196075,-0.125122,0.0157166,-9.97986,0.0214005,-0.0131607,0.00907898,0.486298,0.0712204,-0.00114441,0.0501633,-0.00644684
22,4,10.0097,0.000610352,-0.00930786,-2.42776,0.0538499,-0.0741475,0.0535176,0.0715807,-0.0937568,0.144708,-0.126072,-0.0883688,0.00736237,0.0428391,0.00164032,-0.0254822,-0.121498,0.0361252,-0.121346,0.0175095,-9.97986,0.0192261,-0.0167465,0.00850677,0.385246,0.0701523,-0.000610352,0.0508118,-0.00808716
22,5,10.0097,0.00152588,-0.00915527,-2.42684,0.0529344,-0.0744527,0.0535176,0.07036,-0.0934516,0.145013,-0.125156,-0.0865377,0.00736237,0.0448227,0.00164032,-0.0379944,-0.11158,0.0419998,-0.117035,0.0175858,-9.97986,0.0185013,-0.0104523,0.00843048,0.29644,0.0690079,0.00339508,0.0532532,-0.00473022
22,6,10.0097,0.00213623,-0.00930786,-2.42623,0.0572069,-0.0753682,0.0532125,0.0734117,-0.0931465,0.145929,-0.125461,-0.0865377,0.010376,0.0378799,-0.00926971,-0.0445175,-0.101471,0.0442886,-0.121078,0.0139236,-9.97986,0.0204086,-0.0115585,0.0112534,0.206261,0.0662994,0.00156403,0.053215,-0.00431061
22,7,10.0097,-0.000610352,-0.00869751,-2.42562,0.055681,-0.0738423,0.0550435,0.0718859,-0.0919257,0.145624,-0.124851,-0.0868429,0.0149155,0.032692,-0.0117874,-0.0500488,-0.102386,0.0498199,-0.119591,0.0128174,-9.97986,0.0157166,-0.0139236,0.0104523,0.109825,0.0623322,0.00267029,0.0548935,-0.00389099
22,8,10.0097,-0.000305176,-0.00900269,-2.42592,0.0541551,-0.0741475,0.0547383,0.072191,-0.0919257,0.146844,-0.124546,-0.0844015,0.0138474,0.0353622,-0.00453949,0.0210571,-0.0837708,0.0542831,-0.122299,0.0101089,-9.97986,0.0164032,-0.00637054,0.0162125,0.0146866,0.0632477,0.00701904,0.0571442,-0.00320435
22,9,10.0097,0.0012207,-0.00976563,-2.42684,0.055681,-0.0741475,0.0535176,0.0615099,-0.0931465,0.145318,-0.125766,-0.0844015,0.00991821,0.033989,0.00415802,0.0632477,-0.0830841,0.0573349,-0.126152,0.0128937,-9.97986,0.0130844,-0.01297,0.0148773,-0.0925064,0.05867,0.0056076,0.0508118,-0.00736237
23,0,8.94063,-0.0012207,-0.012207,-2.42745,0.0575121,-0.0756734,0.0529073,0.0108507,-0.0998603,0.146234,-0.129734,-0.0871481,0.014267,0.0294876,0.0161362,0.0563431,-0.0701141,0.0658417,-0.12291,0.0335312,-9.97986,0.0195694,-0.0169373,0.0177002,-0.187569,0.0611496,0.00621796,0.0530243,-0.00267029
23,1,-0.620527,0.00152588,-0.0138855,-2.42653,0.0572069,-0.0738423,0.054128,-0.00623914,-0.0968086,0.147149,-0.128818,-0.0831808,0.0087738,0.0402832,0.0283813,0.067749,-0.0627518,0.0640488,-0.12825,0.0455093,-9.97986,0.0137711,-0.0164795,0.0167847,-0.270042,0.0590515,0.00583649,0.0534058,-0.00484467
23,2,-7.9127,0.000305176,-0.0115967,-2.42501,0.055681,-0.0738423,0.054128,-0.0196669,-0.0965034,0.147149,-0.130344,-0.0837911,0.00713348,0.0639725,0.0537491,0.0780106,-0.0563812,0.0719833,-0.120697,0.0540924,-9.97986,0.0148773,-0.00774384,0.0162125,-0.332146,0.0604248,0.00141144,0.0569916,-0.00736237
23,3,-9.99003,-0.000305176,-0.00900269,-2.4247,0.0562914,-0.0729268,0.0553487,0.0126818,-0.0937568,0.14776,-0.127292,-0.0819601,0.00564575,0.0706863,0.06073,0.0787354,-0.0548553,0.0769043,-0.115128,0.0523376,-9.97986,0.013237,0.0019455,0.0159836,-0.369034,0.0309372,0.00263214,0.0540543,-0.00572205
23,4,-9.99003,-0.000915527,-0.00473022,-2.42531,0.0569017,-0.0744527,0.0574849,0.047777,-0.0903999,0.145929,-0.126072,-0.0813497,0.00583649,0.0409698,0.0601959,0.0644684,-0.0405502,0.075264,-0.111198,0.0567627,-9.97986,0.0164413,0.0130463,0.0162506,-0.404892,0.0266266,0.000343323,0.0497818,-0.0050354
23,5,-9.99003,0.000610352,-0.00305176,-2.42653,0.0559862,-0.0747579,0.0544332,0.0596788,-0.095893,0.144708,-0.126377,-0.0834859,0.00431061,-0.015564,0.0537872,0.0519943,-0.0294113,0.0747299,-0.10807,0.0484848,-9.97986,0.0167084,0.0207138,0.0168991,-0.423508,0.0254822,0.000267029,0.0508881,-0.0043869
23,6,-9.99003,-0.000610352,-0.00198364,-2.42623,0.0553758,-0.0759786,0.0547383,0.0657823,-0.0928413,0.145013,-0.126072,-0.0828756,0.00904083,-0.0286865,0.0462723,0.0460815,-0.0323486,0.0747299,-0.100098,0.0289917,-9.97986,0.0179291,0.0312042,0.0167084,-0.427589,0.02491,-0.000572205,0.050087,-0.00213623
23,7,-9.99003,-0.000305176,0.000610352,-2.42531,0.0553758,-0.0735371,0.0565694,0.127428,-0.0842964,0.145929,-0.122104,-0.0828756,0.00556946,-0.00263214,0.0336456,0.0344086,-0.0211716,0.0732422,-0.0969696,-0.00217438,-9.97986,0.0196838,0.0318146,0.0191879,-0.429115,0.042572,-0.000228882,0.0477219,-0.000915527
23,8,-2.55778,0.000305176,0.00320435,-2.42745,0.0541551,-0.0753682,0.054128,0.145128,-0.0861274,0.144708,-0.121189,-0.0834859,0.00675201,0.0130463,0.0151825,0.030365,-0.0144577,0.0705719,-0.0944138,-0.01091,-9.97986,0.0173569,0.0368881,0.020256,-0.433769,0.0392151,0.00484467,0.0450134,-0.00213623
23,9,5.59194,0.000610352,0.00427246,-2.42837,0.0535448,-0.0756734,0.0526021,0.153063,-0.0891792,0.143792,-0.121799,-0.0850118,0.00869751,0.0194168,0.00602722,0.0318146,-0.00682831,0.071907,-0.0884247,-0.00358582,-9.97986,0.013504,0.0236893,0.020256,-0.433083,0.0402069,0.00659943,0.0484848,-0.00392914
24,0,10.0097,-0.000305176,0.00350952,-2.43142,0.0523241,-0.0765889,0.050771,0.13933,-0.0928413,0.144098,-0.123325,-0.0874532,0.0134659,0.0331116,0.00831604,0.018692,0.000610352,0.069809,-0.08461,0.00537872,-9.97986,0.0119019,0.0106049,0.0218582,-0.438423,0.040741,0.00762939,0.0456619,0.000305176
24,1,10.0097,0.000915527,0.000762939,-2.43111,0.0538499,-0.0771993,0.0498555,0.094774,-0.0974189,0.143792,-0.126377,-0.0880636,0.0107956,0.043602,0.00244141,0.0231934,0.00514984,0.0676727,-0.0814056,0.0196075,-9.97986,0.00934601,0.0107956,0.0197983,-0.436172,0.0432587,0.00919342,0.0399399,-0.00160217
24,2,10.0097,-0.000305176,0.000305176,-2.4302,0.0529344,-0.0768941,0.0513814,0.0798204,-0.0952827,0.142877,-0.126682,-0.0883688,0.00843048,0.0181198,0.00114441,0.00335693,0.0135422,0.0684738,-0.0761795,0.0266266,-9.97986,0.0130081,0.00305176,0.0232697,-0.437737,0.0373077,0.00782013,0.0397873,0.00133514
24,3,10.0097,0.000915527,-0.000915527,-2.42928,0.0532396,-0.0753682,0.0510762,0.0737169,-0.0949775,0.143487,-0.126377,-0.0865377,0.0115967,0.0056076,-0.00278473,-0.0307465,0.0168991,0.0667953,-0.0744247,0.0281143,-9.97986,0.0136185,0.00171661,0.0242996,-0.445938,0.0330734,0.00537872,0.0374985,0.00270844
24,4,10.0097,0,-0.000915527,-2.42867,0.055681,-0.0753682,0.0532125,0.0715807,-0.0937568,0.145013,-0.126072,-0.0862325,0.0101852,0.022583,0.0101471,-0.0291443,0.0187683,0.0609207,-0.072937,0.031395,-9.97986,0.0106049,-0.00156403,0.0259781,-0.450249,0.0331879,0.00442505,0.0351715,0.00133514
24,5,10.0097,0.00183105,-0.0012207,-2.42684,0.0553758,-0.0744527,0.0535176,0.0715807,-0.0925361,0.144403,-0.126377,-0.0850118,0.00904083,0.0349808,0.0177002,-0.0299072,0.0282288,0.0611877,-0.0704956,0.026474,-9.97986,0.0127792,-0.00598907,0.0280762,-0.462952,0.0329208,0.0037384,0.0324631,0.00255585
24,6,10.0097,-0.0012207,-0.000610352,-2.42653,0.0547655,-0.0744527,0.054128,0.0697496,-0.0934516,0.145318,-0.125461,-0.0834859,0.0121307,0.0358582,0.0217438,-0.0510025,0.0296021,0.0566483,-0.0634003,0.023613,-9.97986,0.00984192,-0.00152588,0.0276566,-0.474396,0.0307465,0.00312805,0.0291824,0.000190735
24,7,10.0097,-0.000305176,0.000305176,-2.42531,0.0559862,-0.0741475,0.0538228,0.0709703,-0.0922309,0.148675,-0.125156,-0.0816549,0.0106812,0.0374222,0.0379562,-0.0811005,0.0364304,0.0504303,-0.0600433,0.0170135,-9.97986,0.0123215,0.001297,0.0230026,-0.473442,0.0392914,0.00465393,0.028038,-0.000610352
24,8,10.0097,-0.000610352,-0.000915527,-2.42501,0.0559862,-0.0741475,0.0547383,0.0728014,-0.0919257,0.146539,-0.124546,-0.0813497,0.0121307,0.0397873,0.0461578,-0.102921,0.0342941,0.0470734,-0.0599289,-0.00137329,-9.97986,0.00938416,0.000991821,0.0210953,-0.476189,0.0495148,0.00556946,0.030632,0.00171661
24,9,10.0097,0.000610352,-0.000610352,-2.42653,0.0562914,-0.0744527,0.0538228,0.0639513,-0.0922309,0.146844,-0.124851,-0.0822652,0.00831604,0.041008,0.0458527,-0.0937271,0.0416946,0.0428772,-0.0570297,-0.00579834,-9.97986,0.0105667,-0.00453949,0.0222778,-0.484848,0.0681305,0.00610352,0.0257492,0.00461578
25,0,9.04775,0.000305176,-0.00305176,-2.42806,0.0553758,-0.0744527,0.0529073,0.00993518,-0.0998603,0.143487,-0.129734,-0.0847066,0.0111389,0.0408936,0.0376129,-0.077095,0.0489426,0.0393677,-0.0605011,3.8147e-005,-9.97986,0.00934601,-0.00350952,0.0260925,-0.501289,0.0838852,0.00286102,0.0209427,0.00141144
25,1,-0.542097,0.000915527,-0.00640869,-2.42684,0.0581224,-0.0738423,0.0532125,-0.00562879,-0.0971137,0.147149,-0.130039,-0.0825704,0.00743866,0.0360107,0.0350189,-0.0601959,0.0499344,0.033493,-0.0541306,-0.000419617,-9.97986,0.00953674,-0.00865936,0.0270462,-0.510597,0.0858688,-0.00286102,0.0191116,0.0012207
25,2,-7.78422,-0.000610352,-0.00564575,-2.42501,0.0559862,-0.0735371,0.0547383,-0.0196669,-0.0965034,0.147149,-0.129429,-0.0822652,0.00900269,0.0278854,0.0286484,-0.0181961,0.0519562,0.0276566,-0.0485611,0.00331879,-9.97986,0.0138474,-0.00278473,0.0267792,-0.523872,0.0828934,-0.00843048,0.0217819,0.000534058
25,3,-9.99003,-0.000610352,-0.0038147,-2.42531,0.0569017,-0.0738423,0.0556539,0.0102404,-0.0931465,0.148065,-0.129123,-0.0816549,0.0131607,0.0263977,0.0346756,0.00980377,0.0614548,0.0235367,-0.0505829,-0.0037384,-9.97986,0.0123978,-0.00236511,0.0244522,-0.531883,0.0395966,-0.0138855,0.0207138,-0.000114441
25,4,-9.99003,0.000305176,-0.00305176,-2.4244,0.0569017,-0.0744527,0.0565694,0.0459459,-0.0903999,0.143792,-0.126987,-0.0816549,0.0043869,0.0321198,0.0410461,-0.000419617,0.0562286,0.0146484,-0.0531387,-0.00869751,-9.97986,0.0145721,-0.00507355,0.0266266,-0.550499,-0.00152588,-0.00850677,0.0163651,-0.00213623
25,5,-9.99003,0,-0.00167847,-2.42501,0.0569017,-0.0747579,0.055959,0.0593737,-0.0922309,0.145624,-0.126377,-0.0831808,0.00919342,0.0407791,0.0424194,-0.0234222,0.0664139,0.00682831,-0.0423813,-0.00881195,-9.97986,0.0136566,-0.00743866,0.0317001,-0.56057,-0.0369644,-0.00270844,0.0186539,0.00450134
25,6,-9.99003,0.000305176,-0.0012207,-2.42653,0.0547655,-0.0738423,0.0535176,0.0666979,-0.0931465,0.142267,-0.124851,-0.0828756,0.0102997,0.0536346,0.0284195,0.00953674,0.0691986,-0.00335693,-0.0460434,0.000190735,-9.97986,0.0158691,-0.0056076,0.0288391,-0.567322,-0.0743484,-0.00968933,0.0175476,0.001297
25,7,-9.99003,0,0.00228882,-2.42501,0.0562914,-0.0744527,0.0568746,0.130174,-0.0842964,0.144098,-0.121799,-0.0825704,0.00865936,0.039711,0.0118637,0.044136,0.0679779,-0.00701904,-0.0486374,0.00480652,-9.97986,0.0201035,-0.0087738,0.031929,-0.569954,-0.0714874,-0.00530243,0.0154114,-0.00038147
25,8,-2.14488,0.000915527,0.00228882,-2.42623,0.0541551,-0.075063,0.0550435,0.146959,-0.0876533,0.142877,-0.121189,-0.0844015,0.0056076,0.0165558,0.0056839,0.0273514,0.0680923,-0.014534,-0.0468063,0.012207,-9.97986,0.0183487,-0.00770569,0.0279999,-0.573044,-0.080719,-0.00118256,0.00957489,-0.000839233
25,9,5.94411,0.000610352,0.00411987,-2.42837,0.0544603,-0.0756734,0.054128,0.152452,-0.0919257,0.142877,-0.122104,-0.0859274,0.0102997,0.0159454,0.00789642,0.0307083,0.0727844,-0.0192261,-0.046463,0.0136948,-9.97986,0.0196075,-0.00621796,0.0265884,-0.574837,-0.0774384,0.00183105,0.00816345,-0.000419617
26,0,10.0097,-0.000915527,0.0038147,-2.42928,0.0523241,-0.0759786,0.050771,0.134447,-0.0946723,0.141656,-0.122715,-0.0880636,0.00946045,0.0130081,0.00354767,0.0554276,0.0740433,-0.0265884,-0.0449371,0.0153732,-9.97986,0.016098,-0.00713348,0.0285339,-0.562668,-0.0712585,-0.00411987,0.0123215,-0.00141144
26,1,10.0097,0.000305176,0.00152588,-2.42989,0.0538499,-0.0768941,0.0501607,0.0938585,-0.0971137,0.142267,-0.126072,-0.0889791,0.00934601,0.00907898,-0.00671387,0.0844574,0.0700378,-0.0331879,-0.045433,0.0138474,-9.97986,0.0199127,-0.00926971,0.029335,-0.555534,-0.0606918,-0.0164413,0.00740051,-0.00255585
26,2,10.0097,0.0012207,0.000610352,-2.4302,0.0541551,-0.0759786,0.0513814,0.0789049,-0.0961982,0.145318,-0.126987,-0.0883688,0.00988007,0.0137711,-0.00488281,0.0460815,0.0708771,-0.0399017,-0.0495148,0.0154495,-9.97986,0.0182343,-0.0135803,0.0285339,-0.550919,-0.047226,-0.014267,0.00713348,0.000534058
26,3,10.0097,-0.000610352,0.000457764,-2.42837,0.0547655,-0.0762837,0.0513814,0.0752428,-0.0943672,0.144403,-0.126682,-0.0874532,0.00717163,0.0175095,0.0056076,0.00762939,0.0740433,-0.0422668,-0.0487137,0.0279236,-9.97986,0.0173569,-0.0157166,0.0308609,-0.54554,-0.0349426,-0.00377655,0.00835419,-0.000572205
26,4,10.0097,0.000610352,0.000915527,-2.42776,0.0547655,-0.0747579,0.0532125,0.072191,-0.0943672,0.144403,-0.126682,-0.0844015,0.00751495,0.0244141,0.0114822,0.00953674,0.0754166,-0.0456619,-0.0445557,0.0277328,-9.97986,0.0140762,-0.0151825,0.0302124,-0.531502,-0.0196457,-0.000610352,0.00339508,0.00297546
26,5,10.0097,0.00152588,0.00152588,-2.42592,0.0550706,-0.0756734,0.054128,0.0715807,-0.0931465,0.143792,-0.125461,-0.0840963,0.0107574,0.0354767,0.018959,0.0271988,0.0746155,-0.0480652,-0.0431824,0.0304794,-9.97986,0.0165558,-0.0173187,0.0301361,-0.518265,-0.0115967,-0.00377655,0.00278473,-0.00354767
26,6,10.0097,0.000610352,0.00274658,-2.42776,0.055681,-0.0741475,0.0535176,0.0706652,-0.0934516,0.145624,-0.125766,-0.0837911,0.00835419,0.0367737,0.0201416,0.0407028,0.0761032,-0.0519943,-0.0406265,0.0256729,-9.97986,0.0136948,-0.017128,0.0245285,-0.49614,-0.020752,-0.00404358,-0.00190735,-0.00297546
26,7,10.0097,0,0.00305176,-2.4244,0.0559862,-0.0723164,0.054128,0.0709703,-0.0925361,0.146539,-0.125156,-0.0822652,0.00892639,0.0292587,0.020752,0.0495911,0.0743103,-0.0602341,-0.0426483,0.0239563,-9.97986,0.0165176,-0.018425,0.0282669,-0.472031,-0.0272751,-0.00671387,0.00118256,-0.00244141
26,8,10.0097,0,0.00213623,-2.4244,0.055681,-0.0738423,0.0544332,0.0728014,-0.0937568,0.14837,-0.123935,-0.0807394,0.011673,0.0288391,0.0209045,0.0377274,0.0728226,-0.0621796,-0.0436783,0.0238419,-9.97986,0.0124359,-0.0107193,0.0286484,-0.444908,-0.0437927,-0.00305176,0.00331879,-0.00038147
26,9,10.0097,-0.000610352,0.00198364,-2.42776,0.0553758,-0.075063,0.0538228,0.0615099,-0.0937568,0.145929,-0.124546,-0.0813497,0.00923157,0.0353241,0.0193024,0.0309372,0.0679016,-0.0629425,-0.0387573,0.0233459,-9.97986,0.0129318,-0.0102234,0.026741,-0.420036,-0.0602722,0.00160217,0.00209808,-0.00331879
27,0,8.96108,0.000915527,0.00137329,-2.42776,0.055681,-0.0738423,0.0516866,0.0102404,-0.0989448,0.145624,-0.128208,-0.0825704,0.00648499,0.0342178,0.021553,0.0252914,0.0723648,-0.0688171,-0.0376511,0.022583,-9.97986,0.0130081,-0.010643,0.0280762,-0.387344,-0.0728226,-0.00614166,0.00556946,0.0037384
27,1,-0.561933,0.000610352,-0.00183105,-2.42653,0.0553758,-0.0741475,0.054128,-0.00379773,-0.095893,0.147455,-0.129123,-0.0816549,0.00999451,0.0337219,0.0177383,0.0195313,0.0723648,-0.0675201,-0.027504,0.0279236,-9.97986,0.0130463,-0.0107193,0.0304031,-0.365295,-0.0814819,0.00175476,0.0062561,0.000343323
27,2,-7.84587,0.000305176,-0.00289917,-2.42653,0.0562914,-0.0744527,0.054128,-0.019972,-0.0974189,0.146234,-0.130649,-0.0810445,0.0134277,0.0348663,0.018692,0.0210953,0.0721359,-0.068779,-0.0183487,0.0323105,-9.97986,0.0143051,-0.0129318,0.0291443,-0.350189,-0.0837708,0.013504,-0.00244141,-0.00198364
27,3,-9.99003,-0.000305176,-0.00137329,-2.42409,0.0562914,-0.0729268,0.055959,0.0111559,-0.0922309,0.147149,-0.129429,-0.0804342,0.00896454,0.033989,0.0178909,0.0156403,0.0690842,-0.0708389,-0.0141907,0.0335693,-9.97986,0.0165939,-0.0101852,0.0317383,-0.331078,-0.0974274,0.013237,0.00331879,0.000610352
27,4,-9.99003,0.00244141,0.000152588,-2.4247,0.0575121,-0.0741475,0.0553487,0.0480822,-0.0897895,0.146234,-0.126682,-0.0807394,0.0087738,0.0287247,0.0331497,0.0181961,0.0742722,-0.0691986,-0.0111008,0.0353241,-9.97986,0.00522614,-0.0159836,0.0327301,-0.323868,-0.0951004,0.0118637,0.00125885,0.000228882
27,5,-9.99003,-0.000610352,0.000457764,-2.42653,0.055681,-0.0744527,0.0556539,0.0590685,-0.0913154,0.145318,-0.127292,-0.0816549,0.0134277,0.0141907,0.0408554,0.0131989,0.0803375,-0.0720978,-0.0100327,0.0304794,-9.97986,0.0119781,-0.0164795,0.0326157,-0.317802,-0.0815582,0.0143051,0.00850677,-0.000457764
27,6,-9.99003,0,0.000305176,-2.42653,0.0553758,-0.0738423,0.0535176,0.0660875,-0.0922309,0.145013,-0.126072,-0.0831808,0.0126648,0.0139999,0.0436401,0.0110245,0.0735474,-0.0780487,-0.0119781,0.0267792,-9.97986,0.013504,-0.0109482,0.0341415,-0.314255,-0.0728989,0.00759125,0.00511169,-0.000343323
27,7,-9.99003,0.00213623,0.00274658,-2.42501,0.0550706,-0.0753682,0.0577901,0.13048,-0.0842964,0.145318,-0.121189,-0.0816549,0.0113678,0.0173187,0.0441742,0.0069809,0.0760651,-0.0785446,0.0043869,0.028038,-9.97986,0.0069809,-0.00862122,0.0302124,-0.315208,-0.0376892,0.000152588,0.00682831,-0.000228882
27,8,-2.11772,0.00152588,0.00427246,-2.42684,0.0535448,-0.0756734,0.0550435,0.147264,-0.0885688,0.145013,-0.120578,-0.0831808,0.0129318,0.0260925,0.0352859,0.0121307,0.0759888,-0.0766754,0.00522614,0.0296783,-9.97986,0.0104523,-0.00656128,0.0313187,-0.314903,-0.0307846,0.00289917,0.00728607,0.00114441
27,9,5.97341,-0.000915527,0.00427246,-2.4302,0.0529344,-0.0747579,0.0532125,0.152757,-0.090705,0.142877,-0.121799,-0.0859274,0.0129318,0.032692,0.0279236,0.013237,0.0775909,-0.0786972,0.00637054,0.0284195,-9.97986,0.00907898,-0.0115204,0.0294113,-0.319138,-0.0268936,0.00114441,0.0112915,-7.62939e-005
28,0,10.0097,0,0.0038147,-2.42928,0.0535448,-0.0753682,0.0513814,0.133531,-0.0946723,0.142267,-0.123325,-0.0880636,0.00789642,0.0348282,0.0227737,0.0056839,0.0742722,-0.0796127,0.00766754,0.0274658,-9.97986,0.00457764,-0.0151825,0.0286484,-0.324821,-0.0328827,-0.000572205,0.0062561,-0.000228882
28,1,10.0097,0.000305176,0.00106812,-2.4302,0.0535448,-0.0756734,0.0498555,0.0938585,-0.0968086,0.143792,-0.124546,-0.0892843,0.0127029,0.0338745,0.0234985,-0.00164032,0.0822449,-0.0842667,0.0122452,0.0177002,-9.97986,0.00747681,-0.0136566,0.0307465,-0.319176,-0.0325775,0.00148773,0.0108337,0.00457764
28,2,10.0097,0.00152588,-0.000152588,-2.4305,0.0538499,-0.0756734,0.0501607,0.0785997,-0.0961982,0.143487,-0.126682,-0.0883688,0.00808716,0.0316238,0.021019,-0.0105667,0.0792313,-0.0867462,0.0166321,0.0145721,-9.97986,0.00354767,-0.01091,0.0293732,-0.316734,-0.0461578,0.00534058,0.00965118,0.00244141
28,3,10.0097,0.00152588,0.000152588,-2.42776,0.0538499,-0.0756734,0.0519917,0.0740221,-0.0955879,0.143792,-0.127292,-0.0862325,0.0128555,0.0251389,0.0255585,-0.0281143,0.0773621,-0.0823975,0.0260162,0.0212479,-9.97986,0.010376,-0.0137711,0.030365,-0.316505,-0.0476074,0.00717163,0.0113297,0.00110626
28,4,10.0097,0.00152588,-0.000457764,-2.42806,0.0553758,-0.0765889,0.0519917,0.0715807,-0.0949775,0.143487,-0.125461,-0.0831808,0.0135803,0.001297,0.0264359,-0.0475693,0.0804901,-0.0846863,0.0235367,0.0263977,-9.97986,0.0106812,-0.0144577,0.0341797,-0.318489,-0.0495911,0.00606537,0.0114822,0.00118256
28,5,10.0097,0.00213623,-0.000305176,-2.4247,0.055681,-0.0738423,0.0526021,0.07036,-0.0934516,0.145318,-0.125461,-0.085317,0.0106812,-0.0212479,0.0287247,-0.0606155,0.0772858,-0.0834274,0.0282288,0.0336456,-9.97986,0.00972748,-0.0125504,0.0301743,-0.331459,-0.0527191,0.00469208,0.014534,0.00301361
28,6,10.0097,0.000610352,0.000610352,-2.42592,0.0553758,-0.0744527,0.0535176,0.0718859,-0.0925361,0.145624,-0.125156,-0.0834859,0.013237,-0.0200653,0.0196075,-0.0746155,0.0777817,-0.0798035,0.0263596,0.0379181,-9.97986,0.00679016,-0.0158691,0.0286102,-0.327797,-0.0512314,0.00148773,0.0132751,0.00335693
28,7,10.0097,0.000610352,0.00106812,-2.42562,0.0550706,-0.0741475,0.054128,0.0724962,-0.0928413,0.147149,-0.124546,-0.0816549,0.0146866,-0.00411987,0.0194931,-0.0817108,0.0731659,-0.0828171,0.0197983,0.033989,-9.97986,0.00934601,-0.0211716,0.0336075,-0.325966,-0.0493622,0.00400543,0.0131607,-0.000534058
28,8,10.0097,0,0.000305176,-2.4247,0.0575121,-0.0735371,0.0550435,0.0718859,-0.0910102,0.147149,-0.124546,-0.0813497,0.0141525,-0.00114441,0.0183868,-0.0668716,0.0753403,-0.0830841,0.0226593,0.0341415,-9.97986,0.0157928,-0.0312424,0.0299454,-0.321579,-0.0373459,0.00434875,0.0154114,0.000686646
28,9,10.0097,0.00183105,0,-2.42623,0.055681,-0.0741475,0.0544332,0.0639513,-0.0946723,0.144708,-0.126377,-0.0819601,0.0119019,-0.0104141,0.0165939,-0.0460815,0.0756836,-0.0811005,0.0198364,0.0381851,-9.97986,0.0137711,-0.0372314,0.0270462,-0.318642,-0.0280762,0.0025177,0.0141907,0.000915527
29,0,9.14296,0,-0.00213623,-2.42806,0.0569017,-0.0753682,0.0513814,0.0108507,-0.09925,0.145624,-0.129123,-0.0831808,0.0100327,-0.00938416,0.010643,-0.0289536,0.0769043,-0.0771332,0.0230789,0.0400162,-9.97986,0.0125885,-0.0374985,0.0286102,-0.325241,-0.0266266,-0.00343323,0.0168991,0.00213623
29,1,-0.389814,0,-0.00457764,-2.4247,0.0562914,-0.0707906,0.0529073,-0.00684949,-0.0971137,0.147455,-0.128208,-0.0825704,0.0139618,0.0270844,0.00461578,-0.00572205,0.0765228,-0.079155,0.02285,0.025444,-9.97986,0.016861,-0.030365,0.025444,-0.318451,-0.0186157,-0.000152588,0.0170135,0.00263214
29,2,-7.7238,0.000305176,-0.0050354,-2.42501,0.0569017,-0.0744527,0.0535176,-0.0187513,-0.0968086,0.146539,-0.129734,-0.0813497,0.0105667,0.0623322,0.00217438,0.0342941,0.0736618,-0.0773239,0.0281143,0.0088501,-9.97986,0.0199127,-0.0178528,0.0289154,-0.317307,-0.013237,0.00476837,0.0198364,0.00183105
29,3,-9.99003,-0.000915527,-0.00396729,-2.42501,0.055681,-0.0741475,0.0553487,0.0108507,-0.0922309,0.145318,-0.128513,-0.0810445,0.00736237,0.0584412,0.00171661,0.0754166,0.0699997,-0.0798035,0.0291061,0.00171661,-9.97986,0.0200653,-0.0129318,0.0278473,-0.323334,-0.0336838,-0.000305176,0.0177383,-0.00102997
29,4,-9.99003,0.000610352,-0.0012207,-2.42562,0.0559862,-0.0729268,0.0556539,0.0456407,-0.0897895,0.145929,-0.127598,-0.0816549,0.00801086,0.0512314,0.00141144,0.0987625,0.0690842,-0.0765991,0.0255203,-0.0134277,-9.97986,0.0212097,-0.0056839,0.0280762,-0.314865,-0.0399017,0.00221252,0.0205231,-0.00038147
29,5,-9.99003,0.00244141,0,-2.42592,0.0547655,-0.0744527,0.0556539,0.058153,-0.0910102,0.146539,-0.126377,-0.0822652,0.0120544,0.0490189,0.00961304,0.0937271,0.0711823,-0.0748825,0.0286102,-0.0143051,-9.97986,0.0203323,-0.00125885,0.0291061,-0.302582,-0.0421143,0.00743866,0.0221252,0.00171661
29,6,-9.99003,0.00183105,0.00106812,-2.42714,0.0541551,-0.075063,0.0544332,0.0697496,-0.090705,0.145318,-0.125766,-0.0825704,0.00873566,0.044899,0.0116348,0.0597763,0.0658417,-0.0741577,0.027771,-0.0165176,-9.97986,0.0221634,-0.0094986,0.0299454,-0.297852,-0.048027,0.00377655,0.0222397,0.00148773
29,7,-9.98302,0,0.00366211,-2.42409,0.0565965,-0.0753682,0.0556539,0.130785,-0.0855171,0.144708,-0.121189,-0.0825704,0.0126266,0.0350952,0.0206375,0.0367355,0.0711823,-0.0759506,0.0376511,-0.026741,-9.97986,0.0186157,-0.0187683,0.0276566,-0.293121,-0.0226212,-0.000114441,0.0229645,0.00305176
29,8,-1.87327,0.000610352,0.00442505,-2.42684,0.0541551,-0.0759786,0.0553487,0.145433,-0.0864326,0.143792,-0.121494,-0.0847066,0.00907898,0.0159073,0.0218201,0.0182343,0.0685501,-0.0695038,0.0323868,-0.023613,-9.97986,0.0217819,-0.0136948,0.0295258,-0.28244,-0.0214386,-0.00282288,0.0196075,0.00213623
29,9,6.22457,0,0.00579834,-2.42714,0.0529344,-0.0759786,0.0535176,0.154588,-0.090705,0.143182,-0.121189,-0.0856222,0.00648499,0.00965118,0.0209045,-0.00038147,0.0619507,-0.0682449,0.0248718,-0.0177002,-9.97986,0.0226212,-0.0257874,0.0254822,-0.268364,-0.0292969,-0.00526428,0.0193787,0.00102997
30,0,10.0097,0.00152588,0.0050354,-2.43142,0.0523241,-0.0762837,0.0501607,0.132921,-0.094062,0.142877,-0.124241,-0.0883688,0.00797272,0.024147,0.0331879,-0.0087738,0.0605011,-0.0674057,0.0239944,-0.0100708,-9.97986,0.0165176,-0.0304794,0.0262451,-0.257835,-0.021286,-0.00499725,0.0167847,7.62939e-005
30,1,10.0097,0.00305176,0.00259399,-2.42867,0.0538499,-0.0759786,0.050771,0.0941637,-0.0961982,0.144403,-0.126072,-0.0883688,0.0125122,0.0611496,0.0317764,-0.01194,0.0554657,-0.0681305,0.0219727,-0.0050354,-9.97986,0.0159454,-0.0143051,0.0249481,-0.247307,-0.0142288,-0.00160217,0.0149536,-3.8147e-005
30,2,10.0097,0.00274658,0.000152588,-2.42989,0.0532396,-0.0781148,0.050771,0.0792101,-0.0971137,0.142877,-0.127903,-0.0874532,0.0149155,0.0485611,0.0251389,-0.00854492,0.0577927,-0.0644684,0.0268936,0.00423431,-9.97986,0.0131226,0.00358582,0.0213623,-0.231705,-0.0101089,-0.0019455,0.0177383,-0.00217438
30,3,10.0097,0.000610352,0.000457764,-2.42837,0.0547655,-0.0778096,0.0526021,0.0734117,-0.0946723,0.144098,-0.126682,-0.0859274,0.0044632,0.0226593,0.014534,0.0227737,0.0596237,-0.0651932,0.0299835,0.00835419,-9.97986,0.0203323,0.00492096,0.0279617,-0.224304,-0.0106049,-0.00873566,0.0151062,-0.000724792
30,4,10.0097,0,0.00183105,-2.42776,0.0535448,-0.0753682,0.0532125,0.0724962,-0.0928413,0.143182,-0.126072,-0.0850118,0.00556946,0.0125885,0.00762939,0.0345612,0.0570297,-0.0568771,0.0245285,0.00801086,-9.97986,0.0171661,-0.0082016,0.0266266,-0.209351,-0.00286102,-0.00404358,0.0168228,0.000686646
30,5,10.0097,0.000610352,0.0012207,-2.42745,0.0550706,-0.0753682,0.0538228,0.0715807,-0.0934516,0.143792,-0.125461,-0.0840963,0.00469208,-0.0115204,0.00808716,0.0159836,0.0541687,-0.059166,0.0212479,0.0103378,-9.97986,0.0182343,-0.0176239,0.0239182,-0.201492,-0.00370026,-0.00923157,0.0143814,0.00312805
30,6,10.0097,0.0012207,0.00183105,-2.42653,0.0550706,-0.0735371,0.054128,0.0712755,-0.0925361,0.145013,-0.124851,-0.0831808,0.0116348,-0.00652313,-0.00377655,0.00602722,0.055809,-0.0573349,0.0220871,0.0118637,-9.97986,0.0241852,-0.00782013,0.0257874,-0.188103,0.00137329,-0.00648499,0.0186157,0.00217438
30,7,10.0097,0.00152588,0.00106812,-2.4247,0.055681,-0.0738423,0.054128,0.0718859,-0.0919257,0.146234,-0.124546,-0.0807394,0.0105667,-0.00385284,-0.00415802,-0.00236511,0.0523758,-0.0545502,0.0208282,0.00873566,-9.97986,0.0198364,-0.00179291,0.0256729,-0.17662,3.8147e-005,-0.00610352,0.0154495,0.00274658
30,8,10.0097,0.000305176,0.000457764,-2.42379,0.0565965,-0.0726216,0.0556539,0.0728014,-0.0913154,0.146234,-0.124241,-0.080129,0.0114441,-0.00785828,-0.0025177,0.00461578,0.0483322,-0.0488281,0.0115967,0.00953674,-9.97986,0.0233459,0.00411987,0.0265884,-0.158386,0.00209808,-0.00549316,0.015564,0.000190735
30,9,10.0097,0.000610352,0.00183105,-2.42653,0.055681,-0.0765889,0.0538228,0.0627306,-0.0946723,0.147149,-0.125156,-0.0810445,0.010376,-0.0102234,-0.0149155,0.0402451,0.0460815,-0.0464249,0.0117874,0.00957489,-9.97986,0.0201035,0.0129318,0.0193405,-0.139275,-0.0019455,-0.00686646,0.016861,0.00362396
31,0,9.08193,0.000915527,-0.000457764,-2.42684,0.0559862,-0.0747579,0.0516866,0.00901965,-0.09925,0.146234,-0.128818,-0.0831808,0.0103378,0.0025177,-0.00968933,0.0946045,0.0482559,-0.0500107,0.0162506,0.0111771,-9.97986,0.0214386,0.0283813,0.0207138,-0.122147,-0.00152588,-0.00514984,0.0137711,0.000419617
31,1,-0.421858,0,-0.00335693,-2.42623,0.0569017,-0.0726216,0.0535176,-0.00562879,-0.0971137,0.147455,-0.128818,-0.0807394,0.00961304,0.0281906,-0.00331879,0.113907,0.0453568,-0.0408936,0.0130081,0.0157547,-9.97986,0.019989,0.0348282,0.022049,-0.0975037,-0.00614166,-0.00385284,0.0156403,-0.0012207
31,2,-7.75584,0.000610352,-0.00274658,-2.4244,0.0562914,-0.0744527,0.0538228,-0.0196669,-0.0971137,0.145929,-0.129734,-0.0804342,0.014267,0.0312042,0.00244141,0.0940323,0.0431061,-0.0413513,0.016098,0.021019,-9.97986,0.0213242,0.0341034,0.0210953,-0.0857925,-0.00442505,-0.000495911,0.0138855,-0.00144958
31,3,-9.99003,0.0012207,-0.00213623,-2.4247,0.055681,-0.0744527,0.0562642,0.0114611,-0.0925361,0.147149,-0.128818,-0.0804342,0.00789642,0.0396347,0.01297,0.0730515,0.043335,-0.0375366,0.0178146,0.0256729,-9.97986,0.0195694,0.0241089,0.0225449,-0.0737381,-0.020256,0.00793457,0.0131226,0.000152588
31,4,-9.99003,0.000610352,-0.000610352,-2.42501,0.0559862,-0.0738423,0.0556539,0.0465563,-0.0894843,0.145624,-0.127903,-0.0813497,0.00762939,0.0526428,0.0165176,0.0619125,0.0468445,-0.0331879,0.0177383,0.0240326,-9.97986,0.0175858,0.0357437,0.0199509,-0.0630951,-0.0197983,0.00495911,0.0123596,0.00286102
31,5,-9.99003,-0.0012207,0.0012207,-2.42623,0.0547655,-0.073232,0.0544332,0.0596788,-0.090705,0.143792,-0.125461,-0.0813497,0.00835419,0.0447845,0.0230026,0.0511932,0.0404739,-0.0325012,0.0180054,0.0271225,-9.97986,0.021553,0.0417328,0.0205994,-0.0532913,-0.0208282,0.0138092,0.0104141,-0.000457764
31,6,-9.99003,0.000610352,0.0012207,-2.42592,0.0550706,-0.0747579,0.0547383,0.0691393,-0.090705,0.14776,-0.125156,-0.0822652,0.00980377,0.0432968,0.0201416,0.0411606,0.0405884,-0.0333786,0.0165558,0.0198746,-9.97986,0.0185394,0.0403976,0.019455,-0.0345993,-0.0182343,0.0112152,0.0115585,-0.000724792
31,7,-9.99003,-0.0012207,0.00396729,-2.4244,0.0544603,-0.0753682,0.0565694,0.129869,-0.0855171,0.145318,-0.120884,-0.0816549,0.00850677,0.0430679,0.0203705,0.0383377,0.0379944,-0.028038,0.0173187,0.0134659,-9.97986,0.0113678,0.0442886,0.0195313,-0.026207,0.00514984,0.00453949,0.0109863,0.00190735
31,8,-2.00511,0.0012207,0.00366211,-2.42745,0.0532396,-0.0747579,0.0550435,0.146959,-0.0864326,0.144403,-0.121799,-0.0834859,0.00919342,0.0429535,0.0152588,0.0312805,0.0357437,-0.0278854,0.0233459,0.0271225,-9.97986,0.0151062,0.0470734,0.0201797,-0.00892639,0.00553131,-0.0025177,0.00843048,0.00236511
31,9,6.13759,0.000915527,0.00534058,-2.42776,0.0541551,-0.075063,0.0535176,0.153978,-0.0885688,0.141046,-0.121189,-0.0840963,0.00759125,0.0308228,0.0197983,0.0167084,0.0424194,-0.0206757,0.0197983,0.0377274,-9.97986,0.0117874,0.0352478,0.0192261,-0.000305176,0.00946045,-0.00522614,0.00869751,0.000648499
32,0,10.0097,0,0.0050354,-2.43081,0.0520189,-0.0771993,0.0516866,0.134142,-0.0937568,0.141961,-0.12302,-0.0871481,0.0100708,0.02285,0.0244141,0.0147629,0.0382996,-0.0180054,0.020256,0.052681,-9.97986,0.0154877,0.0273895,0.0197601,0.0127411,0.00995636,-0.00442505,0.00610352,0.00152588
32,1,10.0097,0.000610352,0.00198364,-2.42959,0.0535448,-0.0775044,0.0510762,0.0923326,-0.0977241,0.142877,-0.126377,-0.0883688,0.00854492,0.0159836,0.0194931,0.0133133,0.0389099,-0.0210571,0.025444,0.0513458,-9.97986,0.00988007,0.0354767,0.0149918,0.0216675,0.00152588,-0.0112534,0.00629425,-0.000762939
32,2,10.0097,0.00152588,0.00106812,-2.43081,0.0538499,-0.075063,0.0510762,0.0792101,-0.0974189,0.144403,-0.127292,-0.0886739,0.00812531,0.0100708,0.0222397,0.00892639,0.0400543,-0.0172424,0.0237274,0.053978,-9.97986,0.0128174,0.0445175,0.0127792,0.0255585,0.00205994,-0.010643,0.00549316,-0.00164032
32,3,10.0097,-0.000610352,0.0012207,-2.42867,0.0532396,-0.0759786,0.0519917,0.0752428,-0.0949775,0.144403,-0.127598,-0.0862325,0.00793457,0.0192261,0.0202942,0.0135422,0.0368881,-0.0151443,0.0247192,0.057869,-9.97986,0.0130081,0.0442886,0.0147247,0.0328827,0.00404358,-0.0069046,0.00598907,-0.00415802
32,4,10.0097,0.000610352,0.000305176,-2.42867,0.0544603,-0.0756734,0.0516866,0.072191,-0.0937568,0.144098,-0.126377,-0.0847066,0.0115967,0.0197601,0.0227737,0.0157928,0.0338364,-0.0136566,0.0309753,0.0495911,-9.97986,0.0137711,0.0415039,0.0152206,0.0439072,0.00778198,7.62939e-005,0.00732422,0.00377655
32,5,10.0097,0.000610352,0.000915527,-2.42714,0.0544603,-0.0759786,0.0532125,0.07036,-0.0931465,0.145013,-0.126377,-0.0840963,0.0104523,0.0120926,0.0225067,0.015831,0.0342941,-0.00968933,0.0250244,0.0354767,-9.97986,0.0130081,0.031929,0.017395,0.0469971,0.00835419,0.00888824,0.00846863,-0.00102997
32,6,10.0097,0.000610352,0.000762939,-2.42684,0.0553758,-0.0744527,0.0538228,0.0709703,-0.094062,0.146234,-0.125766,-0.0828756,0.0109482,0.0208282,0.0269318,0.0143433,0.0302505,-0.00957489,0.0309753,0.0185394,-9.97986,0.00907898,0.0298691,0.015564,0.0544739,0.00694275,0.00846863,0.00301361,-0.00278473
32,7,10.0097,0.00152588,0.000762939,-2.4244,0.0547655,-0.0735371,0.0535176,0.0712755,-0.0903999,0.146539,-0.12363,-0.0819601,0.0101852,0.0205231,0.0357819,0.00976563,0.0292587,-0.00320435,0.0297546,0.0249863,-9.97986,0.00888824,0.0265121,0.0140381,0.0568771,0.0133133,0.00751495,0.00656128,-0.00297546
32,8,10.0097,0.000915527,0,-2.42501,0.0559862,-0.073232,0.0547383,0.0706652,-0.090705,0.145318,-0.124546,-0.0810445,0.0118637,0.0266266,0.0389099,0.00621796,0.0246048,-0.000610352,0.0290298,0.0386429,-9.97986,0.00328064,0.0213242,0.0130844,0.0605392,0.0184631,0.0102615,0.00457764,-0.0056076
32,9,10.0097,-0.00213623,0.000457764,-2.42623,0.0565965,-0.0747579,0.0532125,0.0627306,-0.0934516,0.147149,-0.125461,-0.0825704,0.0138855,0.0336075,0.0416946,0.0123978,0.0259018,0.00274658,0.0347519,0.0397491,-9.97986,0.00556946,0.0206375,0.013237,0.0651169,0.0242233,0.0134659,0.00995636,0.000343323
33,0,9.13228,-0.000610352,-0.00167847,-2.42745,0.0553758,-0.0738423,0.0516866,0.0102404,-0.0974189,0.145929,-0.129429,-0.0834859,0.0111771,0.0271225,0.0369263,0.0063324,0.0196075,-0.000915527,0.0320435,0.041008,-9.97986,0.00457764,0.0185013,0.0128937,0.0670242,0.0274277,0.00873566,0.00850677,-0.000343323
33,1,-0.406904,0.00183105,-0.00366211,-2.42531,0.0569017,-0.0738423,0.0532125,-0.00532361,-0.0968086,0.146844,-0.129734,-0.0813497,0.00965118,0.0268173,0.0385666,0.00278473,0.0186539,0.00442505,0.0359726,0.0490952,-9.97986,0.00175476,0.0130463,0.0108719,0.0688553,0.0257492,0.00640869,0.00453949,-0.00106812
33,2,-7.74699,0.000305176,-0.00473022,-2.42531,0.0569017,-0.0741475,0.0535176,-0.0193617,-0.0965034,0.145929,-0.130039,-0.0816549,0.00778198,0.0243378,0.0429916,-0.00679016,0.0236893,0.00984192,0.0347137,0.0477219,-9.97986,0.000228882,0.00785828,0.0105286,0.0625229,0.0297165,0.00465393,0.00701904,0.0037384
33,3,-9.99003,0.00244141,-0.00335693,-2.42501,0.0569017,-0.0741475,0.0556539,0.00963,-0.0934516,0.146234,-0.127903,-0.0816549,0.0107193,0.0149155,0.0432587,-0.0394821,0.0166702,0.0108719,0.0330353,0.0428391,-9.97986,0.00514984,0.00488281,0.0143433,0.0686646,0.0107956,0.00762939,0.00591278,-0.000419617
33,4,-9.99003,0.000915527,-0.0012207,-2.42531,0.055681,-0.0744527,0.0556539,0.0459459,-0.0897895,0.147149,-0.125766,-0.0804342,0.0138092,0.0257492,0.035553,-0.0691223,0.0178528,0.00980377,0.0312424,0.0278473,-9.97986,0.00717163,0.00530243,0.0115585,0.0644684,0.00526428,0.00522614,0.00774384,-0.001297
33,5,-9.99003,0,-0.000457764,-2.42684,0.0535448,-0.0744527,0.0553487,0.0602892,-0.0903999,0.145013,-0.123935,-0.0816549,0.0128174,0.0356293,0.029068,-0.0882721,0.0222015,0.0130081,0.0336456,0.0156784,-9.97986,0.00915527,7.62939e-005,0.00926971,0.0650787,0.00434875,0.00663757,0.00980377,0.00293732
33,6,-9.99003,0,-0.000305176,-2.42684,0.0562914,-0.0756734,0.0544332,0.0718859,-0.0913154,0.145624,-0.125766,-0.0831808,0.0154495,0.028038,0.0273895,-0.0985336,0.0195694,0.0130463,0.0324249,0.0149536,-9.97986,0.0104141,0.00247955,0.0154495,0.0649261,-0.00125885,0.00514984,0.00812531,0.00110626
33,7,-9.79442,0.000915527,0.00198364,-2.42562,0.0547655,-0.0744527,0.0577901,0.1317,-0.0846015,0.145929,-0.121494,-0.0822652,0.0133133,0.00331879,0.022583,-0.0391388,0.0203323,0.0154877,0.0358582,0.00354767,-9.97986,0.0125122,0.00038147,0.0130463,0.0673676,0.0318146,0.00274658,0.0101471,0.00350952
33,8,-1.76188,0,0.00289917,-2.42714,0.0541551,-0.0747579,0.054128,0.147875,-0.0885688,0.144098,-0.121189,-0.0844015,0.0207138,-0.0151825,0.0290298,0.00537872,0.0206375,0.0214767,0.0352859,-0.0173187,-9.97986,0.00602722,-0.00488281,0.00934601,0.0653839,0.0311279,-0.00240326,0.00713348,0.00320435
33,9,6.31825,0,0.00442505,-2.42806,0.0535448,-0.0762837,0.0538228,0.153673,-0.0903999,0.145013,-0.121494,-0.0856222,0.0183868,0.0270081,0.0273895,-0.0343323,0.0185394,0.0191879,0.0398636,-0.0287247,-9.97986,0.0111771,-0.00579834,0.00957489,0.0667953,0.0272369,-0.00450134,0.00965118,-0.000915527
34,0,10.0097,0.00183105,0.00427246,-2.43111,0.0532396,-0.0762837,0.0513814,0.133226,-0.0943672,0.143487,-0.12302,-0.0880636,0.0144577,0.0795364,0.0261688,-0.0563812,0.022583,0.0188065,0.0446701,-0.029335,-9.97986,0.0254822,-0.0062561,0.0112915,0.0681305,0.0302124,-0.00591278,0.00862122,0.000305176
34,1,10.0097,0.000915527,0.00183105,-2.42989,0.0529344,-0.0765889,0.0504659,0.092943,-0.0980293,0.143487,-0.126072,-0.0883688,0.0120926,0.0557327,0.016098,-0.00263214,0.0193405,0.0247955,0.0462341,-0.0336075,-9.97986,0.0262833,-0.00583649,0.0114441,0.0629807,0.0318527,-0.00576019,0.0110626,0.000610352
34,2,10.0097,0.00183105,-0.000152588,-2.43081,0.0541551,-0.0756734,0.050771,0.0789049,-0.0965034,0.143487,-0.126987,-0.0877584,0.0103378,0.0352478,0.00816345,0.0600052,0.0172424,0.0222778,0.047493,-0.025177,-9.97986,0.0236893,-0.00801086,0.00782013,0.0642776,0.0317383,0.00179291,0.0102615,0.00484467
34,3,10.0097,0,0.000152588,-2.42867,0.0529344,-0.0756734,0.0510762,0.0749376,-0.0952827,0.140741,-0.127292,-0.0871481,0.00827789,0.0431442,0.00286102,0.0698471,0.0160599,0.0249863,0.0432587,-0.0230026,-9.97986,0.030632,-0.0111008,0.00892639,0.0636292,0.0318146,0.00152588,0.0139999,0.000457764
34,4,10.0097,-0.00183105,-0.000457764,-2.42714,0.0559862,-0.0744527,0.0529073,0.0724962,-0.0943672,0.144403,-0.125156,-0.0850118,0.0108719,0.0445938,-0.0147629,0.0584793,0.0174332,0.0253677,0.0458145,-0.0223923,-9.97986,0.0304031,-0.0082016,0.0113678,0.0592041,0.0315094,0.00495911,0.0118637,0.00282288
34,5,10.0097,0.000610352,0.000610352,-2.42776,0.055681,-0.0747579,0.0529073,0.0712755,-0.0931465,0.144403,-0.125461,-0.085317,0.0127792,0.0230026,-0.00980377,0.0538254,0.0187302,0.0271225,0.0466919,-0.0168991,-9.97986,0.0288391,-0.0153351,0.00827789,0.0548172,0.0296021,0.00759125,0.018158,0.00663757
34,6,10.0097,0.000915527,0,-2.42684,0.0550706,-0.0744527,0.0538228,0.0712755,-0.0937568,0.144403,-0.125766,-0.0834859,0.00804901,0.0149918,0.00286102,0.0546646,0.0147629,0.0279236,0.0419617,-0.0117493,-9.97986,0.0284576,-0.0162888,0.00652313,0.0512695,0.0308228,0.00484467,0.0160599,0.000991821
34,7,10.0097,0,-0.000457764,-2.4244,0.0565965,-0.0744527,0.0547383,0.0724962,-0.0925361,0.147455,-0.123935,-0.0813497,0.0116348,0.00114441,0.0112152,0.0623322,0.0180435,0.0280762,0.0475693,-0.00740051,-9.97986,0.032196,-0.0124359,0.0130081,0.0534058,0.0323486,0.00617981,0.0164032,0.00202179
34,8,10.0097,0,0.000762939,-2.42562,0.0569017,-0.0723164,0.0550435,0.0718859,-0.0910102,0.146234,-0.125156,-0.0816549,0.0100327,-0.00396729,0.0224304,0.055809,0.0163651,0.0327682,0.0463486,0.00190735,-9.97986,0.0281906,-0.0167084,0.00923157,0.0470734,0.0261307,0.00827789,0.0205231,0.00392914
34,9,10.0097,0.000305176,0.000152588,-2.42623,0.0547655,-0.0756734,0.0535176,0.0627306,-0.094062,0.146234,-0.125156,-0.0819601,0.00785828,-0.0159073,0.0205231,0.0398636,0.0148773,0.0334167,0.041275,0.00900269,-9.97986,0.0275421,-0.00724792,0.0107574,0.0502396,0.0308228,0.00740051,0.0201416,0.00293732
35,0,9.11305,0.0012207,-0.00259399,-2.42684,0.0569017,-0.0747579,0.0519917,0.00901965,-0.09925,0.146539,-0.129123,-0.0834859,0.00854492,0.0139999,0.0118256,0.0336456,0.0131226,0.0392914,0.0407791,0.0108337,-9.97986,0.0268936,-0.00907898,0.0103378,0.0489426,0.0259399,-0.00175476,0.0176239,0.00732422
35,1,-0.416059,0.000610352,-0.00457764,-2.42653,0.0569017,-0.0738423,0.054128,-0.00623914,-0.0968086,0.146539,-0.129429,-0.0819601,0.00858307,0.0391388,0.0188446,0.030632,0.0101089,0.0389099,0.0373077,0.0056839,-9.97986,0.0225449,-0.0111389,0.00789642,0.0470734,0.0283813,0.00160217,0.0196457,0.00492096
35,2,-7.73326,0,-0.00427246,-2.42684,0.0565965,-0.0741475,0.054128,-0.018141,-0.0961982,0.146539,-0.129734,-0.0816549,0.0129318,0.0273514,0.0140381,0.0211716,0.00896454,0.039978,0.0325775,0.00408173,-9.97986,0.0195313,-0.0125885,0.0112534,0.0479507,0.029335,-0.00442505,0.0168991,0.00572205
35,3,-9.99003,0,-0.00305176,-2.4247,0.0553758,-0.0729268,0.055959,0.0114611,-0.0928413,0.145929,-0.128208,-0.0810445,0.0146103,0.011673,0.00427246,0.0217819,0.00804901,0.0465393,0.0342941,0.00297546,-9.97986,0.0181961,-0.0162125,0.00652313,0.0471115,0.00923157,-0.00263214,0.0184631,0.00465393
35,4,-9.99003,0.000610352,-0.00244141,-2.42562,0.0550706,-0.0735371,0.055959,0.0462511,-0.090705,0.14776,-0.126377,-0.0810445,0.0111389,0.00492096,-0.0123215,0.0209808,0.00293732,0.0509262,0.0382996,0.011673,-9.97986,0.0227737,-0.0270081,0.0101089,0.047226,0.00267029,-0.00156403,0.0238037,0.0063324
35,5,-9.99003,0.000305176,-0.000762939,-2.42623,0.055681,-0.0747579,0.0544332,0.0596788,-0.0925361,0.146234,-0.126987,-0.0816549,0.00656128,-0.00274658,-0.0258636,0.0173569,0.00865936,0.0507355,0.0320816,0.0253296,-9.97986,0.0213623,-0.0268555,0.00793457,0.0404739,0.000343323,-0.00495911,0.0211334,0.00236511
35,6,-9.99003,0.000915527,0,-2.42623,0.055681,-0.0744527,0.0544332,0.0706652,-0.0919257,0.146539,-0.125156,-0.0825704,0.0153351,0.00961304,-0.0226212,0.0160599,0.00221252,0.0514221,0.0380707,0.0357056,-9.97986,0.0178528,-0.0287247,0.0112534,0.0421906,0.00236511,-0.00530243,0.0218964,0.00843048
35,7,-9.79686,-0.000305176,0.00305176,-2.42653,0.0544603,-0.0756734,0.0562642,0.131395,-0.0849067,0.145624,-0.121799,-0.0828756,0.0101089,0.0159073,-0.0104523,0.0178909,0.000343323,0.0559998,0.0305939,0.029068,-9.97986,0.0177765,-0.0315857,0.0106812,0.0388336,0.0258255,-0.00267029,0.0221634,0.00556946
35,8,-1.77287,-0.000305176,0.00320435,-2.42592,0.0547655,-0.075063,0.0538228,0.148485,-0.0858222,0.145318,-0.12241,-0.0847066,0.012207,0.0167465,-0.0125885,0.013504,0.000686646,0.0587082,0.0285339,0.0275421,-9.97986,0.0141525,-0.0299454,0.00724792,0.035553,0.0245667,-0.00926971,0.0203323,0.00579834
35,9,6.35152,0.00152588,0.00457764,-2.42898,0.0526292,-0.0753682,0.0532125,0.154588,-0.0894843,0.143792,-0.120578,-0.0844015,0.0133514,0.0173187,-0.0106049,0.0111008,-0.000839233,0.0642395,0.0272369,0.0333405,-9.97986,0.0151062,-0.0270081,0.00816345,0.037117,0.0254059,-0.00816345,0.0198746,0.00659943
36,0,10.0097,0.000305176,0.00396729,-2.42959,0.0517137,-0.0781148,0.0501607,0.13109,-0.0949775,0.141656,-0.12363,-0.0883688,0.00850677,0.0104904,-0.00778198,0.0113297,-0.00297546,0.0615311,0.0217056,0.0445557,-9.97986,0.0106812,-0.0354385,0.00976563,0.0389481,0.0198364,-0.0112915,0.0211334,0.00389099
36,1,10.0097,-0.000305176,0.00106812,-2.42989,0.0544603,-0.0756734,0.0495503,0.0926378,-0.0971137,0.142267,-0.125156,-0.0880636,0.0107574,-0.0129318,-0.0025177,0.0136185,-0.00225067,0.0675201,0.0229263,0.0520706,-9.97986,0.0139236,-0.0341415,0.00553131,0.0363922,0.025177,-0.00850677,0.0248337,0.00724792
36,2,10.0097,0.00152588,0.00106812,-2.42959,0.0541551,-0.0753682,0.0513814,0.0792101,-0.0961982,0.144403,-0.125766,-0.0877584,0.00911713,-0.0153351,0.00267029,0.0156403,-0.00389099,0.0687027,0.0259781,0.0506592,-9.97986,0.0121689,-0.0293732,0.00789642,0.0362778,0.0226593,-0.00801086,0.0233078,0.00850677
36,3,10.0097,0.00244141,0.000152588,-2.42837,0.0538499,-0.0759786,0.0513814,0.0740221,-0.0946723,0.144403,-0.127292,-0.0862325,0.00873566,-0.00419617,0.0144958,0.0119781,-0.00427246,0.0697327,0.0220108,0.0466919,-9.97986,0.0159073,-0.0159454,0.00904083,0.0348663,0.0215149,-0.00705719,0.0209427,0.00720978
36,4,10.0097,0.000610352,-0.000152588,-2.42776,0.0541551,-0.0747579,0.0529073,0.072191,-0.0922309,0.145318,-0.125461,-0.085317,0.0144577,0.00225067,0.0172043,0.0127411,-0.00976563,0.0693512,0.0265503,0.0444794,-9.97986,0.0157928,-0.00499725,0.00152588,0.0377274,0.0226593,-0.00541687,0.0247955,0.00896454
36,5,10.0097,-0.000610352,0.000457764,-2.42867,0.0562914,-0.0747579,0.0532125,0.0709703,-0.0934516,0.145318,-0.126682,-0.0844015,0.00907898,0.00843048,0.0254059,0.00667572,-0.00965118,0.0727463,0.0261307,0.0411987,-9.97986,0.0146866,0.00743866,0.00469208,0.0366974,0.0188065,-0.00389099,0.0240326,0.0104523
36,6,10.0097,-0.0012207,-0.000305176,-2.42623,0.0565965,-0.0744527,0.0538228,0.072191,-0.0919257,0.145318,-0.125461,-0.0840963,0.00965118,0.0127029,0.0358963,0.00663757,-0.0082016,0.0811005,0.0292969,0.0445175,-9.97986,0.00961304,0.0200653,0.00141144,0.0318909,0.0160599,-0.00518799,0.0230789,0.00785828
36,7,10.0097,0,0.000305176,-2.42623,0.0559862,-0.0747579,0.0547383,0.0706652,-0.0910102,0.145929,-0.12363,-0.0813497,0.0156403,0.0226593,0.0448227,0.00679016,-0.0101471,0.0827789,0.027504,0.0275421,-9.97986,0.00488281,0.0223541,0.0082016,0.0377274,0.0154877,-0.00324249,0.0214386,0.0094223
36,8,10.0097,0,0.000762939,-2.4244,0.0559862,-0.0735371,0.0547383,0.0715807,-0.0922309,0.145929,-0.12363,-0.0816549,0.013504,0.0248718,0.0444794,0.00827789,-0.0135803,0.0796127,0.0299835,0.0190353,-9.97986,0.00343323,0.0200653,0.00389099,0.0376892,0.0167084,-0.0019455,0.0193405,0.00797272
36,9,10.0097,0.000610352,-0.000915527,-2.42684,0.0559862,-0.0744527,0.0532125,0.0612047,-0.094062,0.145318,-0.124851,-0.0822652,0.0154114,0.0240326,0.0504684,0.00190735,-0.0119781,0.0815201,0.0242996,0.01194,-9.97986,0.00335693,0.0233078,0.00720978,0.0379562,0.0130463,-0.00827789,0.0246048,0.00843048
37,0,8.9446,-0.0012207,-0.00213623,-2.42714,0.0550706,-0.0741475,0.0522969,0.00810412,-0.0983344,0.146844,-0.129123,-0.0828756,0.0176239,0.0265121,0.0518799,-0.0154114,-0.0110245,0.0845718,0.022583,0.001297,-9.97986,-0.000343323,0.00724792,0.00675201,0.0348282,0.0133133,-0.0164413,0.0207901,0.0101852
37,1,-0.566206,-0.000305176,-0.00396729,-2.42623,0.0578172,-0.0735371,0.0535176,-0.00807019,-0.0971137,0.147149,-0.128818,-0.0810445,0.019722,0.0365448,0.0526047,-0.0265121,-0.0151443,0.0889587,0.0225449,-0.00476837,-9.97986,0.00164032,-0.000610352,0.00720978,0.0389481,0.014801,-0.0208282,0.0208282,0.00709534
37,2,-7.99235,-0.000305176,-0.00411987,-2.42653,0.0553758,-0.075063,0.0544332,-0.0193617,-0.0965034,0.147149,-0.130344,-0.0816549,0.0163269,0.0448227,0.0413513,-0.032959,-0.0140762,0.0875473,0.021019,-0.00923157,-9.97986,0.00843048,-0.00587463,0.00541687,0.042572,0.0152206,-0.0198364,0.0174713,0.00743866
37,3,-9.99003,0.0012207,-0.00274658,-2.42379,0.0565965,-0.0741475,0.0565694,0.0123766,-0.0937568,0.145318,-0.127903,-0.0807394,0.0125885,0.0412369,0.0299454,-0.0379181,-0.0144958,0.0901413,0.0204468,-0.0108337,-9.97986,0.0146103,-0.0108337,0.0075531,0.0492859,-0.00679016,-0.0198746,0.0186539,0.0132751
37,4,-9.99003,0.000305176,-0.000762939,-2.4247,0.0553758,-0.0738423,0.0565694,0.0474718,-0.0916206,0.146539,-0.126377,-0.0804342,0.0134277,0.0453186,0.0232697,-0.084343,-0.00869751,0.0928116,0.0204468,-0.00312805,-9.97986,0.0167465,-0.0114822,0.00656128,0.0512695,-0.00579834,-0.0179672,0.0195313,0.0117493
37,5,-9.99003,0.000610352,0.000457764,-2.42592,0.0565965,-0.0747579,0.0553487,0.0605944,-0.0922309,0.145929,-0.126377,-0.0819601,0.0105286,0.0581741,0.015564,-0.126495,-0.0124741,0.0898743,0.0212097,0.0124359,-9.97986,0.0186539,-0.0175858,0.00946045,0.0495529,-0.00926971,-0.00926971,0.0173187,0.0107574
37,6,-9.99003,0.000305176,0.000762939,-2.42562,0.0541551,-0.0753682,0.0547383,0.0657823,-0.0910102,0.144403,-0.125156,-0.0834859,0.00946045,0.0453568,0.0123215,-0.0695801,-0.015564,0.0917816,0.0195694,0.0117874,-9.97986,0.022049,-0.0159454,0.0062561,0.0538635,-0.0100327,-0.00583649,0.0172043,0.0104523
37,7,-9.99003,0.00305176,0.00289917,-2.42592,0.0547655,-0.0753682,0.0565694,0.129869,-0.0867378,0.146234,-0.122104,-0.0822652,0.00839233,0.043602,0.00312805,0.0272369,-0.00900269,0.0986481,0.0169373,0.0235748,-9.97986,0.0172043,-0.01297,0.00976563,0.052948,0.0170517,-0.00205994,0.0192261,0.0107574
37,8,-2.07683,0.00213623,0.00427246,-2.42806,0.0541551,-0.0762837,0.0544332,0.147569,-0.0879585,0.143487,-0.121799,-0.0837911,0.0121689,0.0348282,0.0157547,0.0823212,-0.0109482,0.0955582,0.0186539,0.0416183,-9.97986,0.0190353,-0.00816345,0.00629425,0.061264,0.0156403,0.00038147,0.0180435,0.0114441
37,9,5.9905,0.00427246,0.00427246,-2.42928,0.0535448,-0.0756734,0.0538228,0.152147,-0.0897895,0.144098,-0.121494,-0.0856222,0.0100708,0.0231171,0.0303268,0.0909042,-0.01297,0.0961304,0.0224686,0.0545502,-9.97986,0.0209427,-0.000190735,0.00995636,0.0652695,0.0176239,0.00171661,0.0163651,0.0117111
38,0,10.0097,-0.00305176,0.00427246,-2.43081,0.0532396,-0.0775044,0.0516866,0.133531,-0.0937568,0.143182,-0.123325,-0.0877584,0.0117111,0.0356674,0.0300598,0.0707245,-0.0123596,0.0966263,0.0217438,0.0527573,-9.97986,0.0166702,-0.00236511,0.00583649,0.064621,0.018158,-0.00358582,0.0163269,0.0100327
38,1,10.0097,-0.000610352,0.00183105,-2.43111,0.0526292,-0.0771993,0.0498555,0.092943,-0.0983344,0.142267,-0.126072,-0.0886739,0.00862122,0.0305939,0.0238037,0.0462723,-0.0138092,0.0975037,0.0230789,0.045433,-9.97986,0.021286,0.00347137,0.00843048,0.0694656,0.0203323,-0.00766754,0.0185776,0.0111389
38,2,10.0097,-0.000610352,0,-2.4305,0.0526292,-0.0756734,0.0498555,0.0789049,-0.0965034,0.144403,-0.126987,-0.0877584,0.00701904,0.0220871,0.0159836,0.0426483,-0.0141907,0.0973511,0.0208282,0.0295258,-9.97986,0.0226593,0.0114441,0.00457764,0.0686264,0.0181961,-0.00125885,0.017128,0.0120163
38,3,10.0097,0.000610352,0.000457764,-2.42898,0.0547655,-0.0756734,0.0522969,0.0737169,-0.0955879,0.144403,-0.126377,-0.0850118,0.0075531,0.0334167,0.00900269,0.0455856,-0.0149918,0.0930023,0.0168991,0.0164795,-9.97986,0.0263977,0.02285,0.00976563,0.0706863,0.022049,-0.00225067,0.0174713,0.0124359
38,4,10.0097,0.000305176,-0.000305176,-2.42714,0.0559862,-0.0756734,0.0538228,0.0728014,-0.0943672,0.145013,-0.125766,-0.0859274,0.00728607,0.0321198,0.0161362,0.0223541,-0.0158691,0.0966263,0.0147247,0.00793457,-9.97986,0.0193787,0.0185394,0.00854492,0.0732422,0.0217819,-0.00167847,0.0159454,0.0130081
38,5,10.0097,-0.000915527,0,-2.42776,0.0544603,-0.0756734,0.0535176,0.0718859,-0.0931465,0.145624,-0.125461,-0.0850118,0.0104904,0.0193787,0.018692,-0.0126266,-0.0159454,0.0980377,0.019722,-0.00263214,-9.97986,0.0175095,0.0200272,0.0069809,0.075798,0.0178528,-0.000610352,0.0148392,0.0109482
38,6,10.0097,0,0,-2.42745,0.0550706,-0.0747579,0.0547383,0.0718859,-0.0937568,0.145318,-0.125461,-0.0831808,0.0105667,0.0218582,0.0204849,-0.0179291,-0.0142288,0.0951385,0.0160217,-0.000343323,-9.97986,0.0183487,0.0112152,0.00709534,0.0733566,0.0242996,-0.00354767,0.0163651,0.0136948
38,7,10.0097,-0.0012207,0.000762939,-2.4247,0.055681,-0.0723164,0.050771,0.0718859,-0.0925361,0.146234,-0.125156,-0.0828756,0.0133896,0.0363922,0.0227356,0.00656128,-0.0141144,0.0920105,0.0160217,0.000305176,-9.97986,0.0147247,0.00759125,0.0101089,0.0754929,0.0243378,0.000419617,0.0163269,0.0106812
38,8,10.0097,0.0012207,0,-2.42531,0.0581224,-0.0738423,0.0556539,0.0718859,-0.0925361,0.146539,-0.124241,-0.0810445,0.0108719,0.0481796,0.0246048,0.022316,-0.0133133,0.0908661,0.0163651,0.00297546,-9.97986,0.0144196,0.0103378,0.00457764,0.0724411,0.0246048,-0.00328064,0.0175858,0.0112152
38,9,10.0097,0.000305176,0.000305176,-2.42653,0.055681,-0.0741475,0.0532125,0.0615099,-0.0928413,0.148065,-0.125461,-0.0831808,0.0101471,0.0572586,0.0274658,0.0619507,-0.0151443,0.0902557,0.017395,0,-9.97986,0.0119781,0.0101089,0.00770569,0.0727081,0.0256729,-0.00190735,0.0125504,0.0138474
39,0,8.9034,-0.000305176,-0.00305176,-2.42867,0.0559862,-0.0747579,0.0504659,0.00901965,-0.09925,0.145624,-0.128818,-0.0837911,0.0145721,0.0868988,0.0328827,0.0704193,-0.0152206,0.0876617,0.0153351,-0.00732422,-9.97986,0.00988007,0.00953674,0.00743866,0.067482,0.0243759,-0.00259399,0.0185394,0.0107574
39,1,-0.6779,-0.000305176,-0.00396729,-2.42562,0.0559862,-0.0735371,0.0550435,-0.00623914,-0.0955879,0.145929,-0.129123,-0.0810445,0.0110626,0.0613022,0.0237274,0.0475693,-0.0159836,0.086174,0.016861,0.00236511,-9.97986,0.0135803,0.00556946,0.00919342,0.071907,0.0267792,-0.0031662,0.0129318,0.0128174
39,2,-8.0302,0.000305176,-0.00457764,-2.42653,0.0569017,-0.0738423,0.0535176,-0.0184462,-0.0977241,0.145624,-0.130344,-0.0813497,0.0109863,-0.01091,-0.000953674,0.0215149,-0.0137711,0.0879669,0.0208664,0.0144958,-9.97986,0.0137329,0.00484467,0.00984192,0.0673294,0.0259399,-0.00480652,0.0146103,0.0137329
39,3,-9.99003,0,-0.00289917,-2.4247,0.0559862,-0.0738423,0.0562642,0.0126818,-0.0919257,0.146234,-0.129123,-0.0804342,0.00938416,-0.0171661,-0.01091,0.0120163,-0.00614166,0.0806046,0.0232697,0.0153351,-9.97986,0.0181961,0.00495911,0.00518799,0.0680542,0.00919342,-0.00747681,0.0107574,0.0137711
39,4,-9.99003,0.0012207,-0.000762939,-2.42379,0.055681,-0.0744527,0.0565694,0.0468614,-0.0897895,0.145624,-0.126682,-0.0810445,0.0106812,-0.00686646,-0.00286102,0.00370026,-0.00953674,0.0811386,0.0185013,0.0207138,-9.97986,0.0190735,0.00602722,0.0111771,0.073967,0.00667572,-0.00862122,0.0154877,0.0149536
39,5,-9.99003,0.00152588,-0.000762939,-2.42562,0.055681,-0.0735371,0.0562642,0.059984,-0.0913154,0.14776,-0.125766,-0.0822652,0.0088501,-0.0209045,-0.00152588,0.0143051,-0.00423431,0.0806427,0.017662,0.0232697,-9.97986,0.0209808,0.00499725,0.0107193,0.0691223,0.00328064,-0.0106812,0.0166321,0.0157166
39,6,-9.99003,0.000305176,0.000152588,-2.42745,0.055681,-0.0756734,0.0529073,0.0657823,-0.0925361,0.144403,-0.125766,-0.0831808,0.00911713,-0.00823975,0.00427246,0.0258255,-0.00392914,0.0753784,0.0149918,0.0266266,-9.97986,0.0221252,-0.00312805,0.00484467,0.0761032,0.00370026,-0.0101471,0.0138855,0.0146103
39,7,-9.99003,0.00213623,0.00228882,-2.42501,0.0547655,-0.075063,0.0568746,0.131395,-0.0839912,0.145929,-0.125461,-0.0816549,0.00762939,-0.00419617,0.011673,0.0183487,-0.00213623,0.07164,0.0152588,0.0243759,-9.97986,0.0186539,-0.00389099,0.00995636,0.0775146,0.0334549,-0.00549316,0.0214005,0.0147629
39,8,-2.20988,0.000610352,0.00366211,-2.42653,0.0541551,-0.075063,0.0550435,0.147569,-0.0876533,0.144708,-0.119968,-0.0834859,0.0138092,0.000228882,0.0182724,0.0217819,-0.000801086,0.0681305,0.0176239,0.0256348,-9.97986,0.0165176,-0.0087738,0.00610352,0.0719833,0.0309753,-0.0111771,0.0162888,0.0135422
39,9,5.90901,0,0.00427246,-2.42806,0.0553758,-0.0765889,0.0526021,0.153368,-0.0897895,0.143792,-0.121189,-0.0862325,0.00915527,-0.00225067,0.0160217,0.0180054,-0.00133514,0.0628662,0.0156021,0.0292206,-9.97986,0.0179672,-0.00110626,0.0120163,0.0741577,0.0387955,-0.0102234,0.0193405,0.0158691
40,0,10.0097,0.00152588,0.00366211,-2.4305,0.0532396,-0.075063,0.050771,0.135362,-0.0931465,0.141961,-0.122715,-0.0877584,0.00946045,-0.00240326,0.0236511,0.0196075,0.00469208,0.058136,0.0144958,0.0343704,-9.97986,0.0159836,0.00911713,0.0134659,0.0764465,0.0362778,-0.00602722,0.0173187,0.0134659
40,1,10.0097,0.000610352,0.0012207,-2.43081,0.0529344,-0.0765889,0.0498555,0.0941637,-0.0971137,0.144403,-0.126377,-0.0892843,0.00534058,0.00427246,0.0281525,0.0237274,0.00850677,0.058403,0.0170135,0.0399017,-9.97986,0.0122833,-0.000915527,0.00797272,0.073967,0.0329208,-0.00816345,0.0168991,0.0136185
40,2,10.0097,-0.000305176,0.000457764,-2.42928,0.0532396,-0.075063,0.0526021,0.0789049,-0.0952827,0.143487,-0.126072,-0.0871481,0.00865936,0.0111389,0.0325012,0.00492096,0.00827789,0.0533295,0.0134659,0.043602,-9.97986,0.00709534,0.00324249,0.00656128,0.0733948,0.0337982,-0.00968933,0.0214767,0.0146484
40,3,10.0097,0,0.000457764,-2.42928,0.0538499,-0.0753682,0.0516866,0.0746324,-0.0949775,0.144708,-0.128818,-0.0868429,0.0119781,0.0206375,0.0285721,-0.0254059,0.00995636,0.0535202,0.0154877,0.0423431,-9.97986,0.01091,0.0143433,0.0126266,0.077858,0.0383759,-0.0103378,0.0233459,0.0148392
40,4,10.0097,0.000305176,-0.000152588,-2.42714,0.0544603,-0.0756734,0.0532125,0.0724962,-0.0943672,0.145013,-0.126072,-0.0847066,0.0118637,0.0238419,0.0276566,-0.0362778,0.0109482,0.049057,0.0153732,0.0427628,-9.97986,0.00724792,0.0208664,0.0100708,0.0790787,0.0370026,-0.00823975,0.019455,0.0152206
40,5,10.0097,0.000915527,0.000152588,-2.42714,0.0550706,-0.0738423,0.0532125,0.0715807,-0.0946723,0.144708,-0.126072,-0.0844015,0.0143433,0.0287247,0.0236893,-0.0158691,0.0162506,0.0461578,0.0212479,0.0450516,-9.97986,0.00823975,0.00957489,0.00709534,0.0754166,0.0387573,-0.00400543,0.021019,0.0157166
