
Devices
1200
,,BP Load cell - Voltage,String Length - Voltage,Clutch Active - Voltage,#7 iPecs - Voltage,,,,,,,,,EMG 1-8 Left - Voltage,,,,,,,,Pylon Force - Voltage,EMG 9-16 Right - Voltage,,,,,,,,
Frame,Sub Frame,BP Load Cell,String Length,From Arduino Logic,A45,A135,A225,A315,S0,S90,S180,S270,ZSum,EMG 1 Glut Max,EMG 2 Glut Med,EMG 3 Biceps Femoris Long,EMG 4 Rectus Femoris,EMG 5 Vastus Medialis,EMG 6 Tib Ant,EMG 7 Med Gas,EMG 8 Soleus,Pylon volts,EMG 9 Glut Max,EMG 10 Glut Med,EMG 11 Biceps Femoris Long,EMG 12 Rectus Femoris,EMG 13 Vastus Medialis,EMG 14 Tib Ant,EMG 15 Med Gas,EMG 16 Soleus
,,V,V,V,V,V,V,V,V,V,V,V,V,V,V,V,V,V,V,V,V,V,V,V,V,V,V,V,V,V
1,0,10.0097,-0.000915527,-0.00442505,-2.4244,0.055681,-0.0738423,0.0565694,0.0709703,-0.0913154,0.145929,-0.123935,-0.0828756,0.0151443,0.0413132,0.0298309,0.0133514,0.00419617,0.0514984,0.000190735,-0.056076,-9.97986,0.00637054,-0.0159073,0.0296402,-0.39669,-0.13443,0.0137329,0.00278473,0.0788498
1,1,10.0097,-0.00183105,-0.00427246,-2.42684,0.0562914,-0.0738423,0.054128,0.0608995,-0.0928413,0.146539,-0.126987,-0.0831808,0.0200272,0.0554276,-0.00339508,0.0175858,0.00850677,0.0498199,0.00362396,-0.117035,-9.97986,0.0117111,-0.0231171,0.0287628,-0.4459,-0.131226,0.0125122,0.00530243,0.0745392
1,2,10.0097,0.000610352,-0.0062561,-2.42653,0.0559862,-0.073232,0.0550435,0.0502184,-0.0928413,0.145318,-0.125766,-0.0834859,0.0193787,0.0139618,-0.0421906,0.0170135,0.00556946,0.0501633,0.0018692,-0.149422,-9.97986,0.0217819,-0.0379181,0.0305939,-0.49057,-0.134773,0.0134277,0.0141525,0.077095
1,3,9.54091,-0.000610352,-0.0050354,-2.42623,0.0553758,-0.0726216,0.0577901,0.0551012,-0.0931465,0.144098,-0.126072,-0.0837911,0.0166702,-0.0540161,-0.078125,0.0101471,0.0088501,0.0457001,-0.000305176,-0.143585,-9.97986,0.0271225,-0.0547791,0.0328827,-0.543098,-0.130424,0.00133514,0.0178909,0.0693893
1,4,9.38619,0.0012207,-0.00488281,-2.42531,0.0562914,-0.0744527,0.054128,0.0657823,-0.0925361,0.146234,-0.125766,-0.0844015,0.0137329,-0.0564194,-0.0839233,0.0105667,0.00858307,0.0379562,0.00339508,-0.115891,-9.97986,0.0318909,-0.0302505,0.0355148,-0.587502,-0.129433,-0.010643,0.0273514,0.0684738
1,5,9.70021,0.00213623,-0.00350952,-2.42653,0.0553758,-0.0741475,0.0535176,0.0715807,-0.0922309,0.145318,-0.125156,-0.0834859,0.0138474,-0.0207138,-0.0806427,0.00904083,0.00953674,0.0338745,0.00209808,-0.0884247,-9.97986,0.0366974,0.0254059,0.0373077,-0.627098,-0.12146,-0.0115204,0.0352097,0.0665665
1,6,10.0097,0,-0.00259399,-2.42684,0.0535448,-0.0756734,0.0547383,0.0923326,-0.0897895,0.144708,-0.124241,-0.0847066,0.0136185,0.00915527,-0.084343,0.01091,0.00537872,0.0257492,0.00328064,-0.0692749,-9.97986,0.0332642,0.074501,0.0350571,-0.659828,-0.120926,-0.0231171,0.0400925,0.0642776
1,7,10.0097,0.000305176,-0.00320435,-2.42837,0.0535448,-0.0762837,0.0532125,0.0828722,-0.0928413,0.143792,-0.125156,-0.0883688,0.0112915,0.0102234,-0.10128,0.0115967,0.0117874,0.0191116,0.00110626,-0.0672531,-9.97986,0.0429916,0.118484,0.0370789,-0.702705,-0.116539,-0.018959,0.0496292,0.0614166
1,8,10.0097,-0.000305176,-0.00442505,-2.42837,0.0547655,-0.0759786,0.0513814,0.0743273,-0.095893,0.141961,-0.127903,-0.0877584,0.0109863,-0.0556564,-0.107536,0.0186539,0.00957489,0.0136185,0.00526428,-0.06073,-9.97986,0.0432968,0.0825119,0.0371552,-0.744705,-0.114479,-0.0152588,0.0568771,0.0603867
1,9,10.0097,0.000305176,-0.00350952,-2.42837,0.0544603,-0.0756734,0.0532125,0.07036,-0.094062,0.144708,-0.126682,-0.0874532,0.0173569,-0.0971603,-0.0937653,0.0226212,0.0125122,0.00892639,0.00640869,-0.0434494,-9.97986,0.0532913,0.000419617,0.0404739,-0.778961,-0.104179,0.00152588,0.0634766,0.0624084
2,0,10.0097,-0.0012207,-0.00488281,-2.42898,0.0532396,-0.0753682,0.0522969,0.0688341,-0.0931465,0.143487,-0.127292,-0.0883688,0.00572205,-0.0649261,-0.0764084,0.0165176,0.00839233,0.00495911,-0.00209808,-0.0323486,-9.97986,0.0370026,-0.0236893,0.0315857,-0.822678,-0.111046,0.00556946,0.0632858,0.0501633
2,1,10.0097,0.00152588,-0.00366211,-2.42867,0.0538499,-0.0756734,0.0522969,0.0685289,-0.0946723,0.143487,-0.127292,-0.0883688,0.00991821,-0.0405884,-0.0707626,0.0253677,0.00904083,0.0148392,0.00396729,-0.0100327,-9.97986,0.0366592,0.046463,0.0358963,-0.842094,-0.100594,0.0170517,0.0741577,0.0499725
2,2,10.0097,0.000915527,-0.00335693,-2.42837,0.0541551,-0.0753682,0.0526021,0.0679186,-0.0943672,0.143182,-0.126682,-0.0865377,0.00644684,-0.0478363,-0.0725174,0.0212097,0.0112152,0.00644684,0.000686646,0.00114441,-9.97986,0.0317383,0.0855637,0.0377274,-0.863495,-0.100746,0.0115967,0.0750351,0.0498199
2,3,10.0097,0.00152588,-0.00305176,-2.42745,0.0547655,-0.0756734,0.0532125,0.0697496,-0.0931465,0.145318,-0.125461,-0.0859274,0.0123978,-0.038681,-0.0541687,0.0259781,0.0149536,0.00911713,0.00671387,0.00335693,-9.97986,0.0311279,0.0601578,0.033989,-0.889053,-0.0899506,0.00911713,0.0818253,0.0502777
2,4,10.0097,0.00183105,-0.00198364,-2.42653,0.0541551,-0.0753682,0.0529073,0.0679186,-0.0937568,0.145318,-0.126377,-0.085317,0.00926971,-0.0238037,-0.0291061,0.0221252,0.0177765,0.0107193,0.00202179,0.00644684,-9.97986,0.0256348,0.0395584,0.0325775,-0.906372,-0.0855637,-0.00835419,0.0827408,0.0424957
2,5,10.0097,0.00183105,-0.000915527,-2.42623,0.0559862,-0.0744527,0.0547383,0.0688341,-0.0934516,0.145624,-0.126377,-0.0837911,0.0127029,-0.0108719,-0.0151825,0.0223923,0.014534,0.0105286,0.00579834,0.0145721,-9.97986,0.0233841,0.00541687,0.0363541,-0.913391,-0.0815964,-0.0204849,0.0836563,0.0432968
2,6,10.0097,0,-0.000762939,-2.42684,0.0559862,-0.075063,0.0535176,0.0706652,-0.0916206,0.146234,-0.124546,-0.0831808,0.0111771,0.00324249,-0.00617981,0.0220871,0.0190735,0.014801,0.00659943,0.0209045,-9.97986,0.0141144,-0.0407791,0.0329971,-0.922165,-0.0812912,-0.0419617,0.08255,0.0388336
2,7,10.0097,0.000305176,0,-2.42592,0.0559862,-0.0735371,0.0544332,0.0697496,-0.0913154,0.146539,-0.125156,-0.0825704,0.0126266,0.0170898,-0.00106812,0.0193024,0.0162506,0.0219727,0.0127411,0.0227737,-9.97986,0.0172043,-0.0482559,0.0333405,-0.919075,-0.0734711,-0.0571442,0.0855637,0.0350952
2,8,10.0097,0.000610352,-0.000152588,-2.4244,0.0572069,-0.0735371,0.0550435,0.072191,-0.0910102,0.145929,-0.123935,-0.0810445,0.0105286,0.0210953,0.0082016,0.0222015,0.0178528,0.0168228,0.00995636,0.0230789,-9.97986,0.0107193,-0.0552368,0.0343704,-0.911484,-0.0679779,-0.0454712,0.0806427,0.0345993
2,9,10.0097,0.00152588,0.000152588,-2.42592,0.0565965,-0.0747579,0.0553487,0.0718859,-0.0913154,0.147149,-0.125766,-0.0807394,0.00854492,0.0312042,0.0127411,0.0236511,0.0152588,0.0190353,0.0137711,0.028038,-9.97986,0.0121307,-0.0450516,0.0319672,-0.897789,-0.0674057,-0.0273132,0.0805664,0.0297165
3,0,10.0097,0.00213623,0.00106812,-2.42379,0.0575121,-0.0726216,0.0544332,0.0728014,-0.0903999,0.147455,-0.12363,-0.0804342,0.00751495,0.0301743,0.0153732,0.0197983,0.0142288,0.0237656,0.0117111,0.0288773,-9.97986,0.01194,-0.0377655,0.0295639,-0.886497,-0.065918,-0.00743866,0.0783157,0.0283051
3,1,10.0097,-0.000915527,0.00167847,-2.42653,0.055681,-0.0744527,0.0526021,0.0602892,-0.0931465,0.145318,-0.125461,-0.0810445,0.0111008,0.0310516,0.0144577,0.0206757,0.0108337,0.0272369,0.0141144,0.0319672,-9.97986,0.00507355,-0.0448227,0.0236893,-0.875244,-0.0605774,0.00659943,0.0737762,0.0215912
3,2,10.0097,0.0012207,-0.000457764,-2.42531,0.0559862,-0.0747579,0.0547383,0.0511339,-0.094062,0.145929,-0.126072,-0.0810445,0.00610352,0.0349045,0.0238419,0.0178528,0.0123215,0.0286865,0.0122833,0.0287247,-9.97986,0.00453949,-0.0536346,0.0290298,-0.858574,-0.0514984,0.0164795,0.0748444,0.0208282
3,3,9.54213,0.000610352,0.000762939,-2.42653,0.0547655,-0.0756734,0.0547383,0.0584581,-0.0934516,0.147149,-0.125461,-0.0822652,0.010643,0.0247955,0.0262451,0.0191879,0.0115967,0.0302505,0.0134277,0.0334549,-9.97986,0.0131607,-0.0578308,0.0279617,-0.832405,-0.0486755,0.0199509,0.0696564,0.0226212
3,4,9.43105,0,0.00183105,-2.42562,0.0544603,-0.0744527,0.0532125,0.0657823,-0.0919257,0.146234,-0.125766,-0.0819601,0.00904083,0.0327682,0.0247955,0.0214386,0.0110245,0.0279236,0.0152588,0.0320053,-9.97986,0.0122452,-0.0394821,0.0234604,-0.808296,-0.0471497,0.0143051,0.0652695,0.0166702
3,5,9.71395,0.000305176,0.00289917,-2.42623,0.0541551,-0.0747579,0.0544332,0.0718859,-0.0928413,0.144403,-0.124546,-0.0816549,0.00881195,0.0302887,0.0243759,0.0212479,0.0139999,0.0274658,0.0160217,0.0360107,-9.97986,0.0114441,-0.0207901,0.0233459,-0.779572,-0.039444,0.00293732,0.0634766,0.0205994
3,6,10.0097,0.000610352,0.00396729,-2.42684,0.0553758,-0.0738423,0.0544332,0.0905016,-0.0900947,0.145318,-0.12363,-0.0831808,0.0109863,0.0349426,0.0267792,0.0190735,0.011673,0.0256348,0.0194168,0.0358963,-9.97986,0.00896454,-0.0250626,0.021553,-0.749969,-0.0344849,-0.0130844,0.0574493,0.0200653
3,7,10.0097,0.000610352,0.00442505,-2.42928,0.0535448,-0.0756734,0.0522969,0.0801256,-0.0943672,0.143487,-0.125766,-0.085317,0.00999451,0.0349426,0.029335,0.0128937,0.0143814,0.0211716,0.0208664,0.0365829,-9.97986,0.00995636,-0.0282288,0.0180054,-0.712852,-0.0255585,-0.0124741,0.0553513,0.0204849
3,8,10.0097,-0.000305176,0.00335693,-2.42867,0.0538499,-0.0765889,0.0516866,0.0737169,-0.0955879,0.144098,-0.126987,-0.0865377,0.0109482,0.035553,0.0327301,0.0170898,0.0117493,0.0183105,0.0156784,0.0331116,-9.97986,0.0129318,-0.0336838,0.0179291,-0.681572,-0.0206757,-0.018959,0.0535202,0.0192261
3,9,10.0097,-0.000915527,0.00320435,-2.42928,0.0538499,-0.0756734,0.0526021,0.0712755,-0.0949775,0.144403,-0.125461,-0.0862325,0.0087738,0.0323486,0.0294876,0.0136948,0.0122833,0.010376,0.0156784,0.03582,-9.97986,0.0062561,-0.0299835,0.0152588,-0.65136,-0.0195313,-0.0272369,0.0480652,0.0177765
4,0,10.0097,0.000610352,0.00305176,-2.4305,0.0523241,-0.0759786,0.0529073,0.0682238,-0.0946723,0.143792,-0.127598,-0.0865377,0.0101471,0.0315475,0.0291824,0.013504,0.00835419,0.00507355,0.0147247,0.0322342,-9.97986,0.00652313,-0.00133514,0.0115967,-0.614548,-0.0164413,-0.0297165,0.046196,0.0182724
4,1,10.0097,0.00244141,0.00274658,-2.42867,0.0538499,-0.0759786,0.0526021,0.0685289,-0.0946723,0.144708,-0.127292,-0.0865377,0.014534,0.0267029,0.0313568,0.0131989,0.00816345,-0.00102997,0.014534,0.0365067,-9.97986,0.00686646,0.0165176,0.00675201,-0.580673,-0.0129318,-0.0318527,0.0415421,0.0181198
4,2,10.0097,0.000305176,0.00274658,-2.42928,0.0544603,-0.075063,0.0526021,0.0691393,-0.0946723,0.144098,-0.127292,-0.0847066,0.00469208,0.0338745,0.0328064,0.0140762,0.00484467,-0.00350952,0.0127029,0.0321198,-9.97986,0.0108719,-0.0152969,0.00850677,-0.544281,-0.00926971,-0.0350571,0.0395203,0.0123596
4,3,10.0097,0.0012207,0.00289917,-2.42684,0.0541551,-0.075063,0.0526021,0.0709703,-0.0931465,0.143792,-0.126682,-0.0844015,0.00862122,0.0276184,0.0330734,0.0112534,0.00183105,-0.00110626,0.0178146,0.0376892,-9.97986,0.00934601,-0.043869,0.00846863,-0.504761,-0.00789642,-0.0337601,0.03685,0.0115585
4,4,10.0097,0.000305176,0.0038147,-2.42714,0.0547655,-0.0756734,0.0535176,0.0691393,-0.0937568,0.145013,-0.125766,-0.0837911,0.00816345,0.0296021,0.0364304,0.0190353,0.00797272,-0.00621796,0.0177002,0.0376511,-9.97986,0.0109863,-0.0216293,0.00705719,-0.462799,-0.000953674,-0.0326157,0.0347519,0.0125504
4,5,10.0097,-0.0012207,0.00442505,-2.42592,0.0547655,-0.0762837,0.0532125,0.0706652,-0.0934516,0.145624,-0.125461,-0.0831808,0.011673,0.0289154,0.0332642,0.0161362,0.00350952,-0.0150681,0.0117111,0.0318909,-9.97986,0.00751495,0.00709534,-0.011673,-0.416183,-0.00396729,-0.0326538,0.0306702,0.00980377
4,6,10.0097,0.00152588,0.00442505,-2.42531,0.0547655,-0.0744527,0.0529073,0.0715807,-0.0922309,0.145318,-0.124241,-0.0819601,0.00965118,0.0335312,0.0337982,0.017128,0.0118637,-0.0119781,0.0205612,0.0379562,-9.97986,0.00850677,0.0458908,-0.0372696,-0.373344,0.00556946,-0.0230026,0.0271606,0.0138474
4,7,10.0097,-0.000610352,0.00518799,-2.42623,0.055681,-0.0735371,0.0547383,0.0709703,-0.0922309,0.146539,-0.12363,-0.0773824,0.00869751,0.0339508,0.032692,0.0206375,0.0141907,-0.0178528,0.0228882,0.0362778,-9.97986,0.0101471,0.0368881,-0.0608826,-0.32711,0.0106049,-0.0172424,0.0266266,0.0167847
4,8,10.0097,0.00152588,0.00442505,-2.42409,0.0559862,-0.0735371,0.0562642,0.0712755,-0.0916206,0.147149,-0.124851,-0.080129,0.0130463,0.0286102,0.0353241,0.0173187,0.0208282,-0.0168991,0.0250626,0.0365448,-9.97986,0.00816345,0.0209427,-0.0590897,-0.27935,0.0151443,-0.0044632,0.0259018,0.0165939
4,9,10.0097,-0.000305176,0.00396729,-2.42592,0.0559862,-0.0744527,0.0550435,0.0694445,-0.0922309,0.146844,-0.124241,-0.080129,0.00461578,0.0302887,0.0330734,0.0125504,0.0223923,-0.0230026,0.0271225,0.03582,-9.97986,0.0094986,-0.0154495,-0.048027,-0.236931,0.0160217,-0.0056839,0.0197601,0.0170898
5,0,10.0097,0.00244141,0.00473022,-2.4247,0.0569017,-0.0735371,0.055959,0.072191,-0.0931465,0.147149,-0.123325,-0.0789083,-0.00335693,0.0361633,0.0334549,0.0128174,0.0268936,-0.0263977,0.0248718,0.0334167,-9.97986,0.0151062,-0.0311661,-0.022316,-0.187492,0.0160599,-0.00202179,0.0190735,0.019455
5,1,10.0097,-0.000305176,0.00549316,-2.42379,0.0550706,-0.0747579,0.0550435,0.0584581,-0.094062,0.146539,-0.125461,-0.0798238,-0.00499725,0.0374603,0.0357819,0.0140762,0.0288773,-0.0219345,0.0288773,0.0391769,-9.97986,0.0110245,-0.0180054,-0.00312805,-0.141144,0.0218582,0,0.0213242,0.017128
5,2,10.0097,0.000915527,0.00289917,-2.42562,0.0553758,-0.0738423,0.0565694,0.0511339,-0.0946723,0.147455,-0.126377,-0.0810445,-0.0167847,0.039444,0.0338364,0.0145721,0.0374222,-0.0246429,0.0323486,0.0374603,-9.97986,0.012207,-0.02285,0.018692,-0.105629,0.0244141,0.000419617,0.019989,0.0219345
5,3,9.39504,0.000610352,0.00289917,-2.42684,0.0553758,-0.0738423,0.0556539,0.0566271,-0.0916206,0.145318,-0.125461,-0.0813497,-0.0257111,0.0309372,0.0278091,0.0113678,0.0362015,-0.0218582,0.0345612,0.0354767,-9.97986,0.00907898,-0.0107956,0.0451279,-0.0714493,0.0276947,-0.00297546,0.015831,0.0190735
5,4,9.24214,0,0.00335693,-2.42653,0.055681,-0.0738423,0.0553487,0.0654772,-0.0910102,0.145318,-0.125461,-0.0819601,-0.0202179,0.030365,0.0259399,0.0159454,0.0427628,-0.0224304,0.0427246,0.0302505,-9.97986,0.0147247,0.00312805,0.0688171,-0.0509644,0.033989,-0.00934601,0.0157547,0.0183868
5,5,9.50582,0.000305176,0.00198364,-2.42684,0.0547655,-0.0741475,0.054128,0.0715807,-0.0916206,0.145318,-0.125461,-0.0822652,-0.0155258,0.0330353,0.0313568,0.00663757,0.0486755,-0.011673,0.0401306,0.0301361,-9.97986,0.0174332,0.0104904,0.0909424,-0.0313187,0.038681,-0.00911713,0.0208282,0.0212097
5,6,10.0097,0,0.00320435,-2.42653,0.0550706,-0.075063,0.0553487,0.0908068,-0.0903999,0.144708,-0.124241,-0.0834859,-0.00534058,0.033989,0.0289536,0.010376,0.046463,-0.00087738,0.0387573,0.0271606,-9.97986,0.0140381,0.0204468,0.092392,-0.0123215,0.0385666,-0.00789642,0.0172424,0.0242996
5,7,10.0097,-0.000610352,0.00320435,-2.42959,0.0547655,-0.0762837,0.0519917,0.0822618,-0.0943672,0.144403,-0.126987,-0.0850118,0.0118637,0.0311661,0.0311279,0.01194,0.0511169,0.0156021,0.0457001,0.0299454,-9.97986,0.0165176,0.0146484,0.0870514,0.0127411,0.0450134,0.00389099,0.025444,0.0266266
5,8,10.0097,-0.000305176,0.00274658,-2.4302,0.0535448,-0.0747579,0.0519917,0.0746324,-0.0943672,0.142877,-0.126682,-0.0859274,0.0219727,0.0319672,0.030098,0.00904083,0.0577927,0.0251007,0.0431061,0.0242615,-9.97986,0.00793457,0.0151825,0.0677872,0.0320816,0.0478363,0.000305176,0.0305939,0.0293732
5,9,10.0097,-0.00152588,0.00228882,-2.42806,0.0547655,-0.0762837,0.0513814,0.0709703,-0.0943672,0.143487,-0.127292,-0.0856222,0.0269699,0.0327301,0.0302505,0.00900269,0.0625229,0.0266647,0.044632,0.017395,-9.97986,0.00919342,0.0426483,0.0523376,0.0545502,0.0496674,-0.000305176,0.0339127,0.0289917
6,0,10.0097,0,0.00183105,-2.42928,0.0535448,-0.0778096,0.0513814,0.0694445,-0.0955879,0.145318,-0.128208,-0.0871481,0.0352478,0.0385666,0.0313568,0.0160599,0.0666428,0.0317001,0.0458145,0.0180817,-9.97986,0.00366211,0.0527954,0.0370789,0.0715256,0.0486755,0.00511169,0.0364685,0.0329208
6,1,10.0097,0.00183105,0.00106812,-2.42898,0.0526292,-0.0756734,0.0519917,0.0694445,-0.0946723,0.144403,-0.128513,-0.0865377,0.0266266,0.0352478,0.030365,0.0105667,0.0777054,0.0353622,0.0466156,0.0113297,-9.97986,-0.00354767,0.0469971,0.0322723,0.0884628,0.0471115,0.00564575,0.0406265,0.0396347
6,2,10.0097,0.000305176,0.00167847,-2.42837,0.0550706,-0.0756734,0.0526021,0.0691393,-0.0952827,0.143792,-0.127292,-0.0856222,0.0151062,0.0345612,0.0308609,0.00873566,0.0960159,0.0366592,0.0527954,0.0138855,-9.97986,-0.0114441,0.0307846,0.0232697,0.106773,0.052681,0.0056076,0.0431824,0.0452805
6,3,10.0097,-0.000610352,0.0012207,-2.42745,0.0541551,-0.075063,0.0535176,0.0691393,-0.0943672,0.145013,-0.125766,-0.085317,0.00961304,0.0327682,0.0329971,0.0110245,0.106812,0.0400543,0.0529861,0.0127792,-9.97986,-0.0168228,0.0144196,0.0196075,0.128517,0.0518799,0.00743866,0.0496292,0.0505829
6,4,10.0097,0.00213623,0.00137329,-2.42745,0.0547655,-0.073232,0.0532125,0.0700548,-0.0937568,0.143487,-0.126072,-0.0844015,0.00919342,0.0308609,0.033493,0.0115204,0.120811,0.0388336,0.0549316,0.0160599,-9.97986,-0.0210571,-0.00587463,0.0195313,0.13958,0.0487518,-0.000267029,0.0518036,0.0564957
6,5,10.0097,0.00152588,0.00183105,-2.42684,0.055681,-0.0753682,0.0526021,0.0694445,-0.0931465,0.145929,-0.126072,-0.0831808,0.0141907,0.0282669,0.0302887,0.0120163,0.124435,0.0348282,0.0569153,0.0165939,-9.97986,-0.0183868,-0.0299454,0.0226974,0.154533,0.0525284,-0.00511169,0.0551224,0.0622177
6,6,10.0097,0.000610352,0.00244141,-2.42562,0.055681,-0.0738423,0.054128,0.0709703,-0.0913154,0.145624,-0.123935,-0.0831808,0.0169373,0.0340652,0.0290298,0.0105667,0.123329,0.0389481,0.0533676,0.021553,-9.97986,-0.014801,-0.0255585,0.0262833,0.177345,0.047226,-0.0102615,0.0568008,0.0727081
6,7,10.0097,0.000305176,0.0012207,-2.4244,0.0572069,-0.0738423,0.0535176,0.0697496,-0.0916206,0.145929,-0.124546,-0.0816549,0.0206375,0.0304794,0.0300598,0.0127792,0.122185,0.043602,0.0557709,0.0239944,-9.97986,-0.00934601,-0.00686646,0.0366211,0.186691,0.0518417,-0.00965118,0.0569916,0.0767517
6,8,10.0097,0,0.00152588,-2.4247,0.0559862,-0.0735371,0.055959,0.0709703,-0.0910102,0.146539,-0.124546,-0.0795187,0.0273514,0.0292206,0.0230789,0.0109863,0.129471,0.0479126,0.059433,0.0271225,-9.97986,-0.0110245,-0.0252151,0.0471497,0.204926,0.0472641,-0.00667572,0.0608063,0.0825882
6,9,10.0097,0.000610352,0.00259399,-2.42623,0.055681,-0.073232,0.0556539,0.0712755,-0.0910102,0.146539,-0.12363,-0.0822652,0.0229645,0.0317764,0.0292206,0.0125122,0.131035,0.0486755,0.0594711,0.0291443,-9.97986,-0.000495911,-0.0316238,0.0520706,0.222168,0.0432587,-0.00713348,0.0662231,0.0885391
7,0,10.0097,0.000915527,0.00244141,-2.4247,0.0559862,-0.073232,0.0547383,0.0715807,-0.0903999,0.145624,-0.12363,-0.0798238,0.0102234,0.0337982,0.0265121,0.0133514,0.127411,0.0585175,0.0611496,0.0284195,-9.97986,0.0215149,-0.00522614,0.0564575,0.243111,0.0476456,-0.00740051,0.0646973,0.0983429
7,1,10.0097,0.00183105,0.00244141,-2.42684,0.0562914,-0.0738423,0.054128,0.0572374,-0.0949775,0.145318,-0.125156,-0.0813497,-0.00450134,0.0303268,0.0222778,0.00995636,0.129089,0.0643921,0.0598145,0.0246811,-9.97986,0.0379181,0.0283432,0.0470352,0.260544,0.0444412,-0.00911713,0.0626373,0.0814819
7,2,10.0097,0.000610352,0.000457764,-2.42592,0.0565965,-0.0741475,0.0544332,0.0508287,-0.0946723,0.146234,-0.126072,-0.0816549,-0.0173187,0.0285339,0.0244141,0.00759125,0.124397,0.0656509,0.0543594,0.0311279,-9.97986,0.0492096,0.0100708,0.0324631,0.274086,0.0486374,-0.01091,0.0624466,0.0441742
7,3,9.31111,-0.0012207,0.000457764,-2.4247,0.0559862,-0.0738423,0.0544332,0.0572374,-0.0931465,0.145013,-0.125461,-0.0813497,-0.0128937,0.0302505,0.0247574,0.0128555,0.126839,0.0662994,0.0622177,0.0294495,-9.97986,0.0441742,-0.0235748,0.00869751,0.28904,0.045433,-0.00862122,0.0616455,0.0102997
7,4,9.13503,0.000610352,0.00167847,-2.42684,0.0544603,-0.0744527,0.0535176,0.0642565,-0.0961982,0.143792,-0.125766,-0.0819601,-0.0248718,0.0337601,0.0269318,0.0121307,0.124016,0.0720596,0.0554657,0.0230408,-9.97986,0.0210571,-0.0121307,-0.0282288,0.301437,0.0414658,-0.0082016,0.0538254,-0.0239182
7,5,9.4283,0.000305176,0.00152588,-2.42684,0.0559862,-0.075063,0.0532125,0.0718859,-0.0928413,0.144708,-0.125156,-0.0828756,-0.0273514,0.0310135,0.0257492,0.0133133,0.126381,0.0751495,0.0535583,0.0179291,-9.97986,0.00972748,0.00152588,-0.0778198,0.318375,0.0411606,-0.00663757,0.0567245,-0.0513077
7,6,10.0097,0.000305176,0.00259399,-2.42653,0.0544603,-0.075063,0.0544332,0.0923326,-0.0897895,0.144708,-0.125156,-0.0828756,-0.0219727,0.0324631,0.02285,0.0132751,0.129204,0.0738525,0.0510788,0.0155258,-9.97986,0.0143051,-0.00389099,-0.116348,0.328751,0.0442886,-0.0107574,0.052681,-0.0859833
7,7,10.0097,-0.0012207,0.00198364,-2.42898,0.0538499,-0.0756734,0.0495503,0.0834825,-0.0943672,0.142877,-0.126987,-0.0850118,-0.00743866,0.032959,0.0309753,0.0172424,0.121918,0.0669098,0.0521469,0.000267029,-9.97986,-0.000610352,-0.00907898,-0.159645,0.346794,0.0428009,-0.0106049,0.0421524,-0.121994
7,8,10.0097,-0.000305176,0.000762939,-2.42959,0.0532396,-0.0765889,0.0498555,0.0737169,-0.0946723,0.143487,-0.127292,-0.085317,-0.00114441,0.0286484,0.0300217,0.018425,0.1157,0.0562286,0.0551605,-0.0038147,-9.97986,-0.00740051,-0.0139236,-0.196381,0.343742,0.0494385,-0.00591278,0.0384903,-0.151291
7,9,10.0097,-0.00274658,0.000915527,-2.42745,0.0544603,-0.0756734,0.0510762,0.0700548,-0.0934516,0.143792,-0.127292,-0.0862325,-0.00175476,0.03479,0.0273132,0.0180817,0.112152,0.0229263,0.0499344,-0.00656128,-9.97986,-0.019455,-0.0149918,-0.21904,0.355034,0.0468445,-0.00148773,0.0345612,-0.181084
8,0,10.0097,-0.000610352,-0.000305176,-2.4302,0.0526292,-0.0756734,0.0516866,0.0688341,-0.0946723,0.142877,-0.127903,-0.0874532,0.0115204,0.0335693,0.0308609,0.0171661,0.104942,-0.0012207,0.0461197,-0.0119781,-9.97986,-0.0363922,-0.0167084,-0.234795,0.352898,0.0540161,0.00930786,0.0252151,-0.201454
8,1,10.0097,0.0012207,-0.000610352,-2.42837,0.0532396,-0.0762837,0.0532125,0.0685289,-0.0949775,0.142572,-0.127598,-0.0871481,0.00537872,0.0317383,0.0283813,0.0139999,0.0946426,-0.0139236,0.0509262,-0.0105286,-9.97986,-0.0395584,-0.0154114,-0.244751,0.34996,0.0569534,0.0141525,0.0233078,-0.212326
8,2,10.0097,0.00152588,-0.000457764,-2.42867,0.0529344,-0.0753682,0.0529073,0.0700548,-0.0934516,0.143792,-0.127598,-0.0865377,0.0240326,0.0298309,0.0238419,0.0175858,0.081749,-0.0309372,0.0468826,-0.00236511,-9.97986,-0.0460815,-0.0131226,-0.246048,0.340614,0.0526047,0.0209427,0.0174713,-0.21347
8,3,10.0097,0.0012207,-0.000152588,-2.42806,0.0553758,-0.0753682,0.054128,0.0700548,-0.094062,0.145013,-0.127292,-0.0850118,0.0495529,0.0328064,0.0293732,0.0188446,0.0690079,-0.0454712,0.0426865,0.00183105,-9.97986,-0.0602341,-0.0102234,-0.241432,0.333595,0.0543976,0.0237274,0.0157547,-0.214958
8,4,10.0097,-0.000915527,-0.000762939,-2.42684,0.0541551,-0.0747579,0.0532125,0.0697496,-0.0934516,0.144098,-0.125156,-0.0844015,0.0518799,0.0274658,0.0292969,0.0147629,0.0602722,-0.061264,0.0406265,0.00263214,-9.97986,-0.0752258,-0.00858307,-0.235481,0.325012,0.0574112,0.0270462,0.00770569,-0.206833
8,5,10.0097,0.000305176,-0.00106812,-2.42776,0.0544603,-0.0741475,0.0547383,0.07036,-0.0891792,0.145013,-0.126072,-0.0847066,0.0452805,0.0259018,0.0244904,0.0111771,0.0485992,-0.0839233,0.0362778,0.00587463,-9.97986,-0.0754929,-0.00930786,-0.225906,0.310364,0.0559998,0.021553,0.00423431,-0.200729
8,6,10.0097,0.000610352,-0.000915527,-2.42501,0.0562914,-0.0744527,0.054128,0.0706652,-0.0922309,0.145624,-0.126072,-0.0828756,0.0274658,0.0259399,0.0187683,0.0131989,0.0515366,-0.0885391,0.0410843,0.0112534,-9.97986,-0.0595093,0.00190735,-0.218315,0.297852,0.0607681,0.018158,0.00297546,-0.185394
8,7,10.0097,-0.000305176,-0.0012207,-2.42501,0.0562914,-0.073232,0.0553487,0.0712755,-0.0922309,0.146844,-0.124241,-0.0816549,0.00919342,0.0221252,0.0178909,0.0125122,0.045433,-0.0830078,0.0336075,0.0136566,-9.97986,-0.0316238,-0.00137329,-0.205421,0.275612,0.0595474,0.0154495,-0.00133514,-0.174217
8,8,10.0097,-0.00152588,-0.00137329,-2.42531,0.0575121,-0.075063,0.0547383,0.0706652,-0.0919257,0.146844,-0.124241,-0.0813497,-0.000724792,0.0191879,0.0124359,0.00957489,0.0428772,-0.0719833,0.0308609,0.0125885,-9.97986,0.00679016,-0.00164032,-0.193748,0.260391,0.0654221,0.0153351,-0.00766754,-0.162468
8,9,10.0097,0.000305176,-0.00183105,-2.42562,0.0559862,-0.0738423,0.0556539,0.0728014,-0.0913154,0.147149,-0.124851,-0.0819601,-0.00228882,0.0141525,0.00671387,0.00564575,0.0498962,-0.0534439,0.0327682,0.0139236,-9.97986,0.0300217,0.000495911,-0.18177,0.238113,0.0669479,0.00961304,-0.00736237,-0.144691
9,0,10.0097,0.0012207,-0.00167847,-2.4247,0.0562914,-0.0729268,0.0553487,0.0724962,-0.090705,0.14776,-0.12363,-0.0804342,0.00389099,0.0136566,0.00957489,0.00850677,0.0496674,-0.0300217,0.0271225,0.00576019,-9.97986,0.0460815,-0.00175476,-0.177574,0.217361,0.0689697,0.00778198,-0.0115967,-0.137939
9,1,10.0097,0.000305176,-0.00106812,-2.42653,0.0565965,-0.0738423,0.0544332,0.0566271,-0.0949775,0.146539,-0.124851,-0.0819601,0.00320435,0.0139618,0.00938416,0.00900269,0.0642776,-0.00602722,0.023613,0.00823975,-9.97986,0.0465012,-0.000152588,-0.164642,0.204964,0.0750732,0.0131607,-0.0170135,-0.12867
9,2,10.0097,0.000305176,-0.00244141,-2.42623,0.0562914,-0.0735371,0.0544332,0.0502184,-0.0934516,0.146234,-0.126377,-0.0825704,0.0196075,0.0180435,0.0075531,0.00965118,0.0587463,0.0226974,0.0265121,0.0148392,-9.97986,0.0141525,-0.00591278,-0.158463,0.193024,0.080452,0.0075531,-0.0165939,-0.12291
9,3,9.18782,0.00396729,-0.00213623,-2.42623,0.0550706,-0.075063,0.0535176,0.054796,-0.0922309,0.14837,-0.125461,-0.0822652,0.00946045,0.01297,0.00530243,0.00530243,0.068779,0.0514603,0.0254059,0.0108719,-9.97986,-0.0379181,-0.00411987,-0.15358,0.172615,0.0857544,0.0113678,-0.0107193,-0.111618
9,4,8.99983,0.00244141,-0.00106812,-2.42562,0.0553758,-0.0741475,0.0556539,0.0633409,-0.0931465,0.146234,-0.125461,-0.0844015,-0.0345993,0.0150299,0.0038147,0.0104141,0.0774002,0.0773239,0.0266266,0.016098,-9.97986,-0.0647736,-0.0082016,-0.156174,0.155373,0.0924301,0.0108719,-0.0117874,-0.102043
9,5,9.25649,0,-0.00137329,-2.42714,0.0553758,-0.0747579,0.0544332,0.0715807,-0.0968086,0.146844,-0.125461,-0.0834859,-0.0676346,0.00823975,-7.62939e-005,0.00923157,0.0775146,0.0841904,0.0234604,0.0167465,-9.97986,-0.05867,-0.00831604,-0.152016,0.139236,0.09552,0.0109863,-0.0102234,-0.092392
9,6,10.0097,0.00183105,-0.000457764,-2.42745,0.0547655,-0.0747579,0.0553487,0.0938585,-0.0903999,0.145624,-0.12363,-0.0831808,-0.0543976,0.00804901,-0.000305176,0.0075531,0.075531,0.0922012,0.0212097,0.00946045,-9.97986,-0.0151825,-0.01194,-0.147209,0.128784,0.102119,0.0104904,-0.0104523,-0.0790405
9,7,10.0097,0,-0.000762939,-2.42806,0.0550706,-0.075063,0.0519917,0.0859239,-0.0922309,0.143792,-0.124546,-0.0865377,-0.0191498,0.00465393,-0.0019455,0.00682831,0.0693512,0.0937271,0.0251389,0.0117111,-9.97986,0.0544739,-0.0152588,-0.140839,0.10849,0.110664,0.00774384,-0.0154114,-0.0695801
9,8,10.0097,0,-0.00198364,-2.42806,0.0535448,-0.0756734,0.0529073,0.0770738,-0.094062,0.143182,-0.126072,-0.0868429,0.0462341,0.00514984,-0.00450134,0.00934601,0.0662231,0.0870895,0.0185394,0.0147247,-9.97986,0.119057,-0.0206375,-0.127525,0.0891113,0.107269,0.0127411,-0.0190735,-0.065918
9,9,10.0097,0.00152588,-0.00183105,-2.42776,0.0547655,-0.0759786,0.0516866,0.0731066,-0.0934516,0.143792,-0.126987,-0.0868429,0.119667,0.00785828,-0.00419617,0.0101471,0.0614548,0.0706482,0.0196457,0.0285721,-9.97986,0.161858,-0.0154114,-0.109329,0.0710297,0.112,0.00911713,-0.0241852,-0.0557327
10,0,10.0097,-0.00183105,-0.00213623,-2.42989,0.0535448,-0.0756734,0.0522969,0.0709703,-0.0952827,0.143792,-0.127292,-0.0886739,0.123024,0.00621796,-0.00621796,0.00617981,0.0507355,0.0416183,0.0182724,0.0412369,-9.97986,0.188217,-0.0157166,-0.0941086,0.0500107,0.114326,0.0117111,-0.0303268,-0.0510788
10,1,10.0097,0.00152588,-0.00213623,-2.42837,0.0538499,-0.0756734,0.0532125,0.0694445,-0.0961982,0.148065,-0.128208,-0.0874532,0.0667572,0.00881195,-0.00240326,0.00530243,0.0439072,0.0211334,0.0179291,0.0426102,-9.97986,0.216331,-0.00915527,-0.0828552,0.0284576,0.111961,0.0114441,-0.0320435,-0.0460052
10,2,10.0097,0.000610352,-0.00289917,-2.42867,0.0535448,-0.0765889,0.055959,0.0676134,-0.0955879,0.144098,-0.126682,-0.0871481,0.0063324,0.0100708,0.00038147,0.00785828,0.0364685,0.0216293,0.0127411,0.0447083,-9.97986,0.216141,-0.0125504,-0.0655365,-0.00133514,0.108147,0.0130081,-0.0432205,-0.0373459
10,3,10.0097,0.000915527,-0.00274658,-2.42898,0.0538499,-0.0759786,0.0535176,0.0694445,-0.0946723,0.145318,-0.126682,-0.0856222,-0.0353241,0.0106049,0.00377655,0.00583649,0.02388,0.0292969,0.0105667,0.044632,-9.97986,0.181732,-0.0116348,-0.0499344,-0.0300217,0.101929,0.0111771,-0.0381851,-0.028801
10,4,10.0097,0.000610352,-0.00274658,-2.42776,0.0553758,-0.0744527,0.0547383,0.0685289,-0.0928413,0.144708,-0.125766,-0.085317,-0.046196,0.00946045,-0.000648499,0.00617981,0.0237656,0.0402451,0.0165176,0.0469971,-9.97986,0.122681,-0.013504,-0.0400925,-0.0616074,0.100441,0.00835419,-0.0414658,-0.0221252
10,5,10.0097,-0.000305176,-0.00305176,-2.42653,0.0547655,-0.0744527,0.0532125,0.0682238,-0.0931465,0.144403,-0.126072,-0.0840963,-0.0156784,0.0131989,0.0063324,0.00961304,0.00843048,0.0404739,0.00968933,0.0445938,-9.97986,0.0774765,-0.0139999,-0.0228882,-0.0889206,0.0957108,0.00873566,-0.0378418,-0.0156403
10,6,10.0097,0.000610352,-0.00244141,-2.42531,0.0553758,-0.0753682,0.0538228,0.07036,-0.0916206,0.147149,-0.125156,-0.0831808,0.013237,0.0139236,0.00389099,0.0114059,-0.0031662,0.0391006,0.00827789,0.0447464,-9.97986,0.0341034,-0.00862122,-0.0069809,-0.115471,0.0905991,0.0114059,-0.0442123,-0.0114059
10,7,10.0097,-0.000610352,-0.00244141,-2.42501,0.0569017,-0.0738423,0.0553487,0.07036,-0.0903999,0.146234,-0.124851,-0.0825704,0.0225449,0.00904083,0.00617981,0.00526428,-0.00659943,0.0357819,0.0102234,0.0457764,-9.97986,0.00911713,-0.00907898,-0.000953674,-0.142288,0.0843811,0.0123215,-0.0395584,-0.0156021
10,8,10.0097,0.000305176,-0.00244141,-2.4247,0.0569017,-0.0735371,0.0550435,0.072191,-0.0919257,0.146539,-0.125156,-0.0813497,0.0400162,0.0133514,0.00743866,0.00514984,-0.0131607,0.0241089,0.00869751,0.0431061,-9.97986,0.00743866,-0.00743866,0.0211334,-0.172615,0.0844574,0.0119019,-0.0408936,-0.0185776
10,9,10.0097,0.0012207,-0.00274658,-2.4244,0.0562914,-0.0735371,0.0553487,0.07036,-0.0913154,0.146844,-0.125156,-0.0825704,0.0618744,0.017128,0.0152206,0.00892639,-0.0237656,0.0102997,0.0101089,0.0371552,-9.97986,0.00843048,-0.00480652,0.0353241,-0.195541,0.0842667,0.0118637,-0.0411987,-0.0144958
11,0,10.0097,-0.000610352,-0.00228882,-2.4247,0.0569017,-0.0738423,0.054128,0.0715807,-0.0900947,0.148065,-0.123935,-0.0819601,0.0682449,0.0150681,0.0118637,0.00789642,-0.0260162,-0.0131989,0.00831604,0.0410461,-9.97986,0.0276566,-0.00144958,0.0505447,-0.216484,0.0775146,0.0127792,-0.0421524,-0.00652313
11,1,10.0097,0.00152588,-0.00228882,-2.42684,0.0565965,-0.0747579,0.0544332,0.0605944,-0.0946723,0.146539,-0.125461,-0.0819601,0.0467682,0.0161743,0.0185013,0.0119781,-0.0350571,-0.0194168,0.00911713,0.0333023,-9.97986,0.0612259,-0.000991821,0.0663757,-0.243187,0.0769043,0.0162888,-0.0393295,-0.00782013
11,2,10.0097,0.00213623,-0.00366211,-2.42562,0.0572069,-0.0741475,0.0538228,0.0508287,-0.0943672,0.147149,-0.125156,-0.0816549,0.0187302,0.0155258,0.0193405,0.0108719,-0.031929,-0.0286865,0.0113297,0.0321579,-9.97986,0.0751877,-0.00553131,0.0717926,-0.26516,0.0746918,0.0122452,-0.0392914,-0.00694275
11,3,9.50185,0.000305176,-0.00259399,-2.42562,0.055681,-0.0738423,0.0550435,0.0563219,-0.0910102,0.146234,-0.125766,-0.0822652,0.0161743,0.0242233,0.0230026,0.0156784,-0.0276566,-0.0357819,0.00835419,0.0358582,-9.97986,0.0789642,-0.00598907,0.0896454,-0.281677,0.0793457,0.0117874,-0.0350189,-0.00232697
11,4,9.37703,-0.000305176,-0.00198364,-2.42623,0.0559862,-0.0747579,0.0562642,0.0648668,-0.0925361,0.146539,-0.126682,-0.0834859,-0.000686646,0.022583,0.0224686,0.0146103,-0.0301743,-0.042038,0.0044632,0.0334549,-9.97986,0.0658035,-0.000762939,0.103264,-0.298233,0.0815964,0.0179291,-0.0377655,0.00110626
11,5,9.71425,0.0012207,-0.0012207,-2.42684,0.0565965,-0.0735371,0.0544332,0.072191,-0.0916206,0.145624,-0.126072,-0.0834859,-0.0258636,0.0230789,0.0217056,0.0133896,-0.0212097,-0.0484848,0.00499725,0.0340271,-9.97986,0.0439072,-0.00038147,0.112648,-0.310974,0.0811768,0.0162125,-0.0376129,-0.0019455
11,6,10.0097,0.000610352,0,-2.42714,0.0547655,-0.075063,0.0538228,0.0932482,-0.0903999,0.144098,-0.124241,-0.0840963,-0.0196075,0.0226974,0.0270462,0.0164032,-0.0222015,-0.0598145,-0.00190735,0.028038,-9.97986,0.0200272,0.0038147,0.12394,-0.324554,0.0783157,0.0151443,-0.0355911,-0.00419617
11,7,10.0097,0.000610352,-0.000152588,-2.42898,0.0532396,-0.0759786,0.0532125,0.0804308,-0.0925361,0.143792,-0.126682,-0.0862325,0.0069046,0.0224304,0.0217438,0.0126648,-0.0214005,-0.067482,0.000572205,0.0284195,-9.97986,-0.00396729,0.00255585,0.140038,-0.337982,0.0861359,0.0165176,-0.0322723,0.00114441
11,8,10.0097,0,-0.000610352,-2.42867,0.0538499,-0.075063,0.0529073,0.0715807,-0.0955879,0.143182,-0.126682,-0.0871481,0.012207,0.0226974,0.022049,0.0175858,-0.0158691,-0.064888,-0.00652313,0.0338364,-9.97986,-0.0182343,0.00484467,0.144272,-0.345383,0.0936508,0.0150299,-0.0367355,-0.00110626
11,9,10.0097,0.000915527,-0.00106812,-2.42867,0.0541551,-0.0762837,0.0522969,0.0724962,-0.0955879,0.143792,-0.127598,-0.0871481,0.0201416,0.019989,0.0190735,0.0167465,-0.014534,-0.0636292,-0.00274658,0.0343704,-9.97986,-0.0262451,0.0019455,0.147858,-0.357742,0.0889969,0.0192261,-0.0334549,-0.000801086
12,0,10.0097,0.000305176,-0.000610352,-2.4302,0.0532396,-0.0775044,0.0516866,0.0688341,-0.0949775,0.142267,-0.127292,-0.0874532,0.0251007,0.0134659,0.0127792,0.0114822,-0.0109863,-0.0605011,-0.00896454,0.0398636,-9.97986,-0.0214767,0.0103378,0.153694,-0.364761,0.0862503,0.0139618,-0.0314713,-0.00270844
12,1,10.0097,0.00183105,-0.000915527,-2.42806,0.0535448,-0.0756734,0.0513814,0.0676134,-0.0955879,0.142572,-0.127598,-0.0868429,-0.0157547,0.0142288,0.0139999,0.011673,-0.0141144,-0.0479126,-0.0125885,0.0468826,-9.97986,-0.0202179,0.00259399,0.158882,-0.36232,0.0827408,0.0116348,-0.0222015,-0.00350952
12,2,10.0097,0.000305176,-0.000305176,-2.42806,0.0553758,-0.0753682,0.0538228,0.0682238,-0.0955879,0.144708,-0.125766,-0.0859274,-0.0518799,0.0131989,0.0111389,0.0132751,-0.00740051,-0.0500107,-0.0123215,0.0507355,-9.97986,-0.0297928,0.000724792,0.163422,-0.365295,0.0880814,0.0186539,-0.00980377,-0.000343323
12,3,10.0097,-0.00244141,0.000457764,-2.42714,0.0550706,-0.0747579,0.0535176,0.0688341,-0.0937568,0.143792,-0.127598,-0.085317,-0.0273895,0.0149536,0.0154114,0.0125885,-0.00911713,-0.0510788,-0.0169373,0.0535965,-9.97986,-0.0485611,-0.00144958,0.162811,-0.353317,0.085907,0.0178528,-0.000724792,-0.0012207
12,4,10.0097,0.00183105,0.00106812,-2.42684,0.0547655,-0.0747579,0.0532125,0.0697496,-0.094062,0.144403,-0.126682,-0.0837911,-0.00469208,0.0177765,0.0197601,0.0104523,-0.00335693,-0.0548172,-0.0207901,0.053978,-9.97986,-0.0619888,0.00133514,0.161591,-0.33886,0.0834274,0.0183105,0.0043869,0.000152588
12,5,10.0097,-0.0012207,0.00167847,-2.42653,0.055681,-0.0744527,0.0547383,0.0706652,-0.0931465,0.146234,-0.125766,-0.0834859,-0.0282669,0.0159454,0.0118637,0.00904083,-0.00553131,-0.0542068,-0.0250626,0.0575638,-9.97986,-0.0495529,0.00846863,0.161285,-0.31868,0.0859451,0.0187302,0.00450134,-0.00358582
12,6,10.0097,0.000305176,0.00183105,-2.42623,0.0553758,-0.0744527,0.0547383,0.0697496,-0.0934516,0.145318,-0.125461,-0.0819601,-0.0631332,0.0128937,0.0137711,0.00427246,0.000419617,-0.059433,-0.0346756,0.0610733,-9.97986,-0.0159454,0.00946045,0.161018,-0.288696,0.0856781,0.0197983,0.0025177,-0.00511169
12,7,10.0097,0.000610352,0.00289917,-2.42592,0.0569017,-0.0723164,0.0547383,0.0728014,-0.0913154,0.146844,-0.125156,-0.0816549,-0.0660706,0.0160217,0.0165939,0.00999451,-0.00469208,-0.0563812,-0.0383759,0.0551224,-9.97986,0.0314713,0.00656128,0.153122,-0.258904,0.0846863,0.0210953,0.00118256,0.00152588
12,8,10.0097,0.000610352,0.00335693,-2.4247,0.0572069,-0.073232,0.0544332,0.0724962,-0.0916206,0.145624,-0.123325,-0.0810445,-0.060463,0.0172043,0.0179291,0.01194,-0.00442505,-0.0590515,-0.0399017,0.0478363,-9.97986,0.0797272,0.00598907,0.155678,-0.212402,0.0811005,0.021553,-0.00370026,-0.00312805
12,9,10.0097,-0.000305176,0.00396729,-2.42684,0.0559862,-0.0744527,0.0556539,0.0731066,-0.0919257,0.145929,-0.124851,-0.0804342,-0.03582,0.0163651,0.015831,0.01297,-0.0043869,-0.0537491,-0.046463,0.0369263,-9.97986,0.0980759,0.00312805,0.144615,-0.169067,0.0776672,0.020752,-0.00297546,0.00038147
13,0,10.0097,0.000305176,0.00457764,-2.42501,0.0565965,-0.0738423,0.0553487,0.0709703,-0.0910102,0.147149,-0.124546,-0.0789083,0.00709534,0.02285,0.0173569,0.0174332,-0.00347137,-0.0515747,-0.0490952,0.0304031,-9.97986,0.0746918,0.00747681,0.144882,-0.131035,0.0782394,0.0137711,-0.000686646,-0.00427246
13,1,10.0097,0.000610352,0.00396729,-2.42592,0.0569017,-0.0738423,0.054128,0.0593737,-0.0934516,0.145624,-0.124851,-0.0804342,0.0537872,0.0176239,0.0208282,0.0181198,-0.00347137,-0.0467682,-0.0502777,0.0238419,-9.97986,0.0576401,0.0139236,0.141182,-0.0946045,0.075264,0.0087738,0.00282288,-0.00331879
13,2,10.0097,0,0.00152588,-2.42592,0.055681,-0.0735371,0.0538228,0.0502184,-0.0919257,0.148065,-0.126072,-0.0807394,0.0889969,0.0237274,0.0167084,0.0208282,-0.00209808,-0.0444412,-0.046196,0.0102615,-9.97986,0.0355911,0.0175095,0.136299,-0.07164,0.0772858,0.00705719,0.00797272,-0.00408173
13,3,9.43471,0.000915527,0.00198364,-2.42623,0.0584276,-0.0738423,0.0550435,0.0566271,-0.0925361,0.146234,-0.125766,-0.080129,0.107155,0.0237656,0.0213623,0.0201035,7.62939e-005,-0.0425339,-0.0498581,0.00289917,-9.97986,0.00831604,0.0106812,0.127792,-0.0496292,0.0727844,0,0.0180054,-0.00171661
13,4,9.25679,0,0.00183105,-2.42592,0.0553758,-0.0762837,0.0532125,0.0645616,-0.0931465,0.143792,-0.126377,-0.0825704,0.0984192,0.0256348,0.019455,0.0206375,0.000991821,-0.03685,-0.04879,0.00221252,-9.97986,-0.02285,0.00671387,0.119896,-0.0282669,0.0699997,0.00179291,0.0281525,-0.00869751
13,5,9.52779,0.00152588,0.00228882,-2.42562,0.0547655,-0.0738423,0.0553487,0.0715807,-0.0922309,0.145624,-0.125766,-0.0825704,0.0891876,0.0223923,0.0224304,0.0185776,-0.00236511,-0.0282669,-0.0457001,0.0075531,-9.97986,-0.0379562,-0.00389099,0.106544,-0.0166321,0.0736618,-0.00411987,0.0426102,-0.00534058
13,6,10.0097,0.00152588,0.00289917,-2.42684,0.0547655,-0.0744527,0.0553487,0.0917223,-0.0897895,0.144403,-0.125766,-0.085317,0.102501,0.022049,0.0174332,0.0188446,0.00209808,-0.0284958,-0.0447845,0.0025177,-9.97986,-0.0482941,-0.00785828,0.104637,-0.00831604,0.0696564,-0.0038147,0.0562668,-0.00572205
13,7,10.0097,0.0012207,0.00167847,-2.42928,0.0523241,-0.0765889,0.0522969,0.0840929,-0.0943672,0.144708,-0.126377,-0.0862325,0.126839,0.0133514,0.0147247,0.0153732,0.00289917,-0.0288773,-0.0386429,0.0114441,-9.97986,-0.0327682,-0.00537872,0.0963593,-0.00137329,0.0734711,0.00434875,0.0729752,-0.00576019
13,8,10.0097,-0.000305176,0.000152588,-2.42837,0.0547655,-0.075063,0.0526021,0.0728014,-0.0955879,0.142877,-0.126377,-0.0862325,0.113754,0.0120544,0.00629425,0.0125122,0.00576019,-0.0331879,-0.0318909,0.0162125,-9.97986,-0.00892639,-0.0115585,0.0844193,0.00400543,0.0701904,0.00217438,0.0823975,-0.00709534
13,9,10.0097,-0.000305176,0.00106812,-2.42867,0.0514085,-0.0759786,0.0519917,0.0734117,-0.095893,0.143182,-0.126682,-0.0862325,0.0831223,0.0102615,0.00865936,0.0166702,0.0123215,-0.0311661,-0.0123215,0.0275421,-9.97986,0.0107574,-0.00732422,0.0819016,0.0119019,0.0798798,0.00759125,0.103493,-0.000267029
14,0,10.0097,0.000305176,-0.000762939,-2.42867,0.0529344,-0.0759786,0.0526021,0.0685289,-0.095893,0.144403,-0.125766,-0.0868429,0.0579071,-0.00198364,-0.0062561,0.00686646,0.00541687,-0.0492477,-0.0144196,0.0207138,-9.97986,0.0213242,-0.00534058,0.0638962,0.00133514,0.0722122,-0.00267029,0.100708,-0.00804901
14,1,10.0097,0.000610352,-0.000762939,-2.42928,0.0541551,-0.0759786,0.0510762,0.0679186,-0.0952827,0.142877,-0.127598,-0.0877584,0.0388718,0.00587463,0.0031662,0.0122452,0.0132751,-0.0353241,-0.00102997,0.0271225,-9.97986,0.0256729,0.00312805,0.0555038,0.00377655,0.0777435,-0.00133514,0.113602,-0.00339508
14,2,10.0097,0.00183105,0.000152588,-2.42837,0.0541551,-0.0747579,0.0526021,0.067003,-0.0937568,0.145013,-0.126377,-0.0880636,0.0172043,0.00423431,-0.00114441,0.0121307,0.00976563,-0.0393295,0.00423431,0.021286,-9.97986,0.0192642,0.00793457,0.04673,-0.00244141,0.0770569,-0.00362396,0.116043,-0.00183105
14,3,10.0097,-0.0012207,-0.00106812,-2.42684,0.0535448,-0.0744527,0.0516866,0.0697496,-0.0931465,0.145013,-0.126072,-0.0850118,0.0166702,0.000991821,-0.00263214,0.0106049,0.01194,-0.0424194,0.0140381,0.0194931,-9.97986,0.0328064,0.0069809,0.0367355,0.00106812,0.07164,-0.00457764,0.119591,-0.00736237
14,4,10.0097,0,-0.000457764,-2.42745,0.0550706,-0.0753682,0.0532125,0.0709703,-0.0934516,0.145013,-0.126682,-0.0850118,0.043602,-7.62939e-005,-0.00320435,0.0125504,0.0114059,-0.0383759,0.0168228,0.0288773,-9.97986,0.0362015,0.0130844,0.0286102,-0.00183105,0.0783157,-0.00617981,0.124245,-0.0031662
14,5,10.0097,0.00152588,0.000305176,-2.42623,0.0553758,-0.0747579,0.0538228,0.0700548,-0.0937568,0.143792,-0.126987,-0.0840963,0.0236511,-0.001297,-0.00232697,0.00537872,0.0088501,-0.032959,0.0266647,0.0329208,-9.97986,0.0564957,0.0122452,0.0214767,-0.0030899,0.0788498,-0.0109482,0.12886,-0.0030899
14,6,10.0097,0.00244141,0.000762939,-2.42531,0.0553758,-0.0744527,0.0550435,0.07036,-0.0925361,0.146234,-0.12363,-0.0834859,-0.0136566,0.00293732,-0.000457764,0.0123215,0.0159454,-0.0210571,0.0294876,0.0337982,-9.97986,0.0943756,0.0128937,0.0123978,-0.00415802,0.0789642,-0.00984192,0.125351,-0.00530243
14,7,10.0097,0.000610352,0.000610352,-2.42592,0.0562914,-0.0744527,0.054128,0.072191,-0.0928413,0.144708,-0.124546,-0.0825704,-0.0233078,0.00213623,0.000915527,0.0113678,0.0185776,-0.0170517,0.0374222,0.0388718,-9.97986,0.151443,0.0102997,0.00747681,0.00190735,0.0777817,-0.00900269,0.121765,-0.00602722
14,8,10.0097,0.00274658,0.000610352,-2.4247,0.0559862,-0.0735371,0.055959,0.0709703,-0.090705,0.146539,-0.123325,-0.0804342,-0.0094986,0.00408173,0.00156403,0.0161362,0.0172043,-0.0204468,0.0362778,0.0328827,-9.97986,0.178795,0.00556946,-0.000267029,0.0102997,0.0785446,-0.00888824,0.115891,-0.00648499
14,9,10.0097,0.000915527,0.000457764,-2.42531,0.055681,-0.0741475,0.0550435,0.0724962,-0.0922309,0.146234,-0.123935,-0.0819601,0.0100327,0.0102997,0.0127029,0.014267,0.0157928,-0.0178146,0.0454712,0.0321198,-9.97986,0.170784,0.00400543,-0.00289917,0.020256,0.0707245,-0.00831604,0.110855,-0.00865936
15,0,10.0097,0.000305176,0.00213623,-2.42562,0.0575121,-0.0738423,0.0544332,0.0712755,-0.0913154,0.147149,-0.12302,-0.080129,0.032196,0.0157928,0.0105667,0.0111389,0.0212479,-0.0204468,0.0473785,0.0285339,-9.97986,0.146523,0.00396729,-0.00930786,0.0418472,0.0735855,-0.0109482,0.105858,-0.00846863
15,1,10.0097,0.000305176,0.00152588,-2.42653,0.0547655,-0.0741475,0.0532125,0.0578478,-0.094062,0.145624,-0.125156,-0.0810445,0.0420761,0.0146103,0.017128,0.00972748,0.021286,-0.0226974,0.0529099,0.0269318,-9.97986,0.108261,-0.000419617,-0.016861,0.0691605,0.0694656,-0.0140762,0.102539,-0.0105286
15,2,10.0097,0.000915527,0.000915527,-2.42653,0.0569017,-0.0729268,0.0538228,0.0505236,-0.0922309,0.146844,-0.125461,-0.0810445,0.0525665,0.0191498,0.022049,0.0122452,0.0285721,-0.0226212,0.0611877,0.0255203,-9.97986,0.0722122,0.00144958,-0.0213623,0.0938416,0.0640106,-0.0145721,0.100861,-0.0165176
15,3,9.39412,0.000610352,0.00183105,-2.42623,0.0562914,-0.0738423,0.0538228,0.0551012,-0.0928413,0.146844,-0.127292,-0.0816549,0.0455093,0.0197983,0.0226593,0.0162888,0.026741,-0.0160217,0.0617981,0.0154114,-9.97986,0.0292587,-0.00823975,-0.0259018,0.11982,0.0660324,-0.0139999,0.0978088,-0.0149155
15,4,9.27297,0.0012207,0.00289917,-2.42623,0.0575121,-0.075063,0.0526021,0.0645616,-0.0919257,0.145318,-0.125461,-0.0819601,0.0353622,0.0225449,0.0289154,0.0150299,0.02491,-0.0133514,0.0605774,0.00679016,-9.97986,-0.00549316,-0.00411987,-0.0325775,0.150986,0.0563431,-0.00892639,0.094223,-0.0217056
15,5,9.57784,-0.000610352,0.00335693,-2.42745,0.0547655,-0.075063,0.0556539,0.0737169,-0.0928413,0.145318,-0.125766,-0.0813497,0.0365067,0.0279236,0.0269699,0.0165558,0.025177,-0.0278854,0.0608826,-0.00370026,-9.97986,-0.0136185,-0.00221252,-0.0304413,0.187187,0.0565338,-0.0168228,0.0981522,-0.0260162
15,6,10.0097,0.00152588,0.00411987,-2.42531,0.0547655,-0.075063,0.0550435,0.0941637,-0.0903999,0.144708,-0.124241,-0.0825704,0.0198364,0.0279999,0.0293732,0.0202179,0.0265503,-0.0339508,0.0594711,-0.0112534,-9.97986,-0.0243759,0.000724792,-0.0259399,0.217285,0.0545883,-0.0141907,0.0941849,-0.0267792
15,7,10.0097,0.000305176,0.00335693,-2.42806,0.0541551,-0.0756734,0.0519917,0.0813463,-0.0949775,0.144098,-0.126377,-0.0859274,-0.0075531,0.0296783,0.0344086,0.0171661,0.0257874,-0.0306702,0.0636673,-0.0195313,-9.97986,-0.0301361,0.00202179,-0.0322342,0.241241,0.0457764,-0.0150681,0.0876999,-0.0318909
15,8,10.0097,-0.000610352,0.00228882,-2.4302,0.0535448,-0.0765889,0.0526021,0.0724962,-0.0943672,0.142877,-0.126377,-0.0840963,-0.0154495,0.0304794,0.0374985,0.0180054,0.0285721,-0.0278091,0.0631332,-0.0133896,-9.97986,-0.0279999,0.00312805,-0.0295258,0.259018,0.0406647,-0.0160599,0.0898743,-0.0314331
15,9,10.0097,-0.000305176,0.00137329,-2.42898,0.0532396,-0.075063,0.0535176,0.0697496,-0.0949775,0.142877,-0.126987,-0.0859274,-0.00198364,0.0281906,0.0339127,0.0193024,0.0273514,-0.0254059,0.0639343,-0.00549316,-9.97986,-0.0304413,-0.0031662,-0.0249863,0.273361,0.0349045,-0.0169754,0.0893021,-0.0347137
16,0,10.0097,0,0.000915527,-2.42867,0.0538499,-0.0753682,0.0522969,0.0697496,-0.0968086,0.142572,-0.127598,-0.0868429,0.00286102,0.0273514,0.0319672,0.0128174,0.0286484,-0.0120926,0.0603485,0.00278473,-9.97986,-0.0330353,0.000305176,-0.0182724,0.271683,0.0256348,-0.0168991,0.0853729,-0.0414276
16,1,10.0097,0.000610352,0.000305176,-2.42989,0.0535448,-0.0768941,0.0526021,0.0682238,-0.0946723,0.142572,-0.127292,-0.0871481,-0.00400543,0.0286484,0.0298309,0.0110626,0.027504,-0.00671387,0.0617599,0.00457764,-9.97986,-0.0336838,0.0018692,-0.00873566,0.274467,0.0157928,-0.0155258,0.0867844,-0.0405502
16,2,10.0097,-0.000305176,-0.000152588,-2.42714,0.0547655,-0.075063,0.0532125,0.07036,-0.0928413,0.143182,-0.126072,-0.0865377,-0.0025177,0.0185013,0.0275803,0.012207,0.0222015,-0.0119781,0.0603485,0.00343323,-9.97986,-0.0463486,0.00408173,0.00240326,0.272751,0.00602722,-0.0146484,0.086441,-0.0416565
16,3,10.0097,-0.00152588,-0.000762939,-2.42745,0.0544603,-0.0756734,0.0544332,0.0700548,-0.0943672,0.143487,-0.126987,-0.0850118,-0.000457764,0.0225067,0.0241852,0.00900269,0.0285339,-0.00862122,0.0641251,-0.000648499,-9.97986,-0.0324249,0.00839233,0.0168991,0.266457,-0.00377655,-0.0214767,0.0802231,-0.0441742
16,4,10.0097,-0.000610352,0,-2.42653,0.0559862,-0.0747579,0.0544332,0.0700548,-0.0952827,0.143792,-0.126072,-0.0850118,-0.0141144,0.0186157,0.0204086,0.00679016,0.0278473,-0.0130844,0.0667953,0.00530243,-9.97986,0.0126648,0.00286102,0.0257874,0.267982,-0.0114059,-0.0274658,0.0760651,-0.0484085
16,5,10.0097,0.000610352,0,-2.42806,0.0547655,-0.0744527,0.0538228,0.0706652,-0.0934516,0.144403,-0.124851,-0.0844015,-0.0222015,0.0180817,0.0180054,0.00953674,0.023613,-0.0157166,0.0576019,-0.00385284,-9.97986,0.0363159,-0.00175476,0.0389862,0.267715,-0.0217438,-0.0247192,0.0765991,-0.0518036
16,6,10.0097,-0.000915527,-0.000305176,-2.42562,0.0562914,-0.0735371,0.0544332,0.0694445,-0.0934516,0.145318,-0.124546,-0.0810445,-0.0282288,0.018158,0.0138855,0.00659943,0.0239944,-0.00957489,0.0637436,-0.00595093,-9.97986,0.0522614,-0.00236511,0.0455093,0.262566,-0.0314331,-0.0231934,0.0735855,-0.0517654
16,7,10.0097,0.00274658,-0.00106812,-2.42867,0.0562914,-0.0738423,0.0538228,0.072191,-0.0910102,0.146234,-0.123935,-0.0819601,-0.0205612,0.0183105,0.0197983,0.00984192,0.0238419,0.00286102,0.0622559,-0.0122833,-9.97986,0.0527191,0.00404358,0.0512314,0.251961,-0.0377274,-0.0249863,0.0691223,-0.0494385
16,8,10.0097,-0.000610352,-0.000762939,-2.42592,0.0572069,-0.073232,0.0553487,0.0712755,-0.0916206,0.146539,-0.124546,-0.0813497,0.0018692,0.0186539,0.023613,0.0117493,0.0263977,0.0180435,0.0709915,-0.00915527,-9.97986,0.0499725,-0.00335693,0.0569153,0.239182,-0.0461578,-0.0262451,0.0671005,-0.0486374
16,9,10.0097,0.00152588,-0.00137329,-2.42501,0.0559862,-0.0744527,0.0550435,0.0743273,-0.0919257,0.145624,-0.124851,-0.0822652,0.0152969,0.0173569,0.0217438,0.00911713,0.0179672,0.0211716,0.067482,-0.01194,-9.97986,0.0351334,-0.00881195,0.066452,0.234528,-0.0511932,-0.0195313,0.0660706,-0.0465012
17,0,10.0097,0.000610352,-0.000915527,-2.42348,0.0575121,-0.0735371,0.0556539,0.0712755,-0.0922309,0.145929,-0.123935,-0.0807394,0.0254822,0.0166321,0.0203323,0.0143433,0.0198364,0.0250626,0.0772095,-0.00919342,-9.97986,0.0161743,-0.00274658,0.0704193,0.222206,-0.0534439,-0.0176239,0.0632095,-0.0444031
17,1,10.0097,-0.0012207,-0.00183105,-2.42531,0.0562914,-0.075063,0.0529073,0.0578478,-0.0946723,0.146234,-0.125766,-0.0819601,0.0170135,0.0228119,0.0226593,0.0082016,0.0177002,0.0270844,0.0780487,-0.0121307,-9.97986,0.00534058,0.00141144,0.0764847,0.208778,-0.0551605,-0.0178528,0.0561142,-0.0444412
17,2,10.0097,-0.000305176,-0.00274658,-2.42684,0.0553758,-0.073232,0.0544332,0.0499132,-0.0934516,0.146844,-0.125766,-0.0828756,0.00923157,0.0197601,0.02388,0.00961304,0.0204849,0.0235367,0.0810623,-0.00495911,-9.97986,-0.0106049,-0.000228882,0.0833893,0.197067,-0.057373,-0.0146866,0.0461197,-0.0390244
17,3,9.43044,-0.000610352,-0.00167847,-2.42562,0.0559862,-0.0735371,0.0547383,0.0563219,-0.0928413,0.145318,-0.126377,-0.0825704,0.00404358,0.0198364,0.0236893,0.0069046,0.0165558,0.0278091,0.0827789,-0.00255585,-9.97986,-0.0176239,0.00198364,0.0891876,0.175972,-0.0564575,-0.0143433,0.0348282,-0.0352097
17,4,9.26137,0.000610352,-0.00167847,-2.42684,0.0550706,-0.0747579,0.054128,0.0654772,-0.0916206,0.145013,-0.126072,-0.0834859,0.0025177,0.0228119,0.0266647,0.00892639,0.0189972,0.0345993,0.0896835,-0.00171661,-9.97986,-0.0231552,0.00347137,0.097847,0.159607,-0.059433,-0.016861,0.0260162,-0.0302887
17,5,9.56349,-0.000915527,-0.00228882,-2.42684,0.0559862,-0.0747579,0.0532125,0.0731066,-0.0925361,0.146234,-0.124546,-0.0828756,-0.00427246,0.0223923,0.0248718,0.00659943,0.0140762,0.0415802,0.0928879,-0.00511169,-9.97986,-0.0263977,-0.00228882,0.0964355,0.131493,-0.0653839,-0.0136566,0.0188828,-0.0267792
17,6,10.0097,-0.000915527,-0.00137329,-2.42592,0.0553758,-0.0753682,0.0547383,0.092943,-0.0897895,0.145318,-0.12363,-0.0840963,-0.00526428,0.0192642,0.0206757,0.00900269,0.0104141,0.0410843,0.0944519,0.00106812,-9.97986,-0.0229645,-0.00259399,0.107002,0.102882,-0.0600433,-0.0141525,0.00865936,-0.0228119
17,7,10.0097,-0.000305176,-0.00198364,-2.42501,0.0544603,-0.0756734,0.0526021,0.0801256,-0.0937568,0.143487,-0.126987,-0.0865377,-0.00343323,0.0210571,0.0215912,0.0101471,0.00663757,0.0448608,0.0935364,0.000991821,-9.97986,-0.0223541,-0.00453949,0.108109,0.0740051,-0.063324,-0.0157547,-0.00415802,-0.0220871
17,8,10.0097,0.000915527,-0.00244141,-2.42989,0.0547655,-0.0744527,0.0516866,0.0731066,-0.0952827,0.143487,-0.127903,-0.0883688,0.00614166,0.0214767,0.0228882,0.0107956,0.00995636,0.0547791,0.094986,0.000305176,-9.97986,-0.014534,0.00549316,0.115471,0.0423431,-0.0553131,-0.0185013,-0.02285,-0.0156784
17,9,10.0097,0.000305176,-0.00335693,-2.42959,0.0538499,-0.075063,0.0529073,0.0697496,-0.0952827,0.142572,-0.126072,-0.0865377,0.000724792,0.0205994,0.0239182,0.0141525,0.00881195,0.0640869,0.0953293,-0.000572205,-9.97986,-0.00587463,0.0069809,0.109863,0.0120926,-0.055809,-0.0181198,-0.0421143,-0.0183105
18,0,10.0097,0.000610352,-0.00274658,-2.42837,0.0544603,-0.0756734,0.050771,0.0694445,-0.0946723,0.143792,-0.128208,-0.0874532,0.00232697,0.0201035,0.0238419,0.0138855,0.00595093,0.0793076,0.092392,-0.00106812,-9.97986,-0.00869751,0.0104904,0.10807,-0.00652313,-0.0518799,-0.0188065,-0.0605392,-0.0179672
18,1,10.0097,0.00244141,-0.00213623,-2.42898,0.0550706,-0.0765889,0.0519917,0.0676134,-0.0961982,0.144098,-0.127598,-0.0877584,-0.00572205,0.0233841,0.0265884,0.0134659,0.00343323,0.0826645,0.0863647,-3.8147e-005,-9.97986,-0.00823975,0.00862122,0.114136,-0.0343704,-0.0362015,-0.0145721,-0.0790787,-0.0127792
18,2,10.0097,-0.000915527,-0.00167847,-2.42837,0.0550706,-0.0747579,0.0526021,0.0685289,-0.094062,0.143792,-0.127598,-0.0868429,0.00118256,0.0217438,0.0269699,0.00946045,-0.00137329,0.0886536,0.08358,0.00461578,-9.97986,-0.00816345,0.00209808,0.112915,-0.0424957,-0.0270844,-0.0107956,-0.0931549,-0.00556946
18,3,10.0097,0,-0.000305176,-2.42867,0.0550706,-0.0765889,0.0538228,0.0688341,-0.094062,0.144708,-0.126072,-0.0850118,0.0130081,0.0229645,0.0271988,0.0133514,-0.00286102,0.0911713,0.0788498,0.00808716,-9.97986,-0.00797272,0.00617981,0.118713,-0.0370789,-0.0165939,-0.00930786,-0.107803,-0.00366211
18,4,10.0097,0.00183105,0.000305176,-2.42684,0.0547655,-0.0747579,0.054128,0.0700548,-0.0937568,0.147149,-0.126377,-0.0847066,0.0180435,0.0284195,0.0255203,0.0121307,-0.00347137,0.0862122,0.0669098,0.0133133,-9.97986,-0.0094223,0.00457764,0.118866,-0.0280762,0.00164032,0.000305176,-0.127144,0.0025177
18,5,10.0097,0.000610352,0.000610352,-2.42745,0.0550706,-0.0738423,0.0535176,0.07036,-0.0934516,0.144403,-0.124851,-0.0850118,0.00556946,0.0255966,0.0283813,0.00972748,-0.00766754,0.0868225,0.0553894,0.010643,-9.97986,-0.00507355,0.00152588,0.116692,-0.0112915,0.0203705,-0.00511169,-0.143051,0.0088501
18,6,10.0097,-0.0012207,0.00167847,-2.4244,0.0575121,-0.0738423,0.0544332,0.07036,-0.0919257,0.147149,-0.125766,-0.0822652,-0.0170135,0.0223541,0.0297546,0.0145721,-0.0150681,0.0915527,0.0518036,0.0130463,-9.97986,-0.00267029,-0.00431061,0.117493,0.00240326,0.0292587,-0.0143814,-0.153389,0.0120544
18,7,10.0097,0.000915527,0.00106812,-2.4247,0.055681,-0.0744527,0.0547383,0.0712755,-0.0931465,0.146844,-0.124851,-0.0795187,-0.0512695,0.0244141,0.0257874,0.0108719,-0.0218964,0.101547,0.0351715,0.0168991,-9.97986,0.00717163,-0.00293732,0.124512,0.0112534,0.0498962,-0.00797272,-0.163918,0.0207901
18,8,10.0097,0.000610352,0.0012207,-2.42653,0.055681,-0.073232,0.0544332,0.07036,-0.0922309,0.146539,-0.124241,-0.0813497,-0.0941849,0.0261688,0.0299835,0.0123978,-0.0155258,0.107613,0.0210571,0.0247574,-9.97986,0.00782013,-0.00339508,0.127144,0.0210571,0.0636673,-0.00564575,-0.177574,0.0239563
18,9,10.0097,-0.000610352,0.00137329,-2.42531,0.0578172,-0.0744527,0.055959,0.0697496,-0.0919257,0.14776,-0.12363,-0.0813497,-0.114708,0.0285721,0.0313568,0.00896454,-0.0128174,0.112114,0.00972748,0.0226212,-9.97986,0.0104523,-0.0107574,0.130348,0.0320816,0.0700378,-0.0133896,-0.188484,0.0336838
19,0,10.0097,-0.000305176,0.000915527,-2.4247,0.0562914,-0.073232,0.054128,0.0706652,-0.0916206,0.146844,-0.123325,-0.0798238,-0.103188,0.0285339,0.0327682,0.0164032,-0.0110245,0.114594,0.00137329,0.0200272,-9.97986,0.00545502,-0.00511169,0.131416,0.0398636,0.0792694,-0.0173187,-0.203438,0.0450134
19,1,10.0097,0.000610352,0.00137329,-2.42592,0.0559862,-0.0747579,0.0538228,0.0563219,-0.0931465,0.145929,-0.125461,-0.0822652,-0.0693893,0.0305939,0.0362396,0.0160217,-0.0126648,0.122833,-0.00827789,0.0136948,-9.97986,0.00499725,-0.00511169,0.135498,0.0495148,0.0749588,-0.0275803,-0.212555,0.0488281
19,2,10.0097,0.000305176,0.000610352,-2.42531,0.0550706,-0.0747579,0.055959,0.0508287,-0.0922309,0.145624,-0.126072,-0.0813497,-0.0287628,0.0351334,0.036087,0.015564,-0.0105286,0.131683,-0.0204849,0.00354767,-9.97986,0.00247955,-0.00965118,0.138397,0.0630951,0.0733948,-0.0281143,-0.222321,0.0589752
19,3,9.21071,-0.000305176,0,-2.42592,0.0559862,-0.0741475,0.0535176,0.0569322,-0.0925361,0.145929,-0.124546,-0.0819601,0.00858307,0.038414,0.0365067,0.0175095,-0.0145721,0.126343,-0.0257492,0.000572205,-9.97986,-0.00549316,-0.00991821,0.136909,0.0721359,0.0714493,-0.0310898,-0.229912,0.0718689
19,4,9.0627,0.000305176,0.00137329,-2.42623,0.0553758,-0.0759786,0.0547383,0.0648668,-0.0916206,0.147149,-0.126072,-0.0819601,0.0479126,0.0347519,0.0434875,0.0174713,-0.0117493,0.128784,-0.0312424,0.00328064,-9.97986,-0.0214005,-0.0114059,0.134201,0.0782394,0.0660324,-0.0410461,-0.231552,0.0769806
19,5,9.35109,0.000305176,0.00167847,-2.42684,0.0544603,-0.0759786,0.0532125,0.0712755,-0.0916206,0.144708,-0.126072,-0.0825704,0.0911331,0.0373459,0.0431824,0.0217438,-0.0115204,0.132675,-0.0281525,-0.00213623,-9.97986,-0.0380325,-0.00984192,0.133629,0.099411,0.0628281,-0.038147,-0.233345,0.0867462
19,6,10.0097,-0.000305176,0.00305176,-2.42714,0.0544603,-0.0741475,0.0532125,0.0938585,-0.0922309,0.145013,-0.124241,-0.0813497,0.12043,0.0403595,0.0434875,0.026741,-0.0140762,0.139046,-0.0213623,-0.0101852,-9.97986,-0.0635529,-0.00518799,0.12867,0.113602,0.0600815,-0.0333023,-0.232849,0.0922012
19,7,10.0097,-0.000610352,0.00244141,-2.42806,0.0532396,-0.0759786,0.0519917,0.0813463,-0.0922309,0.143792,-0.126682,-0.0856222,0.107307,0.0378036,0.0429535,0.0242615,-0.0140381,0.138359,-0.0206757,-0.010643,-9.97986,-0.090065,-0.012207,0.128555,0.135078,0.0564575,-0.0215912,-0.231705,0.100288
19,8,10.0097,-0.000610352,0.00183105,-2.42867,0.0538499,-0.0756734,0.0504659,0.0728014,-0.0949775,0.143792,-0.126377,-0.0865377,0.0627899,0.0349045,0.0353241,0.0267792,-0.0145721,0.142632,-0.0164795,-0.00961304,-9.97986,-0.119476,-0.0101852,0.125961,0.149651,0.0531387,-0.00865936,-0.227966,0.105782
19,9,10.0097,0.00183105,0.00106812,-2.42745,0.0541551,-0.0756734,0.0529073,0.0706652,-0.0949775,0.144708,-0.127598,-0.0868429,0.0167084,0.030365,0.0331497,0.0216293,-0.0100327,0.136566,-0.0178146,-0.00270844,-9.97986,-0.145378,-0.01194,0.121307,0.158882,0.0474167,-0.00297546,-0.223351,0.110474
20,0,10.0097,0.000915527,0.000457764,-2.42867,0.0544603,-0.0771993,0.0510762,0.0679186,-0.095893,0.142572,-0.128818,-0.0868429,-0.0378799,0.0291443,0.0302124,0.0203323,-0.0160217,0.149117,-0.0181198,0.0030899,-9.97986,-0.166626,-0.00984192,0.110931,0.176582,0.0471878,0.00511169,-0.207443,0.113831
20,1,10.0097,0.000305176,0.000457764,-2.42989,0.0538499,-0.0781148,0.0526021,0.0700548,-0.0949775,0.143182,-0.126682,-0.0871481,-0.0509262,0.0238419,0.0293732,0.0223923,-0.0104904,0.148582,-0.0103378,0.00743866,-9.97986,-0.16716,-0.0160217,0.092926,0.186958,0.0524902,0.00305176,-0.193939,0.121803
20,2,10.0097,0.000305176,-0.000610352,-2.42776,0.0535448,-0.0756734,0.0513814,0.0694445,-0.094062,0.144403,-0.127292,-0.085317,-0.0497818,0.0162506,0.0237656,0.0142288,-0.0136948,0.147133,-0.00137329,0.00972748,-9.97986,-0.156784,-0.0124359,0.0460815,0.191078,0.0498581,-0.00713348,-0.172844,0.128059
20,3,10.0097,-0.000305176,0.000152588,-2.42806,0.0538499,-0.0756734,0.0498555,0.0700548,-0.0946723,0.145624,-0.126987,-0.0856222,-0.0234985,0.0101471,0.0136566,0.0162506,-0.0157166,0.160561,0.00179291,0.0190353,-9.97986,-0.130768,-0.0149155,-0.0465775,0.190773,0.0540161,-0.0183487,-0.159683,0.130615
20,4,10.0097,0.000610352,0,-2.42806,0.0562914,-0.075063,0.0513814,0.0712755,-0.0937568,0.145013,-0.127292,-0.0850118,0.00282288,0.0111389,0.0105286,0.0144196,-0.0100327,0.160103,0.0153732,0.0249863,-9.97986,-0.0867081,-0.0164413,-0.138702,0.195847,0.0537491,-0.0165558,-0.134392,0.138474
20,5,10.0097,0.000610352,0.000457764,-2.42714,0.0559862,-0.0741475,0.0519917,0.0706652,-0.0931465,0.143792,-0.126072,-0.0856222,-0.00221252,0.00816345,0.00759125,0.0126648,-0.00892639,0.166512,0.0269318,0.0304794,-9.97986,-0.0377274,-0.0166702,-0.168686,0.191345,0.0595093,-0.016861,-0.110893,0.140648
20,6,10.0097,0,0,-2.4244,0.0562914,-0.0744527,0.0538228,0.0731066,-0.0931465,0.147149,-0.125461,-0.0825704,-0.0291061,0.00541687,0.00614166,0.01091,-0.00926971,0.162506,0.0361252,0.0323105,-9.97986,-0.0069046,-0.0122452,-0.176888,0.17868,0.0597382,-0.0172043,-0.0865936,0.147705
20,7,10.0097,0.0012207,-0.000305176,-2.42501,0.0572069,-0.075063,0.0544332,0.072191,-0.0919257,0.145929,-0.124546,-0.0816549,-0.0244904,0.00202179,-0.000648499,0.00816345,-0.00957489,0.149612,0.0465393,0.0347137,-9.97986,0.0375748,-0.0115585,-0.175667,0.169792,0.0611115,-0.0139618,-0.0586319,0.153389
20,8,10.0097,-0.000610352,-0.000915527,-2.42592,0.0562914,-0.0735371,0.0547383,0.0709703,-0.0903999,0.146234,-0.124546,-0.0813497,-0.0126648,0.0043869,0.00164032,0.00667572,-0.00469208,0.148964,0.0509644,0.032196,-9.97986,0.0651169,-0.0158691,-0.172615,0.160141,0.0566864,-0.0203705,-0.0374603,0.156479
20,9,10.0097,0.000915527,-0.00106812,-2.42531,0.0569017,-0.073232,0.0547383,0.0724962,-0.0910102,0.146539,-0.124241,-0.0819601,0.00995636,0.0062561,0.00263214,0.0115585,-0.00617981,0.143547,0.0578308,0.0318146,-9.97986,0.0704193,-0.0217438,-0.168076,0.1474,0.059166,-0.0261307,-0.0190735,0.16777
21,0,10.0097,0.00152588,-0.000305176,-2.4247,0.055681,-0.0747579,0.0550435,0.0718859,-0.0903999,0.146539,-0.125766,-0.0813497,0.0473785,3.8147e-005,-0.00347137,0.00499725,-0.00926971,0.15213,0.0605011,0.0263214,-9.97986,0.0685883,-0.0190353,-0.161247,0.142326,0.0549316,-0.0262833,-0.00350952,0.173073
21,1,10.0097,0.000610352,-0.000610352,-2.42684,0.0553758,-0.0744527,0.0556539,0.0587633,-0.0931465,0.145318,-0.125156,-0.0819601,0.0745392,0.0031662,-0.00118256,0.00610352,-0.0128937,0.167122,0.0605774,0.0239944,-9.97986,0.0745773,-0.00679016,-0.136871,0.129509,0.0444794,-0.028801,0.0119019,0.177803
21,2,10.0097,-0.000915527,-0.00244141,-2.42501,0.0569017,-0.0741475,0.0556539,0.0514391,-0.0931465,0.146844,-0.126072,-0.0825704,0.071373,0.00724792,0.00415802,0.00717163,-0.0127029,0.167503,0.0694275,0.0213242,-9.97986,0.0787735,-0.00667572,-0.112534,0.113029,0.0297928,-0.0248718,0.0239944,0.184517
21,3,9.37367,0.000305176,-0.00183105,-2.42592,0.0572069,-0.0729268,0.0547383,0.0572374,-0.0925361,0.145929,-0.125156,-0.0831808,0.0667953,0.00988007,0.000991821,0.00740051,-0.0133514,0.170746,0.0681305,0.0230026,-9.97986,0.0789642,0.00171661,-0.0996017,0.111885,0.0100708,-0.0227356,0.0304031,0.187798
21,4,9.27327,0.0012207,-0.000915527,-2.42623,0.0559862,-0.075063,0.0550435,0.0657823,-0.0916206,0.146539,-0.125766,-0.0831808,0.0439072,0.00919342,0.00343323,0.00785828,-0.0165558,0.172119,0.0636673,0.0246429,-9.97986,0.0823975,-0.000572205,-0.086441,0.0948334,-0.0088501,-0.0191879,0.0412369,0.195656
21,5,9.60713,0.000610352,-0.00106812,-2.42653,0.0547655,-0.0741475,0.0553487,0.0731066,-0.0919257,0.146234,-0.126072,-0.0837911,0.00423431,0.0114822,0.00106812,0.00747681,-0.0193787,0.177536,0.0635529,0.0274277,-9.97986,0.0766373,0.00499725,-0.076828,0.07267,-0.0299072,-0.0192642,0.0442123,0.196152
21,6,10.0097,-0.000305176,0.000305176,-2.42592,0.0547655,-0.0744527,0.0550435,0.0962999,-0.0910102,0.143182,-0.123935,-0.0834859,-0.00980377,0.0117874,0.00606537,0.00965118,-0.0255585,0.17868,0.0634766,0.0318527,-9.97986,0.0841141,0.00427246,-0.0629807,0.0638962,-0.0374603,-0.0141907,0.0578308,0.196991
21,7,10.0097,0.00152588,0.00137329,-2.42867,0.0535448,-0.0753682,0.0532125,0.0822618,-0.0946723,0.143487,-0.127292,-0.0856222,-0.000419617,0.0124359,0.00556946,0.00926971,-0.0298309,0.182877,0.0646591,0.0375748,-9.97986,0.112534,-0.0124359,-0.0473022,0.0800323,-0.0382614,-0.0102615,0.0595856,0.19474
21,8,10.0097,-0.00305176,0.000305176,-2.42745,0.0541551,-0.0756734,0.0532125,0.075548,-0.0949775,0.142267,-0.127292,-0.0871481,0.0087738,0.00915527,0.00274658,0.00759125,-0.0388718,0.184517,0.0589371,0.0395203,-9.97986,0.151291,-0.0138855,-0.0326157,0.0799942,-0.0401306,-0.0107956,0.0622177,0.192833
21,9,10.0097,0.000610352,-0.000762939,-2.42928,0.0547655,-0.0747579,0.0522969,0.0734117,-0.0949775,0.145013,-0.126987,-0.0868429,0.0190735,0.0131226,0.00301361,0.00770569,-0.0402832,0.194969,0.0616074,0.0431824,-9.97986,0.186577,-0.00583649,-0.022583,0.0727463,-0.0359344,-0.00789642,0.0744247,0.190277
22,0,10.0097,0.000915527,-0.000457764,-2.42959,0.0532396,-0.0762837,0.0519917,0.07036,-0.0946723,0.143487,-0.127598,-0.0874532,0.0392151,0.0101471,-0.000534058,0.00621796,-0.042572,0.195732,0.0552368,0.0418854,-9.97986,0.184898,-0.00255585,-0.0132751,0.0746155,-0.0284958,-0.00606537,0.0769806,0.18383
22,1,10.0097,-0.000610352,0,-2.42928,0.0535448,-0.0753682,0.0513814,0.0682238,-0.0949775,0.144403,-0.126987,-0.0871481,0.0512314,0.00953674,0.00167847,0.00801086,-0.0317764,0.197601,0.0529099,0.044632,-9.97986,0.150642,0.0018692,-0.00827789,0.0823975,-0.0222778,-0.00598907,0.081749,0.185318
22,2,10.0097,-0.000610352,-0.000152588,-2.42867,0.0544603,-0.0753682,0.0529073,0.0688341,-0.0931465,0.145318,-0.126682,-0.0868429,0.0465012,0.0127029,0.00411987,0.00492096,-0.0111389,0.191612,0.056839,0.0435638,-9.97986,0.116653,-0.017662,-0.00209808,0.0876999,-0.0211334,-0.00141144,0.0909805,0.181618
22,3,10.0097,0,0.000610352,-2.42867,0.0538499,-0.0765889,0.0522969,0.0682238,-0.094062,0.144403,-0.126682,-0.085317,0.0410461,0.019722,0.0115967,0.0102234,-0.000190735,0.189171,0.0554276,0.0387573,-9.97986,0.0752258,-0.0262833,-0.00484467,0.0971603,-0.0220871,-0.00511169,0.089035,0.177193
22,4,10.0097,0.000610352,0.000610352,-2.42714,0.0550706,-0.0747579,0.0544332,0.0691393,-0.0922309,0.145929,-0.126072,-0.0837911,0.0381088,0.0239563,0.0112915,0.00843048,0.001297,0.186386,0.0625229,0.0292587,-9.97986,0.0460815,-0.0187683,-0.00114441,0.107117,-0.0254059,-0.00358582,0.0921249,0.171967
22,5,10.0097,0.00152588,0.00106812,-2.42684,0.0562914,-0.0738423,0.0550435,0.0688341,-0.0928413,0.143792,-0.126072,-0.0840963,0.0262451,0.0266647,0.0133896,0.00953674,0.011673,0.178108,0.0662994,0.0288391,-9.97986,0.0186157,-0.0107193,0.00347137,0.117416,-0.0354004,0.0019455,0.0914001,0.168114
22,6,10.0097,-0.000305176,0.000457764,-2.42531,0.0559862,-0.0726216,0.054128,0.0700548,-0.0931465,0.145318,-0.124851,-0.0822652,0.01194,0.0239563,0.0164413,0.00961304,0.0117874,0.170441,0.0727463,0.0275803,-9.97986,-0.00495911,-0.00102997,0.0056839,0.125771,-0.0405121,0.00106812,0.0893784,0.162544
22,7,10.0097,0.000915527,0.00106812,-2.42592,0.0565965,-0.0741475,0.0553487,0.07036,-0.0916206,0.145624,-0.12363,-0.0813497,0.00598907,0.0250244,0.0118256,0.0124359,0.00545502,0.172234,0.0731277,0.0297165,-9.97986,-0.0126266,0.00343323,0.0205994,0.136147,-0.0562286,0.00205994,0.0885773,0.15625
22,8,10.0097,0.000915527,0.00183105,-2.4247,0.0562914,-0.0741475,0.0553487,0.0700548,-0.0922309,0.145013,-0.124241,-0.0810445,-0.00305176,0.0261307,0.0154495,0.0121307,0.010376,0.165863,0.0766373,0.0387573,-9.97986,0.00831604,-0.00362396,0.0318527,0.152016,-0.0731659,0.000419617,0.0939941,0.153961
22,9,10.0097,-0.00213623,0.00259399,-2.42501,0.0569017,-0.0735371,0.0544332,0.0724962,-0.0928413,0.147149,-0.12363,-0.0804342,-0.0106049,0.0312042,0.0172806,0.00785828,0.011673,0.151062,0.0766373,0.0373077,-9.97986,0.0229645,0.00324249,0.0458145,0.17971,-0.0980759,0.00957489,0.0914001,0.149155
23,0,10.0097,-0.000610352,0.00335693,-2.42501,0.0565965,-0.0735371,0.0550435,0.0706652,-0.0925361,0.145929,-0.124546,-0.0798238,-0.0208282,0.0283051,0.0159454,0.0124741,0.00843048,0.129585,0.0733566,0.0468826,-9.97986,0.04879,0.0119019,0.0592804,0.206299,-0.1194,-0.0025177,0.0880051,0.140076
23,1,10.0097,0.00213623,0.00320435,-2.42714,0.0562914,-0.0744527,0.0550435,0.0560167,-0.0949775,0.144403,-0.125156,-0.0813497,-0.0420761,0.0260162,0.0148392,0.00789642,0.00934601,0.115242,0.0655365,0.0463486,-9.97986,0.0835037,0.0126648,0.0696182,0.239143,-0.133667,0.00984192,0.0888062,0.12764
23,2,10.0097,0,0.00167847,-2.42592,0.0562914,-0.0747579,0.0538228,0.0517443,-0.0928413,0.145624,-0.125766,-0.0810445,-0.0461578,0.019722,0.0102997,0.00785828,0.00267029,0.0906372,0.0594711,0.0479507,-9.97986,0.106926,0.0146866,0.0708389,0.271111,-0.114975,0.0131607,0.0909042,0.120544
23,3,9.1631,-0.000610352,0.00167847,-2.42531,0.0553758,-0.073232,0.0553487,0.0575426,-0.0913154,0.146844,-0.126072,-0.0819601,-0.0331497,0.0274277,0.0118637,0.00732422,-0.00232697,0.0622177,0.0579453,0.0474548,-9.97986,0.104294,0.0150681,0.0741196,0.287514,-0.0682449,0.0174713,0.0948334,0.109215
23,4,8.99282,-0.00244141,0.00183105,-2.42592,0.0550706,-0.0753682,0.054128,0.0648668,-0.0925361,0.145318,-0.125461,-0.0819601,-0.0378799,0.0247192,0.0162506,0.00255585,-0.00461578,0.0384521,0.0533676,0.0471115,-9.97986,0.0857162,0.00740051,0.0601959,0.303879,-0.0605011,0.0216293,0.100784,0.0989914
23,5,9.30135,0.0012207,0.00259399,-2.42684,0.0553758,-0.0744527,0.0544332,0.0743273,-0.0922309,0.144708,-0.125766,-0.0825704,-0.0296021,0.029068,0.0193024,0.00595093,-0.0100327,0.01194,0.0493622,0.0408554,-9.97986,0.082283,0.00164032,0.0458527,0.324707,-0.0689316,0.0254059,0.0973129,0.0930405
23,6,10.0097,-0.000610352,0.00213623,-2.42653,0.0544603,-0.075063,0.0538228,0.0956896,-0.090705,0.144098,-0.124851,-0.0834859,-0.000762939,0.0315857,0.0190353,0.00976563,-0.0189209,-0.00499725,0.0413895,0.0391769,-9.97986,0.0745392,0.000648499,0.0328064,0.333939,-0.0852966,0.0250626,0.0954819,0.0821686
23,7,10.0097,-0.000305176,0.00213623,-2.42928,0.0535448,-0.0765889,0.0516866,0.0828722,-0.094062,0.142572,-0.126072,-0.0859274,0.0124741,0.0317383,0.022316,0.0094223,-0.0193024,-0.0363159,0.0387573,0.0377655,-9.97986,0.0570679,0.00617981,0.01297,0.346718,-0.116653,0.0266266,0.090332,0.0714874
23,8,10.0097,-0.000610352,-0.000305176,-2.42837,0.0550706,-0.0762837,0.0516866,0.0743273,-0.0965034,0.143182,-0.126987,-0.0874532,0.0361252,0.0346756,0.0234604,0.00881195,-0.0251007,-0.0623322,0.0401688,0.0383759,-9.97986,0.0485992,0.00461578,-0.000419617,0.317497,-0.12764,0.0257874,0.0882721,0.067215
23,9,10.0097,-0.000915527,-0.00427246,-2.42867,0.0547655,-0.0756734,0.0513814,0.0706652,-0.0952827,0.144098,-0.127292,-0.0880636,0.0516891,0.0341797,0.0232697,0.0131607,-0.0204086,-0.0782776,0.0332642,0.0274658,-9.97986,0.0332642,0.00232697,-0.0165558,0.24826,-0.129967,0.018158,0.0802994,0.0566101
24,0,10.0097,-0.000305176,-0.00427246,-2.42898,0.0541551,-0.0762837,0.0522969,0.0688341,-0.0928413,0.142572,-0.126377,-0.0880636,0.0603104,0.0330734,0.0230789,0.0120926,-0.0233459,-0.0928879,0.0363159,0.010376,-9.97986,0.0151443,0.0025177,-0.0198746,0.215302,-0.123825,0.0138092,0.0753784,0.0458145
24,1,10.0097,0.00152588,-0.00167847,-2.42806,0.0544603,-0.0753682,0.0519917,0.067003,-0.0946723,0.142267,-0.127292,-0.0871481,0.0512695,0.0341415,0.0252914,0.0114059,-0.0233459,-0.102577,0.0281525,0.00797272,-9.97986,-0.0105667,0.00102997,-0.035553,0.208855,-0.114403,0.0112152,0.0682449,0.0400543
24,2,10.0097,0.000610352,-0.000762939,-2.42928,0.0541551,-0.0759786,0.0519917,0.0685289,-0.0946723,0.143792,-0.127598,-0.0850118,0.0413132,0.0263214,0.0190353,0.0108337,-0.0270844,-0.119247,0.0297165,0.00751495,-9.97986,-0.0458145,0.000114441,-0.04776,0.210724,-0.112839,0.00900269,0.0655365,0.0283432
24,3,10.0097,0,-0.000305176,-2.42928,0.0547655,-0.075063,0.0529073,0.0694445,-0.0931465,0.145013,-0.125766,-0.085317,0.0449371,0.0267792,0.0163651,0.0109863,-0.0355148,-0.114632,0.0281525,0.018959,-9.97986,-0.0549698,-0.00431061,-0.0505447,0.214348,-0.102501,0.0082016,0.060997,0.0196838
24,4,10.0097,0.000305176,0.000152588,-2.42714,0.0550706,-0.0753682,0.0532125,0.0685289,-0.094062,0.144098,-0.126987,-0.085317,0.0235367,0.024147,0.0206375,0.00957489,-0.0356293,-0.128822,0.0273895,0.0231934,-9.97986,-0.0370026,-0.000915527,-0.0559998,0.221214,-0.0938034,0.00541687,0.0581741,0.0106812
24,5,10.0097,-0.000915527,-0.000152588,-2.42714,0.0550706,-0.0756734,0.0526021,0.0688341,-0.0955879,0.145013,-0.125156,-0.0834859,-0.028801,0.0234604,0.0171661,0.00976563,-0.0336456,-0.130157,0.0299454,0.021553,-9.97986,-0.0307846,-0.000228882,-0.0670624,0.219612,-0.0969696,0.00335693,0.0561523,-0.00190735
24,6,10.0097,0.00274658,-0.000915527,-2.42623,0.0559862,-0.0741475,0.054128,0.0694445,-0.0928413,0.145929,-0.123935,-0.0816549,-0.0521469,0.0214386,0.0117111,0.00831604,-0.0393295,-0.134811,0.0249481,0.0224304,-9.97986,-0.0452805,0.00396729,-0.069809,0.201683,-0.0944138,0.00484467,0.0551224,-0.00713348
24,7,10.0097,-0.000305176,-0.00213623,-2.42501,0.055681,-0.0738423,0.0544332,0.0728014,-0.0922309,0.145624,-0.125156,-0.0816549,-0.0517654,0.0251007,0.0149155,0.00858307,-0.0342178,-0.134583,0.0259781,0.0239944,-9.97986,-0.0536728,-0.00209808,-0.070343,0.184822,-0.0934982,0.00213623,0.0575256,-0.0145721
24,8,10.0097,-0.000610352,-0.00213623,-2.42592,0.0562914,-0.0744527,0.0550435,0.0718859,-0.0910102,0.146844,-0.124851,-0.0822652,-0.0452423,0.0232697,0.00911713,0.00766754,-0.0320053,-0.129356,0.0195313,0.0257111,-9.97986,-0.0379562,0.00431061,-0.0732422,0.15583,-0.100822,0.00183105,0.0603867,-0.0257492
24,9,10.0097,0.000305176,-0.00228882,-2.42623,0.0559862,-0.0729268,0.0553487,0.07036,-0.0885688,0.146234,-0.124546,-0.0825704,-0.00507355,0.0229645,0.00976563,0.00957489,-0.0310135,-0.126762,0.0202179,0.0261688,-9.97986,-0.0102615,0.00614166,-0.0673676,0.124702,-0.103874,0.000762939,0.0638199,-0.0347137
25,0,10.0097,-0.000610352,-0.00259399,-2.4244,0.0572069,-0.0741475,0.054128,0.0724962,-0.0916206,0.146539,-0.124241,-0.0813497,0.0576401,0.018692,0.01091,0.00659943,-0.02285,-0.121002,0.0172043,0.0296021,-9.97986,0.00221252,0.00110626,-0.0580215,0.102959,-0.0977707,-0.00133514,0.0681305,-0.0421143
25,1,10.0097,0,-0.00198364,-2.42653,0.0569017,-0.0747579,0.054128,0.0572374,-0.0937568,0.146234,-0.124851,-0.0819601,0.1231,0.0222397,0.0150299,0.00759125,-0.0181961,-0.118027,0.0152969,0.027771,-9.97986,0.01091,-0.00572205,-0.0561905,0.0785828,-0.0899506,0.00762939,0.0731277,-0.0469208
25,2,10.0097,0.000610352,-0.00366211,-2.42623,0.0562914,-0.0735371,0.0547383,0.0514391,-0.0910102,0.145929,-0.125766,-0.0822652,0.148773,0.0180435,0.0144958,0.00793457,-0.00976563,-0.112076,0.0121307,0.0279236,-9.97986,0.0133133,0.000839233,-0.0603867,0.0537872,-0.0831223,0.00587463,0.0765991,-0.0547409
25,3,9.2336,-0.000305176,-0.00228882,-2.42531,0.0562914,-0.0735371,0.0556539,0.0569322,-0.0931465,0.146844,-0.125461,-0.0828756,0.137253,0.0197601,0.0153351,0.00953674,-0.00102997,-0.105286,0.0114441,0.0210571,-9.97986,0.01194,-0.00225067,-0.0532913,0.0508499,-0.0675964,0.0146484,0.0785828,-0.0592422
25,4,9.0862,0.000610352,-0.0012207,-2.42684,0.0547655,-0.0729268,0.0550435,0.0648668,-0.0931465,0.146234,-0.125156,-0.0834859,0.0934601,0.0229645,0.0170898,0.0124741,0.00617981,-0.102539,0.00408173,0.0157166,-9.97986,0.00804901,0.00293732,-0.0511169,0.0428009,-0.0534821,0.0152206,0.0799561,-0.0669098
25,5,9.37032,0.000915527,-0.000305176,-2.42592,0.0538499,-0.0756734,0.0535176,0.0724962,-0.0934516,0.145013,-0.125461,-0.0844015,0.0354004,0.021553,0.020256,0.0124741,0.0110626,-0.105324,0.00663757,0.0173187,-9.97986,0.00377655,-0.00453949,-0.0479507,0.0360107,-0.0257492,0.0192642,0.0833893,-0.0710678
25,6,10.0097,0.00244141,0.0012207,-2.42592,0.0553758,-0.0756734,0.0544332,0.0950792,-0.0903999,0.145624,-0.124241,-0.0837911,-0.0188828,0.0268555,0.0178528,0.00968933,0.0208282,-0.100212,-0.00205994,0.0199127,-9.97986,-0.00160217,-0.00160217,-0.0545502,0.0358582,-0.000572205,0.0329208,0.0801849,-0.0738144
25,7,10.0097,0.00183105,0.000152588,-2.42928,0.0547655,-0.0747579,0.0522969,0.082567,-0.0946723,0.143182,-0.126682,-0.0868429,-0.0570297,0.0221634,0.0178146,0.00789642,0.0262833,-0.0975037,0.00102997,0.0205231,-9.97986,0.00991821,-0.00247955,-0.0574493,0.0305557,0.0180435,0.0379181,0.0809479,-0.0785446
25,8,10.0097,0.0012207,0.000152588,-2.42959,0.0550706,-0.0753682,0.0519917,0.0724962,-0.0986396,0.143487,-0.126377,-0.0865377,-0.0915527,0.0251007,0.0247574,0.00911713,0.0358963,-0.0960159,-0.00164032,0.0160217,-9.97986,0.0166702,0.00301361,-0.0548172,0.0437546,0.0442886,0.0409698,0.080986,-0.0835419
25,9,10.0097,-0.0012207,0.00320435,-2.42928,0.0529344,-0.0747579,0.0535176,0.0700548,-0.0943672,0.145013,-0.126377,-0.0859274,-0.123825,0.0268555,0.0204849,0.0124359,0.0407791,-0.0868988,-0.00511169,0.00450134,-9.97986,0.0158691,0.00366211,-0.0618744,0.0906372,0.0662613,0.0368881,0.084877,-0.083847
26,0,10.0097,0.00244141,0.00213623,-2.42837,0.0550706,-0.0762837,0.0519917,0.0697496,-0.094062,0.144098,-0.127598,-0.0865377,-0.125923,0.029068,0.0233459,0.0141144,0.0487518,-0.0884247,-0.00305176,0.00862122,-9.97986,0.0149536,0.0069809,-0.0606918,0.117226,0.0884247,0.0355911,0.079155,-0.090332
26,1,10.0097,-0.0012207,0.00213623,-2.42959,0.0538499,-0.0756734,0.0513814,0.0685289,-0.0943672,0.144403,-0.127292,-0.0865377,-0.102005,0.0251007,0.0292587,0.0123596,0.0547028,-0.0839233,-0.0038147,0.00179291,-9.97986,0.0146866,0.00648499,-0.0732803,0.151558,0.107384,0.0376129,0.0782394,-0.0934219
26,2,10.0097,0.0012207,0.00411987,-2.42837,0.0535448,-0.0747579,0.0519917,0.0709703,-0.0928413,0.144098,-0.126682,-0.0844015,-0.0410461,0.0333405,0.0265884,0.0119781,0.0635529,-0.0804901,-0.00453949,0.00965118,-9.97986,0.0131226,0.00125885,-0.0755692,0.208893,0.13092,0.0369644,0.0705338,-0.0925446
26,3,10.0097,0.00152588,0.00396729,-2.42837,0.0541551,-0.0741475,0.0516866,0.0697496,-0.0931465,0.143792,-0.126682,-0.0850118,-0.00640869,0.0308609,0.0252151,0.0137329,0.0647354,-0.0798416,-0.0018692,0.0123978,-9.97986,0.0110245,-0.000305176,-0.083847,0.241661,0.147934,0.0380707,0.0620651,-0.0932312
26,4,10.0097,0.0012207,0.00213623,-2.42653,0.0547655,-0.0747579,0.0532125,0.0694445,-0.0928413,0.145624,-0.125156,-0.0840963,-0.00320435,0.0317764,0.0228882,0.0107956,0.0672531,-0.0791168,-0.00862122,0.0136948,-9.97986,0.015564,-0.000152588,-0.0838852,0.251656,0.155449,0.0430679,0.0574112,-0.0919724
26,5,10.0097,0.000610352,0.00152588,-2.42714,0.0553758,-0.0747579,0.0535176,0.0715807,-0.0928413,0.145318,-0.125766,-0.0828756,0.030365,0.0294495,0.0225449,0.0100708,0.0736618,-0.0723648,-0.00461578,0.0180817,-9.97986,0.0236511,-0.00682831,-0.0821686,0.260811,0.154648,0.0407791,0.0497818,-0.0973511
26,6,10.0097,0.000915527,0.00259399,-2.42501,0.0544603,-0.0741475,0.0535176,0.0706652,-0.0925361,0.146539,-0.125156,-0.0816549,0.0814438,0.0313187,0.0273514,0.0121689,0.0770569,-0.0748062,-0.00610352,0.0163651,-9.97986,0.0172424,-0.00392914,-0.0812912,0.283508,0.154915,0.0393295,0.0439453,-0.0960541
26,7,10.0097,0.000915527,0.00167847,-2.4244,0.0562914,-0.0735371,0.0547383,0.0694445,-0.0919257,0.145318,-0.12363,-0.0813497,0.0846481,0.0310898,0.027771,0.0140762,0.0844193,-0.0727844,-0.00793457,0.0159836,-9.97986,0.0175858,-0.0050354,-0.0762939,0.29705,0.155563,0.0317001,0.0360489,-0.0951385
26,8,10.0097,-0.000610352,0.000610352,-2.42562,0.0569017,-0.0738423,0.0544332,0.0715807,-0.0913154,0.147455,-0.124546,-0.0810445,0.0362015,0.0304413,0.0241089,0.0117874,0.0917053,-0.0748825,-0.00488281,0.0146484,-9.97986,0.00484467,-0.00480652,-0.078392,0.292244,0.158615,0.0319672,0.0297546,-0.0948334
26,9,10.0097,0.000610352,0,-2.4247,0.0559862,-0.0738423,0.0544332,0.0685289,-0.0922309,0.146844,-0.124546,-0.0819601,0.00900269,0.0302887,0.0244141,0.0149155,0.09552,-0.0753784,-0.0128555,0.00396729,-9.97986,-0.00312805,0.00270844,-0.0716782,0.282249,0.152283,0.0305176,0.018959,-0.0949478
27,0,10.0097,0,-0.000610352,-2.42409,0.0544603,-0.0735371,0.054128,0.0700548,-0.0910102,0.146539,-0.12363,-0.0813497,-0.00213623,0.0359726,0.0344086,0.0183105,0.0993729,-0.0735092,-0.00789642,-0.00175476,-9.97986,-0.0239182,0.00778198,-0.0727463,0.274658,0.150452,0.0234604,0.0225067,-0.0917053
27,1,10.0097,-0.000305176,-0.00106812,-2.42562,0.0562914,-0.0741475,0.0532125,0.054796,-0.0946723,0.146234,-0.124851,-0.0822652,-0.00881195,0.0361633,0.0328827,0.0204849,0.0957108,-0.0777817,-0.00789642,-0.0108337,-9.97986,-0.0573349,0.00785828,-0.0767899,0.254326,0.155945,0.0204086,0.0138092,-0.0893402
27,2,10.0097,-0.000305176,-0.00228882,-2.42653,0.0553758,-0.073232,0.055959,0.0514391,-0.0925361,0.145624,-0.125461,-0.0816549,0.0352478,0.0402832,0.0326538,0.0217056,0.0936508,-0.0819397,-0.0137329,-0.0117493,-9.97986,-0.0725555,0.00110626,-0.0743103,0.243034,0.163383,0.019989,0.00724792,-0.0878143
27,3,9.37062,0,-0.00167847,-2.42531,0.055681,-0.075063,0.0556539,0.0593737,-0.0919257,0.146234,-0.125766,-0.0819601,0.104256,0.0389099,0.031662,0.0214386,0.0870132,-0.0861359,-0.0105286,-0.0104904,-9.97986,-0.0688171,0.00106812,-0.0668716,0.227814,0.178604,0.0201035,0.00553131,-0.0856018
27,4,9.25832,-0.000305176,-0.0012207,-2.42592,0.0562914,-0.0735371,0.0556539,0.0657823,-0.0916206,0.146539,-0.126377,-0.0828756,0.0947952,0.0354004,0.0326157,0.0226593,0.0788498,-0.0893784,-0.0178528,-0.00572205,-9.97986,-0.0500488,-0.00396729,-0.0544357,0.223808,0.192871,0.0149918,0.00617981,-0.0827789
27,5,9.61171,0.000610352,-0.000610352,-2.42623,0.0541551,-0.0747579,0.0544332,0.0734117,-0.0922309,0.145624,-0.125156,-0.0834859,0.057869,0.0351715,0.0256729,0.0232697,0.0703812,-0.0967789,-0.0220871,-0.0113678,-9.97986,-0.0310516,-0.00289917,-0.0577927,0.209694,0.200462,0.00953674,0.0044632,-0.0808334
27,6,10.0097,0,0.000610352,-2.4247,0.0541551,-0.0747579,0.0556539,0.0959947,-0.0894843,0.145929,-0.12363,-0.0834859,0.0798035,0.0343704,0.0268936,0.0179291,0.0587463,-0.09655,-0.0181961,-0.00862122,-9.97986,-0.0203705,-0.000953674,-0.0601196,0.202255,0.202866,0.00167847,0.00167847,-0.0742722
27,7,10.0097,-0.0012207,0,-2.4302,0.0544603,-0.0759786,0.0529073,0.0798204,-0.0955879,0.143182,-0.126377,-0.0868429,0.0616455,0.0301743,0.0239563,0.0167465,0.045166,-0.101089,-0.0191116,-0.00469208,-9.97986,-0.023613,-0.000152588,-0.0580215,0.181999,0.202408,-0.00328064,-0.00488281,-0.0714111
27,8,10.0097,0.000305176,-0.00350952,-2.42898,0.0553758,-0.0762837,0.0513814,0.0731066,-0.0965034,0.142877,-0.126682,-0.0874532,0.0100327,0.0251389,0.0156021,0.0178146,0.0355148,-0.0946808,-0.0207138,-0.00411987,-9.97986,-0.0262451,0.0018692,-0.0556946,0.139389,0.202293,-0.00480652,-0.00205994,-0.0656128
27,9,10.0097,-0.00213623,-0.00305176,-2.42867,0.0550706,-0.0756734,0.0526021,0.0697496,-0.0946723,0.143792,-0.127292,-0.0865377,-0.0159073,0.0261688,0.0220871,0.0143051,0.0263214,-0.0989151,-0.0151062,-0.00282288,-9.97986,-0.0432587,0.00270844,-0.0525665,0.119057,0.191994,-0.00904083,-0.00358582,-0.0601578
28,0,10.0097,0,-0.00213623,-2.42898,0.0535448,-0.0741475,0.0529073,0.0682238,-0.0961982,0.141961,-0.126987,-0.0871481,-0.042572,0.0218964,0.0177765,0.0144958,0.0299072,-0.101128,-0.0291061,0.00534058,-9.97986,-0.07164,-0.000801086,-0.0413132,0.103569,0.162582,-0.0094223,-0.00656128,-0.0551987
28,1,10.0097,0.000305176,-0.00244141,-2.42959,0.0538499,-0.0768941,0.0513814,0.0685289,-0.0955879,0.142877,-0.127292,-0.0874532,-0.0321198,0.0130081,0.0157547,0.0157547,0.0278854,-0.100174,-0.0269318,0.0151443,-9.97986,-0.082016,0.00137329,-0.0311661,0.0870895,0.127411,-0.00576019,-0.00400543,-0.0539017
28,2,10.0097,-0.000915527,-0.00274658,-2.42928,0.0538499,-0.0753682,0.0516866,0.0688341,-0.0946723,0.144403,-0.127292,-0.0868429,-0.00453949,0.0221634,0.0132751,0.0156784,0.0374603,-0.099411,-0.0274658,0.0125504,-9.97986,-0.0786972,0.00110626,-0.0157547,0.0518417,0.0972748,-0.00377655,-0.00572205,-0.0470352
28,3,10.0097,-0.0012207,-0.00335693,-2.42837,0.0541551,-0.0717061,0.0532125,0.07036,-0.0934516,0.144403,-0.125766,-0.0865377,0.0152969,0.0157547,0.0108337,0.0112534,0.0418854,-0.102654,-0.032692,0.00999451,-9.97986,-0.0720978,0.000724792,-0.0101852,0.0125885,0.0793076,0.00305176,-0.00328064,-0.0474167
28,4,10.0097,0.000610352,-0.00289917,-2.42714,0.0559862,-0.075063,0.0532125,0.0706652,-0.0934516,0.145929,-0.126377,-0.085317,0.0297546,0.0144196,0.00751495,0.00759125,0.0507355,-0.101814,-0.0327301,0.00679016,-9.97986,-0.0538635,0.000610352,0.00209808,-0.0177765,0.0603104,0.0043869,-0.00579834,-0.0418854
28,5,10.0097,0.00335693,-0.00396729,-2.42623,0.0553758,-0.0744527,0.0529073,0.07036,-0.0934516,0.145318,-0.125766,-0.0859274,0.0246811,0.0127029,0.00572205,0.00865936,0.0479126,-0.103683,-0.0393295,0.00247955,-9.97986,-0.0268936,-0.00530243,0.00576019,-0.0682068,0.044632,0.0038147,-0.0025177,-0.0396347
28,6,10.0097,0.00152588,-0.00595093,-2.42531,0.055681,-0.0735371,0.0550435,0.0718859,-0.0922309,0.144708,-0.124851,-0.0840963,0.0275803,0.015831,0.00904083,0.00717163,0.0488663,-0.103912,-0.0423813,0.00457764,-9.97986,-0.0108337,-0.00751495,0.0174332,-0.142174,0.0287247,0.00476837,-0.00415802,-0.0408936
28,7,10.0097,-0.000305176,-0.0062561,-2.4247,0.0569017,-0.0747579,0.0544332,0.0715807,-0.0913154,0.144098,-0.125461,-0.0837911,0.038147,0.0125885,0.00289917,0.00522614,0.0437927,-0.108528,-0.0497437,0.00137329,-9.97986,0.0274277,-0.00511169,0.0309372,-0.207863,0.00778198,-0.00141144,-0.00694275,-0.0405884
28,8,10.0097,0.000610352,-0.0062561,-2.42501,0.0565965,-0.0738423,0.0568746,0.0715807,-0.0916206,0.145318,-0.123325,-0.0828756,0.0408554,0.0110245,0.00274658,0.00610352,0.045433,-0.108757,-0.0504303,-0.0050354,-9.97986,0.0704575,-0.0069046,0.0431442,-0.255699,-0.0218201,0.000419617,-0.010376,-0.0378418
28,9,10.0097,0.00152588,-0.0050354,-2.42531,0.0565965,-0.0741475,0.0556539,0.0718859,-0.0916206,0.146539,-0.124241,-0.0825704,0.0393677,0.0111389,0.00514984,0.01194,0.0471878,-0.112457,-0.0557709,-0.00747681,-9.97986,0.106163,-0.00423431,0.0555801,-0.30571,-0.0427628,0.000953674,-0.0069809,-0.0367737
29,0,10.0097,-0.000305176,-0.00396729,-2.4244,0.0565965,-0.0744527,0.0547383,0.0718859,-0.0916206,0.145318,-0.12363,-0.0819601,0.0357437,0.0134659,0.00209808,0.00835419,0.0418472,-0.117264,-0.0598526,-0.0164032,-9.97986,0.135307,-0.00312805,0.0602341,-0.347023,-0.0625229,-0.00217438,-0.0103378,-0.0409317
29,1,10.0097,0.000305176,-0.00213623,-2.42684,0.0550706,-0.0747579,0.0538228,0.0578478,-0.0949775,0.145929,-0.125156,-0.0828756,0.0389481,0.0152206,0.00343323,0.011673,0.0396347,-0.115585,-0.0547409,-0.00988007,-9.97986,0.150833,0.00480652,0.0725555,-0.358543,-0.0810623,-0.00087738,-0.0088501,-0.0406647
29,2,10.0097,0.00213623,-0.00457764,-2.42653,0.0565965,-0.0744527,0.0553487,0.0505236,-0.0925361,0.145318,-0.125461,-0.0819601,0.0405121,0.0148773,0.00522614,0.00679016,0.0429153,-0.121841,-0.0543594,-0.00595093,-9.97986,0.148277,0.00343323,0.0774384,-0.387077,-0.0914764,-0.00320435,-0.00999451,-0.0427628
29,3,9.24977,0.00152588,-0.00396729,-2.42623,0.0562914,-0.0735371,0.054128,0.058153,-0.0928413,0.147455,-0.125766,-0.0844015,0.0401306,0.0154114,0.0120544,0.00411987,0.0436401,-0.1231,-0.0593185,-0.00785828,-9.97986,0.137062,0.00705719,0.0741196,-0.425949,-0.102196,-0.00190735,-0.0131607,-0.0426483
29,4,9.12526,0.0012207,-0.00259399,-2.42592,0.0553758,-0.0738423,0.0544332,0.0657823,-0.0934516,0.145929,-0.125461,-0.0834859,0.0365448,0.0207138,0.0148773,0.0118256,0.0490189,-0.125923,-0.0465012,-0.0104523,-9.97986,0.127678,0.00465393,0.0755692,-0.440483,-0.111885,-0.0103378,-0.0149536,-0.0437164
29,5,9.46157,0.0012207,-0.000915527,-2.42653,0.0541551,-0.0735371,0.0532125,0.0718859,-0.0922309,0.144708,-0.125156,-0.0847066,0.0288391,0.019722,0.0143814,0.00595093,0.0559998,-0.125999,-0.0439835,-0.00106812,-9.97986,0.119858,0.00400543,0.0792313,-0.456009,-0.119476,-0.0184631,-0.0126266,-0.0495148
29,6,10.0097,0.000610352,-0.00167847,-2.42653,0.0547655,-0.0747579,0.0538228,0.0959947,-0.090705,0.145929,-0.124241,-0.0840963,0.0254059,0.0161743,0.0154114,0.00679016,0.0530624,-0.126572,-0.0445557,-0.00171661,-9.97986,0.124016,0.00209808,0.0846481,-0.486298,-0.123863,-0.0188828,-0.0124741,-0.0536728
29,7,10.0097,-0.000915527,-0.00106812,-2.42928,0.0544603,-0.0753682,0.0532125,0.0819567,-0.0943672,0.143487,-0.126682,-0.0868429,0.01194,0.0157166,0.0147247,0.00350952,0.053215,-0.133514,-0.0399017,-0.00175476,-9.97986,0.124626,0.00621796,0.0941467,-0.513458,-0.125313,-0.0159073,-0.0144577,-0.0528336
29,8,10.0097,-0.000305176,-0.00198364,-2.42898,0.0532396,-0.0741475,0.0513814,0.0728014,-0.095893,0.142572,-0.126682,-0.0871481,0.0139618,0.0175476,0.0151825,-0.000190735,0.0511932,-0.131569,-0.0387955,0.00347137,-9.97986,0.112152,0.00850677,0.0964355,-0.529556,-0.122528,-0.0138855,-0.0113297,-0.0530243
29,9,10.0097,0.000610352,-0.00259399,-2.42928,0.0544603,-0.0762837,0.0526021,0.07036,-0.0943672,0.144098,-0.126377,-0.0877584,0.0218201,0.0197983,0.0162506,0.00350952,0.0438309,-0.131302,-0.0375748,0.00335693,-9.97986,0.0844193,0.00606537,0.0966263,-0.562897,-0.126114,-0.014801,-0.015564,-0.0570297
30,0,10.0097,0.00244141,-0.00473022,-2.42898,0.0541551,-0.0759786,0.0522969,0.0688341,-0.0946723,0.142877,-0.127292,-0.0886739,0.0345993,0.0216293,0.0167084,-0.00152588,0.0404739,-0.131531,-0.0370407,0.00518799,-9.97986,0.0524139,0.00236511,0.0967026,-0.618095,-0.131035,-0.0165558,-0.0172424,-0.0553131
30,1,10.0097,0.00213623,-0.00488281,-2.42867,0.0538499,-0.0744527,0.0516866,0.0685289,-0.0952827,0.143182,-0.127292,-0.0877584,0.0402832,0.0220108,0.02388,0.00282288,0.0364685,-0.128021,-0.03582,0.0038147,-9.97986,0.0289154,0.00530243,0.0969696,-0.64724,-0.130463,-0.0201797,-0.0164032,-0.0584793
30,2,10.0097,0.00183105,-0.00289917,-2.42928,0.0544603,-0.0753682,0.0522969,0.0682238,-0.0937568,0.144098,-0.126377,-0.0862325,0.0271606,0.0250626,0.0180054,0.00511169,0.0298309,-0.121994,-0.029068,0.00465393,-9.97986,0.0233078,0.00411987,0.098114,-0.668144,-0.134735,-0.0202942,-0.0163651,-0.0607681
30,3,10.0097,0.000915527,-0.00335693,-2.42745,0.0553758,-0.0759786,0.054128,0.0706652,-0.0931465,0.143792,-0.125461,-0.0865377,0.00514984,0.0284576,0.0223541,0.00442505,0.0261688,-0.11692,-0.0337219,0.00232697,-9.97986,0.0274658,0.00484467,0.101242,-0.694809,-0.124016,-0.0198746,-0.0120163,-0.0606537
30,4,10.0097,0.000610352,-0.00366211,-2.42806,0.0553758,-0.075063,0.0538228,0.0700548,-0.0934516,0.145013,-0.125156,-0.085317,-0.020256,0.0340652,0.0231171,0.00293732,0.0283051,-0.108185,-0.0266266,0.00686646,-9.97986,0.02491,0.00148773,0.0959778,-0.737076,-0.123253,-0.0258255,-0.011673,-0.0598907
30,5,10.0097,0.0012207,-0.00228882,-2.42714,0.0550706,-0.0759786,0.0535176,0.0697496,-0.0928413,0.146844,-0.124851,-0.0844015,-0.0344849,0.0287247,0.0198364,0.000190735,0.0230408,-0.10479,-0.0233078,-0.00141144,-9.97986,0.0239563,0.000457764,0.100746,-0.757942,-0.122452,-0.0293732,-0.00778198,-0.0582886
30,6,10.0097,0.0012207,-0.00152588,-2.42501,0.0547655,-0.0741475,0.0544332,0.0691393,-0.0903999,0.145013,-0.124851,-0.0831808,-0.0430679,0.0266647,0.0250244,0.00431061,0.0145721,-0.0953293,-0.0197983,-0.000267029,-9.97986,0.00728607,0.00392914,0.0925064,-0.766869,-0.115814,-0.0351334,-0.0110626,-0.058403
30,7,10.0097,0.00244141,-0.00152588,-2.42592,0.0562914,-0.0741475,0.0547383,0.07036,-0.0919257,0.146539,-0.124851,-0.0825704,-0.0349426,0.0299454,0.0256729,0.00221252,0.00972748,-0.091629,-0.0113297,-0.00133514,-9.97986,-0.00583649,0.0030899,0.0885773,-0.775833,-0.124512,-0.0355148,-0.0111389,-0.0576782
30,8,10.0097,0,-0.000610352,-2.4244,0.0562914,-0.0744527,0.0544332,0.0709703,-0.0903999,0.146234,-0.124851,-0.0816549,-0.00976563,0.027771,0.026741,0.00762939,0.00209808,-0.0915527,-0.0069046,-0.00190735,-9.97986,-0.0162888,0.000190735,0.0862885,-0.790787,-0.133781,-0.0306702,-0.00804901,-0.0543976
30,9,10.0097,0.00152588,-0.00152588,-2.42531,0.0565965,-0.0735371,0.0547383,0.0718859,-0.0922309,0.147455,-0.124241,-0.0819601,0.00610352,0.0281906,0.0274277,0.00534058,0.0025177,-0.0802612,0.0012207,0.00087738,-9.97986,-0.0190353,-0.00431061,0.0848389,-0.801544,-0.138092,-0.0286865,-0.00740051,-0.0550079
31,0,10.0097,0.000915527,0.000152588,-2.42562,0.0565965,-0.0744527,0.0553487,0.07036,-0.0919257,0.146234,-0.124546,-0.0807394,0.0127792,0.0289917,0.0265503,0.00400543,-0.00179291,-0.0698853,0.00782013,0.0037384,-9.97986,-0.0297928,0.00156403,0.0805664,-0.796738,-0.134468,-0.0205231,0.000152588,-0.050621
31,1,10.0097,0.000610352,0.000152588,-2.42592,0.0544603,-0.0753682,0.0535176,0.0563219,-0.0931465,0.144708,-0.124851,-0.0825704,0.0114441,0.0328064,0.0239563,0.00431061,-0.00289917,-0.0714493,0.00961304,0.0112152,-9.97986,-0.0284195,0.00431061,0.0741959,-0.789795,-0.138206,-0.0191498,-0.000648499,-0.0502014
31,2,10.0097,-0.000305176,-0.00152588,-2.42562,0.0581224,-0.0735371,0.0532125,0.0493029,-0.0934516,0.147455,-0.126377,-0.0816549,-0.00743866,0.0297928,0.0247955,0.00415802,-0.00183105,-0.0663376,0.0178909,0.0138474,-9.97986,-0.0232697,0.00137329,0.0737762,-0.789871,-0.137825,-0.018425,0.00232697,-0.0449753
31,3,9.31783,0.0012207,-0.00198364,-2.42592,0.0547655,-0.0744527,0.0544332,0.0572374,-0.0928413,0.144403,-0.126682,-0.0813497,-0.0287247,0.0276566,0.0157166,-0.000267029,-0.00392914,-0.0567245,0.0201797,0.0193405,-9.97986,-0.0211716,-0.00469208,0.0666809,-0.793076,-0.135727,-0.0134277,0.00797272,-0.0418854
31,4,9.19209,0.000610352,-0.000457764,-2.42501,0.0550706,-0.0741475,0.0538228,0.0657823,-0.0928413,0.14837,-0.125156,-0.0840963,-0.0450516,0.0284576,0.0249863,-0.00274658,-0.0094223,-0.0528336,0.0244904,0.0157547,-9.97986,-0.0147629,-0.00514984,0.0611877,-0.796089,-0.136414,-0.00823975,0.0115585,-0.046463
31,5,9.53755,0.000915527,-0.000457764,-2.42714,0.055681,-0.075063,0.0544332,0.0734117,-0.0919257,0.145624,-0.125461,-0.0844015,-0.061264,0.03479,0.0195313,7.62939e-005,-0.00915527,-0.0478745,0.0317383,0.0167084,-9.97986,-0.0150681,0.00301361,0.0622559,-0.804901,-0.138054,-0.00614166,0.0151062,-0.0411224
31,6,10.0097,0.000610352,0,-2.42653,0.0544603,-0.0753682,0.0544332,0.0978258,-0.0903999,0.144098,-0.124241,-0.0847066,-0.0654221,0.0261307,0.0206757,-0.000343323,-0.0143051,-0.0497437,0.032692,0.0154877,-9.97986,-0.0195313,0.00087738,0.0542831,-0.817757,-0.139427,-0.0143814,0.0105286,-0.0442505
31,7,10.0097,0.00152588,0.00106812,-2.42928,0.0541551,-0.0771993,0.0519917,0.0810411,-0.0946723,0.144708,-0.126377,-0.0856222,-0.0495529,0.0270844,0.0182343,-0.00141144,-0.0101089,-0.0320435,0.0345993,0.0188446,-9.97986,-0.00495911,0.00453949,0.0535965,-0.80101,-0.137024,-0.0128937,0.0175476,-0.0393677
31,8,10.0097,0.0012207,0.0012207,-2.42867,0.0541551,-0.0762837,0.0532125,0.0743273,-0.0943672,0.143487,-0.126682,-0.0880636,-0.0358963,0.030899,0.018692,-0.00190735,-0.0117493,-0.0280762,0.0325012,0.0184631,-9.97986,0.000991821,0.000267029,0.0514603,-0.791092,-0.134544,-0.0121307,0.0164795,-0.0390244
31,9,10.0097,0.000305176,0.000915527,-2.42837,0.0544603,-0.075063,0.0519917,0.072191,-0.0943672,0.144403,-0.126682,-0.0871481,-0.0268173,0.0299072,0.0185013,-0.00389099,-0.0175095,-0.0239944,0.0304413,0.0231171,-9.97986,0.0161362,0.00526428,0.0501633,-0.773087,-0.124207,-0.00644684,0.0192642,-0.0371552
32,0,10.0097,0.000610352,0.000762939,-2.42928,0.0538499,-0.0775044,0.0519917,0.0685289,-0.0949775,0.140741,-0.127292,-0.0862325,-0.0218964,0.0282288,0.0201035,-0.00457764,-0.0190353,-0.0128937,0.0293732,0.0169754,-9.97986,0.0212097,-0.00297546,0.0482559,-0.748634,-0.115204,-0.00709534,0.0212479,-0.0400162
32,1,10.0097,0.000305176,0.00198364,-2.42898,0.0535448,-0.0759786,0.0526021,0.0697496,-0.0946723,0.143792,-0.127292,-0.0865377,-0.0118637,0.0322723,0.02388,-3.8147e-005,-0.0160217,7.62939e-005,0.0308609,0.015564,-9.97986,0.0219345,0.000648499,0.052681,-0.711708,-0.112038,-0.00774384,0.0194931,-0.0421143
32,2,10.0097,0.000610352,0.00183105,-2.42867,0.0541551,-0.0759786,0.0526021,0.0691393,-0.0949775,0.144403,-0.126377,-0.085317,0.00869751,0.0343704,0.0188828,-0.00228882,-0.0167465,0.00473022,0.0270081,0.0183868,-9.97986,0.0156784,-0.00564575,0.0580597,-0.686417,-0.113678,-0.00705719,0.0214767,-0.0415802
32,3,10.0097,0.00213623,0.00259399,-2.42776,0.0544603,-0.0762837,0.0535176,0.0697496,-0.0925361,0.145013,-0.126377,-0.0840963,0.0413895,0.0310135,0.0187302,-0.00152588,-0.0231934,0.0113678,0.0216675,0.0162888,-9.97986,0.0132751,-0.00255585,0.0608063,-0.660324,-0.109711,-0.0120544,0.02285,-0.0416946
32,4,10.0097,-0.000305176,0.00183105,-2.42745,0.0559862,-0.0756734,0.0519917,0.0706652,-0.0928413,0.147149,-0.125766,-0.0834859,0.0520706,0.0310898,0.0189209,3.8147e-005,-0.0265503,0.0197601,0.0251007,0.0117874,-9.97986,0.00595093,-0.00774384,0.066452,-0.639725,-0.108719,-0.0126266,0.0226212,-0.0422287
32,5,10.0097,0.00183105,0.00305176,-2.42684,0.0547655,-0.0747579,0.0535176,0.0697496,-0.0937568,0.145318,-0.125156,-0.0831808,0.0414658,0.033493,0.019722,-0.00102997,-0.0294495,0.0273514,0.0269318,0.018692,-9.97986,0.00499725,-0.00350952,0.0690079,-0.614128,-0.104599,-0.0177002,0.0260925,-0.0389099
32,6,10.0097,0.000305176,0.00213623,-2.42562,0.055681,-0.0735371,0.0556539,0.0700548,-0.0913154,0.146844,-0.125461,-0.0825704,0.032196,0.0284958,0.0206375,-0.00240326,-0.034523,0.0342178,0.0272369,0.018959,-9.97986,0.0130081,-0.00499725,0.0712967,-0.60112,-0.102959,-0.0166702,0.0245285,-0.0384521
32,7,10.0097,0.00152588,0.000762939,-2.4247,0.0575121,-0.0741475,0.0538228,0.0715807,-0.0916206,0.149896,-0.124851,-0.0816549,0.0340271,0.0268173,0.0161362,0.000114441,-0.0307083,0.0448608,0.0246811,0.0221252,-9.97986,0.0236511,-0.0062561,0.0672531,-0.582352,-0.0957489,-0.0204468,0.0283051,-0.032959
32,8,10.0097,-0.000305176,0.00259399,-2.42501,0.0562914,-0.0744527,0.054128,0.0715807,-0.0916206,0.147149,-0.124546,-0.0798238,0.031929,0.0286484,0.0210571,-0.00118256,-0.0317764,0.051651,0.0235367,0.0231552,-9.97986,0.032196,-0.00453949,0.0694275,-0.546837,-0.0860977,-0.0214386,0.0331116,-0.0297165
32,9,10.0097,-0.000305176,0.00335693,-2.42501,0.0569017,-0.0747579,0.0550435,0.0709703,-0.0916206,0.145624,-0.125461,-0.0813497,0.0171661,0.026741,0.0177765,-0.00087738,-0.0281525,0.0634766,0.0272369,0.0256729,-9.97986,0.042572,-0.00598907,0.0648117,-0.512581,-0.0830841,-0.0202942,0.0307083,-0.0263596
33,0,10.0097,0.000610352,0.00320435,-2.42592,0.0572069,-0.0744527,0.0553487,0.0715807,-0.0919257,0.14776,-0.123325,-0.080129,0.000495911,0.0216293,0.0126266,-0.00171661,-0.0265121,0.0682449,0.0288391,0.0268555,-9.97986,0.0520325,-0.00354767,0.062561,-0.476952,-0.0811768,-0.0188828,0.0297165,-0.0227356
33,1,10.0097,0.000305176,0.00411987,-2.42653,0.0562914,-0.0762837,0.054128,0.0563219,-0.0931465,0.145013,-0.125461,-0.0810445,0.00545502,0.0237274,0.0128937,-0.0030899,-0.0236893,0.0755692,0.030632,0.0275803,-9.97986,0.0393677,-0.00637054,0.0628662,-0.435829,-0.0690079,-0.0140762,0.0317383,-0.0157547
33,2,10.0097,0.00152588,0.00259399,-2.42592,0.0565965,-0.073232,0.0538228,0.049608,-0.0928413,0.146234,-0.126377,-0.0813497,0.00114441,0.022583,0.018425,-0.00038147,-0.0182343,0.0870895,0.0301743,0.0305939,-9.97986,0.0130844,-0.00415802,0.0556946,-0.404778,-0.067482,-0.0104523,0.0351334,-0.0161362
33,3,9.38893,-0.000915527,0.00274658,-2.42562,0.0550706,-0.0747579,0.0532125,0.0578478,-0.0913154,0.145013,-0.125766,-0.0810445,0.00400543,0.0235748,0.0178909,-0.00278473,-0.0214767,0.100403,0.0307465,0.0333023,-9.97986,0.00499725,-0.00492096,0.052948,-0.36705,-0.0643158,-0.00617981,0.0351715,-0.0125122
33,4,9.29219,0.0012207,0.0038147,-2.42592,0.0550706,-0.0744527,0.0553487,0.0660875,-0.0919257,0.145624,-0.124851,-0.0819601,0.0140762,0.0246811,0.0190735,-0.000610352,-0.0146103,0.116119,0.0362015,0.0306702,-9.97986,-0.00656128,-0.00343323,0.0506973,-0.324669,-0.057373,-0.00511169,0.0381851,-0.00789642
33,5,9.68434,0.000915527,0.00427246,-2.42806,0.0547655,-0.0778096,0.0535176,0.0734117,-0.0919257,0.146234,-0.125461,-0.0819601,0.0261307,0.0263596,0.0145721,-0.000419617,-0.00747681,0.124817,0.0398636,0.0301361,-9.97986,-0.0190735,-0.000534058,0.0502777,-0.278893,-0.045929,-0.00328064,0.042305,-0.00270844
33,6,10.0097,0.00183105,0.00518799,-2.42684,0.0550706,-0.0753682,0.054128,0.0984362,-0.0891792,0.144708,-0.124241,-0.0831808,0.0353622,0.0255966,0.0170898,0.00156403,-0.0115585,0.130043,0.0413132,0.0266266,-9.97986,-0.0144577,-0.00087738,0.0468826,-0.240059,-0.0437546,-0.00465393,0.0401306,0.000915527
33,7,10.0097,0.00183105,0.00457764,-2.42928,0.0529344,-0.0762837,0.0529073,0.080736,-0.0946723,0.145318,-0.126377,-0.0856222,0.0427628,0.0278473,0.0144196,0.00293732,-0.00202179,0.131416,0.04879,0.0244904,-9.97986,-0.0101089,-0.00694275,0.0492859,-0.200691,-0.0423431,-0.0105286,0.0409698,0.000190735
33,8,10.0097,0.000305176,0.00305176,-2.42959,0.0544603,-0.0756734,0.0522969,0.0728014,-0.0955879,0.144403,-0.128208,-0.0850118,0.0456238,0.0250626,0.00759125,-0.000648499,0.000686646,0.128479,0.053215,0.0270462,-9.97986,-0.00961304,-0.00434875,0.0465775,-0.173035,-0.0413895,-0.00869751,0.0430298,0.00602722
33,9,10.0097,0.000610352,0.00411987,-2.42867,0.0529344,-0.0765889,0.0513814,0.0694445,-0.0934516,0.143182,-0.127903,-0.085317,0.0379562,0.0272369,0.0151062,0.00720978,0.00331879,0.121536,0.0535202,0.028801,-9.97986,-0.0180817,-0.0038147,0.0457382,-0.128632,-0.0275421,-0.00694275,0.0411606,0.00900269
34,0,10.0097,-0.0012207,0.00228882,-2.42959,0.0535448,-0.0753682,0.0516866,0.0697496,-0.0955879,0.144098,-0.127903,-0.0859274,0.0294495,0.0284195,0.0120544,0.00385284,0.00385284,0.112801,0.0537872,0.0281525,-9.97986,-0.0358963,-0.00236511,0.0457382,-0.0983047,-0.0180817,-0.00904083,0.0382996,0.0114822
34,1,10.0097,0.000305176,0.00335693,-2.42837,0.0535448,-0.0756734,0.0526021,0.0685289,-0.0949775,0.142267,-0.128208,-0.0859274,0.0100327,0.0265884,0.0179672,-0.00286102,0.00858307,0.110779,0.0595093,0.026741,-9.97986,-0.0512314,-0.0088501,0.0423813,-0.0682449,-0.0136566,-0.0121307,0.0371552,0.0167084
34,2,10.0097,-0.000915527,0.00411987,-2.42745,0.0541551,-0.0756734,0.0513814,0.0700548,-0.0922309,0.144708,-0.126987,-0.0850118,0.00507355,0.0233078,0.00873566,0.00152588,0.00736237,0.0994873,0.0549698,0.0227737,-9.97986,-0.0514984,-0.00534058,0.0437546,-0.0117493,0.000572205,-0.0148392,0.0321579,0.0202942
34,3,10.0097,-0.000305176,0.00442505,-2.42837,0.0550706,-0.0741475,0.0529073,0.0697496,-0.0952827,0.145624,-0.126987,-0.0831808,0.00324249,0.0260162,0.0111389,0,0.0113297,0.102272,0.0595856,0.0181961,-9.97986,-0.0418854,7.62939e-005,0.0449371,0.0380325,0.0123978,-0.00686646,0.0331879,0.0204849
34,4,10.0097,0.000305176,0.00656128,-2.42653,0.0547655,-0.0787251,0.0529073,0.0694445,-0.0928413,0.144403,-0.126377,-0.0825704,0.001297,0.0237274,0.00995636,0.00679016,0.0104904,0.107193,0.0640488,0.0229645,-9.97986,-0.023613,-0.00205994,0.0505447,0.112152,0.0294876,-0.000572205,0.0281525,0.0255585
34,5,10.0097,0.000305176,0.00686646,-2.42592,0.0547655,-0.0741475,0.0526021,0.0697496,-0.0925361,0.144098,-0.125461,-0.0813497,0.000801086,0.0228119,0.00751495,0.00911713,0.00801086,0.118256,0.0613022,0.0261688,-9.97986,-0.0163651,-0.000762939,0.0529861,0.173531,0.032959,-0.00183105,0.0221634,0.0267029
34,6,10.0097,0.000305176,0.00610352,-2.42531,0.055681,-0.075063,0.0553487,0.0685289,-0.0916206,0.146234,-0.125156,-0.0792135,-0.00331879,0.0249481,0.00900269,0.00675201,0.0115204,0.124207,0.0614548,0.0273895,-9.97986,-0.00545502,-0.0069046,0.0512695,0.231743,0.0389862,-0.0043869,0.0173569,0.0249863
34,7,10.0097,0.00152588,0.00686646,-2.4244,0.0559862,-0.0747579,0.0553487,0.07036,-0.0910102,0.147149,-0.124546,-0.0792135,0.000343323,0.0222397,0.0104141,0.00732422,0.013237,0.135574,0.0618744,0.0273895,-9.97986,0.0326157,-0.0147629,0.0515747,0.304871,0.0418854,-0.00114441,0.0144577,0.0238037
34,8,10.0097,0.00152588,0.00427246,-2.42409,0.0559862,-0.0738423,0.054128,0.0709703,-0.0922309,0.146539,-0.124546,-0.0804342,-0.0113678,0.0260162,0.00751495,0.00644684,0.0157928,0.147362,0.0584412,0.0326157,-9.97986,0.0740051,-0.0258255,0.0523758,0.335274,0.0575638,-0.00110626,0.0128174,0.0234604
34,9,10.0097,0.000305176,0.00320435,-2.42531,0.0572069,-0.075063,0.0532125,0.0706652,-0.090705,0.145929,-0.124241,-0.0804342,-0.0187683,0.0262451,0.00934601,0.0102615,0.0146866,0.15583,0.062027,0.0260162,-9.97986,0.0879288,-0.0427628,0.0537872,0.359764,0.0625992,0.00736237,0.00865936,0.0231934
35,0,10.0097,0.000915527,0.00259399,-2.4247,0.0559862,-0.0735371,0.0547383,0.0709703,-0.0900947,0.146539,-0.12363,-0.080129,-0.0183105,0.0292587,0.0131607,0.00911713,0.0156403,0.162201,0.0655746,0.026474,-9.97986,0.0801849,-0.0166702,0.0475693,0.377502,0.0559235,0.0108337,0.00217438,0.0189972
35,1,10.0097,-0.000305176,0.0012207,-2.42531,0.0565965,-0.0744527,0.0532125,0.0551012,-0.0949775,0.145318,-0.126072,-0.0825704,-0.0333405,0.0291824,0.0154114,0.0126648,0.0114822,0.160637,0.0637054,0.0167847,-9.97986,0.0568771,0.00400543,0.04879,0.371704,0.0576401,0.00709534,0.00038147,0.0140762
35,2,10.0097,0.000305176,0.000152588,-2.42592,0.0559862,-0.073232,0.0547383,0.0499132,-0.0925361,0.145318,-0.126072,-0.0822652,-0.0436401,0.0312805,0.0182343,0.0130463,0.0141907,0.1548,0.069046,0.0170135,-9.97986,0.0383759,0.0147247,0.0489044,0.386772,0.0669098,0.00854492,-0.00259399,0.013237
35,3,9.39076,0.000915527,0,-2.42623,0.055681,-0.0744527,0.0544332,0.0572374,-0.0928413,0.145624,-0.126072,-0.0822652,-0.0386047,0.0308228,0.0178146,0.0131607,0.0121689,0.159454,0.0720978,0.0169754,-9.97986,0.023613,0.0122452,0.0500107,0.390663,0.0708771,0.000419617,-0.00465393,0.010643
35,4,9.31752,0.00213623,-0.000457764,-2.42592,0.0559862,-0.0738423,0.0544332,0.0663927,-0.0922309,0.145929,-0.126377,-0.0828756,-0.0579834,0.0337601,0.0180435,0.0121307,0.0133133,0.157814,0.0659943,0.0164795,-9.97986,0.0150299,0.0196457,0.047226,0.373993,0.0790024,-0.00102997,-0.0108719,0.00770569
35,5,9.70845,0.0012207,-0.000305176,-2.42592,0.055681,-0.075063,0.0544332,0.0746324,-0.0922309,0.145013,-0.124851,-0.0834859,-0.0758743,0.030899,0.0213623,0.0146103,0.0136566,0.159836,0.0553513,0.00576019,-9.97986,0.0133896,0.0297546,0.0471497,0.386124,0.0799179,-0.0105667,-0.0158691,0.00350952
35,6,10.0097,0.0012207,0.00137329,-2.42592,0.0553758,-0.0744527,0.0544332,0.0996569,-0.0891792,0.145929,-0.124546,-0.0828756,-0.0582123,0.0349045,0.0167465,0.0136566,0.0136185,0.149422,0.0600052,0.00282288,-9.97986,0.0063324,0.0127411,0.0476456,0.389328,0.0828934,-0.0225067,-0.0165558,0.00587463
35,7,10.0097,0.000610352,0.0012207,-2.42867,0.0544603,-0.0771993,0.0519917,0.0813463,-0.094062,0.143792,-0.126987,-0.0862325,-0.000190735,0.0289917,0.0217819,0.0159454,0.0167084,0.149002,0.0586319,0.0075531,-9.97986,0.00782013,-0.00190735,0.0456238,0.392303,0.086174,-0.0187683,-0.0214767,0.00289917
35,8,10.0097,-0.000915527,-0.000305176,-2.42928,0.0532396,-0.0753682,0.0532125,0.0740221,-0.0949775,0.144098,-0.126377,-0.0877584,0.0645828,0.0350189,0.0250626,0.0170517,0.0137711,0.140686,0.0572205,0.00675201,-9.97986,0.00350952,0.00762939,0.0472641,0.395813,0.0844574,-0.00972748,-0.0217056,0.00198364
35,9,10.0097,0,0.000762939,-2.42837,0.0541551,-0.0747579,0.0519917,0.0718859,-0.0937568,0.143182,-0.127292,-0.0859274,0.110397,0.0317764,0.0229645,0.0179672,0.0139999,0.126572,0.061264,0.00926971,-9.97986,0.00411987,0.000610352,0.0425339,0.409012,0.0851059,-0.00732422,-0.0230026,-0.00511169
36,0,10.0097,-0.000305176,0.000762939,-2.42989,0.0532396,-0.0759786,0.050771,0.0700548,-0.0937568,0.144098,-0.127292,-0.0868429,0.13134,0.0256729,0.0175858,0.01297,0.0143433,0.120926,0.0581741,0.0104904,-9.97986,-0.0104141,-0.000457764,0.046463,0.426674,0.0756454,-0.00431061,-0.0241852,-0.00526428
36,1,10.0097,0.00152588,0.000915527,-2.42989,0.0532396,-0.0762837,0.0529073,0.0688341,-0.095893,0.143487,-0.128513,-0.0865377,0.136757,0.0246048,0.0162888,0.0154495,0.0138474,0.112915,0.0518799,0.0104141,-9.97986,-0.0284958,-0.00164032,0.0455093,0.436668,0.0806046,0.00141144,-0.0193024,-0.00335693
36,2,10.0097,-0.0012207,0.000610352,-2.4302,0.0535448,-0.0753682,0.0532125,0.0682238,-0.0943672,0.142877,-0.127292,-0.0859274,0.0984573,0.020752,0.0144196,0.0131226,0.0112534,0.106087,0.0508118,0.00858307,-9.97986,-0.0298691,-0.00209808,0.0485992,0.439606,0.0847244,0.00488281,-0.0216293,-0.00598907
36,3,10.0097,0,-0.000305176,-2.42806,0.0550706,-0.0756734,0.0529073,0.0709703,-0.094062,0.143487,-0.126072,-0.085317,0.0567627,0.0232697,0.0129318,0.0115585,0.0115585,0.0938416,0.0402451,0.0101852,-9.97986,-0.0268555,0.00274658,0.0462723,0.434914,0.0818634,0.00473022,-0.0178528,-0.00389099
36,4,10.0097,0,0.000305176,-2.42745,0.0547655,-0.0741475,0.0529073,0.0694445,-0.0961982,0.144708,-0.127292,-0.0850118,0.0511169,0.0223923,0.00709534,0.0111389,0.0178146,0.0893021,0.0376892,0.00736237,-9.97986,-0.0231552,0.00411987,0.0502396,0.442696,0.0844193,0.0018692,-0.013504,-0.00736237
36,5,10.0097,-0.000305176,0.000762939,-2.42653,0.0550706,-0.0744527,0.054128,0.0691393,-0.0922309,0.144708,-0.125156,-0.0840963,0.0386429,0.014267,0.00888824,0.0136948,0.0168991,0.0807571,0.0348282,0.00984192,-9.97986,-0.0196838,-7.62939e-005,0.0510406,0.442123,0.0796509,-0.00259399,-0.0135803,-0.0134659
36,6,10.0097,0.000305176,0.00106812,-2.42562,0.0550706,-0.0747579,0.0532125,0.0709703,-0.0922309,0.145929,-0.123935,-0.0807394,0.0202179,0.0159836,0.00835419,0.0139236,0.0177002,0.0731277,0.0302124,0.00816345,-9.97986,-0.0149155,-0.00377655,0.0497437,0.447083,0.0815582,-0.000610352,-0.0155258,-0.00976563
36,7,10.0097,0.000610352,0.000762939,-2.42592,0.0565965,-0.0735371,0.0547383,0.0694445,-0.0897895,0.147149,-0.124241,-0.0813497,0.0199509,0.0148392,0.00576019,0.0102234,0.013504,0.0696564,0.0270081,0.0147629,-9.97986,-0.00816345,-0.0012207,0.0472641,0.445442,0.0794983,0.00801086,-0.0108719,-0.0150299
36,8,10.0097,0.00335693,0.000152588,-2.4244,0.0565965,-0.0729268,0.0556539,0.0709703,-0.0928413,0.146234,-0.123935,-0.0807394,0.00507355,0.0151062,0.00583649,0.0138855,0.0173187,0.0695038,0.0193787,0.017662,-9.97986,0.00411987,-0.00312805,0.0376511,0.443993,0.0721741,0.0139618,-0.00415802,-0.0114441
36,9,10.0097,0.000610352,-0.000610352,-2.42531,0.0559862,-0.0735371,0.0547383,0.0709703,-0.0922309,0.145929,-0.124851,-0.0807394,-0.00293732,0.0153732,0.0125885,0.0115204,0.0179291,0.0600052,0.0114441,0.0170135,-9.97986,0.00434875,-0.00335693,0.041275,0.438156,0.0670242,0.0168228,-0.00736237,-0.0151825
37,0,10.0097,0.000915527,-0.000610352,-2.4244,0.0569017,-0.0735371,0.0544332,0.072191,-0.0913154,0.145624,-0.12363,-0.0804342,0.00236511,0.01297,0.00743866,0.0151443,0.0192642,0.0530624,0.0124359,0.0186539,-9.97986,0.00907898,-0.00347137,0.0363159,0.429344,0.064888,0.0194168,-0.00720978,-0.0175476
37,1,10.0097,0.00396729,-0.00106812,-2.42653,0.0553758,-0.0741475,0.0529073,0.0578478,-0.0943672,0.147455,-0.125156,-0.0822652,0.0165939,0.018425,0.00881195,0.017662,0.0156403,0.0489807,0.0104904,0.0209808,-9.97986,0.0278091,-0.00282288,0.0301361,0.411491,0.0651932,0.0120163,-0.00408173,-0.0202179
37,2,10.0097,0.00152588,-0.00244141,-2.42592,0.0544603,-0.0744527,0.054128,0.0517443,-0.0931465,0.144403,-0.124546,-0.0819601,0.0380325,0.0180435,0.011673,0.0117493,0.017662,0.0422287,0.0209427,0.019455,-9.97986,0.0497437,-0.00797272,0.0295639,0.396309,0.0664902,0.00675201,0.00137329,-0.0251007
37,3,9.5522,0.000305176,-0.00183105,-2.42501,0.0565965,-0.0747579,0.0544332,0.059984,-0.0919257,0.146234,-0.125766,-0.0825704,0.0467682,0.0153351,0.0110245,0.0172424,0.0195313,0.043869,0.0148773,0.0159454,-9.97986,0.066185,-0.00293732,0.028038,0.389175,0.070343,0.0111771,0.000801086,-0.0250626
37,4,9.45699,0.000915527,-0.000610352,-2.42531,0.055681,-0.0738423,0.0544332,0.0666979,-0.0934516,0.145929,-0.126072,-0.0825704,0.0501251,0.015831,0.0144577,0.0140762,0.0169754,0.0431824,0.0131989,0.0118637,-9.97986,0.0616837,-0.00564575,0.0222397,0.377884,0.0692749,0.0115204,0.00289917,-0.0218964
37,5,9.81496,-0.000305176,-0.000610352,-2.42776,0.0562914,-0.075063,0.054128,0.0734117,-0.0919257,0.145624,-0.125766,-0.0834859,0.0424194,0.0222015,0.0157928,0.013237,0.0170898,0.0401688,0.0169373,0.0108719,-9.97986,0.0591278,-0.0019455,0.0193405,0.368767,0.07164,0.01297,0.00141144,-0.0204468
37,6,10.0097,-0.000305176,0.00106812,-2.42562,0.0553758,-0.075063,0.054128,0.0990465,-0.090705,0.144098,-0.12363,-0.0837911,0.0317764,0.0214005,0.0137329,0.0216675,0.0209808,0.0333405,0.0174713,0.00682831,-9.97986,0.0609207,-0.00297546,0.0132751,0.363121,0.0739288,0.00999451,0.00305176,-0.0178146
37,7,10.0097,0.000610352,0.000457764,-2.42867,0.0550706,-0.0744527,0.0532125,0.0795153,-0.0928413,0.142572,-0.126072,-0.0862325,0.0204849,0.022049,0.0174713,0.0178909,0.0187683,0.0283051,0.0196075,0.00537872,-9.97986,0.0577545,7.62939e-005,0.0156021,0.365143,0.0751114,0.00621796,0.00282288,-0.0162506
37,8,10.0097,0.000610352,0,-2.42776,0.0550706,-0.0759786,0.0526021,0.0715807,-0.0955879,0.143487,-0.126987,-0.0868429,-0.00370026,0.0207901,0.020752,0.0215149,0.0213623,0.0304794,0.0188446,0.00526428,-9.97986,0.0404358,-0.00175476,0.0120163,0.364494,0.0759125,0.00556946,0.00221252,-0.016098
37,9,10.0097,0.000305176,-0.000457764,-2.42837,0.0553758,-0.075063,0.0513814,0.0700548,-0.0961982,0.143487,-0.126987,-0.0868429,-0.0260925,0.0195313,0.0204086,0.0175095,0.0241852,0.0288391,0.0175476,0.00392914,-9.97986,0.0291824,-0.00038147,0.0069046,0.358849,0.0718689,0.00572205,0.00469208,-0.0200653
38,0,10.0097,0,-0.0012207,-2.42898,0.0529344,-0.0762837,0.0516866,0.0682238,-0.0949775,0.142267,-0.127292,-0.0871481,-0.0330734,0.0243759,0.018959,0.0143433,0.0224686,0.0228882,0.0139618,0.00705719,-9.97986,0.0253677,-0.00377655,-0.00175476,0.356331,0.0689316,-0.000228882,0.0106049,-0.0137329
38,1,10.0097,-0.000915527,-0.00137329,-2.42898,0.0535448,-0.0759786,0.0522969,0.0697496,-0.0952827,0.144098,-0.127292,-0.0874532,-0.0389481,0.0230408,0.022049,0.0206757,0.0166702,0.0167465,0.0127792,0.00526428,-9.97986,0.0358963,-0.00343323,-0.00576019,0.344696,0.0731659,-0.00846863,0.00965118,-0.0152206
38,2,10.0097,0.000305176,-0.00106812,-2.42928,0.0544603,-0.0762837,0.0522969,0.0685289,-0.0946723,0.143792,-0.126987,-0.0862325,-0.0496674,0.0238419,0.0194931,0.0205612,0.0208664,0.0193024,0.0167084,0.00896454,-9.97986,0.0348663,-0.00991821,-0.00617981,0.33268,0.0823212,-0.0114441,0.0120163,-0.0139236
38,3,10.0097,-0.000305176,-0.00198364,-2.42776,0.0541551,-0.075063,0.0535176,0.0706652,-0.0931465,0.145013,-0.125766,-0.0859274,-0.0462723,0.0286865,0.021553,0.0234985,0.0178909,0.018425,0.0167084,0.0101852,-9.97986,0.033226,-0.0170898,-0.0139618,0.320244,0.0940704,-0.0136566,0.0151443,-0.00926971
38,4,10.0097,0.000610352,-0.000915527,-2.42745,0.0553758,-0.0747579,0.0532125,0.0694445,-0.0922309,0.145318,-0.127292,-0.085317,-0.0461578,0.029335,0.0245285,0.0227356,0.0205231,0.0170898,0.0231171,0.0125504,-9.97986,0.0329971,-0.00881195,-0.0149155,0.315933,0.109901,-0.0127792,0.0133133,-0.00267029
38,5,10.0097,0.0012207,-0.000305176,-2.42714,0.0550706,-0.0741475,0.0544332,0.0688341,-0.0922309,0.145624,-0.126377,-0.0840963,-0.0450134,0.0282669,0.0309372,0.0199509,0.0160217,0.0138855,0.0205612,0.0108719,-9.97986,0.0243378,-0.00530243,-0.0204086,0.310402,0.125084,0.00343323,0.0167847,-0.00366211
38,6,10.0097,0,-0.000610352,-2.42501,0.0562914,-0.0735371,0.054128,0.0688341,-0.0903999,0.146539,-0.124851,-0.0816549,-0.0202942,0.0269318,0.0273895,0.0191116,0.0197983,0.0121689,0.0167847,0.0173187,-9.97986,-0.000724792,0.000991821,-0.0233459,0.302773,0.145607,0.0186539,0.0190735,0.00164032
38,7,10.0097,-0.000915527,-0.000152588,-2.42501,0.0565965,-0.0744527,0.0529073,0.0718859,-0.0903999,0.14776,-0.125156,-0.0813497,0.00236511,0.0250626,0.0281525,0.0211334,0.0203705,0.00831604,0.00125885,0.0139999,-9.97986,0.000419617,-0.00621796,-0.0234222,0.292397,0.160942,0.0275421,0.0150299,0.000495911
38,8,10.0097,0.0012207,-0.000915527,-2.42379,0.0559862,-0.0738423,0.0547383,0.072191,-0.0903999,0.146539,-0.12363,-0.0816549,0.0247574,0.0212479,0.0242615,0.0214386,0.0203705,0.00682831,-0.00102997,0.012207,-9.97986,0.0341415,-0.00595093,-0.0261688,0.286446,0.185242,0.0280762,0.0197601,0.00659943
38,9,10.0097,0.000305176,-0.000457764,-2.42501,0.0541551,-0.0747579,0.0556539,0.0724962,-0.0916206,0.14776,-0.123935,-0.0804342,0.0438309,0.024147,0.0187683,0.0181961,0.0287628,0.00816345,-0.00720978,0.0106812,-9.97986,0.0779343,-0.0142288,-0.0287247,0.275383,0.204163,0.0222397,0.0195313,0.0112915
39,0,10.0097,0.000915527,0.000305176,-2.4244,0.0578172,-0.0738423,0.0556539,0.0724962,-0.0913154,0.146539,-0.124241,-0.080129,0.048027,0.0229263,0.0218201,0.0260925,0.028801,0.001297,0.00282288,0.0101471,-9.97986,0.0883865,-0.0128555,-0.0308609,0.273743,0.225792,0.0226212,0.0175858,0.0181961
39,1,10.0097,0.000915527,-0.000915527,-2.42623,0.0562914,-0.0744527,0.0529073,0.054796,-0.0913154,0.14776,-0.126377,-0.0819601,0.0516129,0.0200272,0.0238419,0.0227737,0.0304413,-0.00221252,0.00442505,0.00976563,-9.97986,0.0785446,-0.00225067,-0.0308228,0.266495,0.241241,0.0220108,0.0201416,0.020256
39,2,10.0097,0.0012207,-0.00198364,-2.42501,0.0565965,-0.0738423,0.0547383,0.0502184,-0.0946723,0.147149,-0.125461,-0.0831808,0.0481033,0.022049,0.0222778,0.0162888,0.0335312,-0.00137329,-0.00423431,0.00988007,-9.97986,0.0689316,-0.000953674,-0.0323486,0.249825,0.252762,0.00671387,0.0214767,0.020256
39,3,9.17134,-0.000305176,-0.00213623,-2.42653,0.0565965,-0.0741475,0.0547383,0.0578478,-0.0922309,0.146234,-0.125766,-0.0825704,0.0502396,0.0232697,0.0271988,0.0224304,0.0341415,-0.0050354,-0.00278473,0.00984192,-9.97986,0.062294,-0.00556946,-0.0370789,0.229187,0.261192,0.00396729,0.0222778,0.0194931
39,4,9.09352,-0.000915527,-0.00137329,-2.42714,0.0547655,-0.075063,0.0538228,0.0657823,-0.090705,0.145013,-0.125156,-0.0825704,0.0422287,0.0259781,0.0287628,0.0234985,0.0366211,-0.00133514,-0.00457764,0.00835419,-9.97986,0.0629044,-0.00175476,-0.0363922,0.221519,0.274353,0.00873566,0.0243378,0.0265884
39,5,9.44478,-0.000305176,-0.00106812,-2.42684,0.0553758,-0.0765889,0.0535176,0.0746324,-0.0916206,0.146539,-0.125156,-0.0834859,0.0255203,0.0227737,0.0276947,0.0204849,0.032196,-0.00286102,-0.0133133,0.0107574,-9.97986,0.0595093,0.00263214,-0.0371552,0.202904,0.286674,-0.00492096,0.0227356,0.023613
39,6,10.0097,0.000610352,-0.000457764,-2.42653,0.0550706,-0.0735371,0.0556539,0.098131,-0.090705,0.145624,-0.124241,-0.0844015,0.0267029,0.0205231,0.0254822,0.0208282,0.0341034,-0.00667572,-0.0184631,0.0217056,-9.97986,0.0510788,0.00431061,-0.0371933,0.191727,0.301819,-0.0183105,0.0262833,0.0295639
39,7,10.0097,0,-0.000610352,-2.42928,0.0541551,-0.0756734,0.0532125,0.0804308,-0.0928413,0.144708,-0.126682,-0.0865377,0.0424957,0.0239944,0.021553,0.0125885,0.0341034,-0.00232697,-0.0266266,0.0208282,-9.97986,0.0214767,0.0056839,-0.0398254,0.173492,0.313339,-0.0231552,0.0245667,0.0299835
39,8,10.0097,-0.000610352,-0.000305176,-2.42959,0.0535448,-0.0765889,0.0544332,0.0712755,-0.0946723,0.143182,-0.127292,-0.0862325,0.0483322,0.0237274,0.0223541,0.016861,0.0311661,-0.00549316,-0.0366211,0.0191116,-9.97986,0.00247955,7.62939e-005,-0.0356674,0.167351,0.324898,-0.0242233,0.0271988,0.0317764
39,9,10.0097,0.000610352,-0.00152588,-2.42898,0.0529344,-0.0759786,0.0519917,0.0706652,-0.0943672,0.144403,-0.12363,-0.0862325,0.0452042,0.0196075,0.0180817,0.0221634,0.0319672,-0.00572205,-0.0296402,0.0263596,-9.97986,-0.0205231,0.000686646,-0.0356674,0.156975,0.341492,-0.0214005,0.0279999,0.0368118
40,0,10.0097,0.000610352,-0.000915527,-2.42867,0.0529344,-0.0759786,0.0529073,0.0685289,-0.094062,0.144098,-0.127903,-0.0865377,0.029335,0.0188065,0.0206375,0.0157547,0.0358582,-0.00881195,-0.0253677,0.0228119,-9.97986,-0.0407791,0.00110626,-0.0368118,0.164871,0.347023,-0.0191498,0.0281906,0.0316238
40,1,10.0097,-0.000610352,-0.000915527,-2.42867,0.0538499,-0.0756734,0.0513814,0.0666979,-0.0949775,0.142572,-0.126682,-0.0868429,0.0242233,0.0154114,0.0231552,0.0139999,0.0241089,-0.00968933,-0.0227356,0.0222397,-9.97986,-0.0627136,0.00328064,-0.0304794,0.162697,0.353432,-0.0115585,0.0279617,0.0261307
40,2,10.0097,0.000915527,-0.000762939,-2.42898,0.0535448,-0.0759786,0.0538228,0.0685289,-0.0961982,0.143792,-0.126987,-0.0868429,0.0232315,0.0193787,0.0206375,0.0172043,0.033493,-0.00541687,-0.0156021,0.0202179,-9.97986,-0.0867462,-0.00221252,-0.0259781,0.159645,0.357513,-0.0141525,0.0320816,0.0304413
40,3,10.0097,0.00183105,-0.000762939,-2.42592,0.0562914,-0.0759786,0.0550435,0.0697496,-0.0867378,0.179193,-0.12363,-0.0840963,0.0282288,0.0217819,0.0225067,0.0159073,0.0312805,-0.0131226,-0.0194168,0.0114441,-9.97986,-0.0870895,0.00244141,-0.0242233,0.156136,0.357285,-0.0248337,0.027504,0.0348282
40,4,10.0097,0.0134277,-0.000457764,-2.42776,0.0538499,-0.0747579,0.0535176,0.0676134,-0.0934516,0.155694,-0.126377,-0.0844015,0.0198746,0.024147,0.0246048,0.0233078,0.036087,-0.00938416,-0.0172424,0.0094986,-9.97986,-0.076828,-0.00106812,-0.0200272,0.1437,0.354385,-0.0223541,0.0308609,0.0421906
40,5,10.0097,0.00488281,-0.000610352,-2.42684,0.0553758,-0.0738423,0.0547383,0.0700548,-0.0934516,0.149286,-0.126377,-0.0847066,0.00576019,0.0236893,0.0263977,0.02491,0.0378418,-0.0117111,-0.0202179,0.00537872,-9.97986,-0.0616837,-0.0019455,-0.0183487,0.141182,0.34935,-0.0226593,0.032196,0.0419235
