
Devices
1200
,,BP Load cell - Voltage,String Length - Voltage,Clutch Active - Voltage,#7 iPecs - Voltage,,,,,,,,,EMG 1-8 Left - Voltage,,,,,,,,Pylon Force - Voltage,EMG 9-16 Right - Voltage,,,,,,,,
Frame,Sub Frame,BP Load Cell,String Length,From Arduino Logic,A45,A135,A225,A315,S0,S90,S180,S270,ZSum,EMG 1 Glut Max,EMG 2 Glut Med,EMG 3 Biceps Femoris Long,EMG 4 Rectus Femoris,EMG 5 Vastus Medialis,EMG 6 Tib Ant,EMG 7 Med Gas,EMG 8 Soleus,Pylon volts,EMG 9 Glut Max,EMG 10 Glut Med,EMG 11 Biceps Femoris Long,EMG 12 Rectus Femoris,EMG 13 Vastus Medialis,EMG 14 Tib Ant,EMG 15 Med Gas,EMG 16 Soleus
,,V,V,V,V,V,V,V,V,V,V,V,V,V,V,V,V,V,V,V,V,V,V,V,V,V,V,V,V,V
1,0,-5.35594,0.000305176,0.00320435,-2.42745,0.0538499,-0.0759786,0.0550435,0.133226,-0.0885688,0.144708,-0.122715,-0.0844015,0.00843048,0.0265884,0.0186157,0.00965118,0.0178146,0.00934601,0.0211334,0.0144958,-9.97986,0.014534,0.00408173,0.0139618,0.00324249,0.0166321,-0.00701904,0.0144958,0.0056839
1,1,1.93746,0.000915527,0.00488281,-2.42898,0.0544603,-0.0756734,0.0547383,0.151537,-0.0879585,0.144403,-0.121494,-0.0850118,0.0134277,0.0325012,0.0178146,0.0143814,0.0159073,0.00915527,0.0199127,0.0173187,-9.97986,0.0137711,0.000991821,0.0175476,0.00518799,0.0173569,-0.00659943,0.0170517,0.00617981
1,2,9.04744,-0.0012207,0.00442505,-2.42898,0.0535448,-0.0762837,0.0532125,0.14879,-0.0919257,0.143182,-0.120884,-0.0859274,0.013504,0.0307465,0.0169373,0.0134659,0.0185394,0.0138092,0.0214005,0.0180817,-9.97986,0.0139999,-0.0019455,0.0125504,0.00087738,0.013237,-0.00972748,0.0133133,0.00553131
1,3,10.0097,0.000610352,0.00213623,-2.43081,0.0541551,-0.0768941,0.0504659,0.112169,-0.0968086,0.142572,-0.125156,-0.0898946,0.00904083,0.0258636,0.0220871,0.0122833,0.0163651,0.0111008,0.0168991,0.0156784,-9.97986,0.0152588,-0.00423431,0.0180054,0.00736237,0.0130081,-0.00728607,0.0148392,0.00671387
1,4,10.0097,0,0.000457764,-2.42959,0.0532396,-0.0753682,0.0504659,0.0859239,-0.0965034,0.142877,-0.126987,-0.0886739,0.00988007,0.0214386,0.0170517,0.012207,0.0144196,0.0108719,0.0206757,0.0194168,-9.97986,0.0161743,0.000991821,0.0154495,0.00274658,0.0170898,-0.00156403,0.0159073,0.00595093
1,5,10.0097,-0.000305176,0.000152588,-2.42928,0.0562914,-0.0759786,0.0519917,0.0776842,-0.0955879,0.143792,-0.126072,-0.0877584,0.00576019,0.018158,0.021286,0.0130463,0.0195313,0.0146866,0.0228119,0.0191498,-9.97986,0.0179672,0.000343323,0.0110626,0.0100327,0.0145721,0.00553131,0.0141525,0.00556946
1,6,10.0097,0.00213623,0,-2.42684,0.0544603,-0.0759786,0.0532125,0.0728014,-0.0937568,0.144098,-0.126072,-0.0859274,0.0126648,0.0248718,0.0217438,0.0146866,0.0200272,0.0122452,0.0215149,0.0160599,-9.97986,0.0141144,-0.00141144,0.0162506,0.00743866,0.0141144,0.00514984,0.0141907,0.00679016
1,7,10.0097,0.0012207,0.000457764,-2.42714,0.0538499,-0.075063,0.0529073,0.0712755,-0.0943672,0.145013,-0.126072,-0.0850118,0.00953674,0.0273895,0.0193024,0.0117493,0.0171661,0.00553131,0.0214767,0.0163269,-9.97986,0.0178909,0.000114441,0.00892639,0.0111771,0.0157928,0.00556946,0.0149536,0.00514984
1,8,10.0097,0.00213623,0.000610352,-2.42684,0.0553758,-0.0747579,0.0532125,0.0706652,-0.0934516,0.144708,-0.126377,-0.0834859,0.0140381,0.0304413,0.018959,0.0100327,0.0201035,0.00995636,0.0227737,0.0179291,-9.97986,0.0177002,-0.00400543,0.0121307,0.00530243,0.0144577,0.00450134,0.0120926,0.00549316
1,9,10.0097,0.000610352,0,-2.42592,0.0559862,-0.0738423,0.054128,0.0706652,-0.0919257,0.146234,-0.125766,-0.0828756,0.00629425,0.0288391,0.0211334,0.011673,0.0182343,0.0131226,0.0212097,0.0188446,-9.97986,0.018959,-0.000991821,0.0149536,0.0063324,0.0160217,0.00366211,0.0159073,0.0101852
2,0,10.0097,-0.0802612,-0.000915527,-2.42562,0.0553758,-0.0735371,0.054128,0.0718859,-0.0946723,0.126092,-0.124851,-0.0810445,0.0108719,0.0273895,0.0238419,0.00751495,0.0221634,0.00961304,0.0222397,0.0164032,-9.97986,0.0131226,0.00419617,0.0138092,0.00663757,0.0160217,0.00370026,0.0138855,0.00659943
2,1,10.0097,-0.00427246,-0.000152588,-2.42714,0.0553758,-0.0744527,0.0529073,0.059984,-0.0937568,0.138299,-0.125461,-0.0819601,0.00999451,0.0282669,0.0183105,0.0111771,0.0183868,0.00953674,0.0239944,0.0180054,-9.97986,0.0138092,0.00228882,0.0128174,0.00087738,0.0175095,0.00198364,0.015564,0.00534058
2,2,8.58205,0.000305176,-0.00259399,-2.42623,0.0569017,-0.0738423,0.0522969,0.0236681,-0.0952827,0.142572,-0.127598,-0.0831808,0.00865936,0.0260544,0.0174332,0.0114822,0.0199127,0.00995636,0.0183105,0.017395,-9.97986,0.0169754,0.00350952,0.0133514,0.00377655,0.0139618,0.00106812,0.0152588,0.0056076
2,3,0.370074,-0.000610352,-0.00549316,-2.42592,0.0578172,-0.0744527,0.0526021,-0.0169203,-0.0983344,0.145318,-0.129429,-0.0816549,0.013237,0.0232315,0.00865936,0.0140762,0.0185394,0.00362396,0.0226593,0.0183868,-9.97986,0.0148392,0.00152588,0.0137329,0.00736237,0.0150299,-0.00621796,0.0143433,0.00576019
2,4,-6.94255,-0.00152588,-0.00534058,-2.42531,0.0581224,-0.0738423,0.0535176,-0.0160048,-0.0952827,0.145318,-0.128818,-0.0819601,0.00976563,0.0190735,0.0121689,0.0112534,0.0157928,0.00995636,0.0236893,0.0165176,-9.97986,0.0146866,-0.00320435,0.0161362,0.00812531,0.0196457,-0.0205231,0.0177002,0.00846863
2,5,-9.99003,0.000305176,-0.00335693,-2.42348,0.0581224,-0.073232,0.055959,0.00963,-0.0925361,0.147149,-0.128513,-0.0798238,0.0112915,0.0199509,0.0164032,0.0119781,0.0177765,0.0119019,0.0244522,0.0140381,-9.97986,0.0170517,0.000686646,0.0138474,0.010376,-0.00404358,-0.0182343,0.0174713,0.00766754
2,6,-9.99003,0.000915527,-0.00167847,-2.42592,0.0565965,-0.073232,0.0571797,0.0465563,-0.088874,0.145624,-0.126377,-0.0807394,0.0138855,0.0205231,0.011673,0.0123215,0.0161362,0.0114822,0.0202179,0.0146103,-9.97986,0.0113297,-0.00640869,0.0138092,0.00732422,-0.0127411,-0.0094986,0.0181961,0.00480652
2,7,-9.99003,0.000305176,-0.000152588,-2.42501,0.0547655,-0.0756734,0.0547383,0.0596788,-0.090705,0.145318,-0.126682,-0.0822652,0.0111771,0.0212479,0.0144196,0.01297,0.0182724,0.00766754,0.0235367,0.018158,-9.97986,0.0160599,-0.00400543,0.0130463,0.00648499,-0.0135803,0.000114441,0.0164795,0.00591278
2,8,-9.99003,-0.000610352,0.000152588,-2.42684,0.0544603,-0.0741475,0.0550435,0.0657823,-0.0922309,0.145929,-0.125766,-0.0831808,0.0075531,0.0275803,0.0211334,0.0128555,0.0195313,0.0137711,0.0228882,0.0126648,-9.97986,0.0133514,-0.00534058,0.0122833,0.00667572,-0.00801086,0.00804901,0.0202942,0.00904083
2,9,-9.99003,0.00396729,0.00137329,-2.42531,0.0565965,-0.0744527,0.055959,0.0996569,-0.0867378,0.146234,-0.123935,-0.0822652,0.0151825,0.0261307,0.0210571,0.0120926,0.0244522,0.00896454,0.0227737,0.0180435,-9.97986,0.0148773,-0.00190735,0.0111771,0.00556946,0.0185013,0.0167465,0.019989,0.00839233
3,0,-4.86613,0.00183105,0.0038147,-2.42714,0.0535448,-0.0753682,0.054128,0.134752,-0.0879585,0.144708,-0.122715,-0.0840963,0.00934601,0.02285,0.019989,0.00938416,0.0172043,0.00450134,0.0198746,0.0170517,-9.97986,0.0114441,-0.00919342,0.012207,0.00110626,0.0138474,0.0194168,0.0143051,0.00644684
3,1,2.45229,0.000305176,0.00518799,-2.42806,0.0538499,-0.0762837,0.0538228,0.150926,-0.088874,0.144403,-0.122104,-0.0847066,0.0126648,0.030098,0.0224304,0.0132751,0.0206757,0.0141144,0.0256729,0.0190735,-9.97986,0.0152206,-0.00183105,0.0139618,0.00408173,0.014801,0.0121689,0.0152969,0.00659943
3,2,9.64437,0.000610352,0.00411987,-2.42898,0.0544603,-0.0762837,0.0519917,0.148485,-0.0897895,0.144098,-0.122104,-0.0859274,0.0112534,0.025444,0.0205612,0.0112534,0.0143433,0.0138092,0.0252151,0.0187683,-9.97986,0.0180435,-0.00484467,0.0120163,0.00370026,0.0173187,0.00720978,0.0165558,0.0114059
3,3,10.0097,0.000305176,0.00213623,-2.43172,0.0538499,-0.0768941,0.0501607,0.108202,-0.0965034,0.142877,-0.125461,-0.0889791,0.0104141,0.0270081,0.0209045,0.0157928,0.0175476,0.0113297,0.0177765,0.0173569,-9.97986,0.0124359,-0.00637054,0.0131226,0.00411987,0.0149536,0.0056076,0.0176239,0.00499725
3,4,10.0097,0.00152588,0.000457764,-2.4302,0.0535448,-0.0759786,0.0504659,0.0837877,-0.0977241,0.142572,-0.127292,-0.0889791,0.00743866,0.0217819,0.0169754,0.0117874,0.0152588,0.00972748,0.02388,0.0182724,-9.97986,0.0125122,-0.00679016,0.00850677,0.0056839,0.0144958,0.00507355,0.0160217,0.00495911
3,5,10.0097,-0.0012207,0,-2.42989,0.0535448,-0.0756734,0.0522969,0.0767687,-0.0955879,0.143487,-0.125766,-0.0871481,0.0104904,0.0244522,0.0221634,0.0143051,0.0158691,0.00999451,0.0238419,0.0161362,-9.97986,0.013504,-0.00190735,0.0130081,0.00823975,0.0143051,0.00541687,0.0150299,0.00759125
3,6,10.0097,0.000305176,0.000152588,-2.42776,0.0547655,-0.075063,0.0529073,0.0731066,-0.0946723,0.145013,-0.127292,-0.0859274,0.00938416,0.0221634,0.0179291,0.00831604,0.0156403,0.00900269,0.0191879,0.0175858,-9.97986,0.0094223,-0.0101471,0.0134659,0.00667572,0.0151825,0.00415802,0.0138855,0.00518799
3,7,10.0097,-0.00152588,0.000762939,-2.42776,0.0550706,-0.075063,0.0529073,0.0718859,-0.0925361,0.145013,-0.125461,-0.0847066,0.0103378,0.0233078,0.0205994,0.0101471,0.0196838,0.00549316,0.0195313,0.018692,-9.97986,0.0135422,-0.00541687,0.01194,0.00240326,0.0144958,-0.0063324,0.0175476,0.00476837
3,8,10.0097,-0.000305176,0.000457764,-2.42745,0.0553758,-0.0747579,0.0535176,0.0706652,-0.0934516,0.144403,-0.125156,-0.0844015,0.0120544,0.023613,0.0170517,0.0107193,0.0154877,0.00789642,0.0225067,0.0186157,-9.97986,0.0149155,-0.00499725,0.0165176,0.00743866,0.0122833,-0.0127792,0.0146103,0.00862122
3,9,10.0097,0.0012207,0.0012207,-2.42653,0.055681,-0.0741475,0.0535176,0.0709703,-0.0925361,0.145929,-0.125766,-0.0822652,0.00968933,0.0241852,0.0133896,0.0120163,0.0186157,0.0125122,0.0224304,0.0141525,-9.97986,0.0082016,-0.00610352,0.00961304,0.00873566,0.0154114,-0.0115204,0.0179291,0.00862122
4,0,10.0097,0.000305176,0.000152588,-2.4247,0.0553758,-0.0735371,0.0547383,0.0718859,-0.0916206,0.146844,-0.124241,-0.0822652,0.0113678,0.0242233,0.0216293,0.011673,0.0177765,0.0112534,0.0199127,0.0188828,-9.97986,0.0124359,-0.00518799,0.0114059,0.00766754,0.0150299,-0.0133896,0.0172424,0.00747681
4,1,10.0097,-0.000915527,0,-2.42623,0.055681,-0.0744527,0.0535176,0.0584581,-0.0955879,0.145624,-0.125766,-0.0819601,0.0140381,0.0258636,0.0174332,0.00946045,0.0148392,0.00816345,0.0193405,0.0169373,-9.97986,0.0156403,-0.00404358,0.0144196,0.00545502,0.0164032,-0.00617981,0.0141525,0.00598907
4,2,8.35011,-0.0012207,-0.00259399,-2.42623,0.0553758,-0.0741475,0.0535176,0.0215319,-0.095893,0.145929,-0.127903,-0.0816549,0.00728607,0.0258255,0.0193787,0.00873566,0.0176239,0.00934601,0.0240326,0.0162125,-9.97986,0.0137329,-0.00911713,0.0142288,0.00583649,0.0149536,-0.00038147,0.0140762,0.00522614
4,3,0.0661185,-0.000305176,-0.00518799,-2.42531,0.0569017,-0.0744527,0.0532125,-0.0160048,-0.0989448,0.146844,-0.130649,-0.0834859,0.00938416,0.0270081,0.0203323,0.00926971,0.0154495,0.0088501,0.0245667,0.0190735,-9.97986,0.0179672,-0.00988007,0.0134659,0.00396729,0.0132751,0.00637054,0.0150299,0.00923157
4,4,-7.28679,-0.000305176,-0.00442505,-2.42562,0.0553758,-0.073232,0.054128,-0.0172255,-0.0965034,0.146844,-0.129123,-0.0819601,0.0069046,0.0255966,0.0202179,0.0100708,0.0170898,0.00995636,0.0226593,0.0172806,-9.97986,0.016098,-0.00595093,0.0135803,0.00274658,0.0165558,0.00705719,0.0177002,0.00606537
4,5,-9.99003,-0.000915527,-0.0038147,-2.42318,0.0572069,-0.0726216,0.0562642,0.0129869,-0.0910102,0.146539,-0.127903,-0.0810445,0.00614166,0.0178909,0.0159073,0.00930786,0.0148392,0.00808716,0.021286,0.0177383,-9.97986,0.0151825,-0.00331879,0.0146103,0.00476837,-0.0119019,0.00495911,0.0172043,0.00648499
4,6,-9.99003,-0.000915527,-0.00137329,-2.42531,0.0559862,-0.0741475,0.055959,0.0483873,-0.0903999,0.145318,-0.126072,-0.080129,0.0112915,0.0164795,0.0215149,0.0069809,0.0179672,0.0122833,0.0240707,0.0178909,-9.97986,0.0156021,0.00118256,0.0139999,0.00465393,-0.00663757,7.62939e-005,0.0183105,0.00637054
4,7,-9.99003,0.000305176,0.000152588,-2.42562,0.0553758,-0.0747579,0.055959,0.0602892,-0.0913154,0.145013,-0.126377,-0.0819601,0.0120926,0.0190353,0.0170517,0.0106812,0.0130081,0.0147247,0.0191116,0.0191116,-9.97986,0.0128174,-0.00240326,0.0115967,0.00228882,-0.00850677,-0.00572205,0.0162125,0.00740051
4,8,-9.99003,0.0012207,-0.000152588,-2.42653,0.0550706,-0.075063,0.054128,0.0660875,-0.0916206,0.144098,-0.126072,-0.0831808,0.00843048,0.0202179,0.0182343,0.0117874,0.0159836,0.0113297,0.0209045,0.0247574,-9.97986,0.0168228,0.00087738,0.00850677,0.00617981,-0.00972748,-0.00362396,0.0190735,0.0087738
4,9,-9.99003,0.0012207,0.000762939,-2.42531,0.0553758,-0.0744527,0.0568746,0.0972155,-0.0873481,0.145318,-0.12363,-0.0822652,0.011673,0.0174332,0.0217438,0.0138092,0.0177765,0.0112534,0.0231552,0.0272751,-9.97986,0.0141525,-0.0025177,0.0117874,0.00274658,0.0101471,-0.00530243,0.0183868,0.0056839
5,0,-5.18626,0.000305176,0.00350952,-2.42623,0.0541551,-0.0756734,0.0553487,0.134142,-0.0873481,0.144403,-0.12302,-0.0847066,0.0104904,0.0154877,0.0214767,0.0130844,0.0175095,0.0119781,0.0214005,0.0347519,-9.97986,0.0149155,-0.000610352,0.0163651,0.00541687,0.0206757,-0.0031662,0.0168228,0.0088501
5,1,2.22402,0.00244141,0.00427246,-2.42745,0.0535448,-0.0768941,0.0544332,0.152757,-0.0885688,0.144098,-0.120884,-0.085317,0.0075531,0.018692,0.0188828,0.0069809,0.0156403,0.00976563,0.0201035,0.0317764,-9.97986,0.0168228,-0.00118256,0.0134277,0.0069809,0.0183487,-0.00305176,0.0171661,0.00476837
5,2,9.40724,0.00152588,0.00473022,-2.42806,0.0544603,-0.0759786,0.0532125,0.14879,-0.0925361,0.143792,-0.12241,-0.0859274,0.00549316,0.0123978,0.0228119,0.0107574,0.0193787,0.00930786,0.019989,0.0292587,-9.97986,0.011673,-0.00328064,0.010643,0.00591278,0.0140381,-0.00404358,0.0162506,0.00812531
5,3,10.0097,-0.000610352,0.00289917,-2.43142,0.0532396,-0.0765889,0.050771,0.109728,-0.0961982,0.142877,-0.124851,-0.0901998,0.0106812,0.0197983,0.0190353,0.0134659,0.0152206,0.00907898,0.0196838,0.0245667,-9.97986,0.0128555,-0.00553131,0.0141144,0.00350952,0.0161743,-0.00228882,0.0178146,0.00457764
5,4,10.0097,-0.0012207,0.000762939,-2.42989,0.0541551,-0.0762837,0.0513814,0.0847032,-0.0955879,0.143487,-0.126072,-0.0871481,0.0120163,0.0279617,0.0179291,0.0136185,0.017662,0.0102997,0.0198746,0.0159073,-9.97986,0.0126266,-0.00331879,0.0170898,0.00141144,0.0134277,-0.000686646,0.0170135,0.00648499
5,5,10.0097,0.000915527,0.000152588,-2.42837,0.0535448,-0.0753682,0.0513814,0.0764635,-0.0949775,0.143182,-0.126072,-0.0865377,0.0115204,0.0190353,0.0149536,0.0114059,0.019455,0.0114822,0.0226974,0.0170517,-9.97986,0.0162506,-0.00198364,0.0153732,0.00724792,0.0188446,0.000114441,0.0176239,0.00595093
5,6,10.0097,0.00213623,-0.000457764,-2.42806,0.0541551,-0.0744527,0.0529073,0.0728014,-0.0946723,0.145013,-0.126072,-0.0856222,0.012207,0.0110245,0.0137711,0.00888824,0.0153732,0.00762939,0.0178146,0.00621796,-9.97986,0.0198746,-0.00522614,0.0133896,0.000610352,0.0168228,-0.000572205,0.0149536,0.00511169
5,7,10.0097,0.000610352,0.000457764,-2.42684,0.0544603,-0.0741475,0.0522969,0.072191,-0.0943672,0.145624,-0.126072,-0.0844015,0.00862122,0.0171661,0.0211334,0.0145721,0.0204468,0.0122833,0.0209427,0.00324249,-9.97986,0.0201416,-0.00137329,0.0183487,0.00656128,0.0170898,-0.00232697,0.0165176,0.00610352
5,8,10.0097,-0.00305176,0.000762939,-2.42653,0.055681,-0.0747579,0.0529073,0.0709703,-0.0919257,0.145013,-0.125766,-0.0840963,0.00732422,0.0226212,0.0217819,0.0127029,0.0165939,0.00991821,0.0201035,0.0107193,-9.97986,0.0191879,-0.00793457,0.01091,0.00225067,0.0196838,-0.00511169,0.017662,0.00526428
5,9,10.0097,-0.0012207,0.000610352,-2.42562,0.0553758,-0.0741475,0.0538228,0.0709703,-0.0922309,0.146539,-0.124851,-0.0816549,0.00919342,0.0247955,0.0215149,0.00858307,0.0141907,0.0094223,0.0229263,0.00579834,-9.97986,0.0205231,-0.00366211,0.0121307,0.00492096,0.0176239,-0.00354767,0.0167847,0.00392914
6,0,10.0097,0.000305176,0.000305176,-2.42501,0.0562914,-0.0735371,0.0550435,0.0715807,-0.090705,0.145929,-0.124851,-0.0804342,0.0109482,0.0205231,0.0167465,0.0102234,0.0149155,0.00881195,0.022583,0.0101089,-9.97986,0.0141144,-0.00549316,0.0115585,0.00522614,0.0151443,-0.00556946,0.0131226,0.00782013
6,1,10.0097,0.00152588,0.000152588,-2.42684,0.0559862,-0.0741475,0.0529073,0.059984,-0.0937568,0.146844,-0.125461,-0.0822652,0.0138092,0.0280762,0.0183868,0.0135803,0.0175858,0.0100708,0.0229263,0.00988007,-9.97986,0.0172043,0.00038147,0.0141525,0.00488281,0.0143433,-0.00656128,0.0185394,0.00732422
6,2,8.43373,0.00213623,-0.00259399,-2.42653,0.0550706,-0.0741475,0.0538228,0.0221422,-0.0955879,0.145624,-0.127903,-0.0822652,0.0122833,0.0274658,0.0186539,0.0154495,0.0151825,0.00789642,0.0261688,0.013504,-9.97986,0.0159073,0.0012207,0.0137711,0.00411987,0.0179672,0.00160217,0.0131226,0.0102997
6,3,0.125323,-0.000305176,-0.00488281,-2.42592,0.0572069,-0.0729268,0.0538228,-0.0169203,-0.0974189,0.146844,-0.129734,-0.0825704,0.00991821,0.0232697,0.0172043,0.0152588,0.014534,0.00900269,0.0222397,0.0160599,-9.97986,0.0187302,-0.00110626,0.0102234,0.00640869,0.0141907,0.000267029,0.0174332,0.00602722
6,4,-7.18608,0.00244141,-0.00442505,-2.42592,0.0553758,-0.0744527,0.0529073,-0.0172255,-0.0968086,0.147149,-0.13126,-0.0819601,0.00770569,0.0188065,0.0141907,0.0094986,0.0150681,0.0114059,0.0269318,0.018692,-9.97986,0.0174332,-0.00175476,0.0153732,0.00320435,0.0179291,-0.00411987,0.0132751,0.00701904
6,5,-9.99003,0.0012207,-0.00427246,-2.42348,0.0565965,-0.073232,0.0562642,0.0123766,-0.0910102,0.146539,-0.128208,-0.0804342,0.0110245,0.0140762,0.021286,0.0110626,0.0157166,0.0101852,0.0263214,0.015564,-9.97986,0.0133133,-0.00198364,0.0142288,0.00499725,-0.00740051,-0.00362396,0.0153732,0.0075531
6,6,-9.99003,0.000610352,-0.00152588,-2.42562,0.0553758,-0.0741475,0.0562642,0.0465563,-0.0903999,0.146234,-0.126987,-0.0810445,0.0157166,0.0207901,0.0200272,0.00965118,0.0145721,0.0102997,0.0172424,0.0150299,-9.97986,0.0131607,-0.00259399,0.0143433,0.00553131,-0.00869751,-0.00865936,0.0135422,0.00385284
6,7,-9.99003,-0.000305176,0,-2.42653,0.055681,-0.0741475,0.0556539,0.0590685,-0.0910102,0.145929,-0.125766,-0.0822652,0.0108337,0.0198364,0.0214005,0.0115585,0.0164032,0.00968933,0.0198746,0.0209808,-9.97986,0.0151443,-0.00358582,0.014801,0.00663757,-0.0106049,-0.00827789,0.016098,0.00843048
6,8,-9.99003,0.000610352,0,-2.42684,0.0550706,-0.0747579,0.054128,0.0645616,-0.0919257,0.144403,-0.125766,-0.0834859,0.011673,0.0215912,0.0198746,0.0134659,0.0169754,0.0143051,0.020752,0.0216293,-9.97986,0.0172424,0.000495911,0.012207,0.00713348,-0.00762939,-0.00762939,0.0139236,0.00492096
6,9,-9.99003,0.000610352,0.000457764,-2.42653,0.0547655,-0.0744527,0.0562642,0.0993517,-0.0870429,0.146844,-0.123325,-0.0825704,0.012207,0.0234222,0.0160599,0.013237,0.018425,0.0134659,0.0237274,0.0168991,-9.97986,0.0136566,0.000457764,0.0125504,0.00850677,0.0153351,-0.00629425,0.0162125,0.00797272
7,0,-4.97783,0.00152588,0.00305176,-2.42745,0.0547655,-0.0762837,0.0544332,0.132921,-0.0885688,0.143792,-0.123325,-0.0837911,0.0123215,0.0213623,0.0154877,0.00907898,0.0165176,0.0125122,0.0237656,0.0130844,-9.97986,0.0131226,0.00335693,0.014534,0.0063324,0.0167084,-0.00469208,0.0136566,0.00839233
7,1,2.28383,0.00244141,0.00549316,-2.42776,0.0535448,-0.0765889,0.0550435,0.150926,-0.0885688,0.143792,-0.121189,-0.0850118,0.0104523,0.0205612,0.0262833,0.014534,0.0190735,0.0123978,0.0228882,0.0177002,-9.97986,0.0177383,-0.000457764,0.0160217,0.0063324,0.0153351,-0.0119781,0.0136185,0.00461578
7,2,9.44936,0.000915527,0.00442505,-2.42989,0.0541551,-0.0762837,0.0532125,0.149095,-0.0916206,0.143182,-0.121494,-0.0859274,0.00972748,0.0212097,0.0216675,0.0129318,0.0181198,0.0131226,0.0208282,0.0168991,-9.97986,0.0120926,0.00144958,0.0131226,0.00652313,0.0147629,-0.00995636,0.0166321,0.00553131
7,3,10.0097,0.000915527,0.00274658,-2.43081,0.0526292,-0.0771993,0.0501607,0.108507,-0.0961982,0.142267,-0.126072,-0.0883688,0.0128174,0.0227737,0.0161362,0.0131226,0.0126648,0.00728607,0.0212097,0.0182724,-9.97986,0.0167465,0.0044632,0.0154877,0.0088501,0.0180054,-0.00858307,0.0167465,0.00434875
7,4,10.0097,0.000610352,0.000152588,-2.42989,0.0535448,-0.0762837,0.050771,0.0853136,-0.0980293,0.144098,-0.125766,-0.0880636,0.0125122,0.0252533,0.021286,0.0116348,0.0157166,0.00934601,0.0235367,0.0185776,-9.97986,0.0170135,0.000190735,0.0133896,0.00511169,0.0164032,-0.00114441,0.0177765,0.00556946
7,5,10.0097,0.0012207,0.000305176,-2.42837,0.0550706,-0.0768941,0.0519917,0.0767687,-0.0952827,0.144403,-0.126682,-0.0862325,0.0147629,0.0271225,0.0195313,0.0126648,0.0183868,0.0140381,0.0193024,0.0183105,-9.97986,0.0154114,0.00133514,0.0159073,0.00797272,0.0162506,0.00247955,0.0150299,0.00541687
7,6,10.0097,0.000915527,0.000152588,-2.42837,0.0547655,-0.0759786,0.0522969,0.0740221,-0.0943672,0.145318,-0.125156,-0.0859274,0.0111771,0.0291061,0.0224686,0.0155258,0.018692,0.00988007,0.0224304,0.0179291,-9.97986,0.0152969,-7.62939e-005,0.0112152,0.00743866,0.0159836,0.00278473,0.0185394,0.00553131
7,7,10.0097,0,0.000762939,-2.42776,0.0544603,-0.0738423,0.0532125,0.0706652,-0.0943672,0.144708,-0.126377,-0.0850118,0.0151443,0.0300598,0.0180817,0.0128174,0.0149155,0.00988007,0.0231552,0.0202179,-9.97986,0.010643,0.000457764,0.0167465,0.00854492,0.0159073,-0.000419617,0.0173569,0.00862122
7,8,10.0097,0.000305176,0.000457764,-2.42714,0.0559862,-0.0747579,0.0529073,0.0715807,-0.0916206,0.145624,-0.125766,-0.0837911,0.0112915,0.0304413,0.018158,0.0139618,0.0125885,0.0112534,0.0234604,0.0197983,-9.97986,0.0157547,0.00110626,0.0139236,0.00923157,0.0177383,0.00305176,0.015831,0.00831604
7,9,10.0097,0.00152588,0,-2.42531,0.0569017,-0.0744527,0.0544332,0.0712755,-0.0925361,0.145624,-0.124546,-0.0822652,0.0102234,0.0284195,0.018959,0.0101471,0.0164032,0.0123596,0.022583,0.0195313,-9.97986,0.0156021,0.00240326,0.0136566,0.00782013,0.0152588,0.000305176,0.0138092,0.00923157
8,0,10.0097,0.00183105,0.000457764,-2.4247,0.055681,-0.0738423,0.054128,0.0715807,-0.0922309,0.147149,-0.124241,-0.0822652,0.0157547,0.0297546,0.0185776,0.0087738,0.0157928,0.0115967,0.0233841,0.0190353,-9.97986,0.0117874,0.000686646,0.0138855,0.00923157,0.01297,0.000343323,0.0170517,0.00831604
8,1,10.0097,0.000610352,0.000152588,-2.42806,0.0559862,-0.0744527,0.0535176,0.058153,-0.0934516,0.145318,-0.125766,-0.0822652,0.0125122,0.0343323,0.0246048,0.00789642,0.0156403,0.00999451,0.0204086,0.0170135,-9.97986,0.0117874,-0.00167847,0.0110626,0.00881195,0.0204468,0.00278473,0.0153732,0.00644684
8,2,8.43526,0.000610352,-0.00305176,-2.42714,0.055681,-0.0738423,0.0529073,0.0233629,-0.0961982,0.146844,-0.127292,-0.0825704,0.00900269,0.0312042,0.0210953,0.00816345,0.0144196,0.0082016,0.0200653,0.018158,-9.97986,0.00976563,-0.00114441,0.013504,0.00782013,0.0128937,-0.000190735,0.0120926,0.00450134
8,3,0.198565,0.000915527,-0.00518799,-2.42592,0.0569017,-0.0726216,0.0532125,-0.0156996,-0.0986396,0.146539,-0.129734,-0.0822652,0.0125885,0.0366592,0.0214386,0.0121307,0.0159454,0.00762939,0.0198746,0.018425,-9.97986,0.0119781,-0.000114441,0.0143051,0.00946045,0.0210571,0.000648499,0.0170898,0.00522614
8,4,-7.14213,-0.000915527,-0.00488281,-2.42623,0.055681,-0.0744527,0.0538228,-0.0166151,-0.0965034,0.146844,-0.129734,-0.0813497,0.00652313,0.0279236,0.0212097,0.00988007,0.0159836,0.00953674,0.0223541,0.0173187,-9.97986,0.0147247,-7.62939e-005,0.0149155,0.00644684,0.0194931,-0.00484467,0.0163269,0.00602722
8,5,-9.99003,0.000305176,-0.00396729,-2.4247,0.0569017,-0.0735371,0.0568746,0.0117662,-0.0910102,0.146539,-0.128513,-0.080129,0.0100327,0.0187302,0.0197983,0.00919342,0.018425,0.00762939,0.0230026,0.0138092,-9.97986,0.0118256,-0.00328064,0.0165558,0.00732422,-0.00423431,-0.0094223,0.0197601,0.00583649
8,6,-9.99003,0,-0.00167847,-2.42379,0.0547655,-0.0738423,0.0556539,0.0468614,-0.0897895,0.145013,-0.126987,-0.0804342,0.0116348,0.0151062,0.0203323,0.00904083,0.0142288,0.00823975,0.0214767,0.0191116,-9.97986,0.015564,7.62939e-005,0.0157547,0.0094986,-0.0075531,-0.00366211,0.0163269,0.00587463
8,7,-9.99003,-0.000915527,-0.000305176,-2.42592,0.0565965,-0.0738423,0.0553487,0.0608995,-0.0922309,0.146234,-0.126377,-0.0822652,0.00720978,0.0180435,0.0183487,0.0111389,0.0183105,0.0112152,0.02388,0.0202179,-9.97986,0.0129318,-0.00450134,0.0141525,0.0100327,-0.00812531,-0.00476837,0.016861,0.00286102
8,8,-9.99003,-0.000305176,-0.000457764,-2.42684,0.0550706,-0.0753682,0.0529073,0.0645616,-0.090705,0.145624,-0.125461,-0.0834859,0.00442505,0.0248718,0.0181961,0.0111389,0.0183868,0.00961304,0.0190353,0.0194931,-9.97986,0.0194168,-0.00411987,0.0141907,0.00972748,-0.00679016,-0.00225067,0.0166321,0.00522614
8,9,-9.99003,-0.000610352,0.000457764,-2.42531,0.0550706,-0.0741475,0.0565694,0.100267,-0.0876533,0.146539,-0.12302,-0.0822652,0.0108719,0.0297928,0.0133133,0.00896454,0.0154495,0.00808716,0.0247574,0.021019,-9.97986,0.0150299,-0.00610352,0.0188828,0.00904083,0.0186157,-0.0019455,0.0179672,0.0069046
9,0,-4.97447,0.000305176,0.00366211,-2.42714,0.0544603,-0.0744527,0.0544332,0.133837,-0.0873481,0.145624,-0.12302,-0.0834859,0.00778198,0.0296783,0.017128,0.00988007,0.0146103,0.010376,0.0216675,0.0193405,-9.97986,0.0118637,-0.00385284,0.0149536,0.00457764,0.0157928,-0.00766754,0.0133514,0.00343323
9,1,2.36928,-0.0012207,0.00442505,-2.42714,0.0535448,-0.0759786,0.054128,0.150621,-0.0891792,0.144403,-0.122104,-0.0859274,0.0104141,0.026474,0.0203705,0.0100708,0.0164032,0.00770569,0.0212097,0.0212479,-9.97986,0.0165939,0.00152588,0.01297,0.00679016,0.0199127,-0.00244141,0.0199127,0.0109863
9,2,9.49422,-0.000915527,0.00473022,-2.42928,0.0526292,-0.0756734,0.0519917,0.147264,-0.0910102,0.144403,-0.121189,-0.0868429,0.0101089,0.0214386,0.0173569,0.00846863,0.014801,0.011673,0.0237656,0.0184631,-9.97986,0.01297,-0.00202179,0.0148773,0.00957489,0.0154877,-0.00350952,0.0172806,0.00511169
9,3,10.0097,0.000915527,0.00244141,-2.43111,0.0538499,-0.0771993,0.0504659,0.109422,-0.0968086,0.142877,-0.125461,-0.0892843,0.0101089,0.0199127,0.0211716,0.00865936,0.0134277,0.00984192,0.0218582,0.0216293,-9.97986,0.0131989,-0.00175476,0.0123978,0.00595093,0.0160217,-0.00556946,0.0134659,0.0044632
9,4,10.0097,0.000305176,0.000305176,-2.4305,0.0532396,-0.0756734,0.050771,0.0853136,-0.0955879,0.141961,-0.126072,-0.0880636,0.0127029,0.0198364,0.0203323,0.0118637,0.0167847,0.0122833,0.0220108,0.0164795,-9.97986,0.0135803,-0.00522614,0.0132751,0.00988007,0.0176239,-0.00320435,0.0162888,0.00514984
9,5,10.0097,-0.000915527,0.000152588,-2.42928,0.0541551,-0.0759786,0.0513814,0.075548,-0.0946723,0.143487,-0.126987,-0.0871481,0.0130081,0.0224686,0.0246048,0.00873566,0.0169754,0.0134277,0.0239182,0.018959,-9.97986,0.0146866,-0.00408173,0.0166321,0.00705719,0.0167465,-0.00873566,0.0178528,0.00602722
9,6,10.0097,0,0,-2.42714,0.0544603,-0.0759786,0.0516866,0.0731066,-0.0949775,0.145013,-0.126377,-0.085317,0.0102997,0.0233841,0.0194168,0.0112152,0.0183105,0.00823975,0.0197601,0.0200653,-9.97986,0.0164413,-0.00747681,0.0154877,0.00789642,0.016861,-0.0128555,0.0173569,0.00747681
9,7,10.0097,0.000610352,0.000762939,-2.42806,0.0550706,-0.075063,0.0529073,0.0718859,-0.0925361,0.144403,-0.126377,-0.0847066,0.0129318,0.0225067,0.0185776,0.0152969,0.0169754,0.00995636,0.0231552,0.0198364,-9.97986,0.0164413,0.000305176,0.0157166,0.00743866,0.0162888,-0.0167847,0.0144958,0.00659943
9,8,10.0097,-0.000305176,0.000305176,-2.42776,0.0544603,-0.0738423,0.0535176,0.0709703,-0.0928413,0.144708,-0.125461,-0.0840963,0.00938416,0.0184631,0.015831,0.0143051,0.0156021,0.0094986,0.0257874,0.0181198,-9.97986,0.0135803,-0.001297,0.0123978,0.00770569,0.0137329,-0.0115585,0.0147629,0.00659943
9,9,10.0097,-0.000610352,0.000152588,-2.42501,0.0559862,-0.0735371,0.0544332,0.0718859,-0.0922309,0.145624,-0.125156,-0.0825704,0.0109482,0.0165558,0.0125504,0.0128555,0.0141525,0.00988007,0.0247955,0.0214386,-9.97986,0.0164795,0.00286102,0.0131607,0.00717163,0.0175476,-0.00564575,0.0143433,0.00930786
10,0,10.0097,0.000610352,0.000305176,-2.42531,0.0569017,-0.073232,0.0544332,0.0709703,-0.0916206,0.145318,-0.125766,-0.0822652,0.0050354,0.0179291,0.0157547,0.00980377,0.0178909,0.00766754,0.0269318,0.0204086,-9.97986,0.0170135,-0.000915527,0.0139618,0.00598907,0.0150299,-0.00953674,0.0149918,0.00476837
10,1,10.0097,-0.0012207,-0.000152588,-2.42623,0.0559862,-0.0747579,0.0532125,0.058153,-0.0937568,0.145318,-0.126072,-0.0825704,0.0133514,0.0185776,0.0158691,0.0125885,0.0172424,0.00911713,0.0238419,0.0159454,-9.97986,0.0139618,-0.00278473,0.0116348,0.00453949,0.0200653,-0.00785828,0.0187302,0.00671387
10,2,8.35896,0.000915527,-0.00274658,-2.42592,0.0562914,-0.0741475,0.0516866,0.0236681,-0.0955879,0.146539,-0.127598,-0.0825704,0.0123596,0.0222778,0.0172806,0.0115585,0.0161362,0.00980377,0.0239182,0.0222015,-9.97986,0.0174713,-0.0038147,0.0146484,0.00980377,0.0179672,0.00617981,0.0195313,0.00629425
10,3,0.054827,0.000610352,-0.00488281,-2.42531,0.0569017,-0.0738423,0.0532125,-0.0150892,-0.0983344,0.147455,-0.129123,-0.0819601,0.00640869,0.0225449,0.0149155,0.0117874,0.0148392,0.00991821,0.0214767,0.0192261,-9.97986,0.0161743,-0.0031662,0.0119781,0.00679016,0.018692,0.00999451,0.0170135,0.00637054
10,4,-7.2819,0.000610352,-0.0050354,-2.42562,0.0569017,-0.073232,0.0532125,-0.0175306,-0.0974189,0.145013,-0.130344,-0.0816549,0.00900269,0.0225067,0.0213242,0.0102234,0.0217056,0.0107193,0.0249481,0.0207901,-9.97986,0.0104141,-0.00347137,0.0159836,0.00537872,0.0190735,0.0125122,0.0130081,0.00770569
10,5,-9.99003,0.000610352,-0.00350952,-2.42379,0.0565965,-0.0735371,0.0556539,0.0135973,-0.0903999,0.145929,-0.128208,-0.0798238,0.00965118,0.0224304,0.0180435,0.0136566,0.0177383,0.0130081,0.0220871,0.0218964,-9.97986,0.0164795,-0.00415802,0.0144958,0.0105286,-0.00511169,0.0134277,0.0178528,0.00644684
10,6,-9.99003,0.000305176,-0.00137329,-2.4244,0.0562914,-0.0744527,0.055959,0.0471666,-0.0903999,0.146844,-0.125766,-0.0810445,0.00896454,0.0209427,0.00858307,0.00762939,0.0152588,0.00846863,0.0183868,0.0156784,-9.97986,0.0104904,-0.00370026,0.0109482,0.0063324,-0.00667572,0.00976563,0.0117111,0.00671387
10,7,-9.99003,0.0012207,-0.000305176,-2.42592,0.0547655,-0.0756734,0.054128,0.0596788,-0.0913154,0.145318,-0.125766,-0.0816549,0.0136185,0.019989,0.00785828,0.0173569,0.018158,0.01194,0.0218201,0.0183868,-9.97986,0.0142288,-0.000648499,0.0177002,0.0111771,-0.00556946,0.0161743,0.0162125,0.00724792
10,8,-9.99003,0.0012207,0,-2.42684,0.0544603,-0.075063,0.0544332,0.0660875,-0.0922309,0.144403,-0.125461,-0.0831808,0.0123596,0.0247955,0.00621796,0.012207,0.0169754,0.0087738,0.0271225,0.0173569,-9.97986,0.0142288,-0.00572205,0.0146866,0.0094986,-0.00694275,0.0137329,0.0163269,0.00621796
10,9,-9.99003,-0.000305176,0.000305176,-2.4244,0.0562914,-0.0747579,0.0565694,0.098131,-0.0864326,0.144403,-0.122715,-0.0822652,0.0110245,0.0250244,0.0119019,0.0112915,0.0141907,0.00900269,0.0237656,0.0166321,-9.97986,0.01297,-0.00408173,0.0117493,0.00751495,0.0165176,0.00961304,0.0134659,0.00869751
11,0,-5.153,0.0012207,0.00335693,-2.42714,0.0529344,-0.0762837,0.054128,0.134447,-0.0885688,0.144403,-0.12241,-0.0840963,0.0088501,0.0217056,0.0157928,0.0117493,0.0168228,0.00995636,0.0205612,0.0175858,-9.97986,0.0165558,-0.00228882,0.016098,0.0101089,0.0144958,0.00385284,0.0128937,0.00606537
11,1,2.27223,-0.000305176,0.00457764,-2.42806,0.0532396,-0.0762837,0.0547383,0.150926,-0.0891792,0.145013,-0.122715,-0.0847066,0.00843048,0.0268936,0.0177002,0.0137711,0.0175476,0.0128174,0.0254059,0.0188065,-9.97986,0.0189972,-0.00328064,0.0140381,0.00831604,0.0175476,0.00160217,0.0104904,0.00709534
11,2,9.47377,0.00213623,0.00473022,-2.42928,0.0541551,-0.075063,0.0538228,0.147875,-0.0910102,0.143182,-0.122715,-0.0859274,0.0120926,0.0284576,0.0165558,0.01091,0.0135422,0.0144577,0.020256,0.0244141,-9.97986,0.0154495,-0.000801086,0.0131226,0.00988007,0.0160217,-0.00511169,0.017128,0.0069046
11,3,10.0097,0.0012207,0.00213623,-2.4305,0.0520189,-0.0771993,0.0495503,0.109728,-0.0965034,0.141961,-0.125766,-0.0886739,0.00961304,0.0244141,0.01297,0.0133896,0.015564,0.0118637,0.0213623,0.0248337,-9.97986,0.012207,0.00125885,0.0128937,0.0111771,0.0184631,-0.0037384,0.0150681,0.00232697
11,4,10.0097,0.000610352,0.000610352,-2.42928,0.0535448,-0.0759786,0.0513814,0.0850084,-0.0980293,0.143487,-0.126682,-0.0880636,0.00999451,0.0295258,0.0178146,0.0103378,0.0164795,0.00961304,0.024147,0.0201035,-9.97986,0.0136185,0.000495911,0.0146484,0.0082016,0.0156403,-0.00709534,0.0143433,0.0115585
11,5,10.0097,0.000610352,0.000305176,-2.42867,0.0547655,-0.0762837,0.0516866,0.0764635,-0.095893,0.145013,-0.126377,-0.0868429,0.0138855,0.0222015,0.0217819,0.017395,0.0183487,0.013504,0.0263596,0.0213623,-9.97986,0.0159454,-0.00335693,0.01091,0.011673,0.0151062,-0.00110626,0.0172043,0.00492096
11,6,10.0097,0.000915527,-0.000610352,-2.42837,0.0544603,-0.0753682,0.0522969,0.0728014,-0.0949775,0.145318,-0.125461,-0.085317,0.00862122,0.0254059,0.018959,0.0088501,0.0144958,0.0127792,0.0230789,0.0192261,-9.97986,0.0121689,0.00106812,0.0125885,0.00804901,0.0146103,-0.00156403,0.0113678,0.00492096
11,7,10.0097,0.0012207,-0.000305176,-2.42684,0.0547655,-0.0747579,0.0526021,0.0718859,-0.0937568,0.143792,-0.125156,-0.0834859,0.0117111,0.0222778,0.0216293,0.0127411,0.0179291,0.0161743,0.0235367,0.022049,-9.97986,0.0135803,-0.00614166,0.018158,0.0062561,0.0148392,0.00274658,0.0122833,0.00724792
11,8,10.0097,-0.000915527,-0.000457764,-2.42684,0.055681,-0.0744527,0.0532125,0.0734117,-0.094062,0.144098,-0.126072,-0.0837911,0.0148773,0.0190735,0.0232315,0.00850677,0.0177383,0.00972748,0.0211334,0.0205612,-9.97986,0.0133514,0.000724792,0.0167847,0.00484467,0.0114441,0.00171661,0.0144958,0.00659943
11,9,10.0097,0.000305176,0.000152588,-2.42562,0.0559862,-0.0744527,0.0547383,0.0724962,-0.0922309,0.146234,-0.124851,-0.0828756,0.0127792,0.0210953,0.0256729,0.0129318,0.0189972,0.0139618,0.0249481,0.0217056,-9.97986,0.00961304,0.000190735,0.0166702,0.00778198,0.0158691,-0.000305176,0.0162506,0.00728607
12,0,10.0097,0.0012207,0.000152588,-2.42592,0.0565965,-0.073232,0.0553487,0.0718859,-0.0922309,0.147149,-0.124546,-0.0822652,0.0122833,0.021019,0.0254822,0.00591278,0.0168991,0.00946045,0.0185776,0.0161362,-9.97986,0.0124359,-0.00492096,0.0157547,0.00980377,0.0151062,-0.00320435,0.0124359,0.00385284
12,1,10.0097,0.000305176,0.000915527,-2.42714,0.055681,-0.0747579,0.0526021,0.0563219,-0.0937568,0.146844,-0.125766,-0.0828756,0.0178146,0.0255203,0.0304031,0.0153351,0.0210953,0.0144196,0.0252533,0.0196838,-9.97986,0.0135803,0.00411987,0.0162506,0.01091,0.0180817,-0.0031662,0.018692,0.00988007
12,2,8.25307,0.00152588,-0.00289917,-2.42592,0.0575121,-0.0735371,0.0535176,0.0239733,-0.0965034,0.145318,-0.129123,-0.0822652,0.00720978,0.0180817,0.0191879,0.00953674,0.0108719,0.00404358,0.0179291,0.0110626,-9.97986,0.0124741,-0.0019455,0.0117874,0.00534058,0.0104904,-0.00823975,0.0107193,0.00431061
12,3,-0.0260446,0.000305176,-0.00442505,-2.42592,0.0562914,-0.0741475,0.0535176,-0.0141737,-0.0980293,0.147149,-0.130039,-0.0825704,0.0135803,0.02491,0.0147629,0.0122833,0.018425,0.00869751,0.0243759,0.0192261,-9.97986,0.0124741,-0.00118256,0.0154114,0.00988007,0.0154114,-0.0043869,0.0153732,0.00926971
12,4,-7.29106,0.000915527,-0.00473022,-2.42531,0.0575121,-0.0747579,0.0535176,-0.0163099,-0.0977241,0.147149,-0.129734,-0.0813497,0.0102615,0.0261307,0.0128174,0.0129318,0.0178909,0.00911713,0.0214005,0.0138474,-9.97986,0.010376,-0.000114441,0.0178909,0.00732422,0.0177765,-0.00648499,0.0165939,0.00701904
12,5,-9.99003,0.00152588,-0.0038147,-2.42318,0.0559862,-0.0738423,0.0565694,0.0126818,-0.0913154,0.146844,-0.127292,-0.080129,0.0114441,0.023613,0.013504,0.0112915,0.0176239,0.0101089,0.0196457,0.01194,-9.97986,0.0153351,-0.00179291,0.0143433,0.00667572,-0.00629425,-0.00747681,0.0127792,0.00846863
12,6,-9.99003,0.000915527,-0.00137329,-2.42623,0.055681,-0.0744527,0.0553487,0.0483873,-0.0900947,0.146539,-0.126682,-0.0813497,0.0148773,0.0262833,0.0199127,0.00961304,0.0169754,0.0122452,0.0217438,0.0136185,-9.97986,0.00953674,0.00183105,0.0156784,0.00675201,-0.0125885,-0.00980377,0.016098,0.00511169
12,7,-9.99003,0.000610352,0,-2.42653,0.055681,-0.073232,0.0556539,0.0590685,-0.0913154,0.145318,-0.126682,-0.0816549,0.00923157,0.020752,0.0138092,0.0112915,0.0162125,0.0111771,0.0201797,0.0124741,-9.97986,0.0151443,0.00118256,0.0156784,0.00843048,-0.00926971,-0.0117493,0.0159073,0.00766754
12,8,-9.99003,0.0012207,0.000305176,-2.42623,0.055681,-0.075063,0.0538228,0.0657823,-0.090705,0.144708,-0.125766,-0.0828756,0.0120163,0.0119019,0.0120163,0.011673,0.016098,0.00968933,0.0179672,0.0130081,-9.97986,0.0164795,-0.00282288,0.0127411,0.00991821,-0.0105667,-0.0105286,0.0195313,0.00411987
12,9,-9.99003,0.000305176,0.000610352,-2.4244,0.0562914,-0.0744527,0.055959,0.101488,-0.0870429,0.145318,-0.123325,-0.0822652,0.010376,0.0152588,0.0100708,0.00923157,0.0184631,0.0106049,0.0213623,0.0178909,-9.97986,0.0131226,0.000228882,0.0156403,0.0113678,0.0130463,-0.00888824,0.014801,0.00991821
13,0,-5.08922,0.000305176,0.00366211,-2.42684,0.0535448,-0.0753682,0.0544332,0.135057,-0.0885688,0.144098,-0.123325,-0.0844015,0.00843048,0.013504,0.0145721,0.0145721,0.0173569,0.0147247,0.0202179,0.0156403,-9.97986,0.0173569,-0.00198364,0.0152969,0.00293732,0.0174332,-0.00988007,0.0149155,0.00556946
13,1,2.3589,-0.000305176,0.00396729,-2.42776,0.0535448,-0.0753682,0.0535176,0.152147,-0.0879585,0.144403,-0.122715,-0.0844015,0.00854492,0.0199127,0.016861,0.0136185,0.019455,0.0111771,0.0221252,0.0154495,-9.97986,0.0165939,-0.00328064,0.0146484,0.00370026,0.0188828,-0.0094223,0.0160217,0.0056839
13,2,9.5818,0.000610352,0.00457764,-2.42928,0.0541551,-0.0765889,0.0532125,0.147264,-0.0900947,0.143792,-0.12241,-0.0865377,0.0101089,0.0222397,0.0162506,0.00854492,0.0157547,0.00858307,0.0193405,0.0143051,-9.97986,0.0134277,0.00102997,0.0150681,0.00751495,0.0160599,-0.00484467,0.0155258,0.00785828
13,3,10.0097,0.000305176,0.00198364,-2.4305,0.0526292,-0.0765889,0.0486348,0.108507,-0.0977241,0.142877,-0.125156,-0.0883688,0.0130081,0.0138855,0.0185776,0.0130463,0.0201797,0.00934601,0.0239563,0.0193405,-9.97986,0.0159073,-0.00404358,0.0157928,0.00640869,0.0170898,-0.00160217,0.0159454,0.00564575
13,4,10.0097,-0.000915527,-0.000152588,-2.42959,0.0541551,-0.0768941,0.0501607,0.0837877,-0.0971137,0.142877,-0.127292,-0.0883688,0.014534,0.0152206,0.0173187,0.0118637,0.0191498,0.0120163,0.0230789,0.0181961,-9.97986,0.0167847,-0.00553131,0.0119019,0.00724792,0.0186539,-0.00450134,0.0148773,0.00724792
13,5,10.0097,0.000610352,-0.000152588,-2.42928,0.0550706,-0.0756734,0.0513814,0.0758531,-0.0955879,0.143792,-0.126377,-0.0862325,0.0122452,0.0175858,0.0180817,0.0124741,0.0178909,0.0119019,0.0224304,0.0180817,-9.97986,0.0182724,-0.00488281,0.0165558,0.00816345,0.0167465,-0.00198364,0.0149536,0.00671387
13,6,10.0097,0.00152588,0.000305176,-2.42867,0.0553758,-0.075063,0.0516866,0.0724962,-0.095893,0.145013,-0.125766,-0.0859274,0.0130463,0.0203323,0.0155258,0.00854492,0.0170135,0.00919342,0.0215912,0.0138474,-9.97986,0.0119019,-0.00293732,0.0141144,0.00457764,0.0143433,-0.00465393,0.0143051,0.00705719
13,7,10.0097,-0.000915527,0.000152588,-2.42623,0.0535448,-0.0747579,0.0526021,0.0718859,-0.0937568,0.145013,-0.126377,-0.0840963,0.00843048,0.0195694,0.0179291,0.00892639,0.0230408,0.0146103,0.0198364,0.0139236,-9.97986,0.0120544,-0.00236511,0.0150299,0.00785828,0.0157928,-0.00549316,0.0160599,0.00976563
13,8,10.0097,0.0012207,0.000152588,-2.42623,0.0547655,-0.0738423,0.0535176,0.0712755,-0.0928413,0.144098,-0.125766,-0.0847066,0.0148773,0.0257111,0.0219727,0.00919342,0.0193405,0.00831604,0.0247955,0.0180817,-9.97986,0.0110626,-0.00179291,0.0123215,0.00507355,0.0165558,0.00293732,0.0189972,0.00526428
13,9,10.0097,0,0.000152588,-2.42501,0.0547655,-0.0747579,0.0550435,0.0715807,-0.094062,0.146234,-0.125461,-0.0816549,0.0141144,0.0255585,0.0205231,0.00881195,0.0215912,0.0137329,0.0243378,0.0202942,-9.97986,0.0148773,-0.00537872,0.0143814,0.0101471,0.0138855,0.00190735,0.0170898,0.00617981
14,0,10.0097,-0.000915527,-0.000152588,-2.42501,0.0569017,-0.0741475,0.0544332,0.0712755,-0.0919257,0.145318,-0.123935,-0.0822652,0.00923157,0.0196075,0.015831,0.00606537,0.0183487,0.00759125,0.0212479,0.0118637,-9.97986,0.0133896,-0.00362396,0.0146103,0.00583649,0.00984192,0.0037384,0.0119781,0.00461578
14,1,10.0097,0.000305176,0.000762939,-2.42592,0.0553758,-0.0747579,0.0532125,0.0569322,-0.0949775,0.146539,-0.125461,-0.0828756,0.0111008,0.0253296,0.0192261,0.0110245,0.0231934,0.0157166,0.0251389,0.0224686,-9.97986,0.0147629,-0.00499725,0.0107193,0.00778198,0.0143051,0.00400543,0.0163269,0.00694275
14,2,8.2491,-0.000305176,-0.00289917,-2.42592,0.0562914,-0.0738423,0.0532125,0.0230577,-0.095893,0.147455,-0.127292,-0.0822652,0.00740051,0.0262833,0.0167847,0.00686646,0.0209427,0.0112152,0.0217438,0.0202942,-9.97986,0.0137711,-0.0037384,0.0140381,0.0056839,0.014534,-0.00297546,0.0172043,0.00598907
14,3,-0.126142,0.00183105,-0.00457764,-2.4247,0.0575121,-0.073232,0.0532125,-0.0150892,-0.0974189,0.14776,-0.130039,-0.0825704,0.00728607,0.0273132,0.0181961,0.0130844,0.0192642,0.0108719,0.0234222,0.0194931,-9.97986,0.010376,-0.00480652,0.0149536,0.00427246,0.0161743,-0.00427246,0.017128,0.00823975
14,4,-7.37102,0.000305176,-0.00442505,-2.42714,0.0575121,-0.0735371,0.0538228,-0.0178358,-0.0955879,0.147149,-0.129429,-0.0822652,0.0109482,0.0312424,0.0214386,0.0121307,0.0168228,0.0106049,0.0221634,0.0167465,-9.97986,0.00835419,-0.00293732,0.0166702,0.00629425,0.0131607,-0.00728607,0.0177765,0.0056076
14,5,-9.99003,0.00152588,-0.00305176,-2.42379,0.0559862,-0.0729268,0.0574849,0.0129869,-0.0910102,0.146844,-0.127598,-0.080129,0.00934601,0.0263214,0.0226212,0.0112915,0.023613,0.0110626,0.0209427,0.0157166,-9.97986,0.0140381,-0.001297,0.0117111,0.00846863,-0.00789642,-0.00137329,0.0193024,0.00770569
14,6,-9.99003,-0.000305176,-0.00167847,-2.4247,0.0565965,-0.0738423,0.0547383,0.0468614,-0.0894843,0.146234,-0.126072,-0.0816549,0.0117874,0.0306702,0.0238419,0.0120544,0.0217438,0.0110245,0.0198746,0.0178146,-9.97986,0.0169754,0.00102997,0.0154495,0.00495911,-0.0111771,0.000419617,0.0153351,0.0069046
14,7,-9.99003,0.00152588,0.000152588,-2.42592,0.0559862,-0.0753682,0.0538228,0.0590685,-0.0897895,0.146539,-0.125766,-0.0822652,0.00850677,0.0270844,0.0208282,0.0104523,0.0196457,0.0121689,0.0249863,0.0193787,-9.97986,0.00965118,-0.00362396,0.0145721,0.00724792,-0.00823975,0.00141144,0.0183105,0.00549316
14,8,-9.99003,0.0012207,-0.000152588,-2.42684,0.0547655,-0.0747579,0.0550435,0.0654772,-0.0925361,0.144403,-0.125461,-0.0828756,0.00663757,0.0286102,0.0228119,0.0150681,0.0162506,0.00797272,0.0211334,0.0195694,-9.97986,0.014534,-0.00232697,0.0143433,0.00701904,-0.00766754,0.00530243,0.0133514,0.00385284
14,9,-9.99003,0.00244141,0.000610352,-2.4247,0.0559862,-0.0738423,0.0553487,0.101183,-0.0858222,0.145624,-0.124241,-0.0819601,0.00968933,0.0289536,0.0222397,0.012207,0.0223923,0.0130081,0.0236893,0.0189209,-9.97986,0.0151443,-0.000686646,0.01091,0.00804901,0.0152969,0.00377655,0.0143814,0.00545502
15,0,-5.02025,0.00152588,0.00350952,-2.42714,0.0538499,-0.0756734,0.0550435,0.135362,-0.0870429,0.144708,-0.122715,-0.0834859,0.0101852,0.0291443,0.0214005,0.00823975,0.0189972,0.00770569,0.0189972,0.0178909,-9.97986,0.0113678,-0.00362396,0.0104523,0.00202179,0.0169373,-0.00213623,0.0157547,0.00789642
15,1,2.45046,0.0012207,0.00427246,-2.42776,0.0529344,-0.0747579,0.054128,0.151232,-0.0897895,0.144098,-0.121189,-0.0859274,0.00926971,0.0326538,0.0170517,0.00862122,0.0203323,0.0112915,0.0227356,0.019989,-9.97986,0.0189209,-0.00507355,0.0121307,0.0056076,0.0152206,-0.00217438,0.0202179,0.00667572
15,2,9.66451,0.00152588,0.00442505,-2.42989,0.0538499,-0.0762837,0.0522969,0.147569,-0.0913154,0.142877,-0.121799,-0.0856222,0.00961304,0.0299454,0.0253677,0.0127411,0.019455,0.0122833,0.0209045,0.0166702,-9.97986,0.0130081,-0.00591278,0.00736237,0.00534058,0.0162506,-0.0025177,0.0167084,0.00411987
15,3,10.0097,0.000610352,0.00244141,-2.43111,0.0526292,-0.0768941,0.0498555,0.107897,-0.0965034,0.141961,-0.125461,-0.0886739,0.0100708,0.0284576,0.0238419,0.00999451,0.0166702,0.00995636,0.0191116,0.0194931,-9.97986,0.0108337,-0.00595093,0.0143433,0.00759125,0.0183105,-0.00190735,0.0148392,0.00614166
15,4,10.0097,-0.000915527,0.000305176,-2.42989,0.0535448,-0.0759786,0.0519917,0.0840929,-0.0974189,0.143487,-0.126377,-0.0877584,0.0103378,0.0272369,0.0250244,0.0133133,0.0212479,0.00938416,0.022316,0.0134659,-9.97986,0.014534,-0.00331879,0.0167847,0.00648499,0.0181961,-0.00118256,0.0164032,0.0044632
15,5,10.0097,0.000610352,-0.000305176,-2.42928,0.0541551,-0.0756734,0.0516866,0.0752428,-0.0946723,0.146844,-0.126072,-0.0868429,0.00984192,0.0275803,0.0221252,0.0130081,0.0183105,0.0132751,0.0223541,0.0189972,-9.97986,0.0117874,0.000686646,0.0127411,0.00762939,0.0151062,0.000267029,0.0163269,0.00576019
15,6,10.0097,0,0.000152588,-2.42714,0.0547655,-0.075063,0.0522969,0.0724962,-0.0946723,0.144098,-0.126072,-0.0850118,0.0111771,0.0241089,0.0192642,0.0105286,0.0144196,0.0125122,0.0227356,0.0209045,-9.97986,0.0139999,-0.000724792,0.014534,0.00778198,0.0183868,0.00087738,0.0133514,0.00549316
15,7,10.0097,0.000305176,0.000152588,-2.42776,0.0550706,-0.0747579,0.0535176,0.0709703,-0.0934516,0.145318,-0.125766,-0.0840963,0.0108719,0.0169754,0.0231934,0.00934601,0.0210571,0.0115967,0.0209427,0.019989,-9.97986,0.0130463,-0.00217438,0.015564,0.00576019,0.017128,0.001297,0.014534,0.00522614
15,8,10.0097,0.000305176,0.000152588,-2.42684,0.0544603,-0.0747579,0.054128,0.0728014,-0.0934516,0.145013,-0.125766,-0.0847066,0.0139618,0.0175858,0.0162888,0.00938416,0.0144958,0.0128937,0.0221634,0.0227737,-9.97986,0.014534,-0.0019455,0.0148773,0.00377655,0.0170517,-0.00141144,0.0164795,0.0069046
15,9,10.0097,0.0012207,0.000610352,-2.42592,0.0565965,-0.0738423,0.0538228,0.0715807,-0.0922309,0.145929,-0.125156,-0.0819601,0.0114822,0.0193405,0.0165558,0.0136566,0.0177765,0.0119781,0.0226212,0.0249863,-9.97986,0.0178909,-0.00137329,0.0137329,0.00831604,0.0182343,-0.0031662,0.0198364,0.00350952
16,0,10.0097,0.00213623,0.000152588,-2.42562,0.0565965,-0.075063,0.0550435,0.0718859,-0.0922309,0.145624,-0.124851,-0.0825704,0.00778198,0.0193787,0.0194168,0.0128937,0.019455,0.0109482,0.019455,0.0230789,-9.97986,0.0134277,-0.000457764,0.0137329,0.0056839,0.0129318,-0.0112534,0.0152588,0.00480652
16,1,10.0097,-0.000610352,-0.000610352,-2.42653,0.055681,-0.0753682,0.0535176,0.0575426,-0.0946723,0.145929,-0.126682,-0.0825704,0.0094223,0.0196075,0.0215149,0.0094986,0.0178909,0.0119781,0.0221634,0.0263214,-9.97986,0.0169754,-0.00484467,0.0155258,0.00507355,0.0154877,-0.0136185,0.0130081,0.00549316
16,2,8.33669,0.00152588,-0.00320435,-2.42623,0.0565965,-0.0747579,0.0538228,0.0239733,-0.0974189,0.145929,-0.127598,-0.0822652,0.00888824,0.0160599,0.0179672,0.00988007,0.018425,0.00896454,0.0247574,0.017128,-9.97986,0.0160599,-0.00228882,0.0156784,0.00427246,0.0170135,-0.0158691,0.0170517,0.00808716
16,3,-0.0342843,-0.00152588,-0.00473022,-2.42531,0.0562914,-0.0735371,0.054128,-0.0150892,-0.09925,0.146234,-0.130344,-0.0819601,0.00835419,0.0185776,0.0215149,0.0115585,0.0123978,0.0115204,0.0204849,0.0232697,-9.97986,0.0178146,7.62939e-005,0.0187683,0.00335693,0.0206757,-0.0172424,0.0147247,0.00591278
16,4,-7.30113,0.000915527,-0.00427246,-2.42592,0.0581224,-0.073232,0.054128,-0.0175306,-0.0965034,0.146844,-0.129429,-0.0816549,0.0118637,0.0242615,0.0183105,0.0112534,0.0153732,0.0128174,0.0214386,0.0175476,-9.97986,0.0163269,-0.00179291,0.0167084,0.00747681,0.0175858,-0.00644684,0.0170517,0.00617981
16,5,-9.99003,0.000610352,-0.00350952,-2.42409,0.0565965,-0.0735371,0.055959,0.0123766,-0.0913154,0.146844,-0.127903,-0.0798238,0.0127029,0.0234604,0.0182724,0.017662,0.0175858,0.00808716,0.0195694,0.0105667,-9.97986,0.0114441,-0.00221252,0.0170898,0.00247955,-0.00511169,-0.00038147,0.0146866,0.00511169
16,6,-9.99003,0.000915527,-0.00183105,-2.4247,0.0553758,-0.0741475,0.0568746,0.0480822,-0.088874,0.145929,-0.126987,-0.0810445,0.0104141,0.0203323,0.0174332,0.0132751,0.0181198,0.0152206,0.0178909,0.0149536,-9.97986,0.0173187,-0.00102997,0.0175476,0.00808716,-0.00789642,0.00427246,0.0152588,0.00602722
16,7,-9.99003,0.0012207,-0.000457764,-2.42592,0.0569017,-0.0747579,0.0553487,0.0602892,-0.0910102,0.145624,-0.126072,-0.0828756,0.0118637,0.0179672,0.0170898,0.0125885,0.0175858,0.00843048,0.0185013,0.00705719,-9.97986,0.0133896,-0.00461578,0.00995636,0.00469208,-0.0069809,0.0018692,0.0137711,0.00232697
16,8,-9.99003,-0.000915527,0.000305176,-2.42653,0.0550706,-0.0762837,0.0535176,0.0645616,-0.0925361,0.143792,-0.125461,-0.0822652,0.012207,0.0236511,0.0200653,0.0134659,0.0184631,0.015564,0.024147,0.0128937,-9.97986,0.014801,-0.00701904,0.0163269,0.00793457,-0.00442505,0.00804901,0.0188828,0.00770569
16,9,-9.99003,0.00183105,0.000610352,-2.42531,0.0550706,-0.075063,0.055959,0.100572,-0.0876533,0.146539,-0.12363,-0.0825704,0.00965118,0.0198364,0.0177002,0.013504,0.0185776,0.0105667,0.0208664,0.01297,-9.97986,0.0144577,-0.00354767,0.0161743,0.00740051,0.0172806,0.00656128,0.0141525,0.00556946
17,0,-5.08677,0.000305176,0.00274658,-2.42623,0.0526292,-0.0759786,0.0544332,0.133837,-0.0876533,0.144403,-0.122104,-0.0834859,0.0112152,0.0212479,0.0157166,0.0115967,0.0152969,0.00926971,0.02285,0.0180054,-9.97986,0.0165176,-0.00621796,0.0143814,0.00644684,0.0149536,-0.00114441,0.0177383,0.0069809
17,1,2.30641,0.000610352,0.00473022,-2.42745,0.0544603,-0.0775044,0.054128,0.149401,-0.0897895,0.143487,-0.121494,-0.0850118,0.0102997,0.0229263,0.0222778,0.0122452,0.0150299,0.014801,0.0230408,0.017395,-9.97986,0.015564,-0.00183105,0.0151825,0.00869751,0.0160217,-0.00282288,0.0136566,0.00587463
17,2,9.45607,0.000915527,0.00473022,-2.42928,0.0538499,-0.0753682,0.0532125,0.147569,-0.0910102,0.143792,-0.121799,-0.0865377,0.0105286,0.0274658,0.016861,0.013504,0.0180435,0.014267,0.0214767,0.0156403,-9.97986,0.0148392,0.00137329,0.0176239,0.0104523,0.0138855,-0.00263214,0.0141907,0.00579834
17,3,10.0097,-0.000915527,0.00228882,-2.43081,0.0529344,-0.0771993,0.0504659,0.107897,-0.0971137,0.142572,-0.125156,-0.0886739,0.0087738,0.0308609,0.0164795,0.0119781,0.0181198,0.0135803,0.0208664,0.0152969,-9.97986,0.0119781,-0.00247955,0.0142288,0.00431061,0.0130844,-0.0031662,0.0188446,0.00671387
17,4,10.0097,0.000305176,0.000305176,-2.4302,0.0541551,-0.0765889,0.0513814,0.0843981,-0.0971137,0.144098,-0.125766,-0.0880636,0.0117493,0.031929,0.0221252,0.013237,0.0188828,0.0107193,0.0233841,0.021286,-9.97986,0.0149155,0.00152588,0.0160599,0.00499725,0.0159073,-0.00408173,0.0162888,0.00377655
17,5,10.0097,0.000305176,0.000457764,-2.42898,0.0535448,-0.0765889,0.0522969,0.0767687,-0.095893,0.144403,-0.126377,-0.0871481,0.0101089,0.0282669,0.0193024,0.0144577,0.0193024,0.0113678,0.022316,0.0182343,-9.97986,0.0172806,0.00225067,0.017128,0.00339508,0.0134277,-0.00480652,0.0143433,0.00705719
17,6,10.0097,-0.000305176,0.000305176,-2.42867,0.0547655,-0.075063,0.0516866,0.0731066,-0.0943672,0.144098,-0.126377,-0.0856222,0.00938416,0.0260925,0.0269699,0.00789642,0.0230789,0.00995636,0.0207901,0.0183868,-9.97986,0.0141144,-0.00274658,0.0134659,0.0087738,0.0149155,-0.00946045,0.0206757,0.00617981
17,7,10.0097,0.00274658,0.000152588,-2.42776,0.0550706,-0.0747579,0.0532125,0.0715807,-0.0931465,0.145929,-0.125766,-0.0837911,0.00907898,0.0266647,0.0226974,0.0088501,0.0172806,0.0114822,0.0270844,0.0204468,-9.97986,0.0166321,-0.0031662,0.0135422,0.00564575,0.0159836,-0.0173187,0.0137329,0.00652313
17,8,10.0097,-0.000305176,0,-2.42623,0.0553758,-0.0753682,0.0535176,0.0715807,-0.0934516,0.144708,-0.126377,-0.0840963,0.00938416,0.0283051,0.0234985,0.00900269,0.0140381,0.0075531,0.0211716,0.0196838,-9.97986,0.0154495,-0.000610352,0.0174713,0.00667572,0.019455,-0.0110245,0.0194168,0.00736237
17,9,10.0097,0.000610352,0.000305176,-2.42562,0.0569017,-0.075063,0.0538228,0.0718859,-0.0928413,0.145013,-0.124241,-0.0825704,0.0087738,0.031395,0.024147,0.0131989,0.0118637,0.00980377,0.020256,0.0186157,-9.97986,0.013237,0.000419617,0.0137711,0.00431061,0.0157547,-0.00545502,0.0163651,0.00816345
18,0,10.0097,0.000915527,-0.000152588,-2.42501,0.0565965,-0.0759786,0.0556539,0.0715807,-0.0925361,0.146539,-0.125766,-0.0804342,0.0127411,0.0286865,0.018425,0.0115585,0.0161743,0.01091,0.0200272,0.0204849,-9.97986,0.0128174,-3.8147e-005,0.0112534,0.00579834,0.0137711,-0.000724792,0.0165558,0.00637054
18,1,10.0097,0,0,-2.42653,0.0565965,-0.0738423,0.054128,0.0578478,-0.0931465,0.145624,-0.126377,-0.0822652,0.0102234,0.0263214,0.0172806,0.0103378,0.0177002,0.00843048,0.0214386,0.0178909,-9.97986,0.0141144,0.0018692,0.0125885,0.00701904,0.0154495,0.00991821,0.0173187,0.00782013
18,2,8.28847,0.000610352,-0.00228882,-2.42531,0.0562914,-0.075063,0.0522969,0.0230577,-0.0977241,0.147149,-0.127292,-0.0828756,0.0122833,0.0263596,0.019455,0.013237,0.0181961,0.00865936,0.0244522,0.0137329,-9.97986,0.0157547,0.0037384,0.0140381,0.00301361,0.014534,0.00774384,0.0180817,0.00801086
18,3,-0.0748727,0,-0.00473022,-2.42623,0.0575121,-0.075063,0.0538228,-0.0150892,-0.0989448,0.146234,-0.130649,-0.0819601,0.011673,0.0236893,0.0207138,0.0120926,0.0215912,0.00846863,0.0232315,0.0132751,-9.97986,0.0137329,0.00362396,0.0129318,0.00827789,0.0136566,0.0124359,0.0137711,0.00827789
18,4,-7.35087,0.000610352,-0.00457764,-2.42531,0.0572069,-0.0729268,0.0519917,-0.0169203,-0.0955879,0.146844,-0.13126,-0.0816549,0.0128555,0.0283813,0.0234222,0.0127792,0.0226212,0.0137329,0.0243378,0.0174332,-9.97986,0.0134277,0.00358582,0.010376,0.00732422,0.0134277,0.00747681,0.0150299,0.00595093
18,5,-9.99003,-0.000610352,-0.0038147,-2.42379,0.0559862,-0.073232,0.0568746,0.0129869,-0.0916206,0.147149,-0.127598,-0.080129,0.0130463,0.0220871,0.0269699,0.0104523,0.0188446,0.00843048,0.0191498,0.0140381,-9.97986,0.0160217,0.00148773,0.0134659,0.00682831,-0.0102997,0.00907898,0.0187683,0.00499725
18,6,-9.99003,0.000915527,-0.0012207,-2.42318,0.0550706,-0.0744527,0.0568746,0.0471666,-0.0903999,0.146234,-0.127292,-0.0807394,0.00911713,0.0255203,0.026474,0.0133896,0.0127792,0.00743866,0.0234604,0.0134659,-9.97986,0.0192642,0.0018692,0.0141144,0.00621796,-0.0107574,0.00648499,0.0169754,0.00663757
18,7,-9.99003,-0.000610352,-0.000305176,-2.42653,0.0550706,-0.0741475,0.0550435,0.0596788,-0.0910102,0.145624,-0.125461,-0.0813497,0.0131607,0.0243378,0.0201797,0.0130463,0.0195313,0.00740051,0.0239563,0.0138855,-9.97986,0.0172043,0.00469208,0.0136185,0.00762939,-0.00919342,0.00347137,0.0167084,0.00720978
18,8,-9.99003,0.000305176,0.000457764,-2.42562,0.0553758,-0.075063,0.0544332,0.065172,-0.0913154,0.145318,-0.126682,-0.0831808,0.0106049,0.02388,0.0218201,0.0107193,0.0186157,0.00858307,0.0226212,0.0180435,-9.97986,0.0177765,0.00133514,0.0120926,0.00766754,-0.00869751,0.000991821,0.0172806,0.0056839
18,9,-9.99003,0.0012207,0.00137329,-2.42531,0.0547655,-0.0753682,0.0556539,0.0993517,-0.0867378,0.146844,-0.12363,-0.0825704,0.0109863,0.029068,0.0256729,0.0126266,0.0178909,0.0110626,0.0209045,0.0165558,-9.97986,0.0156021,0.00179291,0.0128174,0.0056076,0.0167465,-0.000152588,0.0187683,0.00747681
19,0,-5.15056,0.000915527,0.00305176,-2.42837,0.0538499,-0.0744527,0.0553487,0.135057,-0.0867378,0.144403,-0.12363,-0.0847066,0.00907898,0.0338364,0.0242615,0.00839233,0.0181961,0.00732422,0.0221252,0.0207138,-9.97986,0.0157166,0.00141144,0.0135803,0.0101852,0.0176239,-0.00167847,0.0171661,0.00595093
19,1,2.42574,0.000610352,0.00411987,-2.42837,0.0547655,-0.075063,0.0544332,0.150926,-0.0879585,0.143487,-0.121799,-0.0850118,0.0088501,0.0317001,0.021286,0.0104141,0.0175858,0.0104523,0.0210953,0.0168991,-9.97986,0.0152969,0.000991821,0.00976563,0.00522614,0.0157166,-0.00988007,0.0167084,0.0031662
19,2,9.7051,0.000610352,0.00442505,-2.42959,0.0535448,-0.0762837,0.0535176,0.14818,-0.090705,0.144708,-0.12241,-0.0871481,0.0107956,0.0160599,0.0195313,0.0118637,0.0217438,0.00854492,0.0183868,0.0224686,-9.97986,0.014267,0.00293732,0.0124359,0.00827789,0.0143051,-0.00350952,0.0154877,0.00743866
19,3,10.0097,0.00244141,0.00228882,-2.43081,0.0529344,-0.0781148,0.0492452,0.108507,-0.0971137,0.142572,-0.125766,-0.0877584,0.00888824,0.0069809,0.0162888,0.0102615,0.0133514,0.0063324,0.0185394,0.0166702,-9.97986,0.0151062,0.00232697,0.0135803,0.0043869,0.0126266,-0.0050354,0.0120544,0.00522614
19,4,10.0097,-0.000305176,0.000915527,-2.4305,0.0535448,-0.0759786,0.0513814,0.0843981,-0.0974189,0.143487,-0.126377,-0.0877584,0.0104523,0.0177383,0.0139618,0.00980377,0.0143814,0.00732422,0.0199127,0.0197983,-9.97986,0.0169373,0.00312805,0.0113297,0.00835419,0.0149536,-0.00518799,0.0157547,0.0088501
19,5,10.0097,0.000610352,0.000152588,-2.42867,0.0544603,-0.0756734,0.0526021,0.0779894,-0.095893,0.145013,-0.126987,-0.0874532,0.00984192,0.0220108,0.00701904,0.0152206,0.016861,0.0128937,0.0201035,0.0201035,-9.97986,0.0153351,0.00328064,0.0133133,0.00808716,0.0132751,-0.00347137,0.014801,0.00770569
19,6,10.0097,0.000915527,-0.000152588,-2.42837,0.0547655,-0.0753682,0.0526021,0.072191,-0.0952827,0.144403,-0.125766,-0.0856222,0.0107193,0.0223541,0.00469208,0.0140381,0.0207901,0.00713348,0.0242615,0.0125504,-9.97986,0.0203705,0.000457764,0.0131989,0.00694275,0.0130844,-0.00610352,0.0159836,0.00209808
19,7,10.0097,0.000610352,0.000305176,-2.42653,0.0550706,-0.0738423,0.0535176,0.0706652,-0.0928413,0.144403,-0.126072,-0.0834859,0.0104141,0.0159836,0.00606537,0.0126648,0.0170898,0.0101089,0.0211716,0.0126266,-9.97986,0.0215149,0.0044632,0.01194,0.00991821,0.0119019,-0.00537872,0.0163269,0.00526428
19,8,10.0097,0.000915527,0.000457764,-2.42714,0.0550706,-0.0753682,0.0532125,0.0712755,-0.0937568,0.144708,-0.126377,-0.0837911,0.0129318,0.0150681,0.0133896,0.0128937,0.0150299,0.00743866,0.0208282,0.0150299,-9.97986,0.0174713,0.00526428,0.0150681,0.00923157,0.0201797,-0.00587463,0.0162888,0.00602722
19,9,10.0097,0.0012207,0.000762939,-2.42562,0.0565965,-0.0735371,0.0544332,0.0712755,-0.0922309,0.146539,-0.125156,-0.0819601,0.0105286,0.0169754,0.017662,0.0133514,0.021286,0.00900269,0.0222778,0.0174713,-9.97986,0.0131607,0.00278473,0.00926971,0.00831604,0.0157166,-0.00858307,0.0175476,0.00934601
20,0,10.0097,-0.000305176,0,-2.4247,0.0550706,-0.0726216,0.0550435,0.0718859,-0.0919257,0.147455,-0.123935,-0.0822652,0.0113297,0.0206375,0.017395,0.0102234,0.018692,0.00904083,0.0202942,0.0192642,-9.97986,0.0172806,0.000762939,0.0138092,0.0106049,0.0172424,-0.00934601,0.0157928,0.00873566
20,1,10.0097,-0.0012207,0.000457764,-2.42684,0.0553758,-0.0735371,0.0532125,0.0572374,-0.0946723,0.146234,-0.126072,-0.0816549,0.0121307,0.0170898,0.0212479,0.011673,0.0222397,0.0115585,0.0215912,0.0191879,-9.97986,0.0189209,0.00236511,0.0159454,0.00656128,0.0188446,-0.00522614,0.0157166,0.00991821
20,2,8.30953,0.000610352,-0.00244141,-2.42653,0.0569017,-0.0741475,0.0526021,0.0236681,-0.0968086,0.14776,-0.127903,-0.0831808,0.00797272,0.0165176,0.0190353,0.0158691,0.0154877,0.0075531,0.0203323,0.016861,-9.97986,0.0124359,-0.00087738,0.0137711,0.00392914,0.0180435,-0.00293732,0.0133514,0.00785828
20,3,-0.0800607,0.000915527,-0.0050354,-2.42531,0.0572069,-0.0741475,0.0529073,-0.0138685,-0.0983344,0.147149,-0.129734,-0.0822652,0.0140762,0.021286,0.0206757,0.0135803,0.0130081,0.0116348,0.0204849,0.0174713,-9.97986,0.0116348,0.00190735,0.0111771,0.00423431,0.0138855,-0.000686646,0.014267,0.0056076
20,4,-7.38414,0.000610352,-0.00488281,-2.42501,0.0572069,-0.0738423,0.054128,-0.0169203,-0.095893,0.147455,-0.130649,-0.0816549,0.00984192,0.0236893,0.0185394,0.0130844,0.0187302,0.00823975,0.0211716,0.0199509,-9.97986,0.0136185,-0.00202179,0.0177002,0.00804901,0.0188828,0.00522614,0.0168228,0.00728607
20,5,-9.99003,-0.00183105,-0.00427246,-2.42379,0.0572069,-0.073232,0.0562642,0.0126818,-0.0916206,0.14776,-0.128208,-0.080129,0.00923157,0.0248337,0.0154495,0.0113297,0.0170898,0.0108719,0.0211716,0.0149155,-9.97986,0.0131989,-0.00179291,0.0164795,0.00629425,-0.00827789,0.00629425,0.0141907,0.00637054
20,6,-9.99003,0.00183105,-0.00152588,-2.42531,0.0550706,-0.0741475,0.0565694,0.0480822,-0.0900947,0.145929,-0.126987,-0.0813497,0.00671387,0.0231552,0.0138855,0.0139618,0.0188828,0.0114059,0.0239182,0.0166321,-9.97986,0.0135422,-0.00225067,0.0169373,0.00274658,-0.00659943,0.00659943,0.0162125,0.00740051
20,7,-9.99003,0.000610352,0.000305176,-2.42592,0.0550706,-0.075063,0.055959,0.0605944,-0.088874,0.145013,-0.125766,-0.0816549,0.0123215,0.0238037,0.0148392,0.0155258,0.0178528,0.0115585,0.0248337,0.0194931,-9.97986,0.013237,0.000114441,0.0109482,0.00797272,-0.0031662,0.00621796,0.0174713,0.00717163
20,8,-9.99003,-0.000915527,-0.000305176,-2.42684,0.0550706,-0.0756734,0.0538228,0.065172,-0.0925361,0.145318,-0.126072,-0.0828756,0.00652313,0.0188446,0.00907898,0.0107956,0.0158691,0.00556946,0.0209045,0.0188065,-9.97986,0.0177383,-0.000991821,0.0136185,0.00659943,-0.00518799,0.00431061,0.0135803,0.00354767
20,9,-9.99003,0,0.000762939,-2.42562,0.0547655,-0.0735371,0.0550435,0.102098,-0.0876533,0.146234,-0.12302,-0.0816549,0.0110626,0.021286,0.00926971,0.0110626,0.0164795,0.00450134,0.0235748,0.0161362,-9.97986,0.0178528,0.000114441,0.0116348,0.0069046,0.0172806,-0.00175476,0.0192642,0.00801086
21,0,-4.8405,0.00244141,0.00335693,-2.42867,0.0538499,-0.0753682,0.0550435,0.135973,-0.0882636,0.143487,-0.120884,-0.0837911,0.0105667,0.0182343,0.0133514,0.0115585,0.0197983,0.0120544,0.0244141,0.0220871,-9.97986,0.0160217,0.001297,0.0162888,0.00728607,0.0178909,-0.00404358,0.0167847,0.0056076
21,1,2.58473,0.00152588,0.0038147,-2.42806,0.0541551,-0.0753682,0.054128,0.153063,-0.0891792,0.143487,-0.121189,-0.0850118,0.011673,0.0136566,0.0127029,0.00614166,0.017395,0.00556946,0.0197983,0.0185013,-9.97986,0.00919342,0.000839233,0.0148392,0.00602722,0.0173569,-0.00392914,0.0137329,0.00858307
21,2,9.81984,-0.000305176,0.00473022,-2.42776,0.0526292,-0.0771993,0.0526021,0.147569,-0.0897895,0.143182,-0.122104,-0.085317,0.0112152,0.021019,0.0222015,0.0147247,0.018959,0.0105286,0.0232697,0.0218964,-9.97986,0.0183868,0.00389099,0.013504,0.00663757,0.0193024,-0.000152588,0.0159836,0.00610352
21,3,10.0097,0.000610352,0.00183105,-2.4302,0.0535448,-0.0756734,0.0495503,0.106981,-0.0971137,0.143487,-0.126682,-0.0886739,0.00839233,0.0159454,0.0183105,0.0101471,0.0193024,0.0115204,0.0194931,0.0185394,-9.97986,0.0135422,-0.0063324,0.00999451,0.0044632,0.0144196,-0.000457764,0.015564,0.00762939
21,4,10.0097,0.000610352,0.000915527,-2.42989,0.0535448,-0.0768941,0.0504659,0.0847032,-0.0971137,0.142267,-0.126987,-0.0883688,0.00598907,0.0220108,0.021553,0.0109863,0.019989,0.0102615,0.0219345,0.0228882,-9.97986,0.0126266,-0.00190735,0.0165176,0.0056076,0.0197983,0.00263214,0.0196838,0.00736237
21,5,10.0097,0.00152588,0.000152588,-2.42867,0.0553758,-0.075063,0.0516866,0.077379,-0.0952827,0.144708,-0.126377,-0.0859274,0.0113297,0.0212097,0.0214386,0.0124359,0.0183105,0.0120163,0.02285,0.0233459,-9.97986,0.0122833,-0.00461578,0.0141144,0.00545502,0.0182343,-0.00175476,0.0151443,0.00812531
21,6,10.0097,0.00244141,0.000305176,-2.42837,0.0538499,-0.0759786,0.0532125,0.0731066,-0.0946723,0.145318,-0.127598,-0.085317,0.0122452,0.0174713,0.0214767,0.0130844,0.0204849,0.0108337,0.0224686,0.0225449,-9.97986,0.0148773,-0.00419617,0.0146103,0.00614166,0.0146103,-0.00205994,0.0146866,0.00457764
21,7,10.0097,0.00152588,0.000305176,-2.42684,0.0550706,-0.0747579,0.0532125,0.0718859,-0.0934516,0.145318,-0.125156,-0.0840963,0.0114059,0.0170135,0.021019,0.00888824,0.0178909,0.01091,0.0216293,0.0217056,-9.97986,0.0110626,-0.00492096,0.0121307,0.000991821,0.0139236,-0.000419617,0.0150681,0.00709534
21,8,10.0097,0,0.000305176,-2.42714,0.055681,-0.0741475,0.0535176,0.0712755,-0.0943672,0.144708,-0.125766,-0.0847066,0.0127029,0.0191116,0.0187683,0.0111771,0.015564,0.0087738,0.022049,0.0217056,-9.97986,0.0130081,-0.00343323,0.0130844,0.00629425,0.0154495,-3.8147e-005,0.0131226,0.00728607
21,9,10.0097,-0.0012207,0,-2.42531,0.0562914,-0.0744527,0.0544332,0.0706652,-0.0925361,0.146539,-0.125156,-0.0822652,0.00778198,0.0199127,0.0200272,0.0102234,0.0165176,0.01091,0.0214005,0.0164032,-9.97986,0.0110626,-0.00835419,0.0107956,0.00331879,0.0194931,0.00183105,0.0170898,0.00572205
22,0,10.0097,0.000305176,0,-2.4244,0.0562914,-0.0738423,0.054128,0.0718859,-0.0916206,0.147149,-0.123935,-0.0810445,0.00991821,0.0346375,0.0206757,0.0113678,0.017662,0.0138855,0.0189972,0.0148773,-9.97986,0.0125504,-0.00411987,0.0129318,0.00606537,0.0189972,0.00350952,0.017395,0.00465393
22,1,10.0097,-0.000305176,0.000305176,-2.42684,0.055681,-0.0756734,0.0538228,0.0551012,-0.0955879,0.146234,-0.126987,-0.0822652,0.0106049,0.030899,0.020752,0.0107574,0.0166321,0.0136566,0.0171661,0.0156403,-9.97986,0.0155258,-0.00431061,0.0147247,0.00671387,0.0183868,0.00137329,0.0179291,0.00850677
22,2,8.09896,0.000610352,-0.00244141,-2.42653,0.0575121,-0.0744527,0.0522969,0.0221422,-0.0971137,0.145624,-0.126682,-0.0825704,0.00846863,0.023613,0.0169373,0.0144196,0.0167847,0.0110245,0.019455,0.00999451,-9.97986,0.0102234,0.000114441,0.0162888,0.00534058,0.0123215,0.00434875,0.0177383,0.00545502
22,3,-0.257673,0.0012207,-0.00549316,-2.42592,0.0569017,-0.0720113,0.0532125,-0.0141737,-0.0980293,0.145013,-0.130039,-0.0816549,0.0117493,0.0250626,0.0165558,0.0114059,0.0160217,0.0138092,0.0243378,0.0172806,-9.97986,0.012207,0.00141144,0.011673,0.00209808,0.016098,0.00274658,0.015564,0.00549316
22,4,-7.49614,0.000610352,-0.00457764,-2.4247,0.0559862,-0.0738423,0.0535176,-0.0163099,-0.0968086,0.147149,-0.130344,-0.0807394,0.0136566,0.0218582,0.0196838,0.00988007,0.0174713,0.0109482,0.0239182,0.0115204,-9.97986,0.0129318,0.00301361,0.0143814,0.00453949,0.017128,0.00457764,0.0124359,0.00610352
22,5,-9.99003,0,-0.00427246,-2.42501,0.0559862,-0.0729268,0.0568746,0.0145128,-0.0922309,0.146234,-0.126987,-0.0807394,0.0138855,0.0194168,0.0202942,0.00957489,0.0157928,0.00465393,0.022316,0.0143814,-9.97986,0.0130081,0.00293732,0.0139236,0.00564575,-0.00843048,0.0031662,0.0114822,0.00480652
22,6,-9.99003,-0.000915527,-0.00152588,-2.4247,0.055681,-0.0741475,0.0562642,0.0486925,-0.0897895,0.146539,-0.127292,-0.0819601,0.00686646,0.0218964,0.0183868,0.0122452,0.0178528,0.00984192,0.0237274,0.019722,-9.97986,0.0133133,0.000724792,0.0133133,0.00324249,-0.00602722,0.00488281,0.0157166,0.0044632
22,7,-9.99003,0.000610352,-0.000305176,-2.42653,0.0559862,-0.0753682,0.0544332,0.0608995,-0.0903999,0.146234,-0.125766,-0.0816549,0.010376,0.0242615,0.0160217,0.0101852,0.0161362,0.0100327,0.0259781,0.0172806,-9.97986,0.0123978,-0.00171661,0.0176239,0.00728607,-0.0062561,0.00656128,0.0166702,0.00617981
22,8,-9.99003,0.000305176,0.000152588,-2.42684,0.0535448,-0.0747579,0.054128,0.0648668,-0.0919257,0.145013,-0.126377,-0.0822652,0.0102997,0.0273132,0.0183868,0.0168991,0.0182724,0.00934601,0.022583,0.0196838,-9.97986,0.0106049,-0.00347137,0.0148773,0.00305176,-0.0111008,0.0062561,0.0145721,0.00499725
22,9,-9.99003,0.00152588,0.000152588,-2.42501,0.0559862,-0.0735371,0.0574849,0.099962,-0.0882636,0.145624,-0.123935,-0.0825704,0.00816345,0.0271988,0.015831,0.00926971,0.0158691,0.0144196,0.0260544,0.0157928,-9.97986,0.0154114,-0.00270844,0.013504,0.0075531,0.0190735,0.00541687,0.0138855,0.00175476
23,0,-4.97111,0.00183105,0.00350952,-2.42776,0.0547655,-0.0756734,0.0547383,0.135057,-0.0882636,0.143792,-0.121799,-0.0844015,0.00923157,0.0275421,0.0198364,0.00812531,0.0161362,0.00957489,0.0203705,0.0153732,-9.97986,0.0143051,-0.00411987,0.0159454,0.00720978,0.0185394,-0.00175476,0.0171661,0.00610352
23,1,2.47884,0.000915527,0.00442505,-2.42776,0.0538499,-0.0747579,0.0532125,0.151842,-0.0891792,0.143487,-0.121494,-0.0847066,0.0123596,0.0231552,0.0167847,0.0121689,0.0178909,0.0115585,0.0181198,0.0165939,-9.97986,0.00988007,-0.00328064,0.0156784,0.00865936,0.0183868,-0.000915527,0.0144196,0.00671387
23,2,9.64803,0.000305176,0.00457764,-2.42837,0.0541551,-0.0768941,0.0526021,0.147569,-0.0913154,0.143487,-0.12241,-0.0862325,0.0131226,0.0259018,0.0165176,0.0140762,0.020752,0.0109863,0.0223923,0.0134277,-9.97986,0.0140381,-0.00350952,0.01297,0.00740051,0.0143433,-0.00434875,0.0151443,0.0069809
23,3,10.0097,0.000915527,0.00244141,-2.43111,0.0529344,-0.0781148,0.050771,0.107591,-0.0977241,0.142572,-0.125461,-0.0892843,0.0100708,0.0235748,0.018959,0.00881195,0.0183487,0.00888824,0.0197983,0.0160599,-9.97986,0.0143051,-0.0018692,0.0139999,0.00732422,0.0176239,-0.00133514,0.0185776,0.00541687
23,4,10.0097,0.0012207,0.000762939,-2.4305,0.0544603,-0.0762837,0.050771,0.0843981,-0.0965034,0.141656,-0.126072,-0.0886739,0.0100327,0.0273514,0.0169754,0.0113678,0.0171661,0.00652313,0.0237656,0.0169754,-9.97986,0.0111389,-0.00164032,0.010376,0.00637054,0.0205994,-0.00144958,0.0165558,0.00461578
23,5,10.0097,0.00244141,0.000152588,-2.42867,0.0541551,-0.0753682,0.0510762,0.075548,-0.094062,0.143792,-0.126987,-0.0862325,0.0101852,0.0292206,0.0161743,0.0110626,0.0169754,0.0112915,0.0192261,0.0146103,-9.97986,0.0136185,-0.00228882,0.0131989,0.0107574,0.0177765,-0.00686646,0.0190353,0.00583649
23,6,10.0097,0.000610352,-0.000457764,-2.42806,0.0553758,-0.075063,0.0535176,0.0737169,-0.0946723,0.143792,-0.126072,-0.0856222,0.0108719,0.028038,0.0187302,0.0124359,0.0201797,0.010643,0.019989,0.0163651,-9.97986,0.0159454,0.000839233,0.0134659,0.00652313,0.0190735,0.00301361,0.0177002,0.00850677
23,7,10.0097,0.000915527,-0.000152588,-2.42714,0.055681,-0.0753682,0.0532125,0.072191,-0.0952827,0.145318,-0.126072,-0.0840963,0.00984192,0.0270844,0.0193024,0.0134659,0.0195694,0.00701904,0.0222778,0.018158,-9.97986,0.0117874,-0.00144958,0.0158691,0.0056076,0.0186539,0.000610352,0.0175095,0.00305176
23,8,10.0097,0.0012207,0.000457764,-2.42684,0.0553758,-0.0753682,0.0535176,0.0700548,-0.0934516,0.145318,-0.125156,-0.0834859,0.0134659,0.0194931,0.0147247,0.0128555,0.0203705,0.01091,0.0212097,0.015564,-9.97986,0.0152588,-0.0030899,0.0166321,0.00850677,0.0158691,0.000762939,0.0119019,0.00389099
23,9,10.0097,0.000305176,0.000152588,-2.42562,0.0562914,-0.0738423,0.0544332,0.0706652,-0.0919257,0.145318,-0.124546,-0.0825704,0.0087738,0.0160217,0.0111389,0.00972748,0.0203705,0.0102234,0.0224686,0.0165176,-9.97986,0.0146484,-0.00556946,0.0111771,0.00896454,0.0135422,-0.00835419,0.0159454,0.00728607
24,0,10.0097,0,0.000152588,-2.42623,0.0553758,-0.0753682,0.0556539,0.072191,-0.0910102,0.146234,-0.124546,-0.0810445,0.0118637,0.0218201,0.0138092,0.0137329,0.0207901,0.015831,0.0219345,0.0162125,-9.97986,0.0149155,-0.00354767,0.0134277,0.00907898,0.018692,-0.0126266,0.0144196,0.00671387
24,1,10.0097,0.000305176,-0.000305176,-2.42592,0.055681,-0.0756734,0.0529073,0.0557115,-0.0949775,0.145624,-0.126072,-0.0822652,0.0102615,0.0211334,0.0152969,0.0132751,0.0208282,0.00907898,0.0204468,0.0159073,-9.97986,0.0139618,-0.00747681,0.013237,0.00278473,0.0197601,-0.0112534,0.0172043,0.00499725
24,2,8.15969,0.000915527,-0.00244141,-2.42745,0.0562914,-0.0744527,0.0535176,0.0215319,-0.0961982,0.146844,-0.127292,-0.0828756,0.0158691,0.0205994,0.0204849,0.0150299,0.0152588,0.0130081,0.0227737,0.0183487,-9.97986,0.0160599,-0.00221252,0.0120926,0.00682831,0.0141907,-0.0134277,0.0125504,0.00461578
24,3,-0.283308,0,-0.00411987,-2.42592,0.0559862,-0.0738423,0.0535176,-0.0147841,-0.0980293,0.145624,-0.130039,-0.0822652,0.0124741,0.0196075,0.0212097,0.0107574,0.0194931,0.0105286,0.0226212,0.014534,-9.97986,0.0137329,0.00144958,0.0167847,0.00583649,0.0169754,-0.0140762,0.0176239,0.00553131
24,4,-7.55595,0.00183105,-0.00534058,-2.42562,0.0575121,-0.0738423,0.054128,-0.0163099,-0.0961982,0.148065,-0.129429,-0.0813497,0.0144577,0.0304794,0.0250626,0.0180817,0.0239944,0.0125504,0.0292206,0.0211716,-9.97986,0.0165176,0.00793457,0.019455,0.00782013,0.0200653,-0.0136566,0.0205231,0.0123215
24,5,-9.99003,0.0012207,-0.00396729,-2.42379,0.0572069,-0.0720113,0.0571797,0.014818,-0.0916206,0.147149,-0.127903,-0.0798238,0.00415802,0.021286,0.0185013,0.00675201,0.0138855,0.00614166,0.017395,0.0139999,-9.97986,0.0133133,-0.00457764,0.00682831,0.00198364,-0.00823975,-0.0211334,0.00961304,-0.00133514
24,6,-9.99003,0.000915527,-0.000915527,-2.42531,0.0562914,-0.0735371,0.0565694,0.047777,-0.0897895,0.145318,-0.126072,-0.0807394,0.0130081,0.0262451,0.02388,0.0153351,0.0164795,0.0122833,0.0244522,0.02285,-9.97986,0.0134659,0.00106812,0.0157547,0.00766754,-0.00663757,-0.0133133,0.0159454,0.00736237
24,7,-9.99003,0,-0.000152588,-2.42653,0.0565965,-0.0744527,0.0547383,0.0615099,-0.0903999,0.146234,-0.125461,-0.0816549,0.00888824,0.0272751,0.0177383,0.0107574,0.0167465,0.0125504,0.0206757,0.0197601,-9.97986,0.0107193,-0.00102997,0.0143814,0.00514984,-0.00534058,-0.0127411,0.0139618,0.00640869
24,8,-9.99003,0.000305176,0.000152588,-2.42714,0.0547655,-0.0747579,0.0538228,0.0645616,-0.0919257,0.145624,-0.126987,-0.0831808,0.0147247,0.0269318,0.0219727,0.0155258,0.0153351,0.0137711,0.0214005,0.0189209,-9.97986,0.0127792,-0.000762939,0.0127029,0.00907898,-0.0119019,-0.0140762,0.0100327,0.00602722
24,9,-9.99003,0.000305176,0.000152588,-2.42501,0.0553758,-0.0735371,0.0574849,0.0996569,-0.0873481,0.145318,-0.12302,-0.0828756,0.0108337,0.026741,0.0188065,0.011673,0.0171661,0.0136566,0.0228882,0.0165939,-9.97986,0.0144577,-0.000839233,0.0179672,0.0038147,0.0144577,-0.0128937,0.0134277,0.00404358
25,0,-5.15147,0.00274658,0.00305176,-2.42684,0.0538499,-0.0762837,0.0547383,0.135057,-0.0879585,0.144403,-0.122104,-0.0840963,0.0110245,0.0307846,0.0215149,0.0147247,0.0158691,0.0111389,0.0215149,0.0165939,-9.97986,0.017128,-0.000839233,0.0154495,0.00473022,0.0146866,-0.00896454,0.0167084,0.00709534
25,1,2.36196,-0.000915527,0.00457764,-2.42684,0.0544603,-0.075063,0.0538228,0.151842,-0.0885688,0.142877,-0.121799,-0.0856222,0.0069046,0.0301361,0.0225067,0.0154114,0.0185013,0.0087738,0.0239944,0.0188446,-9.97986,0.0151443,-0.0031662,0.0132751,0.00686646,0.0172806,-0.0157928,0.01194,0.00816345
25,2,9.64681,0.000305176,0.00488281,-2.42928,0.0529344,-0.0762837,0.0532125,0.147875,-0.090705,0.141961,-0.122715,-0.0865377,0.0120544,0.031929,0.0230026,0.0120544,0.0150299,0.0107574,0.0271606,0.0171661,-9.97986,0.0139236,0.000991821,0.0115204,0.00865936,0.018692,-0.0144196,0.0155258,0.0069809
25,3,10.0097,0.00152588,0.00259399,-2.4302,0.0538499,-0.0768941,0.0495503,0.108202,-0.0971137,0.142267,-0.125766,-0.0880636,0.0104141,0.0248337,0.0186539,0.0104523,0.0173569,0.0164795,0.0228882,0.0151825,-9.97986,0.0166321,-0.001297,0.0162125,0.0082016,0.0156403,-0.0137711,0.0133514,0.00728607
25,4,10.0097,-0.000305176,0.00106812,-2.43111,0.0538499,-0.0759786,0.0504659,0.0847032,-0.0971137,0.142572,-0.126377,-0.0883688,0.0104141,0.0251007,0.0208282,0.00900269,0.0178909,0.00938416,0.0263596,0.0114441,-9.97986,0.017128,0.00171661,0.00953674,0.00431061,0.0188446,-0.0120926,0.0162506,0.00751495
25,5,10.0097,0.00274658,0.000152588,-2.42806,0.0535448,-0.0768941,0.0516866,0.0761583,-0.0961982,0.143182,-0.126072,-0.0862325,0.0110626,0.0283813,0.0191879,0.012207,0.0172043,0.01194,0.0253677,0.0158691,-9.97986,0.0110626,-0.00377655,0.0113678,0.0102234,0.0172424,-0.0113678,0.0177383,0.00656128
25,6,10.0097,0.000610352,-0.000610352,-2.42837,0.0538499,-0.0741475,0.0522969,0.072191,-0.0946723,0.145318,-0.126072,-0.0862325,0.00652313,0.0305939,0.0152206,0.0128937,0.0201797,0.0125885,0.0187302,0.0165939,-9.97986,0.0188828,-0.000915527,0.0141144,0.00782013,0.0180817,-0.0125504,0.0123978,0.00774384
25,7,10.0097,-0.000305176,-0.000152588,-2.42745,0.0541551,-0.0744527,0.0529073,0.0712755,-0.0937568,0.146234,-0.126377,-0.0850118,0.0133514,0.0311279,0.022583,0.0144958,0.017395,0.00976563,0.0201416,0.0157166,-9.97986,0.0157928,-0.00114441,0.0132751,0.00747681,0.018692,-0.0140381,0.0158691,0.00366211
25,8,10.0097,0.00152588,0,-2.42592,0.0550706,-0.0747579,0.0532125,0.0724962,-0.0943672,0.146234,-0.125156,-0.0847066,0.0117493,0.0198364,0.0191498,0.0123215,0.0179291,0.0125122,0.0247192,0.0181198,-9.97986,0.0172424,-0.000648499,0.0133514,0.00453949,0.0174713,-0.0113678,0.0119781,0.00476837
25,9,10.0097,-0.000305176,0.000152588,-2.42531,0.0550706,-0.0741475,0.0544332,0.0715807,-0.0925361,0.145013,-0.124546,-0.0828756,0.014534,0.0167084,0.0203705,0.0164413,0.0169754,0.0115967,0.0263977,0.0197983,-9.97986,0.0149918,-0.00347137,0.0158691,0.00747681,0.0188446,-0.0144577,0.0138855,0.00595093
26,0,10.0097,0.000915527,0.000305176,-2.4247,0.0562914,-0.0747579,0.0550435,0.0718859,-0.0934516,0.14776,-0.124546,-0.0813497,0.012207,0.0194168,0.0193024,0.0138474,0.0182724,0.00709534,0.0214386,0.0143433,-9.97986,0.0149155,-0.00320435,0.013237,0.00888824,0.0200272,-0.0101471,0.0167084,0.00751495
26,1,10.0097,-0.000915527,0.000305176,-2.42623,0.0550706,-0.0759786,0.0535176,0.0575426,-0.0949775,0.145624,-0.125766,-0.0822652,0.0124359,0.0186539,0.0207901,0.00846863,0.02285,0.0056839,0.0223923,0.0187683,-9.97986,0.0135803,-0.0050354,0.0131989,0.00583649,0.0190735,-0.00537872,0.0169373,0.00694275
26,2,8.15206,0.000610352,-0.00274658,-2.42592,0.0559862,-0.0741475,0.0529073,0.0227526,-0.0968086,0.146539,-0.126987,-0.0825704,0.0109863,0.01297,0.018959,0.0100708,0.0158691,0.0106049,0.0239944,0.0159073,-9.97986,0.00930786,-0.00267029,0.0133133,0.00865936,0.018158,0.00038147,0.0148773,0.00667572
26,3,-0.274458,0.00244141,-0.00442505,-2.42592,0.0562914,-0.073232,0.0532125,-0.0150892,-0.0977241,0.147455,-0.129734,-0.0822652,0.0113297,0.0204849,0.0210571,0.00572205,0.0178146,0.0135422,0.0212479,0.0225067,-9.97986,0.0182724,-0.0062561,0.0154877,0.0037384,0.0161743,0.0088501,0.0128555,0.00667572
26,4,-7.51872,0,-0.00427246,-2.42409,0.0575121,-0.0729268,0.0532125,-0.0172255,-0.0968086,0.146234,-0.130954,-0.0813497,0.0148773,0.0225067,0.0261307,0.0114441,0.0155258,0.0138092,0.0177765,0.0147629,-9.97986,0.0169373,0.00171661,0.0167084,0.0094223,0.0175858,0.0124741,0.014534,0.00640869
26,5,-9.99003,0.000610352,-0.00335693,-2.4244,0.0565965,-0.0738423,0.0571797,0.0151232,-0.0903999,0.14776,-0.127292,-0.080129,0.00923157,0.0246048,0.0190735,0.0136948,0.0102234,0.00938416,0.0207138,0.0156021,-9.97986,0.0165558,0.000343323,0.0154114,0.00453949,-0.00682831,0.00915527,0.017395,0.00492096
26,6,-9.99003,0,-0.00106812,-2.4247,0.0562914,-0.073232,0.0556539,0.0471666,-0.0897895,0.145013,-0.126377,-0.0813497,0.01194,0.0234985,0.0230026,0.0138092,0.0167465,0.0118256,0.0248718,0.0178528,-9.97986,0.015564,-0.000457764,0.0151825,0.00617981,-0.00720978,0.00621796,0.0173187,0.00377655
26,7,-9.99003,0.0012207,0.000305176,-2.42501,0.0547655,-0.0747579,0.0553487,0.059984,-0.0910102,0.145929,-0.125766,-0.0810445,0.00984192,0.017395,0.019722,0.0127029,0.0144958,0.012207,0.0252151,0.016861,-9.97986,0.0173569,0.00312805,0.0127029,0.00686646,-0.00881195,-0.00114441,0.0186157,0.00774384
26,8,-9.99003,0.00244141,-0.000152588,-2.42714,0.0562914,-0.0756734,0.054128,0.0642565,-0.0925361,0.145929,-0.126377,-0.0825704,0.0133514,0.0237274,0.0178146,0.0136185,0.0164795,0.0102615,0.022583,0.0165558,-9.97986,0.0209045,0.000839233,0.0140762,0.00587463,-0.00709534,-0.00312805,0.0151062,0.00534058
26,9,-9.99003,0.000915527,0.000152588,-2.42531,0.055681,-0.0747579,0.0565694,0.101488,-0.0864326,0.145624,-0.122715,-0.0825704,0.00946045,0.0204849,0.0136948,0.0112534,0.0160599,0.0118637,0.0216675,0.0192261,-9.97986,0.0126648,-0.00518799,0.0113297,0.00476837,0.0147247,-0.000953674,0.0134659,0.00514984
27,0,-4.97447,0.000305176,0.00289917,-2.42776,0.0538499,-0.075063,0.054128,0.134752,-0.0894843,0.145624,-0.122715,-0.0837911,0.00778198,0.028038,0.0102615,0.0127792,0.0177002,0.00812531,0.0246429,0.0152969,-9.97986,0.0172806,-0.00705719,0.0152206,0.00751495,0.0169373,3.8147e-005,0.0166702,0.00587463
27,1,2.45229,0.00305176,0.00473022,-2.42745,0.0544603,-0.0756734,0.0556539,0.151232,-0.0891792,0.143792,-0.121799,-0.0840963,0.00705719,0.0240707,0.0101089,0.0088501,0.0191498,0.0112915,0.0221634,0.0196457,-9.97986,0.0163269,-0.000534058,0.0139999,0.00782013,0.0193405,-0.00423431,0.0161362,0.00865936
27,2,9.67122,0.000610352,0.00442505,-2.42898,0.0526292,-0.0753682,0.0532125,0.147875,-0.0913154,0.144098,-0.121799,-0.0862325,0.0130463,0.0253677,0.0128555,0.00999451,0.0172806,0.0111008,0.0238419,0.0175476,-9.97986,0.0166702,3.8147e-005,0.0121307,0.00427246,0.0174713,-0.00583649,0.0128174,0.00450134
27,3,10.0097,-0.0012207,0.00228882,-2.43142,0.0529344,-0.0768941,0.0492452,0.107897,-0.0974189,0.142877,-0.126072,-0.0892843,0.0088501,0.0276947,0.0163651,0.0115967,0.0175095,0.0118256,0.0252533,0.018692,-9.97986,0.0172424,0.00274658,0.0123215,0.0056839,0.0180054,-0.00804901,0.0122452,0.00705719
27,4,10.0097,0.000305176,0.000610352,-2.4305,0.0541551,-0.0759786,0.0504659,0.0853136,-0.0968086,0.142877,-0.126987,-0.0880636,0.0113297,0.02491,0.0189972,0.0131607,0.0121689,0.00808716,0.0214386,0.0183105,-9.97986,0.0167465,0.00427246,0.0125504,0.00358582,0.0164413,-0.0123215,0.0140762,0.0069046
27,5,10.0097,-0.000915527,0.000152588,-2.42837,0.0553758,-0.075063,0.0513814,0.075548,-0.0955879,0.143792,-0.127292,-0.0868429,0.0122833,0.0283813,0.0196457,0.0109482,0.0192261,0.00854492,0.0255203,0.0191498,-9.97986,0.0164795,0.00595093,0.0114059,0.00419617,0.0149918,-0.0186539,0.0135803,0.00522614
27,6,10.0097,0.000610352,0.000762939,-2.42776,0.0541551,-0.0753682,0.0526021,0.0737169,-0.0946723,0.144708,-0.126072,-0.085317,0.0135422,0.0244904,0.0189972,0.00900269,0.0185013,0.00968933,0.0247192,0.0174713,-9.97986,0.0144196,0.00087738,0.0145721,0.00709534,0.0180054,-0.0189209,0.0164032,0.00534058
27,7,10.0097,-0.000610352,0.000457764,-2.42928,0.0550706,-0.0756734,0.0529073,0.0718859,-0.0937568,0.144708,-0.126072,-0.0837911,0.0131989,0.0297928,0.0157166,0.00976563,0.0139618,0.0107574,0.0224686,0.0167847,-9.97986,0.0184631,0.00164032,0.0130463,0.0056839,0.0173187,-0.0172424,0.0160599,0.00770569
27,8,10.0097,-0.000305176,-0.000305176,-2.42714,0.0550706,-0.0747579,0.0532125,0.0715807,-0.0937568,0.145624,-0.126987,-0.0834859,0.00881195,0.029335,0.0222015,0.0142288,0.0169754,0.0104141,0.0194168,0.0154114,-9.97986,0.0164795,-0.00331879,0.015831,0.00659943,0.0197983,-0.0131226,0.0169373,0.0056076
27,9,10.0097,-0.0012207,0,-2.4244,0.0550706,-0.0756734,0.054128,0.0724962,-0.0913154,0.147149,-0.124241,-0.0828756,0.00980377,0.0234604,0.0164032,0.0141144,0.0130463,0.0106049,0.0232697,0.0148392,-9.97986,0.0144958,0.00175476,0.0180817,0.00480652,0.0176239,-0.000267029,0.0187302,0.00862122
28,0,10.0097,0.000915527,0.000152588,-2.4244,0.0562914,-0.073232,0.0544332,0.072191,-0.0925361,0.147149,-0.124851,-0.0822652,0.0127029,0.0295258,0.0194168,0.00873566,0.0196838,0.0131607,0.0224304,0.0165939,-9.97986,0.0145721,0.00526428,0.0139236,0.00980377,0.0169373,0.00766754,0.0181961,0.0056076
28,1,10.0097,-0.000305176,-0.000152588,-2.42592,0.0547655,-0.0753682,0.0522969,0.0541857,-0.095893,0.145013,-0.126072,-0.0825704,0.0101471,0.0280762,0.0165558,0.0110626,0.0168228,0.00934601,0.020752,0.0168991,-9.97986,0.0147247,0.00423431,0.0160599,0.00751495,0.0203705,0.0150299,0.0173569,0.00728607
28,2,7.86061,0.000610352,-0.00244141,-2.42501,0.0565965,-0.0738423,0.0538228,0.0221422,-0.0955879,0.146234,-0.126987,-0.0831808,0.00770569,0.0346375,0.0199509,0.00968933,0.0162888,0.01194,0.0206757,0.0187302,-9.97986,0.0159073,0.00514984,0.0146866,0.00720978,0.0167465,0.0151443,0.0155258,0.00495911
28,3,-0.604047,0.000610352,-0.00427246,-2.42592,0.0569017,-0.0735371,0.0535176,-0.0126478,-0.0986396,0.146844,-0.130039,-0.0816549,0.011673,0.0314713,0.0209045,0.0103378,0.0168991,0.0127792,0.0212097,0.0147629,-9.97986,0.0140381,0.00411987,0.0153351,0.0112534,0.0177765,0.0156021,0.0163269,0.00637054
28,4,-7.80314,0.00213623,-0.0050354,-2.42562,0.055681,-0.0738423,0.0538228,-0.0172255,-0.0955879,0.146234,-0.130039,-0.0813497,0.00999451,0.0252533,0.0166321,0.0112534,0.0206375,0.00850677,0.0223541,0.0167084,-9.97986,0.00926971,-0.0043869,0.0136566,0.00782013,0.0147247,0.0141144,0.0174332,0.00747681
28,5,-9.99003,-0.00183105,-0.00396729,-2.4247,0.0587328,-0.0729268,0.0562642,0.0172594,-0.0903999,0.146844,-0.126987,-0.080129,0.0104523,0.0236893,0.0200272,0.00854492,0.0138855,0.00679016,0.021553,0.0178528,-9.97986,0.0144196,-0.00133514,0.00926971,0.00717163,-0.00797272,0.0075531,0.0176239,0.00244141
28,6,-9.99003,0.000610352,-0.0012207,-2.4247,0.0562914,-0.0735371,0.0568746,0.049608,-0.0900947,0.145624,-0.126377,-0.0813497,0.0131989,0.00816345,0.018158,0.00843048,0.0182724,0.0118256,0.0247574,0.0214005,-9.97986,0.0159454,0.00305176,0.0175858,0.00858307,-0.0056839,0.00484467,0.0180817,0.00652313
28,7,-9.99003,-0.00152588,0,-2.42409,0.0547655,-0.0744527,0.0562642,0.0593737,-0.0925361,0.145013,-0.126072,-0.0819601,0.0124359,0.00984192,0.0207138,0.0087738,0.0154495,0.0105286,0.0191879,0.0224304,-9.97986,0.0100708,-0.00244141,0.0188446,0.00770569,-0.0087738,0.0056076,0.0185394,0.00736237
28,8,-9.99003,0.000305176,-0.000152588,-2.42592,0.0559862,-0.0753682,0.0532125,0.065172,-0.0925361,0.145318,-0.126987,-0.0831808,0.00770569,0.0131607,0.0214767,0.00900269,0.0165558,0.0088501,0.0188065,0.0196075,-9.97986,0.0114059,-0.000305176,0.0102615,0.00606537,-0.00915527,0.0018692,0.0108719,0.00778198
28,9,-9.99003,0.000305176,0.000457764,-2.42501,0.0559862,-0.0735371,0.0562642,0.0993517,-0.0870429,0.145624,-0.12302,-0.0834859,0.0122452,0.016861,0.0197983,0.0126648,0.0161362,0.0155258,0.022316,0.0222778,-9.97986,0.010643,-0.00366211,0.0133896,0.00507355,0.0171661,0.00297546,0.0170898,0.00709534
29,0,-5.28758,0,0.00305176,-2.42714,0.0529344,-0.0759786,0.054128,0.133531,-0.0885688,0.143487,-0.12302,-0.0840963,0.0119781,0.0228882,0.0218964,0.00686646,0.0165558,0.00923157,0.0201035,0.0191879,-9.97986,0.0132751,-0.00164032,0.0140381,0.00759125,0.0164795,-0.0038147,0.0171661,0.00396729
29,1,2.20387,0.000915527,0.00427246,-2.42776,0.0535448,-0.0747579,0.0556539,0.150926,-0.0882636,0.144098,-0.121189,-0.0844015,0.00991821,0.0229263,0.0230408,0.0147629,0.0191116,0.0139618,0.0242233,0.0220108,-9.97986,0.017128,-0.00350952,0.0157166,0.00831604,0.0179672,-0.00141144,0.0180817,0.00759125
29,2,9.44692,-0.000305176,0.00473022,-2.42898,0.0535448,-0.0768941,0.0513814,0.147875,-0.0916206,0.141961,-0.12241,-0.0862325,0.00988007,0.0242996,0.0186157,0.0127792,0.0139236,0.00854492,0.0165939,0.0253677,-9.97986,0.0111389,-0.00511169,0.0115967,0.0056076,0.0162888,-0.001297,0.0160599,0.00396729
29,3,10.0097,0,0.00228882,-2.42989,0.0538499,-0.0768941,0.0495503,0.110338,-0.0971137,0.142267,-0.125156,-0.0892843,0.0109863,0.0208282,0.0212097,0.0105667,0.0134659,0.0094223,0.0208282,0.0229645,-9.97986,0.0125122,-0.00366211,0.0139618,0.0105286,0.0169373,-0.00164032,0.0207138,0.00720978
29,4,10.0097,0.0012207,0.00106812,-2.4302,0.0538499,-0.0768941,0.0495503,0.0843981,-0.0983344,0.142877,-0.126682,-0.0877584,0.00839233,0.0248337,0.0192642,0.0104904,0.0166702,0.00938416,0.0198364,0.0194931,-9.97986,0.0104523,-0.000457764,0.0159836,0.00576019,0.014801,-0.000610352,0.016861,0.00881195
29,5,10.0097,0.000610352,0,-2.42928,0.0547655,-0.075063,0.0510762,0.0770738,-0.0952827,0.142572,-0.127292,-0.0877584,0.00919342,0.0245667,0.0182343,0.0150299,0.0123596,0.0100708,0.0196075,0.0113297,-9.97986,0.0161743,-0.000648499,0.0147247,0.0101089,0.0170517,0.00160217,0.0133133,0.00679016
29,6,10.0097,-0.000915527,0,-2.42837,0.0553758,-0.0744527,0.0522969,0.0737169,-0.0952827,0.144403,-0.126072,-0.0856222,0.00705719,0.0214767,0.022049,0.0118256,0.0157928,0.00938416,0.0231552,0.0108337,-9.97986,0.00995636,-0.00282288,0.0134659,0.00762939,0.017395,0.00553131,0.0168991,0.00717163
29,7,10.0097,0,0.000610352,-2.42837,0.0550706,-0.0744527,0.0526021,0.072191,-0.0931465,0.144098,-0.125766,-0.0847066,0.0122833,0.0214386,0.0233841,0.0111008,0.0163651,0.00671387,0.0215912,0.0160599,-9.97986,0.0128174,-0.00137329,0.0115204,0.00732422,0.0176239,0.00244141,0.014534,0.00801086
29,8,10.0097,0.000610352,0.000457764,-2.42562,0.0547655,-0.0735371,0.0547383,0.0712755,-0.0934516,0.144708,-0.125766,-0.0844015,0.00831604,0.0150299,0.0147247,0.00499725,0.0131989,0.00965118,0.0231171,0.0166702,-9.97986,0.0110626,-0.0050354,0.0105667,0.00686646,0.0179291,-0.0069046,0.0146484,0.00553131
29,9,10.0097,0.00244141,-0.000152588,-2.42562,0.0572069,-0.075063,0.0550435,0.0718859,-0.0925361,0.146539,-0.125156,-0.0822652,0.014267,0.0182343,0.0176239,0.0117493,0.0140381,0.00850677,0.0188828,0.0156021,-9.97986,0.0175095,-0.0030899,0.0133514,0.00473022,0.014801,-0.00545502,0.0170898,0.00747681
30,0,10.0097,-0.000915527,0,-2.42653,0.0565965,-0.0744527,0.054128,0.0718859,-0.0922309,0.145318,-0.12363,-0.0822652,0.010376,0.0208282,0.0178528,0.00946045,0.0139999,0.0105667,0.0201035,0.0177002,-9.97986,0.0174713,-0.00358582,0.0193405,0.00396729,0.0134277,-0.00759125,0.0149536,0.00530243
30,1,10.0097,0.000305176,-0.000305176,-2.42592,0.055681,-0.0744527,0.0532125,0.0557115,-0.0943672,0.146234,-0.125461,-0.0837911,0.00995636,0.0220871,0.0218964,0.0111771,0.0134277,0.014801,0.0208664,0.0191879,-9.97986,0.010376,0.00038147,0.0148773,0.00679016,0.0174713,-0.00217438,0.0195694,0.00328064
30,2,7.97353,-0.000305176,-0.00274658,-2.42714,0.0569017,-0.0741475,0.0535176,0.0233629,-0.0968086,0.146234,-0.128208,-0.0822652,0.0100327,0.0204468,0.0203323,0.00637054,0.019455,0.0101089,0.0205612,0.0185394,-9.97986,0.0162506,-0.00457764,0.0156403,0.00934601,0.0136948,-0.00141144,0.0159454,0.00823975
30,3,-0.481977,0.000915527,-0.00473022,-2.42592,0.0572069,-0.0738423,0.0532125,-0.0126478,-0.0980293,0.147149,-0.128818,-0.0819601,0.00984192,0.022583,0.0214386,0.0113297,0.0209427,0.00957489,0.0215149,0.0181961,-9.97986,0.0117493,-0.00255585,0.0169754,0.0056839,0.0157166,-0.000572205,0.0194168,0.0056076
30,4,-7.68901,-0.000610352,-0.00457764,-2.42592,0.0562914,-0.0735371,0.054128,-0.0178358,-0.0955879,0.146234,-0.130954,-0.0816549,0.00724792,0.0226593,0.0177002,0.00923157,0.0150299,0.0125122,0.0189972,0.0162506,-9.97986,0.0108337,-0.0069809,0.0127411,0.00267029,0.0144958,0.00179291,0.0130844,0.00576019
30,5,-9.99003,0,-0.0038147,-2.42379,0.0569017,-0.073232,0.0568746,0.0157335,-0.0913154,0.145318,-0.127903,-0.0795187,0.0116348,0.0198746,0.0177002,0.0105286,0.0184631,0.00831604,0.0208282,0.0168991,-9.97986,0.0170517,-0.00270844,0.0146484,0.00961304,-0.010376,0.000686646,0.0159836,0.00644684
30,6,-9.99003,0.00183105,-0.00106812,-2.4244,0.0559862,-0.0744527,0.0556539,0.0462511,-0.0894843,0.146539,-0.127292,-0.0804342,0.00743866,0.0222015,0.0171661,0.00968933,0.0161362,0.00911713,0.0204849,0.0104141,-9.97986,0.0156021,-0.00576019,0.0148773,0.01194,-0.00934601,0.000228882,0.0156403,0.00892639
30,7,-9.99003,0.000305176,-0.000915527,-2.42592,0.055681,-0.0738423,0.0550435,0.0605944,-0.090705,0.146539,-0.125461,-0.0819601,0.00823975,0.0247574,0.0162506,0.0149536,0.0151443,0.0137711,0.0181961,0.0169754,-9.97986,0.018158,-0.00152588,0.0104904,0.00732422,-0.010643,-0.00255585,0.0189972,0.00453949
30,8,-9.99003,-0.000915527,0,-2.42806,0.0553758,-0.0753682,0.0535176,0.065172,-0.0922309,0.146234,-0.126072,-0.0825704,0.00911713,0.0229263,0.0250626,0.0114441,0.0165939,0.00957489,0.0201797,0.0154114,-9.97986,0.0199127,-0.00488281,0.0147629,0.00648499,-0.00656128,-0.00492096,0.0201035,0.00495911
30,9,-9.99003,0.000915527,0.000610352,-2.42562,0.0544603,-0.0747579,0.0565694,0.100267,-0.0873481,0.145013,-0.12363,-0.0819601,0.0107193,0.0246048,0.0185776,0.0106812,0.0186539,0.0110245,0.0146866,0.0127792,-9.97986,0.0152206,-0.00400543,0.0149918,0.00762939,0.010643,-0.00541687,0.0170135,0.00366211
31,0,-5.2653,0.000915527,0.00350952,-2.42684,0.0550706,-0.0759786,0.0544332,0.133837,-0.0870429,0.144403,-0.122715,-0.0844015,0.00823975,0.0246811,0.0173569,0.00919342,0.0161362,0.0104904,0.0219727,0.0183487,-9.97986,0.016861,7.62939e-005,0.0124359,0.00709534,0.0152588,-0.0117111,0.0111389,0.00759125
31,1,2.26216,0,0.00427246,-2.42714,0.0544603,-0.0756734,0.0547383,0.150011,-0.0897895,0.145013,-0.121494,-0.0850118,0.00247955,0.0259018,0.017395,0.0120926,0.0169373,0.0123596,0.0209427,0.0152969,-9.97986,0.0179291,-0.00106812,0.0144958,0.00614166,0.0156403,-0.0204086,0.0159073,0.00854492
31,2,9.5049,0.000610352,0.00488281,-2.42837,0.0538499,-0.0756734,0.0526021,0.147569,-0.090705,0.143792,-0.121799,-0.0862325,0.0103378,0.0260925,0.0174332,0.0139618,0.0157166,0.00926971,0.0222015,0.0139618,-9.97986,0.013237,-0.00144958,0.0161362,0.00732422,0.0164795,-0.0170898,0.0165939,0.00331879
31,3,10.0097,0.000610352,0.00213623,-2.4305,0.0532396,-0.0765889,0.0492452,0.109422,-0.0974189,0.142267,-0.125156,-0.0895895,0.0101852,0.0228882,0.0249863,0.0114822,0.0164413,0.0121307,0.0203323,0.0170898,-9.97986,0.015831,-0.00179291,0.017662,0.0107193,0.0176239,-0.0101471,0.0185013,0.00442505
31,4,10.0097,0.000305176,-0.000152588,-2.43081,0.0547655,-0.0762837,0.0522969,0.0862291,-0.0971137,0.143487,-0.127292,-0.0877584,0.0115967,0.028801,0.0183868,0.0102234,0.0179291,0.0109863,0.0174332,0.0185013,-9.97986,0.013504,0.00164032,0.0141144,0.0114822,0.0148773,-0.000495911,0.0170898,0.00450134
31,5,10.0097,0.000305176,0,-2.42867,0.0544603,-0.0759786,0.050771,0.0770738,-0.0974189,0.143182,-0.127292,-0.0874532,0.00915527,0.0208282,0.0183487,0.0135803,0.0188446,0.0088501,0.0208282,0.0198364,-9.97986,0.010643,0.000648499,0.0149918,0.00770569,0.016098,0.00259399,0.0179291,0.00312805
31,6,10.0097,-0.000305176,0.000457764,-2.42928,0.0535448,-0.0735371,0.0538228,0.0737169,-0.0943672,0.144708,-0.126072,-0.085317,0.00869751,0.0254822,0.0157547,0.00804901,0.0206757,0.0110626,0.021019,0.0211334,-9.97986,0.015564,0.00110626,0.0149536,0.00659943,0.0107956,0.00480652,0.0168228,0.00461578
31,7,10.0097,0.000610352,0,-2.42776,0.0547655,-0.075063,0.0529073,0.0718859,-0.0934516,0.144708,-0.126682,-0.0847066,0.0125504,0.0276566,0.0173187,0.0125122,0.0182724,0.0107193,0.0232315,0.0164032,-9.97986,0.0196457,-0.00392914,0.0149536,0.00854492,0.0125504,0.0116348,0.0189972,0.00408173
31,8,10.0097,-0.000305176,-0.000610352,-2.42623,0.0550706,-0.0747579,0.0529073,0.0712755,-0.0931465,0.145318,-0.124851,-0.0840963,0.0107193,0.0238037,0.0175476,0.0114822,0.0161743,0.0144958,0.0218582,0.016098,-9.97986,0.0149155,0.00259399,0.0180817,0.00682831,0.0170898,0.00736237,0.0174332,0.00675201
31,9,10.0097,-0.000305176,0,-2.42623,0.0550706,-0.0744527,0.0538228,0.0709703,-0.0934516,0.146539,-0.124851,-0.0828756,0.0136948,0.0265503,0.0219727,0.0144577,0.0154114,0.00995636,0.025444,0.0144958,-9.97986,0.0168228,0.000228882,0.0162888,0.0109863,0.0173187,0.00431061,0.0191116,0.00766754
32,0,10.0097,0.000305176,0.000762939,-2.42562,0.0559862,-0.073232,0.0556539,0.0712755,-0.0919257,0.145929,-0.124241,-0.080129,0.0126266,0.0277328,0.0205994,0.0123215,0.018158,0.0146866,0.0226974,0.0162506,-9.97986,0.0160599,0.00175476,0.0148392,0.00862122,0.0143814,-0.000495911,0.0153351,0.0069809
32,1,10.0097,-0.000915527,0.000305176,-2.42776,0.0569017,-0.0723164,0.0538228,0.0541857,-0.0949775,0.145624,-0.125766,-0.0822652,0.0130463,0.026741,0.0209427,0.0130844,0.017395,0.0127792,0.0212479,0.0143814,-9.97986,0.0131989,-0.000534058,0.0172043,0.00766754,0.0139236,0.00370026,0.0141907,0.0056076
32,2,7.83315,0.00244141,-0.00305176,-2.42714,0.0559862,-0.075063,0.0532125,0.0224474,-0.0971137,0.14776,-0.128208,-0.0828756,0.0133514,0.0265884,0.0197983,0.01091,0.0159073,0.0148773,0.0217438,0.0160599,-9.97986,0.0146103,0.00152588,0.015831,0.00774384,0.0113297,0.00110626,0.0143433,0.00492096
32,3,-0.645857,0.000610352,-0.00473022,-2.42409,0.0565965,-0.0735371,0.0538228,-0.012953,-0.0974189,0.147149,-0.128513,-0.0822652,0.0119019,0.0259018,0.0207901,0.0126266,0.0140381,0.0104141,0.0206375,0.0192261,-9.97986,0.0173187,0.000343323,0.0147247,0.00278473,0.0164032,-0.000305176,0.014267,0.0044632
32,4,-7.78422,0.00183105,-0.00473022,-2.42501,0.055681,-0.0747579,0.0538228,-0.0175306,-0.0971137,0.146539,-0.130344,-0.0819601,0.0110626,0.0258255,0.0193024,0.0127029,0.0161743,0.0136566,0.0239944,0.0186539,-9.97986,0.0153732,0.00610352,0.0167847,0.00617981,0.0136948,0.000190735,0.0160217,0.00415802
32,5,-9.99003,0.000915527,-0.00320435,-2.42379,0.0569017,-0.0735371,0.0556539,0.0160387,-0.0897895,0.147149,-0.127292,-0.0798238,0.00995636,0.0255585,0.020256,0.0122833,0.0206757,0.0127792,0.0242996,0.0159836,-9.97986,0.0150299,-0.00137329,0.0146103,0.00637054,-0.00946045,-0.00389099,0.0180435,0.00331879
32,6,-9.99003,0.000915527,-0.0012207,-2.4247,0.0562914,-0.0738423,0.055959,0.0486925,-0.0910102,0.144403,-0.126682,-0.0810445,0.00930786,0.0257874,0.0185776,0.0111008,0.0167084,0.00984192,0.0229263,0.0205612,-9.97986,0.0123596,0.00118256,0.0142288,0.00759125,-0.0131226,-0.000228882,0.0142288,0.00267029
32,7,-9.99003,0.000610352,0,-2.42531,0.0553758,-0.0747579,0.0547383,0.0615099,-0.090705,0.145624,-0.126072,-0.0822652,0.0110626,0.0265884,0.0182343,0.0101471,0.0161362,0.0110626,0.0178146,0.0196075,-9.97986,0.00999451,0.00370026,0.0138092,0.0056839,-0.00839233,-0.00331879,0.0173187,0.00827789
32,8,-9.99003,0.000305176,0.000152588,-2.42653,0.0550706,-0.0753682,0.0547383,0.0642565,-0.0916206,0.144098,-0.125156,-0.0828756,0.011673,0.0344467,0.0127411,0.0134659,0.0164032,0.00846863,0.0205612,0.0190735,-9.97986,0.0142288,0.00217438,0.0133514,0.00667572,-0.00839233,0.00350952,0.0163651,0.00648499
32,9,-9.99003,0.00183105,0.000152588,-2.4244,0.0547655,-0.0735371,0.0565694,0.100572,-0.0870429,0.145929,-0.122715,-0.0825704,0.013504,0.0279617,0.021553,0.0143433,0.0168991,0.0131989,0.0247955,0.0199509,-9.97986,0.015564,-0.00377655,0.0144958,0.00541687,0.0151825,0.000419617,0.0150299,0.00270844
33,0,-5.35136,0.000610352,0.00289917,-2.42623,0.0538499,-0.0753682,0.0562642,0.134752,-0.0891792,0.145318,-0.122104,-0.0840963,0.00938416,0.0285721,0.0206375,0.0115585,0.011673,0.0094986,0.0211334,0.0169373,-9.97986,0.0168228,-0.00434875,0.0110626,0.0088501,0.0149536,-0.000686646,0.0180817,0.0037384
33,1,2.16329,0.0012207,0.00366211,-2.42745,0.0541551,-0.075063,0.0535176,0.150011,-0.0894843,0.144098,-0.121799,-0.0859274,0.01091,0.0250244,0.018692,0.0161362,0.0120926,0.0136948,0.0200653,0.0195694,-9.97986,0.0161362,-0.00682831,0.0140762,0.00816345,0.0169754,-0.00389099,0.0154877,0.00801086
33,2,9.41579,-0.000610352,0.00427246,-2.42898,0.0535448,-0.0753682,0.0522969,0.147569,-0.0910102,0.142572,-0.121189,-0.0856222,0.0104904,0.0246429,0.0181961,0.00972748,0.0137329,0.0116348,0.0197983,0.0212097,-9.97986,0.0174713,-0.0056076,0.0112152,0.00606537,0.0185394,-0.00682831,0.0181198,0.00774384
33,3,10.0097,0.0012207,0.00274658,-2.43111,0.0535448,-0.0765889,0.0513814,0.108812,-0.0968086,0.141961,-0.125156,-0.0889791,0.0109863,0.0214767,0.0192261,0.0152206,0.0146103,0.00965118,0.0234985,0.0203323,-9.97986,0.0114059,-0.00137329,0.0141144,0.00480652,0.0131989,-0.00728607,0.0190353,0.00637054
33,4,10.0097,-0.000305176,0.000305176,-2.42989,0.0535448,-0.0762837,0.0504659,0.0853136,-0.0986396,0.142877,-0.126377,-0.0889791,0.0126648,0.02388,0.0209427,0.0135422,0.0191879,0.0128555,0.0218582,0.0193405,-9.97986,0.0131226,-0.00408173,0.0174332,0.00453949,0.0121307,-0.0062561,0.0193787,0.00556946
33,5,10.0097,0.0012207,0.000457764,-2.42959,0.0550706,-0.0759786,0.0513814,0.077379,-0.0949775,0.142572,-0.127292,-0.0859274,0.0114059,0.0214767,0.0211334,0.0102997,0.0210571,0.00831604,0.0210571,0.0159454,-9.97986,0.0152206,-0.00198364,0.0151825,0.00965118,0.0152969,-0.0069046,0.0170517,0.00572205
33,6,10.0097,0.000610352,-0.000610352,-2.42806,0.0544603,-0.0753682,0.0522969,0.0728014,-0.0943672,0.144708,-0.126682,-0.0850118,0.00999451,0.022049,0.018692,0.0120163,0.0109482,0.0100708,0.0218201,0.0174332,-9.97986,0.0133133,-0.00209808,0.0154877,0.00102997,0.0191116,-0.00782013,0.0129318,0.00694275
33,7,10.0097,0.000610352,-0.000457764,-2.42745,0.0553758,-0.0756734,0.0522969,0.0718859,-0.0943672,0.144708,-0.125766,-0.0837911,0.0138092,0.0191879,0.0208282,0.0124359,0.0139618,0.013237,0.0234222,0.0211716,-9.97986,0.0134277,3.8147e-005,0.0123978,0.00350952,0.0165176,-0.00988007,0.0203705,0.00549316
33,8,10.0097,0.0012207,-0.000457764,-2.42562,0.055681,-0.0747579,0.0535176,0.0700548,-0.0937568,0.145624,-0.125461,-0.0844015,0.0104523,0.0144196,0.0186157,0.0125122,0.0209808,0.0110245,0.0191879,0.0167465,-9.97986,0.0182343,-0.00114441,0.016098,0,0.0191116,-0.00617981,0.0168991,0.00873566
33,9,10.0097,0.00152588,-0.000152588,-2.42562,0.0559862,-0.0744527,0.0547383,0.0715807,-0.0922309,0.145929,-0.125156,-0.0828756,0.0102234,0.0162888,0.0196457,0.00911713,0.0167465,0.00888824,0.0198364,0.0203705,-9.97986,0.0129318,-0.00205994,0.0123978,0.00278473,0.018158,-0.00232697,0.0157166,0.00743866
34,0,10.0097,0.000915527,0.000457764,-2.42562,0.0569017,-0.0753682,0.0550435,0.072191,-0.0916206,0.147149,-0.124546,-0.0813497,0.0069809,0.0225449,0.0213623,0.0120926,0.019455,0.0133896,0.0259018,0.0159836,-9.97986,0.0102234,-0.00347137,0.0111008,0.00167847,0.0141525,0.00488281,0.0151825,0.00797272
34,1,10.0097,-0.000915527,-0.000152588,-2.42684,0.0550706,-0.075063,0.0529073,0.0535753,-0.0952827,0.146234,-0.125156,-0.0816549,0.00785828,0.0276566,0.0193024,0.0149155,0.020752,0.0103378,0.0186539,0.0175858,-9.97986,0.0168991,-0.00564575,0.0134659,0.00457764,0.0201416,0.00221252,0.0165558,0.00782013
34,2,7.83193,0.0012207,-0.00259399,-2.42592,0.0559862,-0.0741475,0.0522969,0.0224474,-0.0961982,0.147149,-0.127598,-0.0822652,0.0102997,0.0281525,0.0187302,0.0128174,0.020256,0.00793457,0.0150299,0.0143433,-9.97986,0.0136566,-0.00343323,0.0120926,0.00110626,0.013504,0.000114441,0.0138092,0.00419617
34,3,-0.660505,0.0012207,-0.00427246,-2.4244,0.0578172,-0.0735371,0.0532125,-0.0126478,-0.0971137,0.146539,-0.129429,-0.0822652,0.0109863,0.0354767,0.0149918,0.01194,0.0183868,0.0113678,0.0246811,0.0205994,-9.97986,0.0119781,0.00202179,0.00911713,0.000267029,0.0183105,-0.00175476,0.017662,0.0121307
34,4,-7.82451,0.000915527,-0.00518799,-2.42562,0.0565965,-0.0744527,0.0535176,-0.0175306,-0.0955879,0.146539,-0.130039,-0.0819601,0.0117493,0.0279999,0.0187683,0.0109482,0.0209045,0.00957489,0.0210571,0.0171661,-9.97986,0.0155258,-0.00255585,0.0164032,0.0019455,0.0158691,-0.00392914,0.0141907,0.00648499
34,5,-9.99003,0.00152588,-0.00335693,-2.42348,0.0565965,-0.0738423,0.0574849,0.0160387,-0.0913154,0.146234,-0.128818,-0.0807394,0.0152969,0.0320435,0.0215912,0.013504,0.0187683,0.00907898,0.0188065,0.0166702,-9.97986,0.0168991,-0.00331879,0.0120926,0.00530243,-0.0088501,-0.00751495,0.0174713,0.00541687
34,6,-9.99003,-0.000610352,-0.00106812,-2.42562,0.0553758,-0.0738423,0.0565694,0.0480822,-0.088874,0.147149,-0.126682,-0.0810445,0.0104523,0.0278473,0.0216293,0.00888824,0.0141907,0.0117111,0.0225449,0.0185013,-9.97986,0.0174332,-0.00881195,0.0127792,0.00404358,-0.012207,-0.00450134,0.0140762,0.00518799
34,7,-9.99003,0.000915527,-0.000152588,-2.42592,0.055681,-0.075063,0.0544332,0.0602892,-0.090705,0.144708,-0.126682,-0.0825704,0.00938416,0.0239944,0.026474,0.0140381,0.0193787,0.0102615,0.0204468,0.0174713,-9.97986,0.0128555,-0.00511169,0.00988007,0.00785828,-0.0121689,-0.00183105,0.0185776,0.00473022
34,8,-9.99003,0.000610352,0.000457764,-2.42745,0.0550706,-0.075063,0.0544332,0.0648668,-0.0919257,0.144098,-0.125766,-0.0828756,0.0108337,0.0222015,0.0169373,0.0154877,0.0161362,0.00453949,0.0248337,0.0218201,-9.97986,0.0167847,0.00114441,0.0170135,0.00495911,-0.00747681,-0.0062561,0.0144196,0.0069809
34,9,-9.99003,0.000610352,0.000152588,-2.42409,0.055681,-0.0744527,0.0577901,0.101793,-0.0864326,0.145624,-0.12302,-0.0819601,0.0102997,0.0211334,0.00720978,0.0133514,0.0221634,0.0088501,0.0244904,0.0226974,-9.97986,0.017662,-0.000190735,0.0109482,0.0056076,0.016098,-0.00289917,0.0120163,0.00808716
35,0,-5.17894,0.000305176,0.00305176,-2.42745,0.0538499,-0.0759786,0.0550435,0.134752,-0.0882636,0.144708,-0.121799,-0.0840963,0.0120926,0.0176239,0.01194,0.0157547,0.0136185,0.00961304,0.0213242,0.0190735,-9.97986,0.0168228,-0.00228882,0.0137329,0.00354767,0.0172806,-0.0063324,0.0172043,0.00488281
35,1,2.39491,0.000610352,0.00427246,-2.42776,0.0547655,-0.0747579,0.054128,0.150926,-0.0891792,0.143792,-0.122104,-0.0850118,0.0094986,0.0159073,0.0130463,0.0119019,0.0189972,0.00740051,0.02388,0.0185776,-9.97986,0.0172424,0.000686646,0.0141525,0.00232697,0.0180817,-0.00652313,0.019722,0.00652313
35,2,9.63246,-0.000915527,0.00427246,-2.42837,0.0544603,-0.0753682,0.0529073,0.147569,-0.090705,0.142572,-0.121799,-0.0859274,0.00644684,0.0196075,0.0125885,0.0109863,0.0183487,0.0115204,0.0243378,0.0160217,-9.97986,0.0154877,0.000915527,0.00896454,0.00526428,0.0180435,-0.00518799,0.0191879,0.00652313
35,3,10.0097,0,0.00213623,-2.43081,0.0529344,-0.0765889,0.0504659,0.108202,-0.0961982,0.143792,-0.125156,-0.0886739,0.0109863,0.0192261,0.0175476,0.014534,0.0178528,0.00896454,0.0235748,0.0165939,-9.97986,0.0104141,-7.62939e-005,0.0133133,0.00110626,0.0179291,0.0031662,0.0134277,0.00434875
35,4,10.0097,0.0012207,0.000610352,-2.42928,0.0532396,-0.0762837,0.0504659,0.0847032,-0.0971137,0.142877,-0.126987,-0.0889791,0.0106812,0.0201797,0.0156784,0.0124359,0.0149536,0.00709534,0.0183868,0.0229645,-9.97986,0.0166702,0.00202179,0.00808716,0.00324249,0.015831,0.00141144,0.0131226,0.010643
35,5,10.0097,0.000915527,-0.000152588,-2.42928,0.0541551,-0.0756734,0.0513814,0.0761583,-0.0955879,0.143792,-0.126682,-0.0865377,0.00801086,0.0185394,0.0135422,0.0107956,0.0175476,0.0116348,0.0227737,0.0225449,-9.97986,0.0163651,-0.000915527,0.0162888,0.000762939,0.0153732,-0.00209808,0.0164795,0.00644684
35,6,10.0097,0.000610352,-0.000152588,-2.42623,0.055681,-0.0762837,0.0538228,0.0724962,-0.0952827,0.144403,-0.126987,-0.085317,0.0126648,0.020752,0.017662,0.00919342,0.0165558,0.00598907,0.0239944,0.0220871,-9.97986,0.0156021,0.000114441,0.0158691,0.00965118,0.0170135,-0.00213623,0.0157928,0.00564575
35,7,10.0097,0.000610352,0.000762939,-2.42745,0.0541551,-0.0762837,0.054128,0.0709703,-0.0949775,0.144708,-0.125156,-0.085317,0.0117874,0.02491,0.0161743,0.0156403,0.0179291,0.0137711,0.0225067,0.0207901,-9.97986,0.0122452,-0.00301361,0.0141525,0.00728607,0.0155258,0.00148773,0.0160217,0.00507355
35,8,10.0097,0.0012207,0.000305176,-2.42684,0.0553758,-0.0756734,0.0532125,0.0718859,-0.0937568,0.146234,-0.126072,-0.0844015,0.00846863,0.0257111,0.0206375,0.010376,0.0120926,0.0110245,0.0224686,0.0114822,-9.97986,0.0138855,-0.00564575,0.0133133,0.00679016,0.0219727,0.000953674,0.0154495,0.00724792
35,9,10.0097,0.00213623,0.000610352,-2.42592,0.0553758,-0.0738423,0.0544332,0.0712755,-0.0913154,0.145929,-0.125156,-0.0825704,0.00919342,0.0191498,0.0189209,0.0118637,0.018959,0.0136185,0.0236893,0.0112152,-9.97986,0.0139236,-0.0019455,0.0140762,0.00953674,0.0181198,-0.00137329,0.0170898,0.0069809
36,0,10.0097,-0.000305176,0.000457764,-2.42531,0.0572069,-0.073232,0.0544332,0.0715807,-0.0925361,0.144708,-0.124241,-0.0822652,0.0123215,0.0230026,0.0192642,0.0123215,0.0212479,0.0111008,0.020256,0.00770569,-9.97986,0.0139236,-0.00637054,0.0138092,0.00267029,0.0157547,-0.000762939,0.0164032,0.00469208
36,1,10.0097,0.000610352,0.000457764,-2.42562,0.0559862,-0.075063,0.0526021,0.0526598,-0.0949775,0.145624,-0.126072,-0.0825704,0.0104523,0.026741,0.022049,0.0140762,0.0205994,0.0115585,0.0254059,0.0104904,-9.97986,0.0169754,-0.00301361,0.00968933,0.00740051,0.0174332,-0.00179291,0.0143051,0.00587463
36,2,7.78859,0.000610352,-0.00366211,-2.42623,0.0565965,-0.075063,0.0550435,0.0230577,-0.0965034,0.145624,-0.127292,-0.0828756,0.00743866,0.0241852,0.0206375,0.0156784,0.0191116,0.0103378,0.0233841,0.0111389,-9.97986,0.0131607,-0.00591278,0.0133514,0.00591278,0.0152588,-0.00205994,0.0153351,0.00904083
36,3,-0.780744,0.000610352,-0.00473022,-2.42653,0.0559862,-0.0735371,0.0529073,-0.0135634,-0.0955879,0.146844,-0.128818,-0.0813497,0.00919342,0.0266266,0.0233078,0.0109863,0.015564,0.0102234,0.02285,0.0145721,-9.97986,0.0139236,0.00087738,0.0132751,0.00507355,0.0122833,-0.00499725,0.0147247,0.00629425
36,4,-7.96367,-0.000305176,-0.00488281,-2.42501,0.0565965,-0.0741475,0.0550435,-0.0175306,-0.095893,0.145013,-0.130954,-0.0819601,0.0111389,0.022583,0.0221634,0.0104523,0.0170135,0.00804901,0.0216675,0.0118256,-9.97986,0.0100327,-0.00457764,0.00888824,0.00278473,0.0144196,-0.00289917,0.0150299,0.00919342
36,5,-9.99003,0.000610352,-0.00366211,-2.42409,0.0581224,-0.0735371,0.0556539,0.0184801,-0.090705,0.146234,-0.127292,-0.0795187,0.0105286,0.0228882,0.0208282,0.01297,0.0163269,0.00862122,0.0210571,0.0148392,-9.97986,0.0172043,0.000762939,0.0153351,0.00675201,-0.00705719,-0.00274658,0.017662,0.00751495
36,6,-9.99003,0.000915527,-0.00137329,-2.4244,0.0559862,-0.0744527,0.0562642,0.0493029,-0.088874,0.146234,-0.126682,-0.0810445,0.0110245,0.0196075,0.0207138,0.0152588,0.0208282,0.0120926,0.0210953,0.0176239,-9.97986,0.0153351,-0.00114441,0.0153732,0.0108337,-0.00366211,0.000305176,0.019722,0.0069809
36,7,-9.99003,0,-0.000915527,-2.42562,0.0547655,-0.0744527,0.0550435,0.0605944,-0.0910102,0.144403,-0.126072,-0.0825704,0.00831604,0.0216675,0.0117111,0.0118256,0.0174713,0.00804901,0.0194168,0.016861,-9.97986,0.0144577,-0.00572205,0.0123215,0.00228882,-0.0104523,-0.00549316,0.0122833,0.00141144
36,8,-9.99003,0.000915527,0.000610352,-2.42745,0.0547655,-0.0747579,0.054128,0.0654772,-0.0928413,0.145624,-0.126987,-0.0831808,0.01194,0.0261688,0.0212479,0.0121307,0.0198364,0.0114822,0.023613,0.017395,-9.97986,0.0192642,-0.00110626,0.0175095,0.00499725,-0.00549316,-0.00701904,0.0175858,0.0100327
36,9,-9.99003,0.000305176,-0.000457764,-2.4247,0.0553758,-0.0741475,0.0556539,0.100267,-0.0873481,0.146539,-0.12302,-0.0822652,0.0123978,0.0301743,0.0178146,0.011673,0.0137711,0.00709534,0.0176239,0.0146484,-9.97986,0.0168991,-0.00358582,0.0122452,0.00629425,0.0149155,-0.0103378,0.013237,0.00598907
37,0,-5.41026,-0.0012207,0.00366211,-2.42623,0.0550706,-0.0753682,0.0544332,0.134447,-0.0882636,0.143182,-0.12241,-0.0834859,0.0141525,0.0265121,0.0218201,0.018158,0.0121689,0.00995636,0.0260162,0.0121307,-9.97986,0.0196838,-0.000152588,0.0117874,0.00965118,0.0162506,-0.00549316,0.0174332,0.00907898
37,1,2.21852,0.0012207,0.00427246,-2.42837,0.0541551,-0.0765889,0.0544332,0.149706,-0.0894843,0.143792,-0.121494,-0.0847066,0.0115585,0.0307846,0.0203705,0.0114822,0.0146484,0.0114059,0.0218201,0.0175095,-9.97986,0.0169754,-0.00297546,0.0133514,0.00923157,0.0178909,-0.0056076,0.0152969,0.00423431
37,2,9.40267,0.000305176,0.00442505,-2.42837,0.0532396,-0.0765889,0.0529073,0.14818,-0.0919257,0.144098,-0.121799,-0.0868429,0.0109482,0.0312424,0.0121307,0.0112152,0.0161362,0.0123978,0.02285,0.0192642,-9.97986,0.0180054,0.000267029,0.0150299,0.0101089,0.0178528,-0.0062561,0.0163651,0.00957489
37,3,10.0097,0.000305176,0.00198364,-2.43081,0.0535448,-0.0759786,0.0492452,0.109728,-0.0968086,0.142572,-0.124851,-0.0883688,0.00915527,0.0296783,0.0104141,0.0107574,0.0156403,0.0106812,0.0195313,0.0118637,-9.97986,0.0164032,-0.00663757,0.0109482,0.00507355,0.0155258,-0.000267029,0.0140762,0.00667572
37,4,10.0097,0.000305176,0.000762939,-2.42959,0.0538499,-0.0753682,0.0501607,0.0850084,-0.0974189,0.142267,-0.126072,-0.0880636,0.00965118,0.0134659,0.0128174,0.0133896,0.0162125,0.00709534,0.0267029,0.0151062,-9.97986,0.0166321,-0.00259399,0.0147247,0.00366211,0.0177383,-0.00144958,0.015564,0.00865936
37,5,10.0097,0.0012207,0.000305176,-2.42806,0.0538499,-0.0753682,0.0513814,0.077379,-0.095893,0.144098,-0.127292,-0.0868429,0.0102615,0.00289917,0.0130844,0.0109482,0.0133133,0.00530243,0.0191498,0.0178528,-9.97986,0.0172424,-0.00144958,0.0123978,0.00465393,0.0175476,0.00179291,0.0156403,0.00831604
37,6,10.0097,0.000610352,0.000305176,-2.42745,0.0547655,-0.0753682,0.0529073,0.0743273,-0.0934516,0.145318,-0.126682,-0.085317,0.00961304,0.00988007,0.0171661,0.00911713,0.0193787,0.0069046,0.0244141,0.0163651,-9.97986,0.014267,-0.00038147,0.0146866,0.00980377,0.0165939,-0.000343323,0.0156784,0.00595093
37,7,10.0097,0.00183105,0.000152588,-2.42776,0.0559862,-0.0747579,0.0532125,0.0706652,-0.0934516,0.144708,-0.126682,-0.085317,0.00865936,0.0150681,0.0101471,0.0124741,0.0170898,0.00892639,0.022583,0.0179672,-9.97986,0.0157166,-0.00106812,0.0127792,0.00450134,0.0155258,-0.00499725,0.0138855,0.00705719
37,8,10.0097,-0.000915527,0.000305176,-2.42684,0.0553758,-0.075063,0.0535176,0.0715807,-0.0931465,0.145624,-0.126072,-0.0844015,0.0101471,0.0205994,0.0134277,0.0108337,0.0152206,0.0101089,0.0242615,0.0213242,-9.97986,0.0190735,0.00148773,0.0144577,0.00915527,0.0170135,-0.000267029,0.0161743,0.00747681
37,9,10.0097,0.000305176,0.000762939,-2.42592,0.0559862,-0.0729268,0.054128,0.0718859,-0.0913154,0.145929,-0.125461,-0.0825704,0.00873566,0.0233078,0.0205231,0.014267,0.0165176,0.00770569,0.0234222,0.0166702,-9.97986,0.0143814,-0.000305176,0.0105286,0.00751495,0.0160217,-0.00339508,0.0199127,0.00701904
38,0,10.0097,0.0012207,-0.000610352,-2.42562,0.0562914,-0.0741475,0.0544332,0.0718859,-0.0922309,0.146844,-0.124851,-0.0813497,0.00923157,0.0211334,0.019989,0.00896454,0.0163269,0.00907898,0.0222015,0.0171661,-9.97986,0.0183105,0.00358582,0.0136566,0.00408173,0.0194931,-0.00087738,0.0137711,0.00686646
38,1,10.0097,0.000610352,0,-2.42592,0.0565965,-0.0747579,0.0529073,0.0532701,-0.094062,0.146539,-0.126072,-0.0819601,0.0162888,0.019455,0.0174713,0.0152588,0.0143814,0.00846863,0.0230789,0.0161362,-9.97986,0.0194168,-0.000762939,0.0127792,-0.000267029,0.0196075,0.000915527,0.0149155,0.00762939
38,2,7.81789,0.000915527,-0.00305176,-2.42562,0.0562914,-0.0744527,0.0522969,0.0215319,-0.0968086,0.145929,-0.127292,-0.0822652,0.0104523,0.0197601,0.0186157,0.0107574,0.0136948,0.0087738,0.0230789,0.0167847,-9.97986,0.0124359,-0.00236511,0.01194,0.00652313,0.0189972,-0.00652313,0.019455,0.00415802
38,3,-0.734968,0.000305176,-0.00488281,-2.4244,0.0575121,-0.0723164,0.0529073,-0.0120375,-0.0968086,0.14837,-0.129123,-0.0822652,0.00766754,0.0173187,0.0159836,0.0111008,0.017128,0.0120163,0.0210953,0.0147629,-9.97986,0.0119781,0.00270844,0.011673,0.00358582,0.0164413,-0.00259399,0.0167084,0.00549316
38,4,-7.88066,0.000915527,-0.00473022,-2.42562,0.0562914,-0.0738423,0.0529073,-0.0169203,-0.0955879,0.146234,-0.129734,-0.0816549,0.0118256,0.0213242,0.0172043,0.0136566,0.0209045,0.00782013,0.0226593,0.0183105,-9.97986,0.0122833,-3.8147e-005,0.0106812,0.00156403,0.0194931,-0.00511169,0.017128,0.00656128
38,5,-9.99003,0,-0.00366211,-2.42196,0.0578172,-0.0735371,0.0550435,0.0175646,-0.0916206,0.146234,-0.127292,-0.080129,0.00850677,0.0263596,0.0139999,0.0128555,0.0183868,0.00812531,0.020752,0.0162125,-9.97986,0.0157547,-0.000495911,0.0133514,0.00656128,-0.00377655,-0.000534058,0.0137711,0.00728607
38,6,-9.99003,0,-0.00106812,-2.4247,0.0553758,-0.0744527,0.0556539,0.0493029,-0.0897895,0.145318,-0.125766,-0.0810445,0.0108337,0.0176239,0.0179291,0.0069046,0.0175858,0.0062561,0.019989,0.0139618,-9.97986,0.00965118,-0.00110626,0.0111389,0.00530243,-0.00667572,-0.0050354,0.0159836,0.00564575
38,7,-9.99003,0.00183105,-0.000152588,-2.42592,0.0553758,-0.0741475,0.055959,0.059984,-0.0903999,0.145929,-0.126072,-0.0825704,0.0152206,0.022049,0.0153732,0.0107193,0.017128,0.0087738,0.0201416,0.0180435,-9.97986,0.0168991,-0.00423431,0.0160217,0.0038147,-0.00801086,0.0056839,0.0164032,0.0112152
38,8,-9.99003,0.000610352,-0.000305176,-2.42684,0.0550706,-0.0744527,0.0547383,0.0645616,-0.0922309,0.144708,-0.126072,-0.0828756,0.0132751,0.0168228,0.0181961,0.00907898,0.0136185,0.00850677,0.0217438,0.0141144,-9.97986,0.0168228,-0.00263214,0.00911713,0.00629425,-0.00579834,-0.000610352,0.014534,0.00488281
38,9,-9.99003,0.00183105,0.000457764,-2.42653,0.0544603,-0.0744527,0.0556539,0.103014,-0.0873481,0.146234,-0.123935,-0.0831808,0.012207,0.0260544,0.0219345,0.0127411,0.0210953,0.00736237,0.0259781,0.0151825,-9.97986,0.0101089,0.00144958,0.0119781,0.00385284,0.0180435,0.000343323,0.0145721,0.00511169
39,0,-5.22075,-0.000610352,0.00305176,-2.42714,0.0532396,-0.0747579,0.0544332,0.135057,-0.0879585,0.144403,-0.122715,-0.0844015,0.00850677,0.0216675,0.0181961,0.0107574,0.0208282,0.0114059,0.0214386,0.0194168,-9.97986,0.0159836,-0.00335693,0.0102615,0.00732422,0.0198746,-0.00110626,0.0162506,0.00526428
39,1,2.38149,0.00183105,0.00473022,-2.42867,0.0544603,-0.0762837,0.0544332,0.149706,-0.0891792,0.143487,-0.122104,-0.0856222,0.0121307,0.0230026,0.0211334,0.00946045,0.0159073,0.00843048,0.0203705,0.020752,-9.97986,0.0177765,-0.00228882,0.0134659,0.00537872,0.0164032,7.62939e-005,0.0160599,0.00209808
39,2,9.66603,-0.000305176,0.00457764,-2.43081,0.0538499,-0.0756734,0.0535176,0.148485,-0.090705,0.142877,-0.121189,-0.0868429,0.00919342,0.0266266,0.0196838,0.00957489,0.0169373,0.00904083,0.0206757,0.0192261,-9.97986,0.0146866,-0.000801086,0.0156403,0.00579834,0.0197983,0.00434875,0.0195694,0.00576019
39,3,10.0097,-0.000305176,0.00167847,-2.4305,0.0532396,-0.0765889,0.0492452,0.110033,-0.0971137,0.142267,-0.125156,-0.0892843,0.00999451,0.0244904,0.0187683,0.00766754,0.0154495,0.00728607,0.0180435,0.0143814,-9.97986,0.0112534,-0.00167847,0.0142288,0.00740051,0.015564,0.00404358,0.015831,0.0025177
39,4,10.0097,0.0012207,0.000915527,-2.4302,0.0541551,-0.0765889,0.050771,0.0843981,-0.095893,0.143792,-0.126377,-0.0877584,0.00904083,0.0278091,0.0205994,0.0102234,0.0177765,0.0104523,0.0243759,0.0180817,-9.97986,0.0118256,-0.00225067,0.0146103,0.00564575,0.0192261,0.00125885,0.0161743,0.00576019
39,5,10.0097,0.000915527,0.000762939,-2.42745,0.0553758,-0.0756734,0.0519917,0.0767687,-0.095893,0.143182,-0.126072,-0.0868429,0.00740051,0.0230026,0.0196457,0.0125504,0.0172424,0.00789642,0.0197601,0.0163651,-9.97986,0.0144577,0.00118256,0.0124359,0.00572205,0.0159836,-0.0019455,0.0123596,0.00377655
39,6,10.0097,0.000305176,-0.000152588,-2.42837,0.0547655,-0.0747579,0.0522969,0.0734117,-0.0946723,0.145013,-0.126682,-0.0850118,0.015831,0.020256,0.0178909,0.0120926,0.0214386,0.013237,0.0193405,0.0232697,-9.97986,0.0120544,-0.001297,0.013504,0.00579834,0.0160599,-0.00339508,0.0124359,0.00530243
39,7,10.0097,0.00183105,-0.000305176,-2.42837,0.0553758,-0.0756734,0.0519917,0.0715807,-0.0931465,0.145624,-0.125461,-0.0844015,0.0147629,0.0182343,0.0179291,0.00778198,0.0169754,0.00801086,0.0213623,0.0177765,-9.97986,0.0136566,0.000419617,0.0119019,0.00724792,0.0172806,-0.000839233,0.0134277,0.0050354
39,8,10.0097,0.00152588,0.000457764,-2.42592,0.0553758,-0.0744527,0.0532125,0.0700548,-0.0934516,0.145318,-0.125156,-0.0840963,0.0107574,0.0235367,0.0190735,0.0112534,0.0175858,0.0125122,0.0228119,0.0191879,-9.97986,0.0149536,-0.00141144,0.0136566,0.00614166,0.016861,-0.00530243,0.0173187,0.00442505
39,9,10.0097,0,0.000152588,-2.42592,0.0553758,-0.0741475,0.0547383,0.0712755,-0.0928413,0.148065,-0.125156,-0.0825704,0.01297,0.0239563,0.0213623,0.0118637,0.018959,0.00896454,0.0222015,0.0198364,-9.97986,0.0137329,-0.00183105,0.0156403,0.00408173,0.0198364,-0.00862122,0.0138092,0.00476837
40,0,10.0097,0.000915527,0.000762939,-2.4247,0.0572069,-0.0744527,0.0547383,0.0709703,-0.0913154,0.145929,-0.124546,-0.0819601,0.0106049,0.0220108,0.0193405,0.0119781,0.0156403,0.00873566,0.0200272,0.0173569,-9.97986,0.0117874,-0.000572205,0.0149918,0.00629425,0.0180054,-0.0117493,0.0154114,0.00648499
40,1,10.0097,-0.000915527,-0.000305176,-2.42684,0.0550706,-0.0747579,0.0522969,0.0541857,-0.0937568,0.146844,-0.126072,-0.0828756,0.0118637,0.0244141,0.0170898,0.0135803,0.0165939,0.00968933,0.0203323,0.0162888,-9.97986,0.0149155,-0.000724792,0.0149918,0.00831604,0.0162888,-0.0162125,0.0144196,0.00549316
40,2,7.8597,0.000305176,-0.00244141,-2.42623,0.0565965,-0.0729268,0.0532125,0.0224474,-0.0971137,0.146539,-0.128208,-0.0828756,0.00934601,0.020256,0.0229263,0.0120544,0.0168228,0.0111008,0.0230408,0.0157928,-9.97986,0.0108337,-0.00328064,0.0142288,0.00522614,0.0141144,-0.0130081,0.0160599,0.00801086
40,3,-0.671797,-0.000305176,-0.00473022,-2.42501,0.0575121,-0.0744527,0.0538228,-0.0120375,-0.0971137,0.146234,-0.129429,-0.0813497,0.0117111,0.0233841,0.0206757,0.0117493,0.0178146,0.0139618,0.0207901,0.0228119,-9.97986,0.0195313,-0.00221252,0.0112915,0.00480652,0.0169754,-0.0114441,0.0123978,0.00473022
40,4,-7.7473,-0.0012207,-0.00411987,-2.42501,0.0575121,-0.0735371,0.0535176,-0.0150892,-0.0965034,0.146234,-0.130039,-0.0816549,0.00961304,0.0221252,0.0242615,0.0135422,0.0192642,0.00930786,0.0245285,0.0188828,-9.97986,0.0167465,-0.000114441,0.0164413,0.0056839,0.0168991,-0.00583649,0.0159836,0.00782013
40,5,-9.99003,0.000305176,-0.00320435,-2.42348,0.0569017,-0.0729268,0.0568746,0.0163439,-0.090705,0.145624,-0.127598,-0.080129,0.013504,0.0270844,0.026474,0.0147247,0.0218201,0.0115585,0.0229645,0.0165176,-9.97986,0.0130081,-0.00278473,0.0161362,0.00289917,-0.00518799,0.00423431,0.0173187,0.00579834
