
Devices
1200
,,BP Load cell - Voltage,String Length - Voltage,Clutch Active - Voltage,#7 iPecs - Voltage,,,,,,,,,EMG 1-8 Left - Voltage,,,,,,,,Pylon Force - Voltage,EMG 9-16 Right - Voltage,,,,,,,,
Frame,Sub Frame,BP Load Cell,String Length,From Arduino Logic,A45,A135,A225,A315,S0,S90,S180,S270,ZSum,EMG 1 Glut Max,EMG 2 Glut Med,EMG 3 Biceps Femoris Long,EMG 4 Rectus Femoris,EMG 5 Vastus Medialis,EMG 6 Tib Ant,EMG 7 Med Gas,EMG 8 Soleus,Pylon volts,EMG 9 Glut Max,EMG 10 Glut Med,EMG 11 Biceps Femoris Long,EMG 12 Rectus Femoris,EMG 13 Vastus Medialis,EMG 14 Tib Ant,EMG 15 Med Gas,EMG 16 Soleus
,,V,V,V,V,V,V,V,V,V,V,V,V,V,V,V,V,V,V,V,V,V,V,V,V,V,V,V,V,V
1,0,10.0097,0.000610352,-0.000457764,-2.42898,0.0535448,-0.0775044,0.0526021,0.0688341,-0.0934516,0.144403,-0.127598,-0.0871481,0.00102997,0.0166702,0.0490189,0.0644684,0.0457382,-0.0735092,0.0335312,0.015831,-9.97986,-0.00846863,0.0661469,0.0351715,-0.55233,0.0502396,-0.0633621,-0.0248337,-0.00255585
1,1,10.0097,0.000610352,-0.000305176,-2.42898,0.0535448,-0.0759786,0.0516866,0.0688341,-0.094062,0.142877,-0.127598,-0.0865377,-0.00572205,0.0177383,0.0444412,0.0778198,0.0483322,-0.0746155,0.035553,0.0404739,-9.97986,-0.0183868,-0.0715256,0.0350952,-0.552902,0.0534439,-0.0463867,-0.0239563,-0.00331879
1,2,10.0097,-0.0012207,-0.000915527,-2.4302,0.0535448,-0.0765889,0.0522969,0.0676134,-0.0946723,0.143182,-0.126987,-0.0865377,-0.00389099,0.0278473,0.0428772,0.0657272,0.0484848,-0.0769043,0.0352478,0.0785065,-9.97986,-0.0163269,-0.121346,0.0363922,-0.554886,0.0538254,-0.0311279,-0.0270081,-0.00358582
1,3,10.0097,0.000610352,-0.000915527,-2.42898,0.0532396,-0.0765889,0.0526021,0.0685289,-0.0943672,0.144098,-0.128208,-0.0874532,0.00869751,0.0351715,0.0438309,0.0512695,0.0455856,-0.0754929,0.037117,0.110168,-9.97986,-0.00408173,-0.0677872,0.0384521,-0.563202,0.0507736,-0.0213623,-0.0292969,-0.00259399
1,4,10.0097,0.0012207,-0.000610352,-2.42837,0.0529344,-0.0768941,0.0519917,0.0688341,-0.094062,0.144708,-0.126987,-0.085317,0.00740051,0.0231552,0.0408936,0.0407791,0.044899,-0.0790405,0.0403976,0.124702,-9.97986,-0.000572205,-0.0119019,0.0347137,-0.568466,0.0457382,-0.0101852,-0.0308228,-0.00923157
1,5,10.0097,0.000915527,-0.000762939,-2.42714,0.0550706,-0.0765889,0.054128,0.0700548,-0.0934516,0.143792,-0.126987,-0.0850118,0.01194,0.0155258,0.0654984,0.0412369,0.0504303,-0.075264,0.0366974,0.124283,-9.97986,-0.00278473,0.00343323,0.0416565,-0.573158,0.0459671,0.0142288,-0.0299835,-0.00850677
1,6,10.0097,0.000915527,0.000152588,-2.42745,0.055681,-0.0741475,0.0538228,0.0694445,-0.0934516,0.145318,-0.125461,-0.0840963,0.00541687,0.0273132,0.108719,0.0324249,0.0465012,-0.078125,0.0330734,0.0855255,-9.97986,-0.00442505,-0.0219727,0.0378799,-0.570717,0.0426483,0.0226593,-0.0320816,-0.00812531
1,7,10.0097,0.000305176,0.00152588,-2.42623,0.0565965,-0.0753682,0.0535176,0.07036,-0.0928413,0.146234,-0.125766,-0.0834859,-0.000305176,0.0474548,0.14801,0.0133133,0.0441742,-0.0721359,0.0355148,0.0456238,-9.97986,-0.00659943,-0.0698853,0.038681,-0.555611,0.0448227,0.0224686,-0.0278091,-0.00801086
1,8,10.0097,0,0.000762939,-2.42501,0.0562914,-0.0729268,0.054128,0.0700548,-0.0903999,0.147149,-0.12363,-0.0813497,-0.00823975,0.0740433,0.180168,0.00648499,0.0459671,-0.0712585,0.0320816,0.0562668,-9.97986,-0.00328064,-0.0876999,0.0454712,-0.549011,0.0400543,0.00858307,-0.0350952,-0.00782013
1,9,10.0097,-0.000305176,0.00106812,-2.42501,0.0559862,-0.075063,0.0544332,0.07036,-0.090705,0.146844,-0.12363,-0.0810445,-0.00873566,0.113602,0.166168,-0.001297,0.0439835,-0.0665283,0.0328445,0.0469589,-9.97986,-0.00175476,-0.0489044,0.0423431,-0.542107,0.0421524,0.00339508,-0.0336838,-0.00846863
2,0,10.0097,0.000305176,-0.000152588,-2.42592,0.0569017,-0.0738423,0.055959,0.0706652,-0.0919257,0.147455,-0.123935,-0.0816549,-0.00213623,0.158577,0.132866,-0.00751495,0.0462723,-0.0656128,0.0337601,0.00541687,-9.97986,0.00110626,-0.0247192,0.0436783,-0.537834,0.0419617,-0.00289917,-0.0338364,-0.00576019
2,1,10.0097,0.00183105,0.000610352,-2.42531,0.0569017,-0.073232,0.0553487,0.0715807,-0.0919257,0.14776,-0.123935,-0.0813497,0.00202179,0.200577,0.10231,-0.00938416,0.0424194,-0.0587463,0.0304031,-0.00656128,-9.97986,0.00385284,-0.0496292,0.04673,-0.525589,0.0483704,-0.00686646,-0.0340271,-0.00473022
2,2,10.0097,-0.000305176,0.0012207,-2.42653,0.055681,-0.0747579,0.0535176,0.0712755,-0.0922309,0.146844,-0.12363,-0.0798238,-3.8147e-005,0.206032,0.0989532,-0.00778198,0.0453186,-0.0551224,0.0261688,-0.0169754,-9.97986,-0.00812531,-0.0809097,0.0431061,-0.501709,0.0457001,-0.0106812,-0.0376129,-0.00858307
2,3,10.0097,0.000915527,0.00228882,-2.42684,0.0553758,-0.0741475,0.0544332,0.0605944,-0.0928413,0.144403,-0.125156,-0.0813497,0.0134277,0.14637,0.0906372,-0.00102997,0.0383377,-0.0528336,0.0228119,-0.0103378,-9.97986,-0.00984192,-0.0751877,0.0477219,-0.475349,0.0508118,-0.0242996,-0.0379944,-0.00915527
2,4,10.0097,-0.000610352,0.00152588,-2.42653,0.0562914,-0.0747579,0.0535176,0.0590685,-0.0928413,0.145318,-0.124546,-0.0825704,0.0273514,0.111771,0.0537872,0.00144958,0.042305,-0.0466537,0.0178528,0.0574493,-9.97986,-0.00679016,-0.0338745,0.0444412,-0.44014,0.0456619,-0.0200653,-0.0362396,-0.0069046
2,5,10.0097,0,0.00335693,-2.42592,0.0544603,-0.0735371,0.054128,0.0654772,-0.0925361,0.143487,-0.125461,-0.0813497,0.0274658,0.0353622,-0.0063324,0.00461578,0.0438309,-0.0407791,0.0157928,0.120239,-9.97986,-0.0038147,-0.016861,0.0429153,-0.397682,0.0520706,-0.0169754,-0.0350189,-0.0137329
2,6,10.0097,-0.00152588,0.00488281,-2.42623,0.0550706,-0.0747579,0.0547383,0.0697496,-0.0931465,0.140741,-0.125461,-0.0819601,0.0150681,-0.0830841,-0.0753021,0.0102234,0.0339508,-0.0404358,0.0125885,0.144234,-9.97986,0.00202179,-0.0489807,0.0404739,-0.341988,0.052948,-0.0263977,-0.041275,-0.01091
2,7,10.0097,-0.000915527,0.00579834,-2.42684,0.0553758,-0.0744527,0.0556539,0.0843981,-0.090705,0.144403,-0.124851,-0.0816549,0.0111771,-0.10498,-0.114784,0.0189972,0.0366974,-0.0300598,0.0161743,0.119972,-9.97986,0.00354767,-0.0567245,0.0388336,-0.288582,0.0574112,-0.0314331,-0.0393677,-0.0154877
2,8,10.0097,0.0012207,0.0050354,-2.42806,0.0541551,-0.0762837,0.0522969,0.0749376,-0.0946723,0.145624,-0.126377,-0.0847066,0.0113678,-0.0637436,-0.0682831,0.0124359,0.0340652,-0.0291443,0.0114059,0.0786591,-9.97986,-0.00423431,-0.044899,0.0442886,-0.22789,0.0637436,-0.037384,-0.0362778,-0.0144196
2,9,10.0097,0.00152588,0.00488281,-2.42898,0.0535448,-0.0756734,0.0529073,0.0728014,-0.0934516,0.146234,-0.128513,-0.0847066,0.0122452,0.00801086,-0.00301361,-0.00144958,0.0315857,-0.0304794,0.00732422,0.0262451,-9.97986,-0.0110626,-0.0364685,0.0405502,-0.171585,0.0688171,-0.0371552,-0.0349045,-0.015564
3,0,10.0097,-0.000610352,0.00534058,-2.42837,0.0541551,-0.0762837,0.0522969,0.0694445,-0.0949775,0.145318,-0.126377,-0.0847066,0.0110245,0.0645447,0.030899,-0.00530243,0.0268173,-0.0272751,0.0117874,-0.0315094,-9.97986,-0.00728607,-0.0289917,0.0423813,-0.108376,0.0712967,-0.0392151,-0.0344849,-0.0185776
3,1,10.0097,-0.000915527,0.00595093,-2.42959,0.0523241,-0.0756734,0.0535176,0.0694445,-0.0946723,0.143487,-0.127903,-0.0856222,0.0234222,0.0634766,0.0557709,-0.0125504,0.0259018,-0.0337219,0.00831604,-0.111427,-9.97986,0.00305176,-0.0227356,0.0434875,-0.0502777,0.0660324,-0.041275,-0.0281906,-0.0180054
3,2,10.0097,-0.000610352,0.0038147,-2.42898,0.0541551,-0.0762837,0.0516866,0.0694445,-0.0946723,0.144098,-0.126987,-0.0856222,0.022316,0.0641632,0.0932693,-0.0211334,0.0246811,-0.0295639,0.00564575,-0.164452,-9.97986,0.0127792,-0.0145721,0.0378418,-0.00675201,0.0740814,-0.0399399,-0.0221252,-0.0212479
3,3,10.0097,-0.00152588,0.00305176,-2.42898,0.0538499,-0.0756734,0.0526021,0.0682238,-0.0937568,0.142877,-0.127903,-0.0859274,0.0303268,0.0725937,0.0654984,-0.0235367,0.0237274,-0.030365,0.00301361,-0.1548,-9.97986,0.0265121,0.00713348,0.039711,0.0318909,0.0811005,-0.0360107,-0.0139999,-0.0181961
3,4,10.0097,-0.00183105,0.00335693,-2.42806,0.0544603,-0.0756734,0.0547383,0.0679186,-0.0943672,0.142877,-0.126987,-0.0850118,0.0229263,0.0324249,-0.00400543,-0.019455,0.0152969,-0.029068,0.00522614,-0.123138,-9.97986,0.0305557,0.0109482,0.0349808,0.0686646,0.0808716,-0.0229263,-0.00621796,-0.0213623
3,5,10.0097,-0.000610352,0.00350952,-2.42837,0.0544603,-0.0765889,0.0526021,0.0694445,-0.094062,0.145013,-0.126072,-0.0840963,0.0244141,-0.0236511,-0.0369644,-0.0110245,0.0151443,-0.0388718,0.00732422,-0.122795,-9.97986,0.0348663,0.0125885,0.0382996,0.102768,0.0809479,-0.00659943,0.00514984,-0.020256
3,6,10.0097,0.00274658,0.00427246,-2.42684,0.0535448,-0.0744527,0.054128,0.0709703,-0.0934516,0.145318,-0.126072,-0.0831808,0.0191116,0.0276947,-0.0383759,-0.0100327,0.0114441,-0.0392532,7.62939e-005,-0.127296,-9.97986,0.0389099,0.0682068,0.0383377,0.147972,0.0849152,0.00167847,0.0135803,-0.0228882
3,7,10.0097,0.0012207,0.00411987,-2.42592,0.0559862,-0.0735371,0.0562642,0.0715807,-0.0949775,0.145624,-0.124241,-0.0819601,0.0175095,0.0767899,-0.0577927,-0.00419617,0.00785828,-0.0381088,0.00385284,-0.0919342,-9.97986,0.0463486,0.129166,0.0328445,0.18856,0.0834656,0.0107574,0.0237274,-0.0220108
3,8,10.0097,0.00183105,0.00427246,-2.42592,0.0559862,-0.0735371,0.054128,0.0706652,-0.0913154,0.145624,-0.12363,-0.080129,0.0138474,0.0349045,-0.0905991,-0.00835419,0.000305176,-0.0443268,0.0050354,-0.0405502,-9.97986,0.0488663,0.127068,0.033493,0.231972,0.0862885,0.0196838,0.0311661,-0.0243378
3,9,10.0097,0.000305176,0.00457764,-2.42501,0.0562914,-0.0741475,0.0565694,0.0718859,-0.0925361,0.145624,-0.122715,-0.080129,0.01091,-0.0100708,-0.12352,-0.00904083,0.00247955,-0.044632,0.00278473,-0.0128937,-9.97986,0.0457382,0.0966644,0.0378418,0.270996,0.08461,0.0263214,0.0366592,-0.0214767
4,0,10.0097,-0.000305176,0.0038147,-2.42562,0.0569017,-0.0738423,0.0574849,0.0715807,-0.0922309,0.147455,-0.123935,-0.0807394,0.00919342,-0.0721741,-0.153847,-0.00354767,0.000915527,-0.0496292,0.00816345,0.00282288,-9.97986,0.0557327,0.0458527,0.0354767,0.307503,0.0837326,0.0284958,0.0423813,-0.0210571
4,1,10.0097,0.000610352,0.00289917,-2.42409,0.0572069,-0.0729268,0.0553487,0.0706652,-0.090705,0.144403,-0.123935,-0.080129,0.0126266,-0.138474,-0.141144,-0.00255585,-0.00434875,-0.050087,0.0112534,0.0143433,-9.97986,0.0567627,-0.0164413,0.0318527,0.323296,0.0881195,0.0121307,0.0499344,-0.0230789
4,2,10.0097,0.0012207,0.00350952,-2.4247,0.0575121,-0.075063,0.054128,0.0712755,-0.090705,0.146539,-0.123325,-0.080129,0.00850677,-0.174217,-0.107117,-3.8147e-005,-0.00957489,-0.0466537,0.0100708,0.0294113,-9.97986,0.0537872,-0.0223923,0.0293732,0.362282,0.0782394,-0.00476837,0.0592422,-0.0242996
4,3,10.0097,0.00183105,0.00305176,-2.42562,0.0562914,-0.0738423,0.0519917,0.0605944,-0.0934516,0.14837,-0.125766,-0.0810445,0.0113678,-0.161705,-0.0616455,0.00392914,-0.0137711,-0.0505447,0.0101089,0.0513458,-9.97986,0.0483322,0.0403214,0.0276947,0.387611,0.0761795,-0.0115204,0.0621414,-0.0247574
4,4,10.0097,0.00274658,0.00198364,-2.42562,0.0553758,-0.0753682,0.0535176,0.0587633,-0.0946723,0.147455,-0.126682,-0.0813497,0.0102615,-0.0917816,-0.00526428,0.0025177,-0.0159073,-0.0487137,0.0145721,0.0998688,-9.97986,0.0328827,0.0410843,0.026741,0.412674,0.0737762,-0.00682831,0.065918,-0.0224304
4,5,10.0097,0.00305176,0.00213623,-2.42653,0.0553758,-0.0738423,0.0544332,0.0633409,-0.0922309,0.148065,-0.126072,-0.0825704,0.00804901,-0.0417328,0.0308228,0.00255585,-0.0152206,-0.0571442,0.0146484,0.143776,-9.97986,0.0204086,0.001297,0.0272751,0.431938,0.0703812,0.00110626,0.0720215,-0.0212479
4,6,10.0097,0.0012207,0.00183105,-2.42776,0.0544603,-0.075063,0.0544332,0.0700548,-0.0928413,0.147149,-0.125156,-0.0828756,0.00583649,0.0173187,0.0434494,-0.000305176,-0.017662,-0.0494385,0.00995636,0.15873,-9.97986,0.018692,0.00637054,0.0278091,0.433388,0.0648499,0.0115204,0.0722122,-0.0215912
4,7,10.0097,-0.0012207,0.000915527,-2.4247,0.0559862,-0.0744527,0.054128,0.0837877,-0.0919257,0.144708,-0.125461,-0.0828756,0.00793457,0.0209808,0.049324,0.00514984,-0.0180435,-0.0478745,0.0204086,0.144348,-9.97986,0.014534,0.00892639,0.0294495,0.43911,0.0684357,0.0142288,0.0807571,-0.0227356
4,8,10.0097,-0.00152588,-0.000305176,-2.42959,0.0529344,-0.0762837,0.0519917,0.0761583,-0.094062,0.144708,-0.126377,-0.0865377,0.0120544,-0.0104904,0.0488281,0.0113297,-0.0125504,-0.0424194,0.0245285,0.116997,-9.97986,0.00190735,-0.0236511,0.0272369,0.419006,0.0670242,0.0244522,0.0818253,-0.0214005
4,9,10.0097,0.000610352,-0.00213623,-2.42928,0.0538499,-0.0759786,0.0529073,0.0715807,-0.0946723,0.143487,-0.126987,-0.0859274,0.0142288,-0.00270844,0.0648117,0.0130463,-0.0127411,-0.0451279,0.0281906,0.106392,-9.97986,0.00370026,-0.0299835,0.0260925,0.393181,0.0624466,0.0360489,0.087204,-0.0168228
5,0,10.0097,0,-0.00198364,-2.42867,0.0532396,-0.0759786,0.0516866,0.0700548,-0.0937568,0.145624,-0.126682,-0.0868429,0.0113297,0.0251389,0.0833893,0.0174713,-0.00835419,-0.0402832,0.0296402,0.0950241,-9.97986,0.00484467,-0.0152588,0.0260925,0.370941,0.0596619,0.0403214,0.0880051,-0.0141907
5,1,10.0097,-0.0012207,-0.00183105,-2.42898,0.0541551,-0.0768941,0.0519917,0.0666979,-0.0949775,0.145013,-0.128208,-0.0871481,0.0102234,0.0703049,0.094223,0.0126648,-0.00900269,-0.0324631,0.0357819,0.033493,-9.97986,0.00534058,0.00240326,0.0202179,0.350227,0.0561523,0.0388718,0.0892639,-0.0170517
5,2,10.0097,0,-0.00289917,-2.42898,0.0532396,-0.0765889,0.0516866,0.0685289,-0.0946723,0.143487,-0.127292,-0.0874532,0.00968933,0.0864029,0.106201,0.0105667,-0.00682831,-0.0406265,0.031662,-0.0273132,-9.97986,0.00125885,0.0110626,0.0188828,0.322113,0.0535202,0.0312805,0.0922394,-0.0128937
5,3,10.0097,0.000610352,-0.00366211,-2.42928,0.0538499,-0.0756734,0.0529073,0.0679186,-0.0937568,0.143792,-0.126072,-0.0868429,0.0130463,0.0798416,0.102959,0.00862122,-0.00991821,-0.0312042,0.0354767,-0.0327682,-9.97986,-0.000343323,0.00278473,0.0231552,0.28141,0.0529099,0.0356674,0.0934982,-0.0172806
5,4,10.0097,0.000305176,-0.00305176,-2.42837,0.0535448,-0.0753682,0.0535176,0.0691393,-0.0937568,0.143487,-0.126072,-0.0862325,0.0142288,0.0817871,0.077858,0.00995636,-0.0115204,-0.0268173,0.0463104,-0.00434875,-9.97986,0.00427246,0.00606537,0.0209045,0.251198,0.0479889,0.0362396,0.094223,-0.0113678
5,5,10.0097,0.000915527,-0.00305176,-2.42867,0.0559862,-0.075063,0.0532125,0.07036,-0.0949775,0.143792,-0.126072,-0.0856222,0.0135803,0.0799179,0.0524902,0.0127792,-0.0118637,-0.0222778,0.0402069,0.00583649,-9.97986,0.000457764,0.00778198,0.020752,0.222054,0.0440598,0.0318146,0.0870132,-0.00694275
5,6,10.0097,-0.000305176,-0.00213623,-2.4247,0.0553758,-0.075063,0.0538228,0.07036,-0.094062,0.144403,-0.126072,-0.0850118,0.0177765,0.0606918,0.0537872,0.0143814,-0.0162506,-0.0129318,0.045166,-0.00797272,-9.97986,0.00221252,-0.00236511,0.0245667,0.195313,0.0435257,0.0311661,0.0884628,-0.0107193
5,7,10.0097,0.00152588,-0.00259399,-2.42623,0.0559862,-0.0744527,0.054128,0.0697496,-0.0913154,0.145318,-0.125156,-0.0837911,0.0149536,0.0616455,0.0735474,0.0110626,-0.0217056,-0.00923157,0.0479507,-0.0136185,-9.97986,0.0075531,0.0157166,0.0201416,0.175858,0.0332642,0.0362778,0.0884628,-0.00312805
5,8,10.0097,0,-0.00106812,-2.42379,0.0547655,-0.0738423,0.0550435,0.0706652,-0.0919257,0.147149,-0.124546,-0.0828756,0.00911713,0.0846863,0.0696945,0.0105667,-0.0250626,0.00228882,0.0527573,-0.000267029,-9.97986,0.00774384,0.0406647,0.0187302,0.16243,0.0309372,0.0302505,0.084343,-0.00301361
5,9,10.0097,0.000610352,-0.0012207,-2.42531,0.0562914,-0.0744527,0.0538228,0.0694445,-0.0919257,0.145318,-0.124241,-0.0819601,0.010376,0.0615311,0.0383377,0.0088501,-0.0237656,0.0126648,0.0559616,0.00450134,-9.97986,0.00785828,-0.000839233,0.0165558,0.155106,0.0273895,0.0359344,0.0836945,0.000495911
6,0,10.0097,-0.000915527,-0.000762939,-2.4247,0.0569017,-0.0738423,0.054128,0.0718859,-0.0916206,0.145318,-0.124241,-0.0816549,0.00873566,-0.0141907,0.00671387,0.0115967,-0.0326157,0.0153351,0.0566101,0.00679016,-9.97986,0.0122452,-0.0545883,0.0185013,0.147552,0.0288391,0.0329208,0.085144,0.0102997
6,1,10.0097,-0.000610352,-0.00106812,-2.42531,0.0569017,-0.0735371,0.0556539,0.0712755,-0.0910102,0.145929,-0.124241,-0.0816549,0.00965118,-0.0281525,-0.0143814,0.0109863,-0.0346756,0.0139236,0.056839,0.00240326,-9.97986,0.0166702,-0.0455093,0.0164032,0.13588,0.0204086,0.026474,0.0796127,0.0107193
6,2,10.0097,0.000610352,-0.00137329,-2.42287,0.0569017,-0.0735371,0.0553487,0.0700548,-0.0903999,0.147149,-0.124851,-0.0813497,0.00846863,0.00175476,-0.0266266,0.0180817,-0.0373459,0.0210953,0.0582504,-0.00991821,-9.97986,0.0205231,-0.0138474,0.0201416,0.104561,0.016098,0.0284576,0.0800705,0.0146484
6,3,10.0097,0.00213623,-0.00213623,-2.42684,0.0569017,-0.0738423,0.054128,0.0615099,-0.0946723,0.146539,-0.125461,-0.0825704,0.00534058,0.0182724,-0.0203705,0.0130463,-0.0426483,0.0232697,0.0577927,-0.0056839,-9.97986,0.0165558,-0.0173569,0.0204849,0.0832748,0.0102234,0.0133514,0.07267,0.0182343
6,4,10.0097,0.000305176,-0.00244141,-2.42592,0.0562914,-0.0741475,0.0538228,0.0584581,-0.0922309,0.147455,-0.125156,-0.0822652,0.00980377,0.0379181,0.00118256,0.00881195,-0.0475693,0.0265884,0.0543594,-0.00724792,-9.97986,0.0162506,-0.0380707,0.0197601,0.063591,0.0106812,0.00701904,0.075264,0.0297928
6,5,10.0097,-0.000305176,-0.00213623,-2.42653,0.0559862,-0.0741475,0.0544332,0.0639513,-0.0943672,0.145929,-0.126682,-0.0834859,0.00965118,0.0430298,0.00946045,0.0120544,-0.0483322,0.0259018,0.0523758,-0.00873566,-9.97986,0.0184631,-0.0349426,0.0230408,0.042572,0.0062561,0.00179291,0.0736618,0.0342178
6,6,10.0097,0.000610352,-0.00213623,-2.42714,0.0553758,-0.0744527,0.054128,0.0694445,-0.0928413,0.145929,-0.126072,-0.0834859,0.0125885,0.0484467,0.00160217,0.0132751,-0.0503159,0.0309753,0.0496674,-0.00644684,-9.97986,0.017395,-0.0333023,0.027504,0.0209045,0.00331879,0.000762939,0.067215,0.0352478
6,7,10.0097,0,-0.00228882,-2.42684,0.0544603,-0.0744527,0.0538228,0.082567,-0.090705,0.145624,-0.123935,-0.0847066,0.0111389,0.0466919,0.0031662,0.0163651,-0.0524521,0.0328445,0.0474167,-0.00240326,-9.97986,0.0126648,-0.0270844,0.0260544,-0.0104523,0.000648499,0.000267029,0.0679016,0.0419617
6,8,10.0097,0.000305176,-0.00183105,-2.42928,0.0532396,-0.0759786,0.0538228,0.0764635,-0.0931465,0.143487,-0.126377,-0.0871481,0.00656128,0.0510406,-0.00133514,0.0143814,-0.0626373,0.0295258,0.041275,0.0145721,-9.97986,0.015564,-0.020256,0.0296402,-0.0378799,0.00324249,0.00957489,0.0636292,0.0460052
6,9,10.0097,0.000610352,-0.00198364,-2.42898,0.0541551,-0.0756734,0.0535176,0.0740221,-0.0961982,0.142877,-0.126682,-0.0871481,0.00659943,0.039978,0.0019455,0.0163651,-0.0577927,0.0298309,0.0394821,0.0252914,-9.97986,0.0144958,-0.0152588,0.0374985,-0.0557327,0.00350952,0.0125122,0.0603867,0.0533295
7,0,10.0097,-0.0012207,-0.00289917,-2.42776,0.0526292,-0.0762837,0.0519917,0.0697496,-0.0943672,0.141961,-0.126682,-0.0871481,0.0094223,0.0193787,0.0137711,0.0164032,-0.056076,0.0354767,0.0309372,0.0270462,-9.97986,0.0140381,-0.0102615,0.0381851,-0.0805283,0.00614166,0.0168228,0.062027,0.0537491
7,1,10.0097,0.00152588,-0.00289917,-2.42898,0.0544603,-0.0762837,0.0513814,0.0688341,-0.0943672,0.143792,-0.128513,-0.0877584,0.0120163,0.0236511,0.0273895,0.0213623,-0.0608826,0.033226,0.0316238,0.0251389,-9.97986,0.0123596,-0.00514984,0.0405502,-0.10479,0.00972748,0.0167847,0.0575256,0.054245
7,2,10.0097,0.000915527,-0.00366211,-2.42928,0.0541551,-0.0756734,0.0526021,0.072191,-0.0946723,0.142267,-0.127292,-0.0877584,0.00919342,0.0373077,0.042572,0.0192261,-0.059433,0.0344849,0.0219345,0.0259018,-9.97986,0.0102234,-0.00167847,0.0429153,-0.139656,0.0151825,0.0122833,0.0550842,0.0595856
7,3,10.0097,-0.000305176,-0.00396729,-2.42837,0.0544603,-0.0753682,0.0522969,0.0676134,-0.0946723,0.143792,-0.127598,-0.0874532,0.00991821,0.0565338,0.0593567,0.0188065,-0.0608444,0.0393295,0.0149536,0.0323486,-9.97986,0.00350952,0,0.0407028,-0.173569,0.0112152,0.00782013,0.0491714,0.0587845
7,4,10.0097,0.000610352,-0.00320435,-2.42806,0.0538499,-0.0759786,0.0532125,0.0685289,-0.0946723,0.145013,-0.126682,-0.0862325,0.0127029,0.0548172,0.0714874,0.0192642,-0.0609589,0.0400543,0.0118256,0.0431061,-9.97986,0.0062561,-0.00328064,0.0444412,-0.195732,0.0155258,-0.000343323,0.0485992,0.061264
7,5,10.0097,0.00244141,-0.00244141,-2.42714,0.0541551,-0.0747579,0.0529073,0.0691393,-0.0934516,0.145318,-0.126072,-0.0865377,0.0108719,0.0509644,0.0696945,0.0177002,-0.0609589,0.0405502,0.00598907,0.0485992,-9.97986,0.00553131,-0.00114441,0.0409698,-0.228653,0.0170135,-0.000114441,0.0411987,0.0617218
7,6,10.0097,0.00183105,-0.00183105,-2.42776,0.0544603,-0.0747579,0.054128,0.0682238,-0.0931465,0.144708,-0.125766,-0.0840963,0.00694275,0.0692749,0.0698853,0.017662,-0.0598907,0.0445938,-0.000686646,0.0629044,-9.97986,0.00362396,0.0242615,0.0406265,-0.249062,0.0101471,-0.00102997,0.0401306,0.0645065
7,7,10.0097,0.000915527,-0.00213623,-2.42531,0.0553758,-0.0747579,0.0532125,0.07036,-0.0922309,0.146234,-0.124546,-0.085317,0.0127029,0.0703812,0.0734329,0.0159073,-0.0597382,0.0444794,-0.00511169,0.0833893,-9.97986,-0.00370026,0.0155258,0.0392151,-0.279465,0.0162506,-0.00213623,0.0349426,0.0671387
7,8,10.0097,0.000915527,-0.00198364,-2.42531,0.0565965,-0.0729268,0.0544332,0.0709703,-0.0922309,0.14776,-0.124241,-0.0825704,0.00892639,0.0653076,0.067215,0.0188828,-0.0608063,0.0517273,-0.00541687,0.0795746,-9.97986,-0.00583649,0.0279999,0.0382614,-0.297356,0.0152206,-0.00549316,0.0320435,0.0614548
7,9,10.0097,0,-0.0012207,-2.42501,0.0565965,-0.073232,0.0556539,0.0709703,-0.0925361,0.146844,-0.124546,-0.0831808,0.0087738,0.0744247,0.0617218,0.0158691,-0.0592422,0.054245,-0.00610352,0.0552368,-9.97986,0.000457764,0.0178146,0.0413895,-0.304146,0.0152969,-0.0063324,0.0293732,0.0660324
8,0,10.0097,0,-0.0012207,-2.42653,0.0562914,-0.0735371,0.0547383,0.0728014,-0.0913154,0.145318,-0.124851,-0.0816549,0.0144196,0.0561905,0.0442505,0.0138855,-0.0616837,0.0571442,-0.00827789,0.0346375,-9.97986,0.0120926,-0.0111389,0.0421524,-0.310059,0.0160217,-0.00896454,0.0274277,0.0702286
8,1,10.0097,0,0.000610352,-2.42562,0.0565965,-0.0735371,0.0553487,0.072191,-0.0910102,0.145929,-0.124241,-0.0813497,0.00961304,0.0281525,0.029068,0.0177002,-0.0598526,0.0675201,-0.0107193,0.0428009,-9.97986,0.00988007,-0.00118256,0.0374603,-0.306702,0.0169373,-0.0139618,0.0187683,0.0680542
8,2,10.0097,0.000915527,-0.000152588,-2.42531,0.0569017,-0.0729268,0.0547383,0.0715807,-0.0922309,0.145624,-0.12363,-0.0816549,0.00946045,0.0317383,0.0088501,0.0175095,-0.0480652,0.0729752,-0.0117493,0.0530624,-9.97986,0.0123215,0.0126266,0.0342178,-0.305023,0.0165939,-0.0159454,0.0167847,0.0735092
8,3,10.0097,0.000305176,-0.0012207,-2.42531,0.0562914,-0.073232,0.0526021,0.0596788,-0.0931465,0.145318,-0.124546,-0.0831808,0.00804901,0.0221634,-0.0313568,0.0208664,-0.0437546,0.0879669,-0.0161743,0.0632858,-9.97986,0.0136185,0.00724792,0.0352478,-0.319138,0.0131226,-0.0112915,0.0143051,0.0667953
8,4,10.0097,0.000305176,-0.00183105,-2.42653,0.0559862,-0.0738423,0.0544332,0.0566271,-0.0925361,0.146539,-0.125461,-0.0816549,0.00595093,0.00595093,-0.0392914,0.028801,-0.0385284,0.0908661,-0.022583,0.0540161,-9.97986,0.0166702,0.0190735,0.0275803,-0.324631,0.00545502,-0.0173187,0.00953674,0.0652695
8,5,10.0097,-0.000610352,-0.000610352,-2.42623,0.0553758,-0.0741475,0.0547383,0.0642565,-0.0919257,0.145929,-0.126072,-0.0816549,0.0102615,0.0201416,-0.0141907,0.0249481,-0.0408173,0.0951004,-0.0233078,0.0361252,-9.97986,0.014801,-0.00583649,0.0311279,-0.319939,0.00606537,-0.0165558,0.00740051,0.0696182
8,6,10.0097,0.00152588,-0.000305176,-2.42806,0.0550706,-0.0741475,0.054128,0.0688341,-0.0937568,0.145929,-0.125766,-0.0828756,0.00751495,0.0294113,0.013504,0.0236511,-0.0366592,0.0999451,-0.0239944,0.0289536,-9.97986,0.0107574,-0.00400543,0.0287628,-0.319443,0.00694275,-0.0304413,0.00572205,0.066185
8,7,10.0097,0.00152588,0.000915527,-2.42623,0.0547655,-0.0744527,0.0550435,0.0850084,-0.0916206,0.145318,-0.125156,-0.0822652,0.00743866,0.0461197,0.0251389,0.0218201,-0.0263214,0.0917435,-0.0225067,0.0190353,-9.97986,0.00854492,0.0328445,0.0302124,-0.312614,0.00656128,-0.0455475,0.00232697,0.069809
8,8,10.0097,0,0.00198364,-2.42806,0.0535448,-0.0762837,0.0519917,0.0764635,-0.0952827,0.142877,-0.126682,-0.0859274,0.0113297,0.0540543,0.0386047,0.0125122,-0.0255585,0.0880051,-0.0253677,0.0129318,-9.97986,0.0101089,0.0523758,0.0292969,-0.290604,0.00564575,-0.0436401,0.000762939,0.0699615
8,9,10.0097,0.000305176,0.00259399,-2.42959,0.0544603,-0.0759786,0.0529073,0.0724962,-0.0946723,0.143792,-0.127598,-0.0859274,0.0124741,0.0496292,0.0407791,0.0137711,-0.0159836,0.0865936,-0.0196075,0.0113678,-9.97986,0.00797272,0.0685883,0.0271988,-0.253754,0.0063324,-0.0374985,-0.00453949,0.0682831
9,0,10.0097,-0.000610352,0.00289917,-2.42867,0.0532396,-0.0762837,0.0532125,0.0697496,-0.0946723,0.142267,-0.126987,-0.0850118,0.00988007,0.0358963,0.0380707,0.0143433,-0.0109482,0.0819016,-0.0149155,0.0177002,-9.97986,0.0138474,0.0701904,0.0281143,-0.215683,0.0062561,-0.0345612,-0.00118256,0.0697327
9,1,10.0097,0.000610352,0.00366211,-2.42806,0.0529344,-0.0747579,0.0519917,0.0688341,-0.0943672,0.142877,-0.127292,-0.0865377,0.0103378,0.0332642,0.0350952,0.0151062,-0.00225067,0.0828934,-0.0136566,0.0226593,-9.97986,0.0123978,0.0574875,0.0250244,-0.174789,0.00728607,-0.0261688,-0.00617981,0.0690842
9,2,10.0097,0.000610352,0.00335693,-2.42898,0.0538499,-0.0759786,0.0522969,0.0691393,-0.094062,0.143487,-0.128208,-0.085317,0.00621796,0.0275803,0.0302505,0.017662,0.0037384,0.0749588,-0.00675201,0.0167084,-9.97986,0.0151062,0.033226,0.0170135,-0.128899,0.00385284,-0.0172043,-0.00629425,0.073967
9,3,10.0097,-0.000915527,0.0038147,-2.42837,0.0538499,-0.0759786,0.0516866,0.0706652,-0.0934516,0.143487,-0.127598,-0.0865377,0.00873566,0.0259781,0.0278473,0.0165558,0.0125504,0.0764084,-0.00347137,0.0139236,-9.97986,0.0112152,0.000648499,0.0109482,-0.0813293,0.00205994,-0.0107193,-0.0127411,0.0711823
9,4,10.0097,0,0.0038147,-2.42714,0.0547655,-0.075063,0.0526021,0.0679186,-0.0961982,0.144708,-0.127598,-0.0847066,0.00862122,0.0239563,0.0154877,0.0242996,0.0217819,0.0697327,0.00198364,0.0145721,-9.97986,0.0131607,-0.0289154,0.0104523,-0.0354385,-0.0069809,-0.0139999,-0.0112152,0.0687027
9,5,10.0097,-0.000305176,0.00457764,-2.42745,0.0550706,-0.075063,0.0522969,0.0679186,-0.0937568,0.145318,-0.125766,-0.0837911,0.0069809,0.0255203,0.0238419,0.0193024,0.0283051,0.0627136,0.0101852,0.0227737,-9.97986,0.0175858,-0.0329971,0.00576019,0.0107193,-0.0128555,-0.0195313,-0.0158691,0.0688934
9,6,10.0097,-0.000305176,0.00350952,-2.42776,0.0559862,-0.073232,0.0519917,0.0740221,-0.0931465,0.145318,-0.126377,-0.0834859,0.00892639,0.0315475,0.0270462,0.0222778,0.0323105,0.0653839,0.0121689,0.0254822,-9.97986,0.0140762,-0.026741,0.000495911,0.0428009,-0.0175476,-0.0225449,-0.0193787,0.0667191
9,7,10.0097,-0.00213623,0.00427246,-2.42623,0.0547655,-0.0735371,0.054128,0.0694445,-0.0943672,0.143182,-0.126072,-0.0825704,0.00705719,0.0252533,0.0331116,0.0189972,0.0328064,0.0627518,0.0195313,0.0276566,-9.97986,0.0129318,-0.015564,-0.00816345,0.0841522,-0.0245667,-0.0224304,-0.0197983,0.0645828
9,8,10.0097,0.000915527,0.00427246,-2.42562,0.0569017,-0.0738423,0.0550435,0.0706652,-0.0919257,0.146844,-0.123935,-0.0807394,0.00797272,0.0201035,0.0247192,0.0226212,0.0389481,0.0625229,0.02491,0.0279236,-9.97986,0.0119019,-0.0164795,-0.00812531,0.125008,-0.0257111,-0.0261307,-0.0199127,0.0638962
9,9,10.0097,0.000610352,0.00366211,-2.42531,0.0565965,-0.073232,0.054128,0.0740221,-0.0919257,0.146234,-0.12363,-0.080129,0.0129318,0.0165176,0.0171661,0.0172806,0.0500488,0.0633621,0.0339508,0.0288773,-9.97986,0.0204086,-0.0137711,-0.00789642,0.161781,-0.0302124,-0.0222778,-0.0197983,0.0601578
10,0,10.0097,0.00244141,0.00320435,-2.4247,0.055681,-0.0744527,0.055959,0.0712755,-0.090705,0.144403,-0.125156,-0.0792135,0.00793457,0.0186539,0.0265121,0.0148392,0.0505066,0.0623703,0.0416565,0.0291443,-9.97986,0.0160217,0.00190735,-0.0107193,0.191154,-0.0350571,-0.0269318,-0.018959,0.0568008
10,1,10.0097,-0.000915527,0.00274658,-2.42531,0.0565965,-0.0726216,0.0538228,0.0712755,-0.0913154,0.146539,-0.124546,-0.0798238,0.0113678,0.0220871,0.0258636,0.0122833,0.0566483,0.0680542,0.0482559,0.0294876,-9.97986,0.0114822,-0.00751495,-0.0125504,0.216827,-0.0400543,-0.0342941,-0.0246048,0.0589371
10,2,10.0097,0.000610352,0.00228882,-2.4244,0.0572069,-0.0726216,0.0550435,0.0709703,-0.0913154,0.147149,-0.124241,-0.0792135,0.00663757,0.0199127,0.0214005,0.0169754,0.0572968,0.0665283,0.0550079,0.028038,-9.97986,0.0185013,-0.00816345,-0.0147629,0.237885,-0.0429535,-0.045166,-0.0255966,0.0557327
10,3,10.0097,0.00213623,0.00274658,-2.42592,0.0565965,-0.0741475,0.0544332,0.0636461,-0.0934516,0.146234,-0.126072,-0.0807394,0.0101852,0.0174713,0.0270081,0.00904083,0.0671768,0.0667572,0.0655365,0.0300217,-9.97986,0.0175858,0.0105667,-0.0114441,0.26371,-0.0416565,-0.0484848,-0.0209045,0.0546646
10,4,10.0097,0.000915527,0.00167847,-2.42379,0.0559862,-0.0744527,0.0538228,0.0593737,-0.0928413,0.145013,-0.125766,-0.0816549,0.00694275,0.0252533,0.0272751,0.0127411,0.0711441,0.0660324,0.0736618,0.0230408,-9.97986,0.0143814,0.0297928,-0.0162506,0.286217,-0.0397873,-0.0412369,-0.0246811,0.0533676
10,5,10.0097,0.000915527,0.00137329,-2.42592,0.055681,-0.0744527,0.054128,0.0645616,-0.0919257,0.145624,-0.126072,-0.0819601,0.00370026,0.0300217,0.0325394,0.0123596,0.074234,0.0656891,0.0833511,0.0216675,-9.97986,0.0131607,0.0269699,-0.0123978,0.310631,-0.0406265,-0.0296783,-0.0266266,0.0494385
10,6,10.0097,0,0.00289917,-2.42714,0.0550706,-0.0738423,0.054128,0.07036,-0.0916206,0.146234,-0.125156,-0.0822652,0.00835419,0.0289536,0.0263977,0.0139618,0.0774384,0.0612259,0.0957108,0.0246048,-9.97986,0.0154877,0.0056839,-0.00545502,0.341911,-0.0304031,-0.0174332,-0.0268173,0.0455475
10,7,10.0097,0.000610352,0.00335693,-2.42653,0.0547655,-0.075063,0.0547383,0.0828722,-0.0916206,0.145624,-0.124546,-0.0819601,0.00843048,0.0379562,0.0266266,0.0110626,0.0761414,0.0579071,0.102768,0.0266647,-9.97986,0.0186539,0.00133514,-0.00427246,0.363426,-0.0261688,-0.0106049,-0.0228119,0.0449371
10,8,10.0097,-0.00213623,0.00274658,-2.42867,0.0535448,-0.0738423,0.0526021,0.0743273,-0.0934516,0.144708,-0.126682,-0.0856222,0.00865936,0.0507736,0.0260925,0.0155258,0.0812912,0.059166,0.106659,0.023613,-9.97986,0.0179291,0.0264359,0.00297546,0.381737,-0.0188065,-0.00579834,-0.0246429,0.0430298
10,9,10.0097,0.0012207,0.0012207,-2.42867,0.055681,-0.075063,0.0529073,0.07036,-0.0955879,0.143487,-0.126987,-0.0856222,0.00980377,0.0514984,0.017395,0.0135803,0.0818253,0.0543976,0.105972,0.0228119,-9.97986,0.0191498,0.028038,0.00915527,0.394325,-0.0106049,0.0030899,-0.0201797,0.0419998
11,0,10.0097,-0.000305176,0.00106812,-2.4302,0.0532396,-0.0759786,0.0532125,0.0685289,-0.0943672,0.145624,-0.127598,-0.0871481,0.00862122,0.038681,0.0165939,0.0115585,0.0868988,0.0570297,0.103645,0.0207138,-9.97986,0.0196838,0.00858307,0.0141144,0.40638,-0.0088501,-0.0174332,-0.0182724,0.0440979
11,1,10.0097,0.000305176,0.00106812,-2.42928,0.0541551,-0.0759786,0.0529073,0.0679186,-0.0946723,0.142877,-0.128208,-0.0868429,0.00507355,0.0334167,0.0210953,0.0106049,0.088768,0.0590515,0.100098,0.0204468,-9.97986,0.0174332,-0.0160217,0.0198364,0.412254,-0.00938416,-0.0434494,-0.0161743,0.0389481
11,2,10.0097,-0.00244141,0.000305176,-2.42867,0.0538499,-0.0762837,0.0526021,0.0682238,-0.0937568,0.143487,-0.126987,-0.0874532,0.00495911,0.0307846,0.0183487,0.0124741,0.0889206,0.0595093,0.088768,0.0242996,-9.97986,0.0125504,-0.0120163,0.0192261,0.428085,-0.00236511,-0.0488663,-0.018425,0.0388336
11,3,10.0097,0.000305176,0.000762939,-2.42806,0.0532396,-0.0756734,0.0532125,0.0682238,-0.094062,0.142572,-0.128513,-0.0868429,0.00518799,0.0356293,0.0218201,0.0140381,0.0921249,0.0592804,0.0788498,0.0219345,-9.97986,0.014534,0.0187302,0.0280762,0.43869,0.00133514,-0.0428772,-0.01091,0.0392151
11,4,10.0097,-0.0012207,0.000305176,-2.42776,0.0544603,-0.0762837,0.0529073,0.0694445,-0.0946723,0.143792,-0.127598,-0.085317,3.8147e-005,0.0270081,0.0235748,0.00988007,0.0953674,0.0520325,0.0681305,0.0218582,-9.97986,0.0133514,0.0283051,0.0370789,0.443535,0.00587463,-0.0294113,-0.0127029,0.0377655
11,5,10.0097,0.000305176,0.000915527,-2.42898,0.0541551,-0.0738423,0.0513814,0.0691393,-0.0937568,0.144403,-0.127292,-0.0847066,0.00038147,0.0297928,0.0225067,0.0107574,0.0904083,0.0455093,0.0522232,0.0219727,-9.97986,0.0144958,0.0127411,0.0130844,0.448647,0.0146866,-0.0148392,-0.00961304,0.0395584
11,6,10.0097,-0.000305176,0.000457764,-2.42714,0.0550706,-0.0744527,0.0526021,0.0694445,-0.0922309,0.146234,-0.126377,-0.0847066,0.0012207,0.0328827,0.026474,0.0135422,0.0891113,0.0434875,0.0415421,0.0178146,-9.97986,0.0134277,-0.00164032,-0.037384,0.452461,0.018425,-0.0107574,-0.00804901,0.0350571
11,7,10.0097,0.00152588,-0.000152588,-2.42592,0.0547655,-0.0747579,0.0529073,0.0700548,-0.0928413,0.144098,-0.125766,-0.0831808,0.00530243,0.0297928,0.027771,0.0152588,0.0859833,0.0391388,0.0305176,0.0187683,-9.97986,0.0143433,0.0138855,-0.0914764,0.453644,0.0193024,-0.00225067,-0.0025177,0.0377274
11,8,10.0097,-0.000610352,0.000457764,-2.42531,0.0572069,-0.073232,0.0550435,0.072191,-0.0925361,0.147149,-0.125766,-0.0819601,0.00823975,0.0305939,0.0260544,0.0110245,0.0858688,0.0294495,0.0211334,0.0235367,-9.97986,0.0140381,0.0143051,-0.131531,0.452843,0.0238419,0.00995636,-0.00301361,0.0351334
11,9,10.0097,-0.000305176,-0.000152588,-2.42501,0.0559862,-0.0735371,0.0547383,0.0715807,-0.0919257,0.144708,-0.125156,-0.0822652,0.00972748,0.0247955,0.0251007,0.0121307,0.0860214,0.0226212,0.0158691,0.0224686,-9.97986,0.0123215,-0.00164032,-0.137863,0.448189,0.0244141,-0.0031662,-0.00148773,0.0340652
12,0,10.0097,0.00213623,-0.000610352,-2.42531,0.0565965,-0.0735371,0.0547383,0.0706652,-0.0916206,0.145929,-0.124851,-0.0813497,0.0136185,0.0260162,0.0259781,0.0167084,0.0849533,0.00736237,0.00915527,0.0228119,-9.97986,0.0123596,0.000305176,-0.129547,0.439644,0.0178146,-0.0133896,-0.000305176,0.0334549
12,1,10.0097,0.000305176,-0.000457764,-2.42379,0.0575121,-0.0747579,0.0553487,0.0715807,-0.0913154,0.146539,-0.12363,-0.0810445,0.00961304,0.0289536,0.0299835,0.0175095,0.0849533,-0.00324249,0.00556946,0.0200272,-9.97986,0.0114822,-0.00408173,-0.109673,0.436783,0.0230408,-0.011673,0.00221252,0.0357819
12,2,10.0097,0,0,-2.4247,0.0559862,-0.0738423,0.0553487,0.0712755,-0.0931465,0.146234,-0.12363,-0.0816549,0.00934601,0.0284195,0.0273132,0.0154495,0.0851822,-0.0128555,0.00087738,0.0196457,-9.97986,0.0124359,-0.0196075,-0.0874329,0.432587,0.0143814,-0.0115204,0.00473022,0.0374603
12,3,10.0097,0,-0.000305176,-2.42531,0.0562914,-0.073232,0.0553487,0.0630358,-0.0922309,0.146234,-0.124851,-0.0825704,0.00793457,0.029068,0.0244522,0.0143051,0.0819778,-0.0265121,-0.00133514,0.0166321,-9.97986,0.0094986,-0.0204468,-0.0722504,0.419884,0.01194,-0.0122452,0.0087738,0.0321198
12,4,10.0097,-0.000915527,-0.00183105,-2.42684,0.0562914,-0.0744527,0.0550435,0.0590685,-0.0934516,0.145013,-0.125156,-0.0831808,0.0169373,0.0299835,0.0288391,0.0164413,0.086441,-0.0299072,-0.000915527,0.018692,-9.97986,0.0126648,-0.0278091,-0.0525284,0.411377,0.00839233,-0.0118637,0.00766754,0.0294113
12,5,10.0097,-0.000305176,-0.00152588,-2.42714,0.055681,-0.0741475,0.0544332,0.0648668,-0.0925361,0.144708,-0.125461,-0.0828756,0.0170898,0.025177,0.027504,0.0158691,0.0842285,-0.0344467,0.00102997,0.0263977,-9.97986,0.00736237,-0.0535965,-0.0411606,0.392952,-0.00179291,-0.0191116,0.00946045,0.0245285
12,6,10.0097,-0.000610352,-0.00137329,-2.42684,0.0547655,-0.0756734,0.054128,0.0694445,-0.0922309,0.145013,-0.125156,-0.0834859,-0.00904083,0.0294495,0.0246429,0.0137329,0.0814819,-0.0431824,0.00312805,0.0235367,-9.97986,0.00659943,-0.056076,-0.0238419,0.375671,-0.00816345,-0.0153732,0.0139999,0.0192642
12,7,10.0097,0.00152588,-0.000915527,-2.42653,0.0547655,-0.0744527,0.0535176,0.0840929,-0.0922309,0.145013,-0.124546,-0.0834859,-0.0212097,0.0252914,0.026474,0.0153351,0.0871658,-0.047226,-0.00038147,0.0245667,-9.97986,0.00587463,-0.037117,-0.00858307,0.354881,-0.0136566,-0.0168991,0.0125122,0.0163269
12,8,10.0097,0,-0.00259399,-2.42714,0.0544603,-0.0759786,0.0522969,0.0724962,-0.0949775,0.143487,-0.126987,-0.0862325,-0.0342178,0.0309372,0.0235748,0.0128174,0.0891495,-0.0529861,0.00919342,0.0252914,-9.97986,0.00679016,-0.0130844,-0.00873566,0.321159,-0.0117493,-0.0168991,0.0202942,0.0170898
12,9,10.0097,0.00152588,-0.00289917,-2.42745,0.0538499,-0.0768941,0.0535176,0.0718859,-0.094062,0.144098,-0.126072,-0.0859274,-0.0350952,0.0309753,0.0227737,0.0154114,0.091095,-0.0509262,0.00667572,0.0232697,-9.97986,0.00965118,-0.00572205,-0.0063324,0.292397,-0.0194168,-0.0162506,0.022049,0.0161743
13,0,10.0097,-0.000915527,-0.00320435,-2.42898,0.0541551,-0.0753682,0.0513814,0.0697496,-0.0946723,0.143487,-0.127292,-0.0880636,-0.0326157,0.0322723,0.0243759,0.0151443,0.0896835,-0.0522995,0.0128555,0.0164795,-9.97986,0.00419617,-0.0025177,-0.0125122,0.26001,-0.0257111,-0.0170517,0.0264359,0.0130844
13,1,10.0097,0.00305176,-0.00289917,-2.42837,0.0532396,-0.0753682,0.0532125,0.0679186,-0.095893,0.143792,-0.127292,-0.0886739,-0.0201416,0.0286102,0.0288391,0.0199127,0.0845718,-0.0505066,0.00961304,0.00930786,-9.97986,0.00644684,-0.0109863,-0.0120926,0.2174,-0.0229645,-0.0172043,0.0273514,0.0164413
13,2,10.0097,0,-0.00427246,-2.42959,0.0532396,-0.075063,0.0522969,0.0682238,-0.0946723,0.143182,-0.127598,-0.0886739,-0.00923157,0.0274277,0.0251389,0.0189972,0.0903702,-0.0437164,0.0125885,0.0125885,-9.97986,0.00659943,-0.00766754,-0.0232697,0.18219,-0.021019,-0.00930786,0.032196,0.0155258
13,3,10.0097,0.000610352,-0.0038147,-2.42959,0.0547655,-0.0756734,0.0516866,0.0691393,-0.0952827,0.144098,-0.128208,-0.0880636,0.00392914,0.0286102,0.0214005,0.0221634,0.0853348,-0.0376892,0.0166321,0.00598907,-9.97986,0.00823975,-0.0138855,-0.0247955,0.141907,-0.0239944,-0.00663757,0.0321198,0.0208282
13,4,10.0097,0.000305176,-0.00396729,-2.42806,0.0541551,-0.0747579,0.0529073,0.0694445,-0.0934516,0.14776,-0.127292,-0.0871481,-0.00400543,0.0278091,0.0280762,0.0236893,0.0903702,-0.0306702,0.0159454,0.0101471,-9.97986,0.0056076,-0.0360107,-0.0214005,0.104485,-0.0259018,-0.000839233,0.0313568,0.0221252
13,5,10.0097,0.00183105,-0.00274658,-2.42714,0.0550706,-0.0744527,0.0532125,0.0700548,-0.0928413,0.144403,-0.126987,-0.0859274,0.00965118,0.0326538,0.0281143,0.0178528,0.0875473,-0.0276566,0.0165939,0.00656128,-9.97986,-0.00038147,-0.0526428,-0.0117493,0.0772095,-0.0222397,0.0018692,0.0299454,0.026474
13,6,10.0097,-0.000305176,-0.00259399,-2.42714,0.0559862,-0.0738423,0.0550435,0.0706652,-0.0913154,0.144403,-0.126072,-0.0856222,0.0405502,0.0332642,0.0235367,0.0250626,0.0871277,-0.0260925,0.0187683,-0.00583649,-9.97986,-0.00785828,-0.0445557,0.00328064,0.0479889,-0.0234604,0.00507355,0.0341034,0.0325012
13,7,10.0097,0.000305176,-0.00289917,-2.42653,0.0547655,-0.075063,0.054128,0.0688341,-0.0922309,0.146234,-0.125156,-0.0840963,0.0673676,0.0310898,0.0299454,0.0249863,0.0853348,-0.0154495,0.0221634,-0.0143051,-9.97986,-0.0111771,-0.0318146,0.0154877,0.0217819,-0.020752,0.00263214,0.0314331,0.0392151
13,8,10.0097,0.00152588,-0.00228882,-2.42501,0.0569017,-0.0744527,0.0556539,0.0728014,-0.0922309,0.146844,-0.125156,-0.0816549,0.0658417,0.0305176,0.025444,0.0226212,0.0847626,-0.0126648,0.026207,-0.0177765,-9.97986,-0.0168991,-0.026207,0.0302887,-0.0101852,-0.0200272,0.00778198,0.0292969,0.0413132
13,9,10.0097,0.00183105,-0.00198364,-2.42562,0.0553758,-0.0738423,0.0553487,0.0682238,-0.0897895,0.145929,-0.124241,-0.0819601,0.038147,0.0340271,0.0268555,0.0221252,0.0828171,-0.000762939,0.0308228,-0.0165558,-9.97986,-0.0233841,-0.0246429,0.0432587,-0.0289154,-0.0167847,0.00984192,0.0296402,0.0417709
14,0,10.0097,0.000305176,-0.00213623,-2.42562,0.055681,-0.0729268,0.055959,0.0715807,-0.0919257,0.149286,-0.124241,-0.0813497,0.0273895,0.0310898,0.0234604,0.0199127,0.0850677,0.00507355,0.0270844,-0.00659943,-9.97986,-0.0363922,-0.02388,0.0578308,-0.0540161,-0.0143814,0.00988007,0.0308228,0.0431061
14,1,10.0097,0.000915527,-0.00198364,-2.42501,0.0578172,-0.0747579,0.0556539,0.0712755,-0.0910102,0.147149,-0.12363,-0.0810445,0.0198746,0.0250626,0.0203705,0.0194168,0.0865936,0.00648499,0.0288773,-0.00137329,-9.97986,-0.0408554,-0.0170135,0.0632477,-0.0668716,-0.0136566,0.00995636,0.0324631,0.0406265
14,2,10.0097,-0.000305176,-0.00183105,-2.42501,0.0565965,-0.073232,0.0550435,0.0718859,-0.0922309,0.146539,-0.123325,-0.0816549,0.0217056,0.0266266,0.0193787,0.0152588,0.0741577,0.0138855,0.0305557,0.000648499,-9.97986,-0.0260544,-0.0166321,0.0620651,-0.0865936,-0.00480652,0.00789642,0.0289154,0.0352859
14,3,10.0097,0.000305176,-0.0012207,-2.42653,0.0569017,-0.0741475,0.0522969,0.0621202,-0.0931465,0.14837,-0.124851,-0.0816549,0.0311661,0.0301743,0.015564,0.0177002,0.0636673,0.0114441,0.0343704,0.00553131,-9.97986,-0.0159454,-0.0117874,0.0505829,-0.100746,-0.00190735,0.0056839,0.0310898,0.0325012
14,4,10.0097,0.000305176,-0.00183105,-2.42623,0.0565965,-0.0735371,0.0544332,0.0593737,-0.0934516,0.145624,-0.125461,-0.0822652,0.0379944,0.0225449,0.0158691,0.0225067,0.055542,0.014801,0.0390244,0.000915527,-9.97986,0.00389099,-0.0122833,0.0324249,-0.11261,0.00339508,0.0111008,0.0288391,0.0262833
14,5,10.0097,0,-0.00167847,-2.42623,0.0553758,-0.0738423,0.0544332,0.0657823,-0.0922309,0.144403,-0.125156,-0.0828756,0.00827789,0.0251007,0.0135422,0.0172806,0.0551605,0.00720978,0.0367737,0.00415802,-9.97986,0.0127411,-0.0233459,0.00976563,-0.12516,0.00419617,0.00873566,0.0296783,0.0135803
14,6,10.0097,-0.000915527,-0.000457764,-2.42653,0.0553758,-0.0744527,0.0535176,0.0715807,-0.0919257,0.145013,-0.125461,-0.0831808,-0.00968933,0.0268173,0.00617981,0.0136185,0.0471878,-0.0141144,0.0354004,0.00724792,-9.97986,0.0325775,-0.0143051,-0.0177765,-0.132065,0.00530243,0.00995636,0.0294876,0.0044632
14,7,10.0097,0.00244141,0.000305176,-2.42653,0.0535448,-0.0753682,0.0522969,0.0828722,-0.0910102,0.145624,-0.125461,-0.0831808,-0.018959,0.019455,0.00534058,0.00919342,0.0381088,-0.0244141,0.033493,0.0094986,-9.97986,0.0555801,-0.0127411,-0.0385284,-0.138016,0.0147247,0.00991821,0.0278091,-0.00442505
14,8,10.0097,-0.000610352,-0.000457764,-2.42837,0.0535448,-0.0762837,0.050771,0.0767687,-0.0928413,0.145318,-0.126987,-0.0862325,-0.00728607,0.0200272,0.00331879,0.0121689,0.0311279,-0.0262833,0.0339508,0.0179291,-9.97986,0.0626373,-0.0107574,-0.0615311,-0.148087,0.0146866,0.00938416,0.027504,-0.0121689
14,9,10.0097,0.00183105,-0.000610352,-2.42928,0.0526292,-0.0765889,0.0522969,0.0712755,-0.0955879,0.143182,-0.125461,-0.0865377,0.00869751,0.0184631,0.000762939,0.0121689,0.0288391,-0.0313568,0.0334167,0.0295639,-9.97986,0.0597382,-0.0229263,-0.0819778,-0.158768,0.0144958,0.0144196,0.0274277,-0.0195694
15,0,10.0097,0.000305176,-0.000762939,-2.42898,0.0541551,-0.075063,0.0516866,0.07036,-0.095893,0.143792,-0.126682,-0.0874532,-0.00419617,0.0211716,-0.00255585,0.00938416,0.0300217,-0.0252533,0.0335693,0.0327301,-9.97986,0.0469971,-0.0176239,-0.098381,-0.169106,0.0177002,0.0165558,0.0244141,-0.0258255
15,1,10.0097,0.0012207,-0.000915527,-2.42959,0.0529344,-0.0768941,0.050771,0.0673082,-0.0946723,0.144403,-0.127903,-0.0871481,-0.0328827,0.0238037,0.00328064,0.00774384,0.031395,-0.0207138,0.0358582,0.0343704,-9.97986,0.0331116,-0.00907898,-0.111504,-0.180168,0.0218582,0.0123596,0.0217819,-0.0319672
15,2,10.0097,-0.000610352,-0.000762939,-2.42745,0.0529344,-0.0765889,0.0519917,0.0673082,-0.0952827,0.142877,-0.126682,-0.0868429,-0.036087,0.022583,0.00556946,0.0107956,0.0326538,-0.0227737,0.0338745,0.0276184,-9.97986,0.0209808,-0.0075531,-0.126266,-0.195465,0.0239182,0.013237,0.0205994,-0.0345612
15,3,10.0097,0,-0.00198364,-2.42806,0.0538499,-0.0820821,0.0516866,0.0688341,-0.0952827,0.143487,-0.127598,-0.0880636,-0.0452042,0.031662,0.00682831,0.00953674,0.0365448,-0.0177765,0.0323868,0.0206757,-9.97986,0.0126648,-0.00534058,-0.134659,-0.210953,0.024147,0.0149155,0.0218964,-0.063591
15,4,10.0097,0.00244141,-0.00167847,-2.42776,0.0541551,-0.075063,0.0526021,0.0694445,-0.0943672,0.143487,-0.126987,-0.0862325,-0.0415802,0.0261307,0.0105667,0.0130081,0.040741,-0.0175858,0.0295639,0.0161743,-9.97986,0.0115967,-0.000419617,-0.137863,-0.222473,0.0266647,0.010643,0.0180054,-0.102348
15,5,10.0097,-0.000305176,-0.000610352,-2.42653,0.0550706,-0.0753682,0.0529073,0.0694445,-0.0919257,0.144708,-0.126377,-0.085317,-0.0239563,0.0283432,0.0107956,0.013237,0.046196,-0.0118637,0.0299454,0.00598907,-9.97986,0.011673,0.00305176,-0.140839,-0.237503,0.0301361,0.013237,0.0178528,-0.129623
15,6,10.0097,0.00152588,-0.00213623,-2.42745,0.055681,-0.0753682,0.0529073,0.0694445,-0.0931465,0.145624,-0.126377,-0.0850118,-0.00881195,0.0343704,0.0108719,0.0116348,0.0498581,-0.00621796,0.0276566,-0.00461578,-9.97986,0.0171661,-0.00602722,-0.143013,-0.254326,0.0318146,0.0151443,0.0200272,-0.145988
15,7,10.0097,-0.00152588,-0.0012207,-2.42684,0.0553758,-0.0753682,0.0532125,0.07036,-0.0916206,0.145929,-0.125766,-0.0844015,0.0411987,0.0336456,0.0217438,0.0167084,0.0631332,-0.000762939,0.0243759,-0.00663757,-9.97986,0.0219727,0.0025177,-0.138168,-0.270805,0.0370789,0.0137329,0.0178146,-0.153923
15,8,10.0097,0.00213623,-0.00228882,-2.4247,0.0562914,-0.0738423,0.0544332,0.0731066,-0.090705,0.146234,-0.123935,-0.0822652,0.0858688,0.0323105,0.0201035,0.0174713,0.071907,0.0177765,0.0233841,0.0018692,-9.97986,0.0287628,0.00671387,-0.131149,-0.288734,0.0393677,0.0139999,0.0237656,-0.152092
15,9,10.0097,0.0012207,-0.00228882,-2.42562,0.0559862,-0.0744527,0.0547383,0.0706652,-0.0916206,0.145929,-0.124241,-0.0819601,0.0826263,0.0245285,0.0107574,0.00843048,0.0723648,0.0239182,0.0187683,3.8147e-005,-9.97986,0.00659943,-0.00270844,-0.133591,-0.3162,0.0354004,0.00324249,0.0205231,-0.16674
16,0,10.0097,0.00183105,-0.00167847,-2.42501,0.0562914,-0.0735371,0.0553487,0.0709703,-0.0916206,0.146234,-0.123935,-0.0822652,0.0714111,0.028038,0.0152206,0.0169754,0.0862885,0.0623703,0.0232697,0.0069809,-9.97986,0.00541687,-0.000953674,-0.119934,-0.329208,0.0454712,0.00839233,0.0314331,-0.15873
16,1,10.0097,-0.0012207,-0.00289917,-2.42592,0.0572069,-0.0747579,0.0544332,0.0715807,-0.0913154,0.146844,-0.124546,-0.0810445,0.059433,0.0186539,0.0104523,0.0118256,0.0853729,0.0798416,0.0177765,-0.00175476,-9.97986,0.00144958,-0.00350952,-0.117683,-0.344543,0.0429153,0.0101089,0.0395966,-0.165863
16,2,10.0097,0.000915527,-0.00167847,-2.4247,0.0562914,-0.0735371,0.0550435,0.07036,-0.0928413,0.145929,-0.124241,-0.0813497,0.0534439,0.0162125,0.00785828,0.0113678,0.0865173,0.114288,0.0188446,0.00183105,-9.97986,-0.0082016,-0.00255585,-0.111465,-0.355453,0.0447083,0.00728607,0.0387955,-0.168228
16,3,10.0097,-0.000915527,-0.000610352,-2.42592,0.0569017,-0.0744527,0.0553487,0.0615099,-0.0934516,0.146234,-0.125156,-0.0825704,0.0279236,0.0149918,0.00343323,0.00736237,0.0802231,0.140419,0.017662,0.00839233,-9.97986,-0.0196457,0.0030899,-0.101738,-0.363884,0.0476074,0.0062561,0.045166,-0.167122
16,4,10.0097,0.00152588,-0.00213623,-2.42562,0.0569017,-0.0744527,0.0550435,0.058153,-0.0949775,0.147149,-0.125766,-0.0822652,-0.0218201,0.0111008,-0.001297,0.00976563,0.0688553,0.150337,0.0113678,0.0103378,-9.97986,-0.0367355,0.00766754,-0.094986,-0.371208,0.0457764,0.00270844,0.0481415,-0.162506
16,5,10.0097,0,-0.000457764,-2.42562,0.055681,-0.0741475,0.0550435,0.065172,-0.0925361,0.145013,-0.125766,-0.0825704,-0.0505447,0.00793457,-0.00232697,0.00812531,0.0600052,0.145683,0.0188446,0.021553,-9.97986,-0.0214386,0.00926971,-0.0819016,-0.374146,0.0481033,0.000724792,0.0496292,-0.163383
16,6,10.0097,0.000610352,0,-2.42562,0.0547655,-0.0738423,0.0556539,0.0700548,-0.0925361,0.147149,-0.126377,-0.0831808,-0.0431442,0.00713348,-0.0100708,0.00209808,0.0488281,0.134735,0.0125885,0.0327301,-9.97986,0.001297,0.00766754,-0.0632477,-0.379105,0.0437546,0.00663757,0.0509262,-0.159645
16,7,10.0097,-0.000610352,0.000305176,-2.42653,0.0547655,-0.0747579,0.0547383,0.0828722,-0.0913154,0.145013,-0.125156,-0.0834859,-0.0203323,0.00404358,-0.00846863,0.00297546,0.0430679,0.118256,0.00770569,0.0282288,-9.97986,0.0185394,0.0178146,-0.0482559,-0.385666,0.0440598,0.0087738,0.0510406,-0.152817
16,8,10.0097,0,-0.0012207,-2.42898,0.0544603,-0.0747579,0.0538228,0.0764635,-0.095893,0.143792,-0.127598,-0.0862325,-0.0261688,-0.00343323,-0.0119781,0.000839233,0.0401688,0.100212,0.00427246,0.0367737,-9.97986,0.0366974,0.014267,-0.0336075,-0.397415,0.0375366,0.0094986,0.0496674,-0.146675
16,9,10.0097,-0.000915527,-0.000610352,-2.42837,0.0535448,-0.0768941,0.0529073,0.0718859,-0.095893,0.144708,-0.126377,-0.0856222,-0.0481796,-0.000991821,-0.0104141,0.00293732,0.0196838,0.0814438,0.00465393,0.0379944,-9.97986,0.0635147,0.0171661,-0.0204086,-0.402718,0.0335312,0.00835419,0.0491714,-0.14225
17,0,10.0097,0.00213623,-0.00167847,-2.42806,0.0532396,-0.0759786,0.0526021,0.0697496,-0.0949775,0.143487,-0.126682,-0.0865377,-0.057106,0.000190735,-0.00495911,0.00320435,0.0062561,0.0727081,-0.00087738,0.0390244,-9.97986,0.0749207,0.0183105,-0.0075531,-0.409088,0.0317383,0.00782013,0.0473785,-0.136795
17,1,10.0097,-0.00152588,-0.00106812,-2.42928,0.0544603,-0.0756734,0.0529073,0.0691393,-0.094062,0.144403,-0.127292,-0.0883688,-0.031662,0.00526428,-0.00427246,0.00171661,-0.00411987,0.0634766,-0.00202179,0.0384903,-9.97986,0.0865555,0.018425,0.00743866,-0.418625,0.0288773,0.00850677,0.0447083,-0.132332
17,2,10.0097,-0.000610352,-0.00198364,-2.4305,0.0538499,-0.0759786,0.0529073,0.0694445,-0.0937568,0.144098,-0.128208,-0.0874532,0.0056076,0.00396729,-0.00453949,-0.00106812,-0.0173569,0.0601196,-0.0012207,0.0382233,-9.97986,0.0815201,0.0127029,0.0293732,-0.424309,0.0239182,0.013504,0.0443268,-0.125504
17,3,10.0097,0.000305176,-0.000457764,-2.42837,0.0541551,-0.0762837,0.0532125,0.0700548,-0.0955879,0.143792,-0.127598,-0.0877584,0.0531006,0.00507355,-0.00286102,0.000915527,-0.026474,0.0505066,-0.00461578,0.0372696,-9.97986,0.0854111,0.0104141,0.0447083,-0.432816,0.0181198,0.00499725,0.0439835,-0.11837
17,4,10.0097,0,-0.000762939,-2.42837,0.0550706,-0.0741475,0.0538228,0.0697496,-0.094062,0.145013,-0.126987,-0.0847066,0.0783539,0.0114441,-0.000267029,0.00255585,-0.0305557,0.0448227,-0.00366211,0.0334549,-9.97986,0.0858307,0.0167465,0.0505829,-0.430107,0.0144196,0.0123596,0.0395203,-0.107422
17,5,10.0097,-0.000610352,0.000762939,-2.42714,0.0550706,-0.0762837,0.0532125,0.0688341,-0.0937568,0.143792,-0.126987,-0.0847066,0.0864792,0.0103378,0.00534058,0.00102997,-0.0345993,0.0403595,-0.00598907,0.0299454,-9.97986,0.0701141,0.0165939,0.0491714,-0.428352,0.00865936,0.00999451,0.0386429,-0.0894928
17,6,10.0097,-0.000915527,0,-2.42653,0.0553758,-0.075063,0.0532125,0.0685289,-0.0931465,0.144708,-0.126377,-0.0837911,0.0747681,0.0100327,0.00743866,0.0043869,-0.0440216,0.031395,-0.00915527,0.0272369,-9.97986,0.044632,0.0144958,0.0551987,-0.430069,0.0087738,0.0119019,0.0449371,-0.0821304
17,7,10.0097,0.0012207,0.000915527,-2.42684,0.0550706,-0.0741475,0.0550435,0.0691393,-0.094062,0.146234,-0.125156,-0.0831808,0.0619888,0.0145721,0.00934601,0.00148773,-0.0489807,0.0225449,-0.00610352,0.0263596,-9.97986,0.0220108,0.0143814,0.0683594,-0.424843,0.0108719,0.022049,0.0431824,-0.0659943
17,8,10.0097,0.000305176,0.000762939,-2.42501,0.0581224,-0.0729268,0.0535176,0.0712755,-0.0922309,0.146844,-0.123935,-0.0816549,0.0693893,0.0172043,0.00869751,0.00408173,-0.045166,0.0140381,-0.0105667,0.0304794,-9.97986,0.0231552,0.0142288,0.0749207,-0.410881,0.00511169,0.0235367,0.0424194,-0.0609207
17,9,10.0097,0,0.0012207,-2.42531,0.0562914,-0.0738423,0.0553487,0.0718859,-0.0916206,0.147455,-0.124546,-0.0816549,0.0689697,0.0127029,0.0082016,0.00762939,-0.0521088,0.000991821,-0.00411987,0.0272369,-9.97986,0.0308228,0.0180817,0.0802994,-0.402069,0.00843048,0.0222397,0.0479889,-0.0488281
18,0,10.0097,0,0.0012207,-2.42653,0.055681,-0.0735371,0.0553487,0.0706652,-0.0922309,0.146539,-0.12363,-0.0804342,0.0556183,0.0172424,0.00968933,0.0088501,-0.0549316,-0.00579834,-0.00675201,0.0242233,-9.97986,0.0408554,0.0160217,0.0904846,-0.396004,0.00587463,0.022583,0.043335,-0.0425339
18,1,10.0097,0,0.000915527,-2.4247,0.0565965,-0.0729268,0.0544332,0.0724962,-0.0913154,0.14837,-0.12363,-0.0810445,0.0475311,0.0124741,0.0112915,0.00717163,-0.0494385,-0.0121689,-0.00679016,0.0202179,-9.97986,0.0539017,0.0183868,0.0926971,-0.383949,0.0113297,0.0222015,0.0445938,-0.0317383
18,2,10.0097,-0.000610352,-0.000305176,-2.4247,0.0569017,-0.0747579,0.0553487,0.0715807,-0.0910102,0.14837,-0.125156,-0.0804342,0.0379181,0.0133896,0.0106812,0.00919342,-0.0458527,-0.0171661,-0.00305176,0.0232315,-9.97986,0.0799561,0.0178146,0.100517,-0.372925,0.00785828,0.0208282,0.0422668,-0.0247192
18,3,10.0097,-0.000610352,0.00152588,-2.42562,0.0562914,-0.0744527,0.0532125,0.0615099,-0.0946723,0.145624,-0.125766,-0.0819601,0.026741,0.00976563,0.0104904,0.00637054,-0.0424194,-0.015831,-0.00904083,0.02388,-9.97986,0.104523,0.0142288,0.0978088,-0.359039,0.00640869,0.0183105,0.0396347,-0.0155258
18,4,10.0097,0.00152588,0.000915527,-2.42684,0.0569017,-0.0744527,0.0544332,0.0575426,-0.0937568,0.145624,-0.125156,-0.0828756,0.0216293,0.0147629,0.00549316,0.0082016,-0.0408936,-0.0199509,-0.00957489,0.0345612,-9.97986,0.108528,0.0152969,0.0963593,-0.345573,0.00854492,0.0215912,0.0403976,-0.00835419
18,5,10.0097,0.000305176,0.00152588,-2.42623,0.0562914,-0.0744527,0.0544332,0.0630358,-0.0931465,0.144098,-0.126987,-0.0825704,0.00679016,0.0112152,0.0108337,0.00728607,-0.0334167,-0.0161743,-0.00804901,0.0333405,-9.97986,0.0950623,0.0143814,0.0979233,-0.333366,0.00793457,0.0182724,0.0388336,-0.000762939
18,6,10.0097,0.000610352,0.0012207,-2.42592,0.0550706,-0.0707906,0.054128,0.0688341,-0.0922309,0.145624,-0.125156,-0.0837911,-0.0121307,0.00854492,0.00720978,0.00785828,-0.0322342,-0.00839233,-0.0069046,0.0373459,-9.97986,0.0860596,0.0139999,0.0948334,-0.321999,0.00873566,0.0245667,0.0348663,0.00175476
18,7,10.0097,0.000610352,0.00198364,-2.42684,0.0544603,-0.0744527,0.0550435,0.0816515,-0.0919257,0.145013,-0.123325,-0.0822652,-0.0229645,0.0139236,0.00545502,0.00705719,-0.0231171,-0.0153351,-0.00644684,0.031929,-9.97986,0.0888062,0.0111771,0.0882721,-0.312233,0.00453949,0.0224304,0.0366974,0.00934601
18,8,10.0097,0.000610352,0.00137329,-2.42898,0.0535448,-0.0765889,0.0529073,0.0782946,-0.0934516,0.143182,-0.126072,-0.0856222,-0.0379944,0.0122833,0.0063324,0.00431061,-0.0248718,-0.0122833,-0.00865936,0.0292206,-9.97986,0.0924301,0.0139618,0.0808334,-0.302582,0.00946045,0.0242233,0.0271606,0.0141907
18,9,10.0097,-0.000610352,0.00106812,-2.42959,0.0538499,-0.0753682,0.0513814,0.072191,-0.0955879,0.143792,-0.127598,-0.0865377,-0.0450134,0.0131989,0.00499725,0.00354767,-0.0232315,-0.0128937,-0.00862122,0.0325394,-9.97986,0.0889969,0.0146484,0.0709534,-0.287132,0.0109863,0.0208664,0.0255203,0.0164795
19,0,10.0097,-0.000305176,0.00106812,-2.42898,0.0541551,-0.0759786,0.0532125,0.0700548,-0.0943672,0.143792,-0.127292,-0.0865377,-0.0340271,0.013237,0.00495911,0.00682831,-0.0174332,-0.0128937,-0.00946045,0.0302505,-9.97986,0.062027,0.00865936,0.0648117,-0.274162,0.0152588,0.0232697,0.0202179,0.019989
19,1,10.0097,-0.000305176,0.00152588,-2.42959,0.0538499,-0.0762837,0.0519917,0.0688341,-0.0937568,0.143487,-0.127903,-0.0871481,0.00087738,0.0159073,0.00518799,0.00907898,-0.0151825,-0.0135422,-0.0121307,0.0285721,-9.97986,0.0416946,0.0107193,0.0580597,-0.251846,0.0139999,0.0240326,0.0193405,0.0176239
19,2,10.0097,0.000305176,0.0012207,-2.42837,0.0547655,-0.0753682,0.0519917,0.0682238,-0.0946723,0.144403,-0.127598,-0.0868429,0.0462723,0.0206375,0.013504,0.0115967,-0.0100708,-0.0145721,-0.0135803,0.0203705,-9.97986,0.0231171,0.00656128,0.0401688,-0.233994,0.0169754,0.0235748,0.0208282,0.0209427
19,3,10.0097,0.000610352,0.00137329,-2.42867,0.0535448,-0.0759786,0.0519917,0.0682238,-0.0949775,0.140436,-0.126987,-0.0856222,0.0504303,0.0218201,0.0196457,0.0120163,-0.00793457,-0.00816345,-0.00965118,0.0130081,-9.97986,-0.00312805,0.00415802,0.0318527,-0.214081,0.0180435,0.0227737,0.0195313,0.0233841
19,4,10.0097,0.000610352,0.00198364,-2.42806,0.0541551,-0.0744527,0.0519917,0.0676134,-0.094062,0.145013,-0.126987,-0.0847066,0.0330734,0.0250244,0.0230789,0.0162506,0.00137329,-0.00926971,-0.0147247,0.0075531,-9.97986,-0.0276947,0.00793457,0.0237274,-0.190697,0.0242996,0.0231934,0.0243759,0.0254822
19,5,10.0097,0.0012207,0.00183105,-2.42745,0.0553758,-0.0744527,0.0535176,0.0691393,-0.094062,0.145013,-0.127598,-0.0840963,0.00644684,0.022583,0.0208282,0.0121307,0.000724792,-0.0124359,-0.0189972,0.00480652,-9.97986,-0.047226,-0.000152588,0.00846863,-0.172806,0.0260162,0.019989,0.0200272,0.0241089
19,6,10.0097,0.000305176,0.00259399,-2.42653,0.0553758,-0.0735371,0.0532125,0.0688341,-0.0928413,0.144403,-0.125766,-0.0840963,0.0169373,0.030632,0.0282669,0.0194168,0.0107574,-0.00507355,-0.0106049,0.00595093,-9.97986,-0.0566864,-0.00293732,0.00724792,-0.152168,0.0285721,0.0248337,0.0162506,0.0225449
19,7,10.0097,-0.000305176,0.00274658,-2.42623,0.0547655,-0.075063,0.0538228,0.0700548,-0.0922309,0.146234,-0.126682,-0.0828756,0.0386429,0.0252914,0.0255203,0.0134277,0.0100327,-0.0102615,-0.017395,0.00190735,-9.97986,-0.0673676,-0.00362396,-0.00926971,-0.127373,0.0317383,0.025177,0.0148392,0.0242233
19,8,10.0097,-0.0012207,0.00289917,-2.4247,0.0581224,-0.0744527,0.0538228,0.07036,-0.090705,0.145624,-0.125156,-0.0813497,0.0576782,0.0304413,0.0245285,0.0137329,0.0173187,-0.00255585,-0.0167465,0.00553131,-9.97986,-0.070076,-0.0056076,-0.0197983,-0.09758,0.0325012,0.0294113,0.0125122,0.0222397
19,9,10.0097,0.00152588,0.00274658,-2.42531,0.0575121,-0.073232,0.0544332,0.0700548,-0.0928413,0.148065,-0.124241,-0.0804342,0.042305,0.0239944,0.0269318,0.0100327,0.0221634,-0.000762939,-0.014801,0.00762939,-9.97986,-0.0564575,-0.001297,-0.0271606,-0.0653076,0.0376129,0.027771,0.0138855,0.0215912
20,0,10.0097,-0.00244141,0.00305176,-2.42501,0.0559862,-0.0738423,0.0547383,0.0712755,-0.0919257,0.145624,-0.124546,-0.080129,0.0281525,0.0200272,0.0241852,0.0113297,0.0239563,0.000267029,-0.0132751,0.0120926,-9.97986,-0.0464249,-0.00205994,-0.0430679,-0.0324631,0.0387192,0.0246811,0.0148392,0.0186157
20,1,10.0097,0.000915527,0.00320435,-2.42379,0.0575121,-0.0738423,0.0556539,0.07036,-0.0916206,0.147149,-0.123935,-0.080129,0.0345993,0.0200272,0.0218201,0.0130844,0.0282669,0.00476837,-0.00904083,0.0107193,-9.97986,-0.0415802,-0.0050354,-0.045433,0.000839233,0.0498581,0.0274658,0.0134659,0.0161743
20,2,10.0097,-0.0012207,0.0038147,-2.42592,0.0562914,-0.0738423,0.0538228,0.0715807,-0.0876533,0.146234,-0.124241,-0.0798238,0.0366211,0.0189209,0.0198364,0.00480652,0.022049,0.00843048,-0.0157166,0.0104523,-9.97986,-0.0257874,-0.00957489,-0.0570297,0.0334549,0.0508499,0.0273132,0.019455,0.019722
20,3,10.0097,0.000305176,0.00427246,-2.42531,0.0578172,-0.0744527,0.054128,0.0627306,-0.0928413,0.146539,-0.125156,-0.0810445,0.0269318,0.0176239,0.0135803,0.0120544,0.0275421,0.000495911,-0.0130081,0.0151825,-9.97986,-0.010643,-0.0063324,-0.0611115,0.071907,0.0534439,0.0273514,0.0215912,0.0204849
20,4,10.0097,0.000305176,0.00305176,-2.42501,0.055681,-0.0741475,0.054128,0.0587633,-0.0931465,0.147149,-0.125766,-0.0804342,0.0164032,0.0125885,0.0137329,0.00736237,0.0276566,0.00247955,-0.0138474,0.0128937,-9.97986,3.8147e-005,-0.015831,-0.0611877,0.111008,0.0631714,0.0251389,0.0252533,0.0154877
20,5,10.0097,0.0012207,0.00350952,-2.42684,0.055681,-0.0744527,0.0535176,0.0645616,-0.0922309,0.145929,-0.126377,-0.0804342,0.00259399,0.0182724,0.0133896,0.0123596,0.0298691,0.00274658,-0.00972748,0.00835419,-9.97986,0.00713348,-0.0138474,-0.0712967,0.152016,0.0630569,0.0266266,0.0301743,0.0175476
20,6,10.0097,-0.000610352,0.00320435,-2.42623,0.0550706,-0.0747579,0.054128,0.0706652,-0.0922309,0.143792,-0.125766,-0.0822652,0.00747681,0.0165176,0.0132751,0.0131607,0.034523,0.00358582,-0.0120544,0.00713348,-9.97986,0.0160599,-0.0178528,-0.0698471,0.194893,0.0694275,0.0235748,0.0318146,0.0127792
20,7,10.0097,0.00183105,0.00473022,-2.42745,0.0544603,-0.0759786,0.054128,0.082567,-0.0916206,0.145929,-0.124241,-0.0825704,0.0174713,0.0104141,0.0134659,0.0127411,0.0330734,0.00423431,-0.00961304,0.00965118,-9.97986,0.0228882,-0.0129318,-0.070076,0.240669,0.0737381,0.020752,0.0328445,0.00988007
20,8,10.0097,0.00152588,0.00442505,-2.42837,0.0550706,-0.0762837,0.0532125,0.0761583,-0.0965034,0.142572,-0.126377,-0.0844015,0.00862122,0.0117493,0.0136566,0.0130463,0.0345993,0.0111008,-0.00789642,0.00370026,-9.97986,0.030899,-0.00961304,-0.0722885,0.28614,0.0783157,0.0244522,0.033989,0.00980377
20,9,10.0097,-0.000305176,0.00473022,-2.42867,0.0538499,-0.0765889,0.0519917,0.0709703,-0.0949775,0.143792,-0.127292,-0.0850118,0.00537872,0.00995636,0.0133133,0.014534,0.0416565,0.00694275,-0.00442505,0.00179291,-9.97986,0.0334549,-0.00576019,-0.0692749,0.325165,0.087738,0.0194168,0.0360489,0.00450134
21,0,10.0097,0.000610352,0.00335693,-2.42928,0.0535448,-0.0747579,0.0532125,0.0709703,-0.0952827,0.144708,-0.127292,-0.085317,0.00946045,0.0127411,0.015831,0.0129318,0.0429535,0.00865936,-0.00717163,0.00137329,-9.97986,0.0261688,-0.00968933,-0.0608063,0.366364,0.0873184,0.0229645,0.038681,0.00213623
21,1,10.0097,0.00152588,0.0038147,-2.42867,0.0535448,-0.0756734,0.0519917,0.0685289,-0.0952827,0.142572,-0.127598,-0.0859274,0.000495911,0.0126266,0.017128,0.0140762,0.0428391,0.000457764,-0.00522614,0.00160217,-9.97986,0.032196,-0.00804901,-0.0552368,0.409012,0.0905228,0.0218201,0.0377655,-0.00293732
21,2,10.0097,0,0.00396729,-2.42989,0.0538499,-0.0756734,0.0526021,0.0691393,-0.0949775,0.144403,-0.127598,-0.0862325,-0.00179291,0.0132751,0.0159836,0.0134659,0.0469208,0.00770569,-0.00812531,0.00377655,-9.97986,0.0350952,-0.0075531,-0.0421143,0.446472,0.0947571,0.0235367,0.0426102,-0.00694275
21,3,10.0097,0.000610352,0.00350952,-2.42989,0.0529344,-0.0756734,0.0529073,0.0697496,-0.0946723,0.143792,-0.127903,-0.085317,0.00526428,0.0130081,0.02285,0.0127029,0.0421143,0.00228882,-0.00278473,0.00274658,-9.97986,0.0482941,-0.0139236,-0.0295258,0.475235,0.0971603,0.0231552,0.0453949,-0.00808716
21,4,10.0097,0.000610352,0.00305176,-2.42745,0.0550706,-0.0747579,0.0538228,0.07036,-0.0931465,0.141961,-0.126682,-0.0847066,0.0313187,0.0144577,0.018425,0.013237,0.0401688,-0.00423431,-0.00869751,0.00110626,-9.97986,0.0673676,-0.0187302,-0.0165176,0.497437,0.0972748,0.0245285,0.0462723,-0.01297
21,5,10.0097,0.000915527,0.00167847,-2.42776,0.055681,-0.0753682,0.0529073,0.0709703,-0.0934516,0.144403,-0.125461,-0.0844015,0.0354767,0.0166702,0.0185394,0.0132751,0.0419235,-0.00328064,0.000419617,-0.000953674,-9.97986,0.0811386,-0.0246048,-0.000267029,0.520515,0.0992203,0.0253296,0.0486755,-0.0157928
21,6,10.0097,0.000305176,0.00198364,-2.42714,0.0550706,-0.0759786,0.0538228,0.0688341,-0.0928413,0.144098,-0.126682,-0.0840963,0.0447845,0.0156021,0.0159836,0.0166702,0.0395584,-0.0124741,-0.00217438,-0.00202179,-9.97986,0.08564,-0.0167847,0.0128174,0.53009,0.0994492,0.0207901,0.0454712,-0.0163651
21,7,10.0097,0.000305176,0.00183105,-2.42684,0.0553758,-0.0741475,0.0538228,0.0700548,-0.0925361,0.149591,-0.125461,-0.0834859,0.0580215,0.018158,0.0159454,0.016861,0.0378799,-0.0153351,-0.00156403,0.00274658,-9.97986,0.0671005,-0.0155258,0.0297928,0.544701,0.10376,0.0234604,0.0510788,-0.0150299
21,8,10.0097,0.00213623,0.0012207,-2.42653,0.0572069,-0.0747579,0.0547383,0.0697496,-0.0919257,0.146844,-0.124241,-0.0810445,0.0470734,0.0149536,0.016098,0.0179291,0.0327682,-0.0172424,-0.00148773,0.00579834,-9.97986,0.0413895,-0.0147247,0.0443649,0.550728,0.0985336,0.0174332,0.048027,-0.0180054
21,9,10.0097,0.000915527,0.000762939,-2.4244,0.0581224,-0.0726216,0.0565694,0.0691393,-0.0919257,0.146234,-0.124241,-0.0816549,0.0289917,0.0193024,0.0200272,0.0174713,0.0327301,-0.0148773,-0.00255585,0.00648499,-9.97986,0.0178909,-0.014534,0.06073,0.555649,0.0971985,0.0201797,0.0447845,-0.0205994
22,0,10.0097,0.0012207,0.000305176,-2.42623,0.0562914,-0.0744527,0.0550435,0.0700548,-0.0925361,0.148065,-0.124546,-0.0813497,0.0185394,0.0156784,0.0218582,0.0135803,0.0242615,-0.0151825,-0.00434875,0.00320435,-9.97986,-0.00907898,-0.0128174,0.0756073,0.549393,0.0920868,0.0102615,0.0468445,-0.0223541
22,1,10.0097,0.000610352,0,-2.4244,0.0572069,-0.0735371,0.0556539,0.0709703,-0.0910102,0.147149,-0.124241,-0.0816549,0.000915527,0.0226593,0.0204086,0.0155258,0.0265121,-0.00629425,-0.00247955,0.00888824,-9.97986,-0.0209808,-0.00808716,0.0896072,0.541878,0.0860977,0.0149918,0.0428009,-0.0220871
22,2,10.0097,0.000610352,-0.000762939,-2.42562,0.0562914,-0.075063,0.0553487,0.0706652,-0.0919257,0.146234,-0.124241,-0.0810445,-0.0216293,0.0217438,0.0222778,0.0178528,0.0251389,-0.00453949,-0.00370026,0.00263214,-9.97986,-0.0271225,-0.00850677,0.100555,0.524292,0.0831223,0.0121689,0.0378036,-0.0260925
22,3,10.0097,0,-0.00106812,-2.42623,0.0562914,-0.0744527,0.0550435,0.0627306,-0.0934516,0.147455,-0.125766,-0.0816549,-0.0140762,0.0218582,0.0239182,0.0176239,0.0247192,0.00217438,0.00038147,-0.000572205,-9.97986,-0.0312042,-0.0113297,0.119057,0.496941,0.0762939,0.00888824,0.0333786,-0.0217819
22,4,10.0097,0.000915527,-0.00350952,-2.42623,0.0562914,-0.0744527,0.0550435,0.0590685,-0.0925361,0.146539,-0.124851,-0.0822652,-0.0123978,0.0197601,0.0202942,0.0144958,0.0162888,0.00232697,-0.00476837,-0.00244141,-9.97986,-0.0276184,-0.00469208,0.127792,0.460739,0.0689316,0.00671387,0.030098,-0.0259781
22,5,10.0097,0.000915527,-0.00335693,-2.42501,0.055681,-0.0735371,0.0556539,0.0645616,-0.0934516,0.145929,-0.126377,-0.0840963,-0.0190353,0.0242996,0.0196457,0.0173569,0.020256,0.00770569,0.00461578,0.00198364,-9.97986,-0.0201416,-0.0104523,0.141258,0.421638,0.0650787,0.0050354,0.0279999,-0.0223923
22,6,10.0097,0.000915527,-0.00350952,-2.42684,0.0559862,-0.0747579,0.0553487,0.07036,-0.0934516,0.144708,-0.125156,-0.0831808,0.00320435,0.0278473,0.0199509,0.0210953,0.00862122,0.0115967,0.00114441,3.8147e-005,-9.97986,-0.00789642,-0.0062561,0.145454,0.384254,0.0586319,0.00190735,0.0173569,-0.0229263
22,7,10.0097,0,-0.00350952,-2.42714,0.0550706,-0.0741475,0.0538228,0.0837877,-0.0897895,0.145318,-0.125156,-0.0847066,0.022583,0.0281906,0.0222015,0.015831,0.00217438,0.0123978,-0.00118256,0.000419617,-9.97986,0.0102615,-0.00511169,0.155373,0.33535,0.0490952,-0.00370026,0.0127029,-0.026741
22,8,10.0097,0.000305176,-0.00457764,-2.42867,0.0535448,-0.0753682,0.0529073,0.0764635,-0.0952827,0.144403,-0.126377,-0.0868429,0.0198746,0.030899,0.0212479,0.0185394,0.00167847,0.0208282,-0.00087738,0.00343323,-9.97986,0.0228882,-0.00484467,0.15728,0.288429,0.0373077,-0.0056076,0.00511169,-0.0323868
22,9,10.0097,0.000610352,-0.00396729,-2.42867,0.0535448,-0.0762837,0.0526021,0.0718859,-0.0955879,0.144403,-0.125766,-0.0874532,0.0146484,0.0306702,0.0233841,0.0197601,-0.00629425,0.0222778,-0.0043869,0.00183105,-9.97986,0.0390625,-0.00480652,0.158386,0.254173,0.0335312,-0.0025177,-0.00461578,-0.0370789
23,0,10.0097,0.000610352,-0.00335693,-2.42898,0.0532396,-0.0753682,0.0519917,0.0688341,-0.0955879,0.142267,-0.126987,-0.0877584,-0.00244141,0.0294495,0.0218582,0.0167465,-0.00671387,0.0266266,-0.00370026,0.00328064,-9.97986,0.0563812,-0.00579834,0.1577,0.218887,0.0232315,-0.00167847,-0.0146484,-0.0461578
23,1,10.0097,0.000305176,-0.00305176,-2.42959,0.0532396,-0.0744527,0.0522969,0.0688341,-0.0961982,0.143487,-0.127903,-0.0880636,-0.0160217,0.0305557,0.0156403,0.0150681,-0.0124359,0.0267792,-0.00148773,-0.00038147,-9.97986,0.0590134,-0.00511169,0.153542,0.19558,0.0115967,-0.00267029,-0.0213242,-0.0511169
23,2,10.0097,0.0012207,-0.00289917,-2.42714,0.0529344,-0.0765889,0.0522969,0.067003,-0.0949775,0.143487,-0.126682,-0.0871481,-0.0150681,0.0301743,0.0234604,0.0143814,-0.0156403,0.0306702,-0.00396729,0.00846863,-9.97986,0.0556946,-0.00576019,0.146599,0.176277,0.00450134,-0.00473022,-0.036087,-0.0554276
23,3,10.0097,0.000305176,-0.00259399,-2.42837,0.0541551,-0.0762837,0.0519917,0.0679186,-0.0955879,0.143792,-0.127292,-0.0877584,0.000534058,0.0310135,0.019989,0.0135422,-0.016098,0.0388336,-0.0075531,0.00663757,-9.97986,0.0392914,-0.00312805,0.140495,0.146828,-0.00549316,-0.00583649,-0.0421524,-0.062294
23,4,10.0097,0.000610352,-0.00167847,-2.42714,0.0538499,-0.0787251,0.0522969,0.0688341,-0.0937568,0.143182,-0.126682,-0.0865377,0.0172806,0.0272751,0.0220871,0.0137329,-0.0198364,0.0419235,-0.00461578,0.00862122,-9.97986,0.0143814,0.000152588,0.131416,0.135345,-0.0161362,-0.00484467,-0.0527191,-0.0673676
23,5,10.0097,0.000610352,-0.00213623,-2.42776,0.0550706,-0.0747579,0.0538228,0.0685289,-0.0952827,0.144403,-0.126987,-0.085317,0.0188065,0.0312805,0.021286,0.0128174,-0.0259018,0.0420761,-0.00205994,0.0120544,-9.97986,0.00114441,0.00396729,0.121689,0.112495,-0.0259018,-0.00858307,-0.0639725,-0.0718307
23,6,10.0097,0.000915527,-0.00183105,-2.42714,0.0550706,-0.0747579,0.0526021,0.0694445,-0.0937568,0.145624,-0.125461,-0.0844015,-0.000915527,0.0292587,0.0203705,0.00850677,-0.0233078,0.0376129,-0.00419617,0.00862122,-9.97986,-0.0241852,0.00522614,0.117683,0.0906372,-0.0357819,-0.0106812,-0.0737762,-0.0836945
23,7,10.0097,-0.0012207,-0.0012207,-2.42623,0.0553758,-0.075063,0.0544332,0.0697496,-0.0937568,0.144403,-0.125156,-0.0837911,-0.0075531,0.0292587,0.0159073,0.0112152,-0.0257111,0.0345993,-0.000267029,0.00671387,-9.97986,-0.0439453,0.00553131,0.108566,0.0675201,-0.0421143,-0.0126266,-0.0783539,-0.090332
23,8,10.0097,0.000610352,-0.00183105,-2.42592,0.0562914,-0.0735371,0.0547383,0.0706652,-0.0919257,0.145929,-0.124546,-0.0822652,0.00743866,0.031395,0.018959,0.0124741,-0.0303268,0.0333786,0.00259399,0.0152206,-9.97986,-0.0494385,0.00205994,0.100136,0.0453568,-0.0547791,-0.0215149,-0.0850677,-0.0945663
23,9,10.0097,-0.000305176,-0.00335693,-2.4244,0.0550706,-0.0741475,0.0556539,0.072191,-0.0903999,0.147149,-0.124546,-0.0822652,0.0104523,0.0302505,0.020752,0.00926971,-0.0336456,0.0302505,0.00480652,0.0166702,-9.97986,-0.0557327,-0.00305176,0.0923157,0.0082016,-0.0632095,-0.0315094,-0.0946045,-0.0875854
24,0,10.0097,0.00152588,-0.00411987,-2.42531,0.055681,-0.0735371,0.0538228,0.0700548,-0.0934516,0.146234,-0.124546,-0.0825704,0.00667572,0.0292206,0.0231171,0.0114822,-0.0341034,0.0333405,0.00423431,0.0201797,-9.97986,-0.0629425,-0.00190735,0.0919724,-0.0337982,-0.0726318,-0.0331116,-0.0996399,-0.0837326
24,1,10.0097,-0.000305176,-0.00366211,-2.42531,0.0569017,-0.073232,0.0556539,0.0709703,-0.0916206,0.146539,-0.12363,-0.0819601,0.00873566,0.030632,0.0247574,0.0087738,-0.0353241,0.0360489,0.0144958,0.0122833,-9.97986,-0.0540924,-0.00205994,0.0898361,-0.0722885,-0.0775146,-0.041275,-0.103378,-0.0764847
24,2,10.0097,0.000305176,-0.00366211,-2.42531,0.055681,-0.0738423,0.0544332,0.0709703,-0.0922309,0.146844,-0.124241,-0.0834859,0.0143051,0.0365829,0.0225067,0.0127411,-0.0349045,0.0379181,0.0174332,0.0161362,-9.97986,-0.0487137,0.000228882,0.0848007,-0.11673,-0.0783539,-0.0476456,-0.104218,-0.0617599
24,3,10.0097,0.000610352,-0.0038147,-2.42592,0.0569017,-0.0738423,0.0550435,0.0636461,-0.0952827,0.145624,-0.125766,-0.0825704,0.00556946,0.0359726,0.0272751,0.0152588,-0.0416565,0.0432968,0.0156403,0.0156403,-9.97986,-0.0292206,0.00148773,0.0876617,-0.147591,-0.0791931,-0.0569153,-0.101624,-0.0507736
24,4,10.0097,0.000305176,-0.00289917,-2.42562,0.0562914,-0.0753682,0.0544332,0.0593737,-0.094062,0.14837,-0.125156,-0.0831808,-0.0150299,0.0355148,0.0299072,0.00823975,-0.0371552,0.0357056,0.0223541,0.0159073,-9.97986,-0.00938416,-0.000801086,0.089035,-0.17765,-0.083046,-0.0577927,-0.102997,-0.0351334
24,5,10.0097,0.000305176,-0.00305176,-2.42745,0.055681,-0.0744527,0.0538228,0.0657823,-0.0922309,0.146234,-0.125766,-0.0831808,-0.0126648,0.0338364,0.0242615,0.0134659,-0.0454712,0.0377655,0.0199127,0.0131607,-9.97986,0.00202179,0.00377655,0.0883484,-0.197105,-0.079689,-0.0516129,-0.0968552,-0.0193024
24,6,10.0097,0.00183105,-0.00274658,-2.42653,0.0550706,-0.0735371,0.0538228,0.0706652,-0.0934516,0.145624,-0.126072,-0.0850118,-0.00545502,0.0307846,0.0276566,0.00377655,-0.0492477,0.0348663,0.0270081,0.0088501,-9.97986,0.010643,-0.00442505,0.0919342,-0.22789,-0.0756073,-0.0496292,-0.092392,-0.00549316
24,7,10.0097,0.000305176,-0.00137329,-2.42562,0.0547655,-0.0747579,0.054128,0.0831774,-0.0894843,0.146234,-0.124851,-0.0834859,0.00911713,0.0270462,0.0279236,0.0154877,-0.0480652,0.0392914,0.0310516,0.0176239,-9.97986,0.0188065,0.00286102,0.0994873,-0.237007,-0.0670624,-0.0431442,-0.085144,0.0113678
24,8,10.0097,0.000915527,-0.00198364,-2.42745,0.0526292,-0.0759786,0.0522969,0.0779894,-0.0934516,0.143182,-0.126682,-0.0868429,0.0228119,0.0260544,0.026207,0.00988007,-0.050354,0.0354767,0.0313187,0.0145721,-9.97986,0.00934601,-0.00228882,0.10067,-0.253792,-0.0597,-0.0391388,-0.0765991,0.0247192
24,9,10.0097,0.00152588,-0.000457764,-2.42898,0.050493,-0.0756734,0.0526021,0.0718859,-0.0943672,0.143792,-0.127292,-0.0871481,0.00968933,0.0293732,0.0265884,0.00480652,-0.0511932,0.0326538,0.0378418,0.0219345,-9.97986,0.00747681,-0.000228882,0.100899,-0.261726,-0.0463867,-0.0331497,-0.0589371,0.0403976
25,0,10.0097,-0.000915527,-0.00167847,-2.42867,0.0538499,-0.0756734,0.0522969,0.0691393,-0.094062,0.144098,-0.126987,-0.0868429,-0.00869751,0.0295258,0.0247192,0.0102997,-0.0560379,0.0274658,0.0374603,0.0203323,-9.97986,-0.00461578,0.000419617,0.104866,-0.264702,-0.0385666,-0.0320053,-0.0521469,0.0599289
25,1,10.0097,0.000610352,-0.00106812,-2.42867,0.0535448,-0.0756734,0.0516866,0.0694445,-0.0946723,0.142877,-0.126987,-0.0865377,0.0107574,0.0286102,0.0274277,0.00617981,-0.0510406,0.0293732,0.0362396,0.00904083,-9.97986,-0.0202942,-0.00328064,0.100174,-0.265617,-0.028038,-0.0329208,-0.0361252,0.0680542
25,2,10.0097,0.0012207,0.000457764,-2.42867,0.0544603,-0.0753682,0.0529073,0.0679186,-0.0928413,0.143792,-0.127598,-0.0868429,0.0241852,0.0270462,0.0293732,0.0100327,-0.0582886,0.0337601,0.0348663,0.00682831,-9.97986,-0.0287247,-0.00396729,0.102348,-0.255852,-0.00946045,-0.0379944,-0.0302124,0.0825119
25,3,10.0097,0.00244141,0.000305176,-2.42959,0.0538499,-0.0753682,0.0519917,0.0685289,-0.095893,0.143792,-0.126987,-0.0862325,0.0228119,0.026741,0.029068,0.0110626,-0.0583267,0.0395584,0.0307465,0.0150299,-9.97986,-0.0297546,-0.00907898,0.100136,-0.244026,0.0018692,-0.0444412,-0.0166702,0.0946808
25,4,10.0097,0.000610352,0.000152588,-2.42837,0.0541551,-0.0759786,0.0529073,0.0694445,-0.0937568,0.144708,-0.126377,-0.0862325,0.0253296,0.0255585,0.0258255,0.00930786,-0.0608063,0.0508881,0.0297546,0.0112152,-9.97986,-0.0400162,-0.01091,0.09552,-0.231438,0.0120544,-0.043335,-0.00705719,0.102005
25,5,10.0097,-0.000915527,0.00152588,-2.42684,0.0535448,-0.0747579,0.0535176,0.0694445,-0.0937568,0.144403,-0.126377,-0.0840963,-0.0180435,0.0267029,0.0302124,0.0143814,-0.0567245,0.0644684,0.0269318,0.0164032,-9.97986,-0.0428009,-0.00701904,0.0954056,-0.212631,0.0217056,-0.0445938,0.00404358,0.113831
25,6,10.0097,-0.000610352,0.00183105,-2.42714,0.0553758,-0.0744527,0.0532125,0.0709703,-0.0934516,0.145318,-0.126377,-0.0837911,-0.0643539,0.027504,0.0270462,0.0112152,-0.0522995,0.0705719,0.0239563,0.0129318,-9.97986,-0.0500107,-0.00423431,0.0990295,-0.190811,0.0330353,-0.0495911,0.0131989,0.122566
25,7,10.0097,0.0012207,0.00228882,-2.42745,0.0559862,-0.0747579,0.0547383,0.07036,-0.0919257,0.145624,-0.125461,-0.0828756,-0.0593948,0.0299454,0.031662,0.0120926,-0.0550461,0.0753403,0.0237274,0.00587463,-9.97986,-0.049324,-0.00469208,0.103264,-0.171967,0.0429153,-0.0495148,0.0175476,0.128975
25,8,10.0097,0.000610352,0.00228882,-2.42623,0.0562914,-0.0744527,0.0544332,0.07036,-0.0903999,0.14776,-0.124241,-0.0813497,-0.0225067,0.0249863,0.0285721,0.0135422,-0.0490189,0.082016,0.022049,0.0117493,-9.97986,-0.0435638,-0.00389099,0.109558,-0.152245,0.0531006,-0.0476456,0.0254059,0.140991
25,9,10.0097,0.000610352,0.00137329,-2.42531,0.0562914,-0.0744527,0.0547383,0.0712755,-0.0922309,0.145318,-0.125766,-0.0810445,0.00759125,0.0227737,0.0269318,0.0144958,-0.0532532,0.0875473,0.0226212,0.016861,-9.97986,-0.0301361,0.00320435,0.127831,-0.135117,0.0625229,-0.0482941,0.0328827,0.145035
26,0,10.0097,0,0.00137329,-2.42501,0.0529344,-0.075063,0.0544332,0.0718859,-0.0913154,0.146234,-0.12363,-0.0813497,-0.00118256,0.0186157,0.0278473,0.0140762,-0.0496674,0.0905609,0.0189972,0.0169754,-9.97986,-0.0185776,0.00171661,0.141602,-0.132866,0.072403,-0.0485611,0.0300598,0.147781
26,1,10.0097,0.000305176,0.000457764,-2.42379,0.0578172,-0.0714009,0.0584004,0.0718859,-0.090705,0.146539,-0.124241,-0.0807394,-0.0204468,0.0168991,0.0211716,0.013504,-0.0492859,0.0881195,0.0207138,0.0187683,-9.97986,-0.0062561,-0.00335693,0.166893,-0.13134,0.0783157,-0.0524139,0.0322723,0.157318
26,2,10.0097,0.000610352,0.0012207,-2.42592,0.0572069,-0.0735371,0.055959,0.07036,-0.0916206,0.14776,-0.12363,-0.0807394,-0.0300598,0.0094223,0.0171661,0.014801,-0.0535965,0.0923157,0.0171661,0.0193787,-9.97986,-0.0127411,-0.00354767,0.187721,-0.125198,0.0836563,-0.0478745,0.0314713,0.163498
26,3,10.0097,-0.000305176,0.000152588,-2.42562,0.0547655,-0.0735371,0.0544332,0.059984,-0.0931465,0.147149,-0.124546,-0.0813497,-0.0557327,0.0155258,0.0209045,0.0111389,-0.0492859,0.100098,0.0129318,0.0231552,-9.97986,-0.0204468,-0.00228882,0.208015,-0.126419,0.0868988,-0.0453949,0.0294113,0.171204
26,4,10.0097,0.000610352,-0.000152588,-2.42653,0.0562914,-0.0747579,0.054128,0.0590685,-0.0937568,0.145929,-0.125461,-0.0819601,-0.0332642,0.0136566,0.0183868,0.0139999,-0.049057,0.100174,0.00629425,0.0194168,-9.97986,-0.030365,-0.00320435,0.225449,-0.12516,0.0920105,-0.039978,0.030098,0.171013
26,5,10.0097,0.000305176,0.000457764,-2.42653,0.0565965,-0.0744527,0.0556539,0.0642565,-0.090705,0.145013,-0.123935,-0.0825704,-0.0118637,0.0141907,0.0181198,0.00854492,-0.0468063,0.0971603,0.00305176,0.0134659,-9.97986,-0.0428772,-0.0056076,0.245132,-0.125999,0.093956,-0.0382233,0.0252533,0.172844
26,6,10.0097,-0.000610352,0.000610352,-2.42592,0.0553758,-0.0744527,0.0556539,0.0697496,-0.0913154,0.145929,-0.125156,-0.0825704,-0.000801086,0.0122833,0.0180054,0.0137329,-0.0464249,0.0857544,-0.00411987,0.00289917,-9.97986,-0.0410461,-0.00610352,0.263519,-0.111961,0.0939941,-0.0341797,0.0267792,0.184746
26,7,10.0097,0.000305176,0.00183105,-2.42623,0.0553758,-0.0735371,0.0544332,0.0828722,-0.0913154,0.145929,-0.124241,-0.0822652,0.0186539,0.0191498,0.0157166,0.0165939,-0.0443649,0.0795364,-0.0075531,0.00656128,-9.97986,-0.0293732,-0.00812531,0.280228,-0.0825119,0.0991058,-0.0278091,0.0176239,0.187645
26,8,10.0097,-0.000305176,0.00320435,-2.42837,0.0538499,-0.0759786,0.0522969,0.0776842,-0.094062,0.142877,-0.126377,-0.0850118,0.0529861,0.0141144,0.0202942,0.0175476,-0.0379562,0.0794983,0.00320435,0.00789642,-9.97986,-0.0207901,-0.00957489,0.283928,-0.0551605,0.102348,-0.0267029,0.0200272,0.191765
26,9,10.0097,0.0012207,0.00183105,-2.42989,0.0541551,-0.0759786,0.0519917,0.0734117,-0.0943672,0.143487,-0.126987,-0.0850118,0.105286,0.00999451,0.00972748,0.017662,-0.0391769,0.0735474,0.0149155,0.0117111,-9.97986,0.00114441,-0.00259399,0.294456,-0.0198364,0.10849,-0.0253296,0.0152588,0.194168
27,0,10.0097,0.000305176,0.00396729,-2.42837,0.0532396,-0.0771993,0.0526021,0.0697496,-0.0937568,0.144403,-0.126987,-0.0856222,0.117912,0.00274658,0.00968933,0.00701904,-0.0315475,0.0665665,0.0402832,0.0205231,-9.97986,0.0178909,-0.00610352,0.309029,0.0327682,0.105934,-0.0343323,0.0153732,0.199509
27,1,10.0097,0.000610352,0.00457764,-2.42959,0.0538499,-0.0762837,0.0513814,0.0688341,-0.0952827,0.143182,-0.127903,-0.0859274,0.100861,-0.00411987,0.00267029,0.0140762,-0.0300598,0.0548172,0.0699234,0.0234222,-9.97986,0.03582,-0.0182724,0.309753,0.0989914,0.109558,-0.0388718,0.0137329,0.203552
27,2,10.0097,0,0.00686646,-2.42959,0.0529344,-0.0759786,0.0529073,0.0700548,-0.0946723,0.143792,-0.127292,-0.0850118,0.0857544,0.000152588,0.00312805,0.0114441,-0.0175858,0.0368118,0.0922394,0.0177765,-9.97986,0.0458527,-0.0153351,0.311623,0.179634,0.109406,-0.0360489,0.0172806,0.209198
27,3,10.0097,0.00152588,0.00701904,-2.42898,0.0541551,-0.0771993,0.0519917,0.0682238,-0.0949775,0.143487,-0.126987,-0.0850118,0.0361633,-0.00488281,0.00587463,0.0107956,-0.0164795,0.0330353,0.115204,0.0178909,-9.97986,0.0494003,-0.0118256,0.302963,0.264854,0.111732,-0.0307846,0.0159073,0.20813
27,4,10.0097,0.000610352,0.00808716,-2.42837,0.0544603,-0.0756734,0.0529073,0.0691393,-0.094062,0.144098,-0.126987,-0.0831808,0.00938416,-0.0069046,-0.00576019,0.0112534,-0.0136948,0.0281525,0.131111,0.0191879,-9.97986,0.0483322,-0.0030899,0.287514,0.348816,0.106239,-0.0237656,0.0144958,0.204811
27,5,10.0097,0.000915527,0.00732422,-2.42776,0.0544603,-0.0756734,0.0522969,0.07036,-0.0928413,0.145318,-0.126377,-0.0822652,0.0194931,-0.00137329,-0.00423431,0.0126648,-0.0063324,0.0320435,0.141678,0.0211716,-9.97986,0.0590897,0.00202179,0.274544,0.421486,0.113258,-0.0161362,0.0156403,0.210571
27,6,10.0097,0.000305176,0.00656128,-2.42745,0.0547655,-0.0735371,0.0532125,0.0700548,-0.0928413,0.145013,-0.125766,-0.0828756,0.0418472,-0.00671387,-0.00370026,0.0107193,-7.62939e-005,0.0316238,0.152206,0.0239563,-9.97986,0.0450897,-0.00389099,0.251007,0.487747,0.10746,-0.0125504,0.0165176,0.212936
27,7,10.0097,0,0.00747681,-2.42714,0.0547655,-0.075063,0.0522969,0.0706652,-0.0928413,0.145318,-0.124851,-0.0813497,0.057106,-0.00507355,-0.00522614,0.00850677,0.00492096,0.0352478,0.160103,0.0242233,-9.97986,0.0447845,-0.00549316,0.218582,0.569916,0.10952,-0.0112534,0.0146866,0.209846
27,8,10.0097,0.000305176,0.00762939,-2.42562,0.0572069,-0.0744527,0.0556539,0.0712755,-0.0913154,0.146234,-0.124546,-0.0795187,0.0563812,-0.00400543,-0.00999451,0.00991821,0.00816345,0.0376511,0.165863,0.0309372,-9.97986,0.0624084,0.000953674,0.1894,0.636024,0.104866,-0.00526428,0.0141907,0.211487
27,9,10.0097,0.000610352,0.00640869,-2.4247,0.0569017,-0.0735371,0.0538228,0.0712755,-0.0913154,0.147149,-0.124241,-0.080129,0.0485229,-0.00423431,-0.00141144,0.00801086,0.0130844,0.0307465,0.170517,0.0320053,-9.97986,0.082283,0.0094986,0.14946,0.702591,0.0978851,-0.000801086,0.0153732,0.207443
28,0,10.0097,-0.00152588,0.00579834,-2.42592,0.0553758,-0.0753682,0.0526021,0.0706652,-0.0925361,0.148065,-0.124241,-0.080129,0.0346756,-0.00286102,0.001297,0.00858307,0.0165939,0.0311661,0.173225,0.0287247,-9.97986,0.0981903,0.00225067,0.079155,0.758476,0.0844955,-0.0050354,0.0140762,0.203285
28,1,10.0097,0.000915527,0.0050354,-2.4244,0.0559862,-0.0744527,0.0535176,0.0709703,-0.090705,0.146234,-0.12363,-0.0792135,0.021286,0.00171661,0.00087738,0.0113297,0.019989,0.0290298,0.173111,0.0265884,-9.97986,0.105591,-0.0031662,0.0141144,0.807304,0.0689697,-0.0121689,0.00900269,0.198441
28,2,10.0097,0.000610352,0.00457764,-2.42562,0.0578172,-0.073232,0.0535176,0.0712755,-0.0910102,0.147149,-0.124546,-0.0789083,0.0094986,0.00629425,0.0031662,0.00522614,0.0239944,0.0310898,0.165596,0.0251389,-9.97986,0.110474,-0.0185776,-0.0518036,0.846519,0.0674057,-0.0157547,0.0112534,0.19371
28,3,10.0097,-0.000610352,0.00427246,-2.42592,0.0553758,-0.0741475,0.0526021,0.0593737,-0.0946723,0.145013,-0.126377,-0.0810445,-0.00385284,0.00762939,0.00431061,0.0108337,0.0326538,0.0271988,0.167046,0.0253296,-9.97986,0.103035,-0.0234604,-0.115547,0.888252,0.0697708,-0.0179291,0.0104141,0.186691
28,4,10.0097,-0.000610352,0.00259399,-2.42592,0.0547655,-0.0738423,0.0522969,0.0584581,-0.0928413,0.145929,-0.124851,-0.0810445,-0.0156021,0.0114059,0.0127029,0.00843048,0.0397491,0.0299835,0.166702,0.0231171,-9.97986,0.0883484,-0.0279999,-0.168266,0.917473,0.0682449,-0.0211716,0.0128174,0.182114
28,5,10.0097,0,0.00259399,-2.42684,0.055681,-0.0747579,0.0535176,0.0627306,-0.0925361,0.146234,-0.124546,-0.0816549,-0.0240326,0.0131989,0.0141144,0.00900269,0.0448608,0.0315094,0.162697,0.0275803,-9.97986,0.0629807,-0.0234604,-0.195808,0.937271,0.0699615,-0.017395,0.00389099,0.173759
28,6,10.0097,-0.000305176,0.00183105,-2.42653,0.0547655,-0.0744527,0.0535176,0.0688341,-0.0916206,0.145318,-0.125156,-0.0816549,-0.0242615,0.014534,0.0159836,0.00679016,0.0462723,0.0377655,0.162697,0.031395,-9.97986,0.0423431,-0.000991821,-0.223007,0.952492,0.0742722,-0.0193405,0.00892639,0.169296
28,7,10.0097,-0.000610352,0.00167847,-2.42684,0.0541551,-0.0744527,0.0532125,0.0822618,-0.0919257,0.145318,-0.125766,-0.0822652,-0.0212479,0.0193405,0.0175858,0.00865936,0.0487518,0.0374603,0.158234,0.0294113,-9.97986,0.0292206,0.0231552,-0.234222,0.949287,0.0786591,-0.0186539,0.0087738,0.159264
28,8,10.0097,-0.000305176,0.000152588,-2.42989,0.0538499,-0.0759786,0.0526021,0.0782946,-0.0949775,0.142877,-0.126377,-0.0856222,-0.020256,0.0194931,0.0170517,0.0106049,0.0586319,0.0384521,0.153275,0.0339127,-9.97986,0.031929,0.0403595,-0.24334,0.942268,0.0761795,-0.0173187,0.00602722,0.151558
28,9,10.0097,-0.000610352,-0.00213623,-2.42867,0.0538499,-0.0753682,0.0519917,0.0715807,-0.0949775,0.143487,-0.126987,-0.0874532,-0.0268936,0.0150681,0.017395,0.00968933,0.0566101,0.0403214,0.149193,0.0369644,-9.97986,0.0465393,0.0203705,-0.250664,0.912933,0.0720978,-0.00865936,0.00717163,0.139008
29,0,10.0097,0.0012207,-0.00335693,-2.42898,0.0544603,-0.0747579,0.0526021,0.07036,-0.0952827,0.143792,-0.128208,-0.0874532,-0.0413895,0.0189972,0.0177383,0.00549316,0.0592041,0.0399399,0.148201,0.0360107,-9.97986,0.0696945,0.0128174,-0.259628,0.865326,0.0672913,-0.00370026,0.00904083,0.130615
29,1,10.0097,0.0012207,-0.00320435,-2.42867,0.0529344,-0.0768941,0.0510762,0.0697496,-0.0961982,0.142877,-0.127598,-0.0877584,-0.03479,0.0137329,0.0141525,0.00686646,0.0634384,0.0363922,0.145569,0.0374985,-9.97986,0.089035,0.0107956,-0.263519,0.839844,0.0656128,-0.00179291,0.0119781,0.125351
29,2,10.0097,0.000915527,-0.00305176,-2.42898,0.0544603,-0.0756734,0.0516866,0.0697496,-0.095893,0.143487,-0.127903,-0.0877584,-0.0362015,0.0149536,0.0150299,0.00770569,0.0619507,0.0304794,0.143051,0.039978,-9.97986,0.104713,-0.000839233,-0.267601,0.819359,0.0614166,-0.00087738,0.00854492,0.109711
29,3,10.0097,-0.000305176,-0.00289917,-2.42928,0.0541551,-0.0756734,0.0522969,0.0682238,-0.0943672,0.144098,-0.126987,-0.0874532,-0.0351715,0.0123215,0.0152969,0.00812531,0.0646591,0.0264359,0.147133,0.0462723,-9.97986,0.10685,0.01297,-0.263939,0.784187,0.0541687,-0.000953674,0.0128174,0.105972
29,4,10.0097,0.00152588,-0.00274658,-2.42806,0.0541551,-0.0753682,0.0532125,0.0694445,-0.0934516,0.143792,-0.126682,-0.0856222,-0.0163651,0.015831,0.018158,0.00549316,0.0613785,0.0211716,0.14534,0.0458145,-9.97986,0.104179,0.00167847,-0.259819,0.752487,0.0477982,-0.00217438,0.0137329,0.099411
29,5,10.0097,0.0012207,-0.00183105,-2.42837,0.0544603,-0.0759786,0.0535176,0.0697496,-0.0925361,0.144708,-0.126987,-0.085317,-0.00301361,0.0178909,0.0170517,0.00553131,0.0676727,0.0144196,0.142059,0.0475693,-9.97986,0.0907135,-0.00865936,-0.25528,0.742531,0.0453568,0.00400543,0.0114822,0.08564
29,6,10.0097,-0.000610352,-0.000457764,-2.42714,0.0559862,-0.0756734,0.0544332,0.0688341,-0.0928413,0.142877,-0.126987,-0.085317,0.00362396,0.0234222,0.024147,0.00526428,0.0662231,0.0075531,0.144882,0.0477982,-9.97986,0.0851059,-0.00648499,-0.241203,0.726128,0.0371552,0.00728607,0.0102615,0.0803375
29,7,10.0097,0.000610352,-0.00198364,-2.42623,0.0553758,-0.0723164,0.054128,0.0706652,-0.0922309,0.145013,-0.125461,-0.0840963,0.0113297,0.0256348,0.0218964,0.00492096,0.0693893,-0.00457764,0.141754,0.0430679,-9.97986,0.0777054,0.00892639,-0.225639,0.700111,0.0307846,0.00961304,0.0119781,0.0656891
29,8,10.0097,0.00152588,-0.00320435,-2.42562,0.0578172,-0.073232,0.0562642,0.0706652,-0.0913154,0.146539,-0.125156,-0.0822652,0.0260544,0.0278091,0.0222778,0.00514984,0.0700378,-0.01091,0.139503,0.0420761,-9.97986,0.0643921,0.00701904,-0.212212,0.650291,0.0288773,0.0104523,0.00968933,0.0588608
29,9,10.0097,-0.000915527,-0.00411987,-2.42623,0.0565965,-0.0741475,0.0556539,0.0724962,-0.090705,0.145929,-0.125156,-0.0825704,0.0481415,0.0291824,0.0268555,0.00587463,0.0708008,-0.0231934,0.138664,0.0397491,-9.97986,0.0531387,-0.00736237,-0.191689,0.606728,0.0192642,0.013504,0.0185013,0.0501633
30,0,10.0097,0.00152588,-0.00457764,-2.42623,0.0575121,-0.0735371,0.0547383,0.07036,-0.0928413,0.145624,-0.124546,-0.0822652,0.0640869,0.0291824,0.0278473,0.00675201,0.0769806,-0.0270462,0.137367,0.0320816,-9.97986,0.0263977,-0.000495911,-0.18055,0.568161,0.0146103,0.016098,0.0186157,0.042038
30,1,10.0097,0,-0.00335693,-2.42501,0.0562914,-0.0738423,0.0550435,0.0706652,-0.0903999,0.146844,-0.12363,-0.0822652,0.0629044,0.0348663,0.0307465,0.0110626,0.0784302,-0.0383759,0.133476,0.0328064,-9.97986,0.0103378,0.00392914,-0.167007,0.530281,0.0113297,0.0187302,0.0261307,0.0343704
30,2,10.0097,0.000305176,-0.00335693,-2.4244,0.0559862,-0.0744527,0.0547383,0.0706652,-0.0919257,0.145318,-0.124851,-0.0816549,0.0325012,0.0357437,0.0301743,0.00766754,0.0796509,-0.0460434,0.124664,0.0341034,-9.97986,-0.00270844,0.000457764,-0.153847,0.500374,0.00286102,0.0213242,0.0286865,0.0224686
30,3,10.0097,-0.000305176,-0.00289917,-2.42562,0.0553758,-0.0747579,0.0550435,0.0648668,-0.0946723,0.146844,-0.125156,-0.0819601,0.00595093,0.0357819,0.0280762,0.00907898,0.0835037,-0.0445557,0.130043,0.0424957,-9.97986,-0.00507355,-0.00156403,-0.143242,0.471382,-0.00541687,0.0235748,0.0310898,0.0114822
30,4,10.0097,0.000305176,-0.00152588,-2.42562,0.0572069,-0.0735371,0.0550435,0.058153,-0.0931465,0.145013,-0.125461,-0.0819601,-0.0109863,0.0337601,0.0330353,0.00629425,0.0876236,-0.0538635,0.122223,0.0431442,-9.97986,-0.0133133,-0.0106049,-0.133171,0.479774,-0.00656128,0.0194931,0.0413895,0.000534058
30,5,10.0097,0,-0.000305176,-2.42714,0.0553758,-0.075063,0.0550435,0.0630358,-0.0925361,0.145624,-0.126377,-0.0828756,-0.0169373,0.0318909,0.0266266,0.00720978,0.0848389,-0.0611115,0.120468,0.0384903,-9.97986,-0.0063324,-0.0075531,-0.122452,0.472679,-0.0012207,0.0266266,0.049057,-0.00785828
30,6,10.0097,0.000610352,-0.00289917,-2.42562,0.0553758,-0.0759786,0.054128,0.0691393,-0.0913154,0.145013,-0.124546,-0.0831808,-0.0205612,0.0331116,0.0249481,0.00778198,0.0866699,-0.069809,0.115738,0.0344849,-9.97986,0.00713348,-0.0037384,-0.121536,0.431213,-0.0138092,0.0233841,0.0488663,-0.0163651
30,7,10.0097,-0.0012207,-0.00213623,-2.42653,0.0550706,-0.075063,0.0538228,0.0828722,-0.0922309,0.144098,-0.125461,-0.0840963,-0.0156403,0.0318527,0.0287247,0.00865936,0.0852203,-0.0776672,0.109215,0.0251007,-9.97986,0.0218201,-0.00175476,-0.121384,0.402107,-0.0414658,0.0260544,0.0551605,-0.026207
30,8,10.0097,0,-0.000915527,-2.42898,0.0538499,-0.0756734,0.0535176,0.0764635,-0.0949775,0.142877,-0.126072,-0.0868429,-0.00679016,0.0297928,0.0250244,0.00751495,0.0888824,-0.088768,0.107613,0.0268936,-9.97986,0.0204468,0.000495911,-0.122223,0.381622,-0.0689316,0.0331116,0.0550461,-0.0328445
30,9,10.0097,0.000915527,-0.0012207,-2.42959,0.0538499,-0.0756734,0.0526021,0.0715807,-0.095893,0.141046,-0.127292,-0.0871481,-0.00782013,0.0325012,0.0252151,0.00892639,0.0922775,-0.094223,0.0996399,0.0296021,-9.97986,-0.000572205,0.00293732,-0.132599,0.382042,-0.091362,0.03479,0.0598145,-0.038681
31,0,10.0097,0,-0.00289917,-2.42867,0.0529344,-0.0765889,0.0513814,0.0673082,-0.0943672,0.143792,-0.127903,-0.0871481,-0.020256,0.0354004,0.029335,0.00358582,0.0884628,-0.104179,0.0980759,0.0340271,-9.97986,-0.0118637,0.0037384,-0.148087,0.353279,-0.105247,0.0296402,0.0624847,-0.0460434
31,1,10.0097,-0.000610352,-0.00411987,-2.42837,0.0535448,-0.0756734,0.0522969,0.0679186,-0.0946723,0.142572,-0.128208,-0.0874532,-0.0201797,0.0368881,0.0291443,0.00419617,0.0899887,-0.119209,0.0954437,0.0273132,-9.97986,-0.0228119,0.0019455,-0.163727,0.313568,-0.110397,0.0315857,0.0643921,-0.0494003
31,2,10.0097,0.0012207,-0.00228882,-2.4302,0.0532396,-0.075063,0.0516866,0.0694445,-0.0937568,0.142877,-0.127598,-0.0883688,-0.00572205,0.0328827,0.0282669,0.00461578,0.0913239,-0.124779,0.0948715,0.0268555,-9.97986,-0.0278854,0.00171661,-0.17952,0.294991,-0.119781,0.0329208,0.0659943,-0.0594711
31,3,10.0097,-0.000610352,-0.00274658,-2.42806,0.0544603,-0.0753682,0.0526021,0.0694445,-0.094062,0.141351,-0.127598,-0.0874532,0.0222778,0.0336838,0.0272369,0.00957489,0.0915527,-0.13298,0.0907898,0.0209808,-9.97986,-0.0294495,-0.00110626,-0.195808,0.272751,-0.129852,0.032196,0.0751114,-0.063858
31,4,10.0097,-0.000305176,-0.00167847,-2.42867,0.0541551,-0.0762837,0.0532125,0.0688341,-0.0946723,0.143792,-0.127292,-0.0859274,0.0265121,0.0333786,0.0301361,0.00701904,0.0872421,-0.143127,0.0867081,0.0192642,-9.97986,-0.0263596,-0.000152588,-0.202103,0.270653,-0.150299,0.0305557,0.0785828,-0.066452
31,5,10.0097,-0.000305176,-0.000915527,-2.42776,0.0550706,-0.0741475,0.0529073,0.0709703,-0.094062,0.144708,-0.126682,-0.0859274,0.0451279,0.0370407,0.0302124,0.00476837,0.0850677,-0.151596,0.0875473,0.0226593,-9.97986,-0.0200653,0.000190735,-0.210648,0.252266,-0.159264,0.0344849,0.0814056,-0.0733566
31,6,10.0097,-0.0012207,-0.00320435,-2.42776,0.0547655,-0.075063,0.0538228,0.0715807,-0.0928413,0.146234,-0.126682,-0.0847066,0.0628281,0.0334549,0.026474,0.0106049,0.0834274,-0.164452,0.0882339,0.0223541,-9.97986,-0.0142288,-0.000762939,-0.209274,0.20752,-0.168076,0.0331879,0.0905228,-0.0774765
31,7,10.0097,-0.00152588,-0.00274658,-2.42562,0.0559862,-0.0744527,0.054128,0.0679186,-0.0925361,0.144403,-0.126682,-0.0834859,0.0400162,0.0342178,0.0233459,0.0146866,0.0762177,-0.16758,0.0779724,0.020256,-9.97986,-0.0133514,-0.0043869,-0.214005,0.180969,-0.17025,0.0354385,0.0935745,-0.0800323
31,8,10.0097,0.000610352,-0.00213623,-2.42531,0.0572069,-0.0747579,0.0550435,0.0712755,-0.090705,0.147455,-0.125156,-0.0825704,0.00587463,0.0339127,0.0252533,0.0110245,0.0739288,-0.177765,0.0807571,0.0153732,-9.97986,-0.0209808,-0.00419617,-0.211105,0.156746,-0.171814,0.0397873,0.0962067,-0.0857162
31,9,10.0097,0.00183105,-0.00350952,-2.42592,0.0569017,-0.0726216,0.0550435,0.0697496,-0.0919257,0.145929,-0.124241,-0.0819601,0.00164032,0.0365448,0.0266266,0.00785828,0.0695419,-0.179863,0.0761414,0.00896454,-9.97986,-0.0315857,-0.00846863,-0.208054,0.123367,-0.1688,0.0385666,0.0996017,-0.0899887
32,0,10.0097,0,-0.00274658,-2.4244,0.0572069,-0.073232,0.0556539,0.0706652,-0.0922309,0.147149,-0.124546,-0.0825704,0.011673,0.0319672,0.0331116,0.0127411,0.0716019,-0.184822,0.072403,0.0125885,-9.97986,-0.0379944,-0.00240326,-0.205498,0.079689,-0.161285,0.0379944,0.10746,-0.0943756
32,1,10.0097,0.000305176,-0.00473022,-2.42501,0.0562914,-0.0741475,0.055959,0.0712755,-0.0928413,0.146234,-0.124546,-0.0819601,0.00759125,0.0379562,0.0276566,0.0113297,0.0614548,-0.178452,0.0648499,0.00724792,-9.97986,-0.0382614,-0.000114441,-0.19577,0.0256729,-0.157738,0.0377274,0.102196,-0.0965118
32,2,10.0097,-0.000305176,-0.00396729,-2.42409,0.0562914,-0.0735371,0.0556539,0.0715807,-0.0910102,0.146844,-0.123935,-0.0816549,-0.00370026,0.0345612,0.0239563,0.00957489,0.057869,-0.171928,0.0606155,0.0162506,-9.97986,-0.0405121,-0.00442505,-0.183182,-0.0140762,-0.150604,0.0445938,0.101547,-0.102921
32,3,10.0097,-0.0012207,-0.00320435,-2.42623,0.0569017,-0.0744527,0.0544332,0.0642565,-0.0937568,0.146539,-0.124851,-0.0828756,-0.00102997,0.0328064,0.0244904,0.0123596,0.0526428,-0.166473,0.0543213,0.0191498,-9.97986,-0.045166,-0.00320435,-0.168953,-0.0498962,-0.134811,0.0465393,0.102005,-0.107079
32,4,10.0097,0.000610352,-0.0050354,-2.42592,0.0550706,-0.0747579,0.0550435,0.0590685,-0.0931465,0.145929,-0.125766,-0.0837911,0.000686646,0.0300217,0.020752,0.013237,0.0506592,-0.15419,0.0531769,0.018158,-9.97986,-0.0439835,-0.0044632,-0.158539,-0.108452,-0.131035,0.0531769,0.0944901,-0.108261
32,5,10.0097,0.000305176,-0.00473022,-2.42653,0.0547655,-0.0738423,0.0550435,0.0636461,-0.0934516,0.145624,-0.125766,-0.0837911,0.0102234,0.0291443,0.0138855,0.0111008,0.043335,-0.146217,0.0506592,0.0133133,-9.97986,-0.0281525,-0.00293732,-0.136833,-0.136833,-0.128899,0.0534821,0.0918961,-0.111618
32,6,10.0097,0.000610352,-0.000305176,-2.42684,0.0569017,-0.075063,0.0544332,0.0700548,-0.0919257,0.145318,-0.126072,-0.0825704,0.016861,0.0239944,0.0151443,0.0139618,0.0408554,-0.140343,0.0481415,0.00782013,-9.97986,-0.00858307,-0.000801086,-0.116501,-0.111885,-0.117874,0.0542068,0.0891876,-0.114288
32,7,10.0097,0.0012207,0.00152588,-2.42684,0.0544603,-0.0747579,0.0544332,0.0819567,-0.0900947,0.143182,-0.125461,-0.0844015,0.0471497,0.0250626,0.0120544,0.0140762,0.037384,-0.125427,0.0387573,0.00579834,-9.97986,0.00102997,0.00324249,-0.103607,-0.104485,-0.11013,0.0569534,0.0776672,-0.115814
32,8,10.0097,0.000610352,-0.00106812,-2.42745,0.0535448,-0.075063,0.0538228,0.0758531,-0.0946723,0.143182,-0.126377,-0.0868429,0.0617218,0.0235367,0.0127792,0.0136566,0.0350952,-0.119514,0.0312424,0.0088501,-9.97986,-0.00461578,-0.00087738,-0.0844574,-0.146523,-0.102005,0.0582886,0.0774384,-0.122566
32,9,10.0097,-0.000305176,-0.00289917,-2.42959,0.0544603,-0.0768941,0.0529073,0.0700548,-0.095893,0.143487,-0.126987,-0.0871481,0.0377274,0.0260544,0.00965118,0.0112534,0.0271606,-0.106659,0.0239563,0.0138855,-9.97986,-0.00995636,0.00255585,-0.0755692,-0.169754,-0.0893021,0.0506592,0.0679016,-0.123024
33,0,10.0097,0.000610352,-0.00228882,-2.42928,0.0544603,-0.0756734,0.0538228,0.0694445,-0.0934516,0.144098,-0.127292,-0.0865377,0.0180817,0.0222015,0.015564,0.0133896,0.0305557,-0.0971985,0.0143051,0.0160599,-9.97986,-0.0164795,0.000610352,-0.0602341,-0.185471,-0.0754929,0.0501251,0.0595474,-0.119057
33,1,10.0097,-0.000915527,-0.00198364,-2.42959,0.0535448,-0.0759786,0.0526021,0.0688341,-0.0968086,0.144098,-0.127292,-0.0877584,0.0109482,0.0230026,0.0102997,0.0136948,0.0276947,-0.0859833,0.00686646,0.0166321,-9.97986,-0.00473022,-0.0030899,-0.051651,-0.202522,-0.0580215,0.0474548,0.0505447,-0.121422
33,2,10.0097,-0.000305176,-0.0038147,-2.42837,0.0535448,-0.0756734,0.0522969,0.0679186,-0.0943672,0.143792,-0.126987,-0.0880636,0.00743866,0.0196457,0.0122833,0.0116348,0.0260925,-0.0797272,0.000457764,0.0150681,-9.97986,0.000457764,-0.00431061,-0.0427628,-0.245438,-0.0365448,0.0458145,0.0468826,-0.12413
33,3,10.0097,-0.000915527,-0.00747681,-2.42928,0.0544603,-0.0756734,0.0522969,0.0685289,-0.0949775,0.144098,-0.126682,-0.0895895,0.02491,0.0220871,0.0148392,0.0133896,0.0240707,-0.0717545,-0.0122833,0.0185013,-9.97986,0.000305176,-0.00160217,-0.0323486,-0.344124,-0.0140762,0.0477982,0.0370407,-0.11776
33,4,10.0097,0.000915527,-0.0100708,-2.42745,0.0541551,-0.0753682,0.0535176,0.0694445,-0.0946723,0.144403,-0.126072,-0.0874532,0.018692,0.0209427,0.0181961,0.0107193,0.0206757,-0.0691986,-0.0185776,0.0183868,-9.97986,0.00267029,0.00087738,-0.00751495,-0.464363,0.00244141,0.0452423,0.026741,-0.115585
33,5,10.0097,0.000305176,-0.00976563,-2.42776,0.0547655,-0.0744527,0.0544332,0.0691393,-0.0931465,0.145624,-0.126682,-0.0871481,-0.0150681,0.0218201,0.0169373,0.00961304,0.0151825,-0.0668335,-0.0234604,0.022316,-9.97986,0.0260162,-0.00514984,0.0345993,-0.569878,0.0247955,0.0452423,0.0194168,-0.108681
33,6,10.0097,-0.000305176,-0.00839233,-2.42684,0.0544603,-0.0741475,0.0553487,0.0691393,-0.0937568,0.144708,-0.126377,-0.0862325,-0.0409317,0.0270081,0.0176239,0.0160599,0.0139618,-0.0652313,-0.0330353,0.0247955,-9.97986,0.0573349,-0.00282288,0.0824738,-0.65239,0.0430679,0.0406647,0.0128555,-0.105438
33,7,10.0097,0.000305176,-0.00839233,-2.42623,0.0553758,-0.0759786,0.055959,0.0718859,-0.0919257,0.145624,-0.125766,-0.0859274,-0.037117,0.021553,0.0234985,0.00839233,0.0108719,-0.0540924,-0.0465393,0.0219345,-9.97986,0.0855255,-0.00274658,0.134659,-0.745125,0.0656891,0.0333023,0.00530243,-0.0980377
33,8,10.0097,0.0012207,-0.0106812,-2.42562,0.0569017,-0.0744527,0.0556539,0.0706652,-0.090705,0.146844,-0.124241,-0.085317,-0.0075531,0.0196838,0.0191498,0.00919342,0.00778198,-0.0490189,-0.0529099,0.0231934,-9.97986,0.0979233,-0.00209808,0.18055,-0.870552,0.0856018,0.0330734,0.00328064,-0.0876617
33,9,10.0097,0.00213623,-0.010376,-2.42501,0.0559862,-0.0735371,0.0556539,0.0709703,-0.0910102,0.148065,-0.123935,-0.0840963,-0.0186157,0.0209808,0.0152969,0.0082016,0.00667572,-0.0478745,-0.0621414,0.020256,-9.97986,0.100136,-0.00408173,0.190659,-0.964813,0.104408,0.0331879,-0.00289917,-0.0795364
34,0,10.0097,0,-0.00717163,-2.4247,0.055681,-0.0738423,0.0547383,0.0691393,-0.0897895,0.14776,-0.122104,-0.0825704,-0.0223923,0.0188446,0.0166321,0.013504,0.00740051,-0.0379944,-0.067482,0.015831,-9.97986,0.086937,-0.00656128,0.157776,-1.01952,0.127144,0.0323868,-0.00728607,-0.0767899
34,1,10.0097,0,-0.00732422,-2.42531,0.0572069,-0.073232,0.054128,0.0706652,-0.0910102,0.14776,-0.124546,-0.0828756,-0.0175095,0.0215912,0.0183487,0.0104523,0.00263214,-0.0363541,-0.0791931,0.011673,-9.97986,0.0482941,-0.00644684,0.108757,-1.09116,0.144424,0.0281525,-0.0156403,-0.075264
34,2,10.0097,0.000305176,-0.00900269,-2.42409,0.0565965,-0.0747579,0.0538228,0.0694445,-0.0919257,0.147149,-0.124241,-0.0828756,-0.0131226,0.0269318,0.0212097,0.0102615,0.00545502,-0.0243759,-0.0827408,0.00415802,-9.97986,0.00743866,-0.00347137,0.0679016,-1.19102,0.158577,0.0222015,-0.0191879,-0.0709915
34,3,10.0097,-0.000915527,-0.00854492,-2.42592,0.0559862,-0.0756734,0.0532125,0.0639513,-0.0919257,0.146234,-0.126987,-0.0837911,0.037117,0.0252533,0.0195313,0.0134277,0.00377655,-0.0193787,-0.0926208,0.00530243,-9.97986,-0.0193787,-0.00518799,0.0281525,-1.25,0.16964,0.0149918,-0.0257492,-0.0736237
34,4,10.0097,-0.000610352,-0.00732422,-2.42592,0.0565965,-0.0744527,0.0535176,0.0590685,-0.094062,0.144098,-0.126377,-0.0840963,0.0932312,0.0295258,0.02285,0.0107574,0.00492096,-0.0159836,-0.0954056,-0.000419617,-9.97986,-0.0429916,-0.00190735,0.00816345,-1.25,0.175133,0.00610352,-0.0283813,-0.0746155
34,5,10.0097,0.000610352,-0.00518799,-2.42562,0.0559862,-0.075063,0.0571797,0.0624254,-0.0916206,0.146234,-0.125156,-0.0840963,0.0941086,0.0237656,0.0226974,0.014534,0.00843048,-0.00827789,-0.105133,0.000915527,-9.97986,-0.0518417,-0.000991821,0.000343323,-1.25,0.177727,0.00450134,-0.0308609,-0.0713348
34,6,10.0097,-0.000610352,-0.00473022,-2.42623,0.0562914,-0.0741475,0.0538228,0.0694445,-0.0928413,0.145929,-0.124241,-0.0844015,0.0604248,0.0246429,0.02285,0.0138855,0.0124359,-0.0111008,-0.113487,-0.0018692,-9.97986,-0.0568008,0.000839233,-0.0025177,-1.25,0.16674,-0.00404358,-0.0348282,-0.0704575
34,7,10.0097,0.000915527,-0.00320435,-2.42684,0.0559862,-0.0747579,0.0538228,0.0810411,-0.0922309,0.144098,-0.125156,-0.0844015,0.0468826,0.026741,0.0200653,0.0180054,0.0156784,-0.00526428,-0.119667,0.00152588,-9.97986,-0.0516891,0.00232697,0.0121307,-1.25,0.140305,-0.0062561,-0.0337219,-0.0650406
34,8,10.0097,0.00183105,-0.00183105,-2.42867,0.0532396,-0.0756734,0.054128,0.0758531,-0.0943672,0.142877,-0.126682,-0.0874532,0.0283432,0.02388,0.0181961,0.0133514,0.0207901,-0.00312805,-0.123405,-0.0018692,-9.97986,-0.0475311,-0.00278473,0.0261307,-1.25,0.0904083,-0.0114059,-0.040741,-0.0618744
34,9,10.0097,0.00183105,-0.00244141,-2.42867,0.0538499,-0.0759786,0.0532125,0.0712755,-0.0952827,0.144403,-0.126987,-0.0868429,0.0113678,0.0255585,0.0225449,0.0196838,0.0233841,0.00400543,-0.129013,0.00125885,-9.97986,-0.0323105,-0.00343323,0.0352478,-1.25,0.051384,-0.0136185,-0.0428772,-0.0588608
35,0,10.0097,0.00183105,-0.00335693,-2.42867,0.0532396,-0.0762837,0.0529073,0.0697496,-0.0955879,0.142267,-0.127292,-0.0868429,0.0139618,0.0209045,0.0175476,0.0128174,0.0277328,0.00682831,-0.137749,-0.000762939,-9.97986,-0.0123215,0.00617981,0.0359726,-1.25,0.0184631,-0.0196075,-0.0418854,-0.0544357
35,1,10.0097,0.000610352,-0.00289917,-2.42928,0.0532396,-0.075063,0.0544332,0.0691393,-0.0955879,0.143487,-0.127292,-0.0868429,0.0273895,0.0245285,0.0175858,0.00896454,0.0299835,0.0169373,-0.14267,0.001297,-9.97986,0.00701904,-0.00240326,0.0284576,-1.25,-0.00141144,-0.021286,-0.0423431,-0.0489044
35,2,10.0097,0.000610352,-0.00198364,-2.42959,0.0532396,-0.0759786,0.0519917,0.0679186,-0.0955879,0.142877,-0.126682,-0.0871481,0.0252533,0.0221252,0.0153732,0.0159454,0.0347137,0.0276947,-0.144768,0.00595093,-9.97986,0.0194168,0.00270844,0.00743866,-1.25,-0.0289917,-0.0231171,-0.044632,-0.04879
35,3,10.0097,0.00152588,0.000457764,-2.42898,0.0532396,-0.0771993,0.050771,0.0676134,-0.0949775,0.143792,-0.127598,-0.0874532,0.0189972,0.0218964,0.0144196,0.0144577,0.0349045,0.0405884,-0.150414,0.00267029,-9.97986,0.032692,0.00312805,-0.0175476,-1.25,-0.0518417,-0.0274277,-0.0423813,-0.0431442
35,4,10.0097,0.000610352,0.00152588,-2.42806,0.0538499,-0.0756734,0.0568746,0.07036,-0.0943672,0.144098,-0.126377,-0.0850118,0.00499725,0.0211334,0.0152588,0.0164413,0.0302505,0.0534821,-0.155754,0.0030899,-9.97986,0.0446701,-0.00629425,-0.0326157,-1.25,-0.0808334,-0.0289917,-0.0421524,-0.0431061
35,5,10.0097,-0.000305176,0.00106812,-2.42714,0.0547655,-0.0756734,0.0529073,0.0694445,-0.0946723,0.143792,-0.127292,-0.0844015,-0.00480652,0.0127411,0.0165558,0.0128937,0.0311279,0.0662231,-0.153618,0.00587463,-9.97986,0.0603485,0.00274658,-0.045166,-1.25,-0.101204,-0.0305557,-0.0413895,-0.0463867
35,6,10.0097,0.000610352,0.00244141,-2.42714,0.0547655,-0.0744527,0.0532125,0.0709703,-0.0928413,0.143792,-0.126072,-0.0844015,-0.0123215,0.0158691,0.0127411,0.00888824,0.0122833,0.0801468,-0.162582,0.00614166,-9.97986,0.0675201,0.00213623,-0.0615692,-1.25,-0.114937,-0.0355911,-0.0382614,-0.0455856
35,7,10.0097,0.000610352,0.00366211,-2.42653,0.0572069,-0.0744527,0.0529073,0.0700548,-0.0925361,0.145929,-0.125461,-0.0825704,-0.0115967,0.0167847,0.0148773,0.0104523,-0.0226212,0.0914001,-0.161552,0.00576019,-9.97986,0.0717545,-0.00392914,-0.062561,-1.25,-0.132103,-0.0335693,-0.0362396,-0.0491333
35,8,10.0097,0,0.00335693,-2.42531,0.0559862,-0.0729268,0.0550435,0.0724962,-0.0916206,0.145318,-0.122104,-0.080129,-0.00659943,0.0217819,0.0179291,0.0111389,-0.0615692,0.0968933,-0.164299,0.00602722,-9.97986,0.0883865,0.00209808,-0.0559235,-1.25,-0.148163,-0.0293732,-0.0337982,-0.050354
35,9,10.0097,0.0012207,0.0038147,-2.42623,0.0559862,-0.0744527,0.0547383,0.0715807,-0.0916206,0.145929,-0.12302,-0.0795187,-0.00930786,0.0197983,0.0185776,0.0122452,-0.100479,0.103493,-0.170364,0.00656128,-9.97986,0.0870132,-0.00350952,-0.0498581,-1.25,-0.165863,-0.0317001,-0.0312042,-0.0531387
36,0,10.0097,0.000610352,0.00488281,-2.42592,0.0559862,-0.0744527,0.0550435,0.0694445,-0.0913154,0.145624,-0.124546,-0.0795187,0.00846863,0.0251007,0.0205231,0.0119019,-0.125847,0.107994,-0.175781,0.00793457,-9.97986,0.0738907,0.00297546,-0.0292587,-1.25,-0.176697,-0.0366211,-0.030365,-0.0582504
36,1,10.0097,0.00152588,0.00396729,-2.42562,0.0562914,-0.0741475,0.0553487,0.0706652,-0.0916206,0.146539,-0.124241,-0.0804342,0.0205994,0.0232697,0.0196457,0.0128555,-0.141907,0.111198,-0.172462,0.00782013,-9.97986,0.0452805,-0.00125885,-0.00972748,-1.2162,-0.183411,-0.0328827,-0.0277328,-0.0590897
36,2,10.0097,0.000915527,0.00457764,-2.42592,0.0569017,-0.0738423,0.0565694,0.0700548,-0.0913154,0.146844,-0.124546,-0.0792135,0.0175858,0.0281906,0.0207138,0.00644684,-0.147743,0.108376,-0.173492,0.00823975,-9.97986,0.0244522,-0.00343323,0.0126266,-1.17367,-0.191269,-0.0375748,-0.0233459,-0.0644684
36,3,10.0097,0.00396729,0.00289917,-2.42592,0.055681,-0.0741475,0.0562642,0.0642565,-0.0934516,0.146234,-0.125156,-0.0804342,0.00679016,0.0284958,0.0214767,0.00938416,-0.136757,0.11692,-0.172882,0.0156784,-9.97986,0.00804901,-0.00556946,0.0376892,-1.15654,-0.198326,-0.037117,-0.0178146,-0.0632095
36,4,10.0097,0.000610352,0.0012207,-2.42623,0.055681,-0.075063,0.0547383,0.058153,-0.0931465,0.145624,-0.125461,-0.0816549,-0.00221252,0.0316238,0.0248337,0.0088501,-0.124321,0.113602,-0.168152,0.0121689,-9.97986,-0.00995636,-0.000686646,0.0585938,-1.14315,-0.205002,-0.0351334,-0.017128,-0.0602722
36,5,10.0097,0.000305176,0.00350952,-2.42562,0.0559862,-0.075063,0.054128,0.0642565,-0.0922309,0.145318,-0.125461,-0.0816549,-0.00865936,0.0317001,0.0282669,0.0143051,-0.111008,0.11879,-0.168152,0.0189972,-9.97986,-0.0210953,-0.00171661,0.0782013,-1.09287,-0.206337,-0.0320816,-0.00888824,-0.0595093
36,6,10.0097,0.000610352,0.00442505,-2.42592,0.055681,-0.075063,0.0544332,0.0691393,-0.0934516,0.146234,-0.125156,-0.0822652,-0.00354767,0.0330734,0.0260925,0.00991821,-0.0951767,0.12249,-0.163498,0.0135422,-9.97986,-0.0255585,-0.000915527,0.0958252,-1.0482,-0.214729,-0.0294495,-0.00965118,-0.0600433
36,7,10.0097,-0.000610352,0.00488281,-2.42653,0.0559862,-0.0747579,0.0553487,0.0828722,-0.0910102,0.143792,-0.124241,-0.0825704,-0.00804901,0.0288773,0.0281906,0.0127792,-0.0852585,0.123787,-0.156822,0.0100327,-9.97986,-0.0244904,-0.00370026,0.1091,-1.00117,-0.223808,-0.0230789,-0.00671387,-0.0597763
36,8,10.0097,0.000915527,0.00442505,-2.42928,0.0538499,-0.0775044,0.0513814,0.0749376,-0.0934516,0.142572,-0.126682,-0.0850118,-0.0165558,0.0314331,0.0299072,0.00717163,-0.0719833,0.125084,-0.1511,0.0122833,-9.97986,-0.0198364,-0.00659943,0.124283,-0.963326,-0.220146,-0.0246048,-0.00629425,-0.0588608
36,9,10.0097,0.000915527,0.00396729,-2.42867,0.0538499,-0.0756734,0.050771,0.0709703,-0.0931465,0.144708,-0.127292,-0.0850118,-0.0165939,0.0292969,0.0317383,0.0125122,-0.0572205,0.127792,-0.137978,0.0112915,-9.97986,-0.0233078,0.000267029,0.133438,-0.925751,-0.212555,-0.0294495,-0.00465393,-0.0548553
37,0,10.0097,0,0.00488281,-2.42928,0.0535448,-0.0756734,0.0519917,0.0697496,-0.0946723,0.144098,-0.127903,-0.0850118,-0.00484467,0.0341034,0.038414,0.00934601,-0.0507736,0.125809,-0.132561,0.00751495,-9.97986,-0.0245667,-0.000610352,0.152359,-0.865173,-0.204239,-0.0271988,-0.0025177,-0.0510025
37,1,10.0097,0.000915527,0.00457764,-2.42867,0.0529344,-0.0762837,0.0535176,0.0700548,-0.094062,0.143792,-0.127903,-0.0856222,-0.000801086,0.0380325,0.0329208,0.0120926,-0.0387573,0.124512,-0.11692,0.00240326,-9.97986,-0.0233459,-0.00179291,0.164146,-0.820656,-0.198822,-0.0304794,-0.00476837,-0.051651
37,2,10.0097,0.000305176,0.00366211,-2.42867,0.0544603,-0.0762837,0.0538228,0.0688341,-0.0949775,0.144098,-0.127598,-0.0859274,-0.0163269,0.037117,0.0336075,0.0130844,-0.0344849,0.118103,-0.112267,0.00389099,-9.97986,-0.00984192,-0.00797272,0.169983,-0.786438,-0.189056,-0.0291824,-0.00869751,-0.0514984
37,3,10.0097,0.000305176,0.00320435,-2.42989,0.0526292,-0.0759786,0.0532125,0.0691393,-0.094062,0.143487,-0.126987,-0.085317,-0.0123596,0.0366592,0.034523,0.0121307,-0.0257492,0.120773,-0.0980377,0.0069046,-9.97986,0.0188065,-0.00534058,0.182152,-0.750885,-0.181007,-0.030899,-0.00793457,-0.0426102
37,4,10.0097,-0.00152588,0.00259399,-2.42776,0.0541551,-0.0759786,0.0532125,0.0691393,-0.0955879,0.144098,-0.126987,-0.085317,0.000343323,0.0357437,0.0294495,0.0117493,-0.0185776,0.108719,-0.0896835,0.000305176,-9.97986,0.0416946,-0.00331879,0.18898,-0.715637,-0.176239,-0.0385666,-0.00587463,-0.0426865
37,5,10.0097,-0.000610352,0.00335693,-2.42684,0.0559862,-0.0768941,0.0547383,0.0694445,-0.0931465,0.144403,-0.126377,-0.0840963,0.00823975,0.034256,0.0238419,0.0112534,-0.00495911,0.102921,-0.0770187,0.00339508,-9.97986,0.0417709,-0.0043869,0.179138,-0.679703,-0.177879,-0.0365448,-0.00930786,-0.0352859
37,6,10.0097,-0.000610352,0.00518799,-2.42684,0.0550706,-0.075063,0.0538228,0.0666979,-0.0934516,0.145318,-0.124851,-0.0819601,0.00286102,0.0333786,0.0296021,0.0153351,-0.000610352,0.0960159,-0.0737,0.000991821,-9.97986,0.0337601,-0.00156403,0.158997,-0.617752,-0.174026,-0.033226,-0.00930786,-0.0322723
37,7,10.0097,0.000305176,0.00473022,-2.42684,0.0550706,-0.0747579,0.0532125,0.0715807,-0.0934516,0.145929,-0.126072,-0.0828756,0.00846863,0.0349045,0.0284958,0.0123978,0.00541687,0.0856781,-0.0635529,0.00217438,-9.97986,0.0180817,-0.00377655,0.143433,-0.572281,-0.171623,-0.0304031,-0.00938416,-0.0296021
37,8,10.0097,-0.000305176,0.00473022,-2.42592,0.0559862,-0.0738423,0.054128,0.0700548,-0.0922309,0.146539,-0.12363,-0.0807394,-0.00102997,0.0370026,0.0297928,0.0155258,0.00835419,0.0736618,-0.0595474,0.00202179,-9.97986,0.00278473,-0.00747681,0.151749,-0.532913,-0.162544,-0.0286102,-0.00930786,-0.0270462
37,9,10.0097,0.000610352,0.00564575,-2.4247,0.0565965,-0.073232,0.0544332,0.0697496,-0.0928413,0.145929,-0.124241,-0.0798238,-0.0158691,0.027504,0.022049,0.0145721,0.0165558,0.0679779,-0.0473785,0.00301361,-9.97986,-0.00839233,-0.00358582,0.154076,-0.455589,-0.150261,-0.0297546,-0.0109863,-0.0260925
38,0,10.0097,0.00152588,0.00869751,-2.42562,0.0569017,-0.073232,0.0547383,0.0706652,-0.0919257,0.146539,-0.124241,-0.0786031,-0.0182343,0.0278854,0.0242996,0.00953674,0.0175476,0.0572586,-0.0344849,0.000457764,-9.97986,-0.0144577,-0.00354767,0.165787,-0.348587,-0.144424,-0.0284576,-0.00522614,-0.0223541
38,1,10.0097,-0.000610352,0.00915527,-2.42623,0.0565965,-0.0735371,0.0587056,0.0715807,-0.090705,0.147455,-0.124241,-0.078298,0.00221252,0.0258255,0.0265121,0.00679016,0.0174332,0.0479889,-0.026207,0.00282288,-9.97986,-0.0235367,-0.00705719,0.194778,-0.259819,-0.12619,-0.0279617,-0.00801086,-0.0193024
38,2,10.0097,0.000915527,0.00869751,-2.4247,0.0559862,-0.0741475,0.0544332,0.0718859,-0.090705,0.14837,-0.123935,-0.0779928,0.0246048,0.0271225,0.0201797,0.00549316,0.0286865,0.044899,-0.0183105,0.00473022,-9.97986,-0.0134277,-0.00774384,0.226517,-0.174561,-0.11631,-0.0321579,-0.00305176,-0.0147629
38,3,10.0097,0.00244141,0.00823975,-2.42592,0.0562914,-0.0741475,0.0553487,0.0645616,-0.0919257,0.146234,-0.125461,-0.0795187,0.0346375,0.0246048,0.016861,0.00923157,0.0265503,0.0355148,-0.00488281,0.00591278,-9.97986,-0.010643,-0.00453949,0.249557,-0.106544,-0.110168,-0.0317764,-0.00247955,-0.0094986
38,4,10.0097,-0.000610352,0.00549316,-2.42653,0.0559862,-0.0738423,0.0526021,0.0584581,-0.0931465,0.145929,-0.125461,-0.0804342,0.0428391,0.0234222,0.0188828,0.00751495,0.0323486,0.0361252,0.00240326,0.00907898,-9.97986,-0.00988007,-0.00564575,0.262833,-0.0624084,-0.0996017,-0.0274277,0.00133514,-0.00988007
38,5,10.0097,0.000305176,0.00457764,-2.42837,0.0550706,-0.0744527,0.0532125,0.0654772,-0.0925361,0.145013,-0.124851,-0.0810445,0.0608063,0.0203705,0.0156403,-0.00385284,0.0336838,0.031662,0.00614166,0.0082016,-9.97986,0.000114441,-0.00415802,0.258827,-0.0197601,-0.0953293,-0.023613,0.00354767,-0.00144958
38,6,10.0097,-0.000305176,0.00473022,-2.42684,0.0544603,-0.0747579,0.0532125,0.0694445,-0.0931465,0.145318,-0.125766,-0.0810445,0.0603867,0.0236893,0.0177765,0.0043869,0.0355911,0.0279236,0.0131226,0.00938416,-9.97986,0.0115967,-0.000686646,0.248489,0.0145721,-0.0894928,-0.0190353,0.00587463,-0.00141144
38,7,10.0097,0.000305176,0.00259399,-2.42623,0.0559862,-0.0744527,0.0538228,0.0801256,-0.0913154,0.145318,-0.124851,-0.0816549,0.0453568,0.0197983,0.0109863,0.00328064,0.0393677,0.0246048,0.0169754,0.00862122,-9.97986,0.00862122,-0.000953674,0.233269,0.0275421,-0.0931931,-0.0163269,0.00865936,0.00144958
38,8,10.0097,0.00183105,0.0038147,-2.42928,0.0529344,-0.0771993,0.0516866,0.0752428,-0.0952827,0.144098,-0.124241,-0.0850118,0.0388336,0.0260925,0.0201797,0.00583649,0.0397873,0.02388,0.0174713,0.00823975,-9.97986,0.0111389,-0.00404358,0.216789,0.0615692,-0.089035,-0.0088501,0.0112915,0.00167847
38,9,10.0097,-0.000610352,0.00427246,-2.42898,0.0538499,-0.0756734,0.0513814,0.0715807,-0.0931465,0.143182,-0.127903,-0.085317,0.0320435,0.0266647,0.0153351,-0.000114441,0.0422668,0.019722,0.024147,0.0111389,-9.97986,0.0159073,-0.00579834,0.191917,0.108452,-0.0798035,0.000495911,0.0087738,0.00267029
39,0,10.0097,0.000305176,0.00473022,-2.42898,0.0541551,-0.0759786,0.0519917,0.0700548,-0.0952827,0.142267,-0.126682,-0.0850118,0.0138092,0.0196075,0.0149536,0.00400543,0.045166,0.0164413,0.0221634,0.0123978,-9.97986,0.0359726,-0.00427246,0.173492,0.159569,-0.0725555,-0.00354767,0.0151443,-0.00171661
39,1,10.0097,0,0.00488281,-2.42898,0.0541551,-0.0762837,0.0513814,0.0676134,-0.0949775,0.143182,-0.128208,-0.085317,-0.0187302,0.02388,0.0168228,0.00549316,0.0445938,0.016098,0.0291824,0.0156021,-9.97986,0.0620651,-0.00125885,0.146942,0.215187,-0.0674057,-0.0037384,0.0154877,-7.62939e-005
39,2,10.0097,-0.000610352,0.00488281,-2.42898,0.0526292,-0.0759786,0.0522969,0.0679186,-0.094062,0.145318,-0.127598,-0.0856222,-0.0490189,0.02388,0.0144196,0.00980377,0.0467682,0.00972748,0.0253677,0.0108719,-9.97986,0.0761795,0.0038147,0.12455,0.270615,-0.0440216,-0.000724792,0.0169754,-0.000724792
39,3,10.0097,0.000305176,0.00396729,-2.42989,0.0535448,-0.0762837,0.0516866,0.0694445,-0.0943672,0.143792,-0.127598,-0.0850118,-0.0474167,0.0232697,0.0139999,0.00183105,0.0489807,-0.00144958,0.0251007,0.00774384,-9.97986,0.0857162,-0.0030899,0.0956345,0.309792,-0.0256348,-0.00713348,0.0157166,-0.00534058
39,4,10.0097,0.000610352,0.00350952,-2.42776,0.0526292,-0.0756734,0.0522969,0.0694445,-0.094062,0.143792,-0.127598,-0.0850118,-0.0122833,0.0271988,0.014801,0.00835419,0.0555801,0.00511169,0.0267029,0.01194,-9.97986,0.0896454,-0.00480652,0.0775909,0.340004,-0.0136185,-0.00988007,0.0183868,-0.00553131
39,5,10.0097,0.000305176,0.00289917,-2.42837,0.0550706,-0.0753682,0.0526021,0.0706652,-0.0931465,0.144098,-0.125461,-0.0837911,0.0252533,0.0289917,0.0144958,0.00305176,0.0597382,0.0222397,0.0279236,0.0151062,-9.97986,0.0883102,-0.00102997,0.0600815,0.370827,0.00602722,-0.0175095,0.0186539,-0.00576019
39,6,10.0097,0.00213623,0.00152588,-2.42653,0.0559862,-0.0741475,0.0513814,0.0691393,-0.0934516,0.146234,-0.126377,-0.0840963,0.0395203,0.022049,0.0165558,0.00335693,0.0623703,0.0334549,0.0328064,0.0136185,-9.97986,0.0765991,0.00118256,0.0412369,0.374947,0.0214005,-0.0191879,0.0165176,-0.00709534
39,7,10.0097,-0.000610352,0.000305176,-2.42714,0.0550706,-0.0744527,0.054128,0.0700548,-0.0931465,0.145624,-0.126072,-0.0831808,0.0481033,0.0260544,0.018959,0.00442505,0.0639343,0.0463104,0.0318527,0.0195313,-9.97986,0.04776,0.00640869,0.0208282,0.365334,0.0363159,-0.0200653,0.0152206,-0.014267
39,8,10.0097,0.00152588,0.000152588,-2.42501,0.0584276,-0.0741475,0.054128,0.0706652,-0.0937568,0.146234,-0.124546,-0.0816549,0.037117,0.0257111,0.0173187,0.00892639,0.0653076,0.04879,0.0403214,0.0227356,-9.97986,0.0432205,0.00522614,0.0138092,0.362396,0.0445557,-0.0204849,0.0206757,-0.0138474
39,9,10.0097,0.0012207,0,-2.4247,0.0559862,-0.0744527,0.0532125,0.07036,-0.0922309,0.147149,-0.124546,-0.0819601,-0.00175476,0.0231934,0.0198746,0.00572205,0.0619888,0.0490952,0.0350571,0.0230408,-9.97986,0.0273132,0.00228882,0.00347137,0.35614,0.0526428,-0.0239182,0.0128174,-0.0217819
40,0,10.0097,0.000305176,0,-2.42531,0.0559862,-0.0738423,0.0547383,0.072191,-0.0910102,0.14776,-0.125766,-0.0816549,-0.0170898,0.0264359,0.0213623,0.00968933,0.0650406,0.0536346,0.0395966,0.0194931,-9.97986,0.0222015,-3.8147e-005,-0.00431061,0.357018,0.0671768,-0.0214386,0.0183868,-0.0198746
40,1,10.0097,-0.000610352,-0.000457764,-2.4247,0.0569017,-0.0744527,0.0544332,0.0718859,-0.0913154,0.14776,-0.123325,-0.0804342,-0.00904083,0.02491,0.020752,0.00968933,0.0639725,0.0534821,0.0403595,0.0186157,-9.97986,0.0087738,-0.000610352,-0.0094986,0.355453,0.0736237,-0.018158,0.0146484,-0.0273895
40,2,10.0097,0,0.000152588,-2.42379,0.0553758,-0.0738423,0.0556539,0.072191,-0.090705,0.145318,-0.12363,-0.0804342,0.00297546,0.0224686,0.0210571,0.0100708,0.0641632,0.0558853,0.0450897,0.0224686,-9.97986,0.00362396,-0.000534058,-0.00740051,0.355492,0.0828552,-0.00522614,0.0151062,-0.0271988
40,3,10.0097,0.000305176,0.000152588,-2.42501,0.0559862,-0.0747579,0.0544332,0.065172,-0.0919257,0.145318,-0.125156,-0.0816549,0.00724792,0.0259018,0.0203705,0.00919342,0.0645828,0.0548172,0.0389862,0.0163651,-9.97986,0.00415802,-0.000267029,-0.0152206,0.351067,0.0892639,0.00751495,0.0137711,-0.0288773
40,4,10.0097,-0.0012207,-0.000915527,-2.42653,0.0559862,-0.075063,0.054128,0.0572374,-0.0931465,0.145318,-0.125461,-0.0825704,0.0143051,0.025444,0.021286,0.0127411,0.0631332,0.0514221,0.0556564,0.0178528,-9.97986,-0.0062561,-0.00144958,-0.0189209,0.351295,0.0992966,0.00846863,0.0117493,-0.0318146
40,5,10.0097,0.0012207,0.000457764,-2.42653,0.0550706,-0.0744527,0.0547383,0.0654772,-0.0919257,0.146234,-0.125156,-0.0810445,0.0328064,0.0255203,0.0173187,0.00732422,0.0563431,0.0441742,0.0492096,0.0137711,-9.97986,-0.0262451,0.00110626,-0.021019,0.367622,0.10437,0.0087738,0.0135803,-0.0336838
40,6,10.0097,0.000610352,0.000457764,-2.42501,0.055681,-0.0753682,0.0538228,0.0694445,-0.0919257,0.146234,-0.126987,-0.0828756,0.0658035,0.0254059,0.0168228,0.0166321,0.0627136,0.0436401,0.0583649,0.0172043,-9.97986,-0.0476837,-0.00354767,-0.0278473,0.365219,0.124969,0.00762939,0.00644684,-0.0300598
