
Devices
1200
,,BP Load cell - Voltage,String Length - Voltage,Clutch Active - Voltage,#7 iPecs - Voltage,,,,,,,,,EMG 1-8 Left - Voltage,,,,,,,,Pylon Force - Voltage,EMG 9-16 Right - Voltage,,,,,,,,
Frame,Sub Frame,BP Load Cell,String Length,From Arduino Logic,A45,A135,A225,A315,S0,S90,S180,S270,ZSum,EMG 1 Glut Max,EMG 2 Glut Med,EMG 3 Biceps Femoris Long,EMG 4 Rectus Femoris,EMG 5 Vastus Medialis,EMG 6 Tib Ant,EMG 7 Med Gas,EMG 8 Soleus,Pylon volts,EMG 9 Glut Max,EMG 10 Glut Med,EMG 11 Biceps Femoris Long,EMG 12 Rectus Femoris,EMG 13 Vastus Medialis,EMG 14 Tib Ant,EMG 15 Med Gas,EMG 16 Soleus
,,V,V,V,V,V,V,V,V,V,V,V,V,V,V,V,V,V,V,V,V,V,V,V,V,V,V,V,V,V
1,0,-0.0919625,0.000610352,-0.00518799,-2.42531,0.0575121,-0.0738423,0.0532125,-0.00623914,-0.0968086,0.146539,-0.129123,-0.0822652,0.0125504,0.0219345,0.0143051,0.00900269,0.0171661,0.00865936,0.0218201,0.0139618,-9.97986,0.0183868,-0.00240326,0.0112915,0.00526428,0.0166321,-0.0102997,0.0141144,0.00221252
1,1,-6.85527,0.000305176,-0.00427246,-2.42562,0.0572069,-0.0723164,0.054128,-0.0135634,-0.0949775,0.146234,-0.129734,-0.0816549,0.0102615,0.0186539,0.017395,0.0126648,0.0141525,0.00938416,0.0268936,0.0183105,-9.97986,0.0143814,0.000610352,0.0141907,0.00453949,0.0147247,-0.00919342,0.0114822,0.00511169
1,2,-9.99003,0.000305176,-0.00305176,-2.42409,0.0572069,-0.0738423,0.0553487,0.00688342,-0.0928413,0.145624,-0.129429,-0.0807394,0.00938416,0.0218582,0.0177765,0.00988007,0.0176239,0.0116348,0.0242615,0.0216293,-9.97986,0.0151825,-0.00259399,0.0122452,0.00682831,0.0134659,-0.000190735,0.0166321,0.00614166
1,3,-9.99003,-0.00152588,-0.00152588,-2.42562,0.0550706,-0.075063,0.0565694,0.0435045,-0.0903999,0.145624,-0.126987,-0.0813497,0.00854492,0.0164413,0.0218964,0.0121689,0.015564,0.00667572,0.0215912,0.0157928,-9.97986,0.0120163,-0.00320435,0.00972748,0.00228882,-0.0120163,-0.00621796,0.0125504,0.00526428
1,4,-9.99003,0.00152588,0,-2.42714,0.0547655,-0.0747579,0.0544332,0.0578478,-0.0910102,0.146234,-0.126377,-0.0819601,0.00850677,0.0246048,0.0190735,0.0161362,0.0178909,0.00926971,0.0259399,0.0165939,-9.97986,0.0171661,0.00171661,0.0119019,0.00858307,-0.00644684,-0.00236511,0.0156784,0.00926971
1,5,-9.99003,-0.0012207,0.000305176,-2.42653,0.0544603,-0.0759786,0.0538228,0.0645616,-0.0919257,0.144403,-0.125766,-0.0831808,0.00953674,0.019722,0.0170135,0.0118637,0.0187302,0.00564575,0.0238037,0.0196838,-9.97986,0.017128,-0.00156403,0.0141907,0.00514984,-0.00991821,-0.000915527,0.0150299,0.0050354
1,6,-9.99003,0,0.00152588,-2.4247,0.055681,-0.0741475,0.0565694,0.119798,-0.0855171,0.145318,-0.122104,-0.0831808,0.0134277,0.0240707,0.0185394,0.010643,0.018158,0.00656128,0.019722,0.0147247,-9.97986,0.0147247,0.0012207,0.0164795,0.00427246,0.015831,-0.00644684,0.0140381,0.00835419
1,7,-2.96428,-0.000610352,0.00366211,-2.42684,0.0553758,-0.0747579,0.0544332,0.137499,-0.0873481,0.143792,-0.122715,-0.0850118,0.0101089,0.0250626,0.0149918,0.011673,0.0180817,0.0121689,0.0245667,0.0196457,-9.97986,0.0151062,-0.001297,0.013237,0.00549316,0.016098,-0.00804901,0.0176239,0.00812531
1,8,4.68343,-0.00183105,0.00457764,-2.42714,0.0538499,-0.0756734,0.0526021,0.152757,-0.0891792,0.143487,-0.121494,-0.0847066,0.0120544,0.0244904,0.0165939,0.0137711,0.013504,0.00816345,0.0267029,0.0157547,-9.97986,0.018158,0.00236511,0.0122833,0.00320435,0.0162888,-0.00564575,0.0165558,0.00919342
1,9,10.0097,-0.000610352,0.00473022,-2.42867,0.0544603,-0.0759786,0.0526021,0.147569,-0.0916206,0.143487,-0.12241,-0.0868429,0.00576019,0.0223541,0.0186539,0.0127792,0.021286,0.0102997,0.025177,0.0164032,-9.97986,0.0122833,0.000762939,0.0105286,0.00747681,0.01194,-0.00137329,0.014267,0.00480652
2,0,10.0097,0.00152588,0.00183105,-2.4305,0.0544603,-0.0768941,0.0504659,0.0978258,-0.0974189,0.141351,-0.124546,-0.0895895,0.00926971,0.0228119,0.0162506,0.0102997,0.0177383,0.0087738,0.0192261,0.0179672,-9.97986,0.0115204,-0.00354767,0.00965118,0.00297546,0.0128174,-0.0056076,0.0183487,0.00427246
2,1,10.0097,-0.000610352,-0.000305176,-2.42928,0.0529344,-0.0762837,0.0510762,0.0816515,-0.0961982,0.142267,-0.126682,-0.0892843,0.00850677,0.0210953,0.0160599,0.0127792,0.0188446,0.00915527,0.0218964,0.0174713,-9.97986,0.0132751,-0.0019455,0.01297,0.00400543,0.0120926,-0.00621796,0.0150299,0.00408173
2,2,10.0097,0.000610352,-0.000305176,-2.42928,0.0532396,-0.0759786,0.0519917,0.0743273,-0.0952827,0.144403,-0.127292,-0.0868429,0.00938416,0.0230789,0.0188446,0.0110626,0.0195694,0.0109863,0.0217438,0.018158,-9.97986,0.0125122,-0.00102997,0.0138855,0.00682831,0.0137329,-0.00476837,0.0159836,0.00606537
2,3,10.0097,0.000305176,-0.000457764,-2.42867,0.0559862,-0.0747579,0.0532125,0.0724962,-0.0943672,0.144708,-0.126377,-0.0859274,0.0110626,0.0239563,0.0179672,0.0110245,0.0228882,0.0101471,0.0248337,0.0181198,-9.97986,0.0113678,-0.00225067,0.0139236,0.000801086,0.013237,-0.00823975,0.0150299,0.00686646
2,4,10.0097,0,0,-2.42745,0.0544603,-0.0753682,0.0529073,0.0718859,-0.0934516,0.145013,-0.126072,-0.0844015,0.0106049,0.023613,0.0152206,0.00675201,0.0150681,0.00659943,0.0178909,0.0153351,-9.97986,0.0187683,-0.00190735,0.014534,0.00175476,0.0152969,-0.00694275,0.017395,0.00549316
2,5,10.0097,-0.000610352,0.000305176,-2.42653,0.0565965,-0.0747579,0.0538228,0.0718859,-0.0934516,0.145318,-0.125766,-0.0834859,0.00839233,0.0244522,0.0224304,0.0111771,0.0194931,0.0117111,0.0228882,0.0185013,-9.97986,0.0159836,-0.0025177,0.0131226,0.00492096,0.0127411,-0.00720978,0.0166702,0.00694275
2,6,10.0097,0.000610352,0.000305176,-2.42562,0.055681,-0.073232,0.0553487,0.0715807,-0.0916206,0.145318,-0.123935,-0.0819601,0.0114822,0.02285,0.0161743,0.00957489,0.0175476,0.00938416,0.0227737,0.0169373,-9.97986,0.0108337,-0.00183105,0.0128937,0.0018692,0.0171661,-0.0069046,0.0131989,0.00354767
2,7,10.0097,-0.000610352,0.000152588,-2.42562,0.0575121,-0.0744527,0.0547383,0.072191,-0.0922309,0.146539,-0.12363,-0.0807394,0.0107574,0.0260162,0.00835419,0.0125885,0.0175858,0.0112915,0.0202179,0.0222778,-9.97986,0.0181961,-0.00125885,0.0101471,0.00530243,0.0141907,0.00152588,0.0165176,0.00434875
2,8,10.0097,0,0,-2.42562,0.0559862,-0.0747579,0.0547383,0.0642565,-0.0928413,0.145318,-0.124851,-0.0816549,0.00953674,0.019989,0.0142288,0.0069809,0.0135803,0.01194,0.0201797,0.0134277,-9.97986,0.0178528,-0.00198364,0.0162506,0.00740051,0.0135422,0.0100708,0.0148773,0.00473022
2,9,8.64949,-0.000915527,-0.00244141,-2.42592,0.0565965,-0.0756734,0.0532125,0.0254991,-0.0965034,0.145929,-0.127292,-0.0822652,0.0130844,0.0262833,0.0106049,0.00968933,0.0159454,0.00965118,0.022049,0.0141525,-9.97986,0.0169373,-0.00255585,0.0164795,0.00213623,0.0118256,0.0127029,0.014267,0.00205994
3,0,-0.0519845,0.000305176,-0.00488281,-2.42623,0.0575121,-0.073232,0.0519917,-0.00654431,-0.0961982,0.147455,-0.129429,-0.0822652,0.0105286,0.0234604,0.0159454,0.0101089,0.0165558,0.0056076,0.0200653,0.0201035,-9.97986,0.014534,-0.00286102,0.0165939,0.00431061,0.0182724,0.0117111,0.0162888,0.00492096
3,1,-6.86809,0.000610352,-0.00473022,-2.42501,0.0569017,-0.073232,0.0544332,-0.0147841,-0.0961982,0.146234,-0.130039,-0.0819601,0.00862122,0.0244904,0.0165176,0.0101089,0.0154114,0.00831604,0.0208282,0.0225067,-9.97986,0.0146866,-0.00137329,0.0146484,0.00450134,0.0175858,0.00656128,0.0141907,0.00473022
3,2,-9.99003,-0.000610352,-0.0038147,-2.42531,0.0569017,-0.0744527,0.0553487,0.00779895,-0.0931465,0.146539,-0.128818,-0.0813497,0.00900269,0.0222015,0.0171661,0.00843048,0.0139236,0.0113297,0.0230026,0.0152206,-9.97986,0.0118256,-0.000953674,0.0112915,0.00324249,0.00724792,0.00644684,0.0179672,0.00411987
3,3,-9.99003,0.000915527,-0.00137329,-2.4244,0.055681,-0.0741475,0.0556539,0.04442,-0.0897895,0.145013,-0.125766,-0.0807394,0.0159073,0.0249481,0.0175476,0.0101089,0.0187683,0.0122833,0.017395,0.0236893,-9.97986,0.0114822,0.0018692,0.012207,0.00774384,-0.00965118,0.0082016,0.0170517,0.0103378
3,4,-9.99003,0.00152588,-0.000457764,-2.42501,0.0550706,-0.0744527,0.0556539,0.0575426,-0.0900947,0.146539,-0.125461,-0.0819601,0.00911713,0.0254059,0.0208282,0.00984192,0.014534,0.01297,0.0207138,0.0202179,-9.97986,0.0142288,-0.000724792,0.0155258,0.00267029,-0.0107574,0.00488281,0.016861,0.00621796
3,5,-9.99003,0.000610352,0.000152588,-2.42684,0.0553758,-0.0756734,0.054128,0.0639513,-0.0931465,0.146844,-0.126377,-0.0828756,0.0127411,0.026207,0.0172424,0.0104523,0.0166321,0.00934601,0.0244904,0.0199509,-9.97986,0.0136948,-0.000648499,0.0161743,0.00427246,-0.00823975,0.00217438,0.0200272,0.00595093
3,6,-9.99003,0.00213623,0.00183105,-2.42409,0.0553758,-0.0753682,0.0565694,0.119188,-0.0849067,0.145624,-0.122104,-0.0825704,0.00934601,0.0250244,0.0162125,0.0112915,0.0151062,0.010643,0.0222015,0.0196075,-9.97986,0.0139236,-0.00205994,0.0125122,0.00278473,0.0121689,-0.0012207,0.0142288,0.00492096
3,7,-3.03081,0.000305176,0.00305176,-2.42623,0.0541551,-0.0762837,0.0535176,0.138414,-0.0885688,0.143182,-0.12241,-0.0844015,0.0114441,0.0255966,0.0171661,0.0107574,0.0185013,0.00869751,0.0208282,0.0165176,-9.97986,0.0128555,-0.00255585,0.0115585,0.00202179,0.0131607,0.000190735,0.0158691,0.0063324
3,8,4.66115,0.00183105,0.00396729,-2.42837,0.0544603,-0.0756734,0.0544332,0.151842,-0.0897895,0.144403,-0.121799,-0.0856222,0.00991821,0.02491,0.022049,0.00923157,0.0144577,0.00881195,0.0182724,0.0212097,-9.97986,0.0141144,-0.00156403,0.0154114,-0.00160217,0.0162506,-0.00511169,0.0154495,0.00740051
3,9,10.0097,0.000915527,0.00518799,-2.42928,0.0532396,-0.0762837,0.0532125,0.150011,-0.0897895,0.142572,-0.121799,-0.0865377,0.00972748,0.025177,0.0191879,0.0117874,0.0169373,0.0100708,0.0196075,0.0151443,-9.97986,0.0154877,0.000991821,0.016098,0.00663757,0.0152969,-0.00671387,0.014801,0.00675201
4,0,10.0097,-0.000305176,0.00152588,-2.43081,0.0541551,-0.0768941,0.0495503,0.0975206,-0.0974189,0.143182,-0.125766,-0.0883688,0.00495911,0.0251007,0.0163269,0.012207,0.0174713,0.0137329,0.0209045,0.0178909,-9.97986,0.0164032,-0.000801086,0.0136566,0.00286102,0.0137329,-0.00930786,0.0146103,0.00404358
4,1,10.0097,0.000305176,0.000457764,-2.4302,0.0544603,-0.0753682,0.0513814,0.080736,-0.0949775,0.143792,-0.127598,-0.0877584,0.00766754,0.0242996,0.0157166,0.0101852,0.0151443,0.0110626,0.0239182,0.0172424,-9.97986,0.0175858,-0.00354767,0.0170898,0.0018692,0.0156403,-0.00743866,0.0175858,0.00892639
4,2,10.0097,0,-0.000152588,-2.42806,0.0538499,-0.0747579,0.0526021,0.0752428,-0.0952827,0.143792,-0.127292,-0.0859274,0.00598907,0.0193024,0.0158691,0.00644684,0.0157166,0.00976563,0.0201416,0.0179672,-9.97986,0.0138474,-0.00183105,0.0118637,0.00461578,0.0175858,-0.0101471,0.0158691,0.00396729
4,3,10.0097,0.00366211,0.000457764,-2.42684,0.0562914,-0.0759786,0.0516866,0.0715807,-0.0946723,0.145318,-0.127292,-0.0856222,0.0104904,0.0249863,0.0131989,0.01194,0.018959,0.00953674,0.0208664,0.0188446,-9.97986,0.0196838,0.00202179,0.00965118,0.0031662,0.0160217,-0.00804901,0.0167465,0.00419617
4,4,10.0097,-0.000305176,0.000457764,-2.42745,0.0550706,-0.0747579,0.054128,0.0709703,-0.0934516,0.144708,-0.125766,-0.0850118,0.00919342,0.0259399,0.0194168,0.00923157,0.0177383,0.0118256,0.0249863,0.0148392,-9.97986,0.014534,-0.00148773,0.0163651,0.00301361,0.0152588,-0.00728607,0.0172043,0.00476837
4,5,10.0097,-0.000305176,0.000305176,-2.42745,0.0553758,-0.0744527,0.0532125,0.072191,-0.0937568,0.145013,-0.125766,-0.0837911,0.0118637,0.0258255,0.0187683,0.0113297,0.0181198,0.00984192,0.0239944,0.0167465,-9.97986,0.0161743,0.00156403,0.0135422,0.00392914,0.015831,-0.00770569,0.0173569,0.00713348
4,6,10.0097,0.00213623,0.000915527,-2.42531,0.0562914,-0.075063,0.0550435,0.0718859,-0.0919257,0.145624,-0.124851,-0.0816549,0.0114059,0.0247574,0.0217819,0.0134277,0.0195694,0.0108337,0.0225449,0.0199127,-9.97986,0.0152206,0.00255585,0.0208282,0.00324249,0.0194168,-0.00232697,0.0193787,0.0112152
4,7,10.0097,-0.000610352,-0.000152588,-2.42592,0.0569017,-0.0738423,0.0544332,0.0709703,-0.0919257,0.145624,-0.124546,-0.0819601,0.0043869,0.0179672,0.0147247,0.00419617,0.0144958,0.00549316,0.020752,0.0165939,-9.97986,0.00968933,-0.0050354,0.0110245,-0.00179291,0.0121307,-0.00286102,0.0112915,-0.00102997
4,8,10.0097,-0.000915527,0.000152588,-2.42684,0.0562914,-0.0753682,0.0532125,0.0627306,-0.0937568,0.146539,-0.125766,-0.0819601,0.0108337,0.0203323,0.0231171,0.0126648,0.0146866,0.0112915,0.0259399,0.0185013,-9.97986,0.020256,0.000801086,0.0156784,0.00553131,0.0194931,0.000724792,0.0201035,0.00801086
4,9,8.45265,-0.000915527,-0.00289917,-2.42623,0.0550706,-0.0735371,0.0529073,0.0245836,-0.0955879,0.145929,-0.127598,-0.0822652,0.00648499,0.0157547,0.0180054,0.0069809,0.0105667,0.00789642,0.0188828,0.012207,-9.97986,0.0164795,-0.0062561,0.0141907,-0.00137329,0.0118637,-0.0128937,0.0135803,0.00507355
5,0,-0.174055,0.00274658,-0.00457764,-2.4244,0.0569017,-0.0744527,0.0535176,-0.00623914,-0.0961982,0.147455,-0.129123,-0.0813497,0.00953674,0.0228119,0.0255585,0.00953674,0.021553,0.0123978,0.018959,0.0146103,-9.97986,0.0170517,0.00228882,0.0139618,0.00507355,0.0144577,-0.0102997,0.0141525,0.00778198
5,1,-7.03196,0.00183105,-0.0050354,-2.42684,0.0569017,-0.0741475,0.054128,-0.0169203,-0.0968086,0.147149,-0.130344,-0.0819601,0.0108719,0.0210953,0.0190353,0.0075531,0.0151062,0.00621796,0.0199509,0.0151443,-9.97986,0.0175476,0.000267029,0.0133896,0.00125885,0.0144958,-0.0109482,0.0165176,0.00743866
5,2,-9.99003,-0.0012207,-0.00305176,-2.42501,0.0553758,-0.0735371,0.0544332,0.00688342,-0.0928413,0.146539,-0.128818,-0.0804342,0.0118637,0.0264359,0.0261688,0.0101471,0.0134277,0.00919342,0.0211716,0.0149536,-9.97986,0.0153351,-0.00114441,0.0148773,0.00110626,0.00644684,-0.00968933,0.014801,0.00423431
5,3,-9.99003,0.000610352,-0.00152588,-2.42562,0.0553758,-0.0741475,0.0562642,0.0450304,-0.0897895,0.145624,-0.126377,-0.080129,0.0108719,0.030098,0.024147,0.0123978,0.0146484,0.00991821,0.0180817,0.018158,-9.97986,0.0168228,0.001297,0.00919342,0.00102997,-0.00831604,-0.00717163,0.0162506,0.00564575
5,4,-9.99003,-0.000915527,-0.000457764,-2.42592,0.0544603,-0.073232,0.0550435,0.058153,-0.0913154,0.145929,-0.126072,-0.0825704,0.0125122,0.0270844,0.0220108,0.00652313,0.0180054,0.0130463,0.0208664,0.0188065,-9.97986,0.0113678,0.00137329,0.0165939,0.00415802,-0.00953674,-0.0050354,0.0156021,0.00789642
5,5,-9.99003,0.0012207,-0.000152588,-2.42653,0.0550706,-0.0756734,0.0538228,0.0633409,-0.0925361,0.145929,-0.126682,-0.0834859,0.00694275,0.0331116,0.0199127,0.00469208,0.0149918,0.00938416,0.0223541,0.0111389,-9.97986,0.0172424,0.00133514,0.0153351,0.00125885,-0.00591278,-0.0115967,0.0138855,0.00263214
5,6,-9.99003,0.000610352,0.00137329,-2.42501,0.0553758,-0.0738423,0.0568746,0.117357,-0.0858222,0.145318,-0.122715,-0.0825704,0.0120544,0.0278091,0.0182724,0.00804901,0.019722,0.00869751,0.0247955,0.0174332,-9.97986,0.0177383,-0.00133514,0.0147247,0.00225067,0.0146103,-0.0193405,0.0166702,0.00736237
5,7,-3.22825,0.000915527,0.00411987,-2.42684,0.0532396,-0.0744527,0.054128,0.136888,-0.0885688,0.144708,-0.12302,-0.0847066,0.0149536,0.0247192,0.0242996,0.0118256,0.0181198,0.0088501,0.0279236,0.0173569,-9.97986,0.0117874,-0.000953674,0.0192261,-0.00133514,0.0156403,-0.0204468,0.0204086,0.00572205
5,8,4.37551,0.0012207,0.00427246,-2.42806,0.0532396,-0.0759786,0.0532125,0.151842,-0.0891792,0.143792,-0.121494,-0.0847066,0.0131607,0.0251389,0.0152206,0.00953674,0.0111008,0.00865936,0.02388,0.0133133,-9.97986,0.0130463,0.000991821,0.0112534,0.000686646,0.0139618,-0.0253677,0.0167847,0.00686646
5,9,10.0097,0.000610352,0.00457764,-2.42898,0.0535448,-0.0756734,0.0529073,0.14879,-0.0913154,0.142267,-0.12302,-0.0865377,0.00736237,0.0179672,0.0143814,0.00713348,0.0184631,0.0117111,0.0226593,0.0160599,-9.97986,0.014534,-0.00320435,0.014534,0.00087738,0.012207,-0.0247574,0.0183487,0.00522614
6,0,10.0097,-0.000915527,0.000762939,-2.43172,0.0535448,-0.0768941,0.050771,0.0984362,-0.0974189,0.143182,-0.126072,-0.0895895,0.00751495,0.0203705,0.00335693,0.0104141,0.0189972,0.00919342,0.0215149,0.0198746,-9.97986,0.0143814,-0.00514984,0.014267,0.00038147,0.0179672,-0.0125504,0.0201797,0.00301361
6,1,10.0097,0.0012207,0,-2.42959,0.0544603,-0.0762837,0.0513814,0.0831774,-0.0971137,0.143792,-0.126987,-0.0880636,0.0164032,0.0135803,0.00774384,0.0139618,0.0209808,0.0111771,0.0245285,0.0195694,-9.97986,0.0143051,-0.00156403,0.0162888,0.00812531,0.0162506,-0.00217438,0.0206375,0.00637054
6,2,10.0097,0.000610352,0,-2.42898,0.0535448,-0.075063,0.0519917,0.0740221,-0.0968086,0.142877,-0.126377,-0.0877584,0.0120926,0.0145721,0.0088501,0.0106049,0.0156784,0.0131607,0.0208664,0.0169373,-9.97986,0.0172424,-0.00572205,0.0185013,-7.62939e-005,0.0112152,0.0100327,0.01297,0.00423431
6,3,10.0097,0.000305176,0.000152588,-2.42684,0.0547655,-0.0747579,0.054128,0.0728014,-0.0943672,0.144403,-0.126072,-0.085317,0.0158691,0.022316,0.0149155,0.0148773,0.0180817,0.0139236,0.0228882,0.0163651,-9.97986,0.017395,-0.00144958,0.0153732,0.00507355,0.0167465,0.0141907,0.0187302,0.00648499
6,4,10.0097,0.00183105,0.000305176,-2.42776,0.0544603,-0.075063,0.0535176,0.0706652,-0.0937568,0.143792,-0.125766,-0.0847066,0.00839233,0.0188828,0.0154877,0.0112152,0.0181961,0.01091,0.0188828,0.0156784,-9.97986,0.0119781,-0.00583649,0.0128555,0.00293732,0.0110245,0.0182343,0.0181198,0.00587463
6,5,10.0097,0.0012207,0.00106812,-2.42653,0.0559862,-0.0747579,0.0529073,0.0709703,-0.094062,0.146234,-0.126072,-0.0844015,0.00919342,0.0207901,0.0167084,0.01297,0.0163269,0.0126266,0.0201416,0.0133514,-9.97986,0.0167084,0.000305176,0.0144577,0.0056839,0.016861,0.0192261,0.0175476,0.00579834
6,6,10.0097,0.0012207,0,-2.42745,0.0569017,-0.075063,0.0535176,0.0712755,-0.0925361,0.145929,-0.125156,-0.0816549,0.0126648,0.0259018,0.016861,0.0112915,0.0182343,0.0102615,0.0178146,0.00858307,-9.97986,0.0156784,-0.00331879,0.0143051,0.00236511,0.0146103,0.0155258,0.0188065,0.00392914
6,7,10.0097,0.00183105,0.000305176,-2.42592,0.0575121,-0.0738423,0.0544332,0.0706652,-0.0913154,0.145624,-0.124546,-0.0822652,0.0115585,0.0238419,0.0182724,0.0075531,0.0145721,0.0144196,0.0192642,0.012207,-9.97986,0.0141907,-0.000190735,0.0133514,0.00335693,0.0151062,0.012207,0.0188446,0.00301361
6,8,10.0097,0.000915527,0.000305176,-2.42623,0.0562914,-0.0747579,0.0550435,0.0636461,-0.0937568,0.145624,-0.125766,-0.0822652,0.0108337,0.0197983,0.0137711,0.010643,0.0165176,0.0111008,0.0229645,0.0146484,-9.97986,0.0173187,0.00377655,0.0138474,0.00133514,0.0154114,0.0109482,0.018425,0.00701904
6,9,8.46883,0.0012207,-0.00305176,-2.42653,0.0572069,-0.0744527,0.0519917,0.0242784,-0.0965034,0.146234,-0.126987,-0.0822652,0.0108337,0.0187302,0.0191498,0.0152206,0.0195313,0.0136566,0.0227737,0.0163651,-9.97986,0.0187683,-0.00102997,0.0140381,0.00247955,0.0148773,0.00621796,0.0188828,0.00671387
7,0,-0.213117,0.000610352,-0.00457764,-2.42592,0.0575121,-0.0726216,0.0538228,-0.00471326,-0.0961982,0.147149,-0.129429,-0.0813497,0.0123596,0.0231171,0.0201797,0.0138092,0.0149918,0.00999451,0.0195694,0.0162888,-9.97986,0.0159454,-0.000610352,0.0117111,0.00164032,0.0152206,0.00495911,0.0170135,0.00797272
7,1,-7.07622,0.00183105,-0.0050354,-2.42592,0.0562914,-0.0735371,0.0535176,-0.0166151,-0.0965034,0.146234,-0.130649,-0.0804342,0.00862122,0.0199509,0.0157928,0.0159073,0.0179672,0.0117874,0.0223923,0.014534,-9.97986,0.0152588,0.0012207,0.00904083,0.00156403,0.0126266,0.000762939,0.0184631,0.00564575
7,2,-9.99003,-0.000915527,-0.00320435,-2.4247,0.0553758,-0.0741475,0.0556539,0.00688342,-0.0934516,0.146539,-0.127903,-0.0807394,0.0120163,0.0174332,0.0175476,0.0135803,0.0216675,0.0141144,0.0214767,0.0170517,-9.97986,0.0156784,-0.000152588,0.0115585,0.00331879,0.0069809,-0.00442505,0.0180817,0.00614166
7,3,-9.99003,0.000610352,-0.00152588,-2.42531,0.0559862,-0.0744527,0.0550435,0.0447252,-0.0925361,0.145929,-0.125766,-0.0804342,0.010643,0.0188828,0.0204849,0.00984192,0.0202179,0.00827789,0.0175095,0.0126648,-9.97986,0.0169373,-0.0018692,0.0149536,0.00644684,-0.00778198,-0.0075531,0.0164032,0.00328064
7,4,-9.99003,0.000305176,-0.000610352,-2.42562,0.0550706,-0.0738423,0.055959,0.0593737,-0.0913154,0.145318,-0.126072,-0.0810445,0.00823975,0.018959,0.0218582,0.0119019,0.0159836,0.00953674,0.0167084,0.0146866,-9.97986,0.0149155,0.00301361,0.0148392,0.00427246,-0.00946045,-0.0156403,0.0219345,0.00339508
7,5,-9.99003,-0.000915527,-0.000152588,-2.42592,0.0562914,-0.0744527,0.0544332,0.0645616,-0.0916206,0.145624,-0.126682,-0.0837911,0.0107956,0.0230026,0.0231171,0.00907898,0.0172806,0.00770569,0.0203705,0.0123215,-9.97986,0.0151825,-0.00133514,0.0133133,0.00305176,-0.00667572,-0.0114822,0.0167084,0.00610352
7,6,-9.99003,0.00244141,0.00152588,-2.42501,0.0550706,-0.0747579,0.0574849,0.117662,-0.0849067,0.145318,-0.12241,-0.0822652,0.01194,0.0260925,0.0179672,0.0115967,0.019722,0.00896454,0.0215149,0.0177765,-9.97986,0.0173569,-0.000648499,0.0145721,0.00610352,0.0119781,-0.0104141,0.0131226,0.00751495
7,7,-3.29478,0.00152588,0.00366211,-2.42745,0.0544603,-0.0753682,0.0538228,0.136888,-0.0876533,0.143792,-0.122104,-0.0831808,0.0109482,0.022583,0.0181961,0.0139236,0.0180817,0.00930786,0.0195313,0.0183868,-9.97986,0.0165176,0.00244141,0.0142288,0.00457764,0.0125504,-0.00457764,0.0151062,0.00679016
7,8,4.4283,-0.000305176,0.00473022,-2.42806,0.0535448,-0.0756734,0.0538228,0.152757,-0.0891792,0.142572,-0.121799,-0.085317,0.00785828,0.0281525,0.0194931,0.0094223,0.0169754,0.0122452,0.019455,0.0168228,-9.97986,0.0146866,-0.000724792,0.0180054,0.00522614,0.0161743,0.00213623,0.0135422,0.00385284
7,9,10.0097,0.000915527,0.00442505,-2.42959,0.0532396,-0.0768941,0.0519917,0.14879,-0.0910102,0.144098,-0.121799,-0.0868429,0.00766754,0.0252914,0.0212097,0.00953674,0.0184631,0.0137329,0.0210953,0.0175858,-9.97986,0.0159836,-0.000267029,0.0112152,0.0038147,0.0139236,0.00743866,0.0150681,0.00778198
8,0,10.0097,0.000305176,0.00183105,-2.43111,0.0526292,-0.0765889,0.0495503,0.0990465,-0.0971137,0.141351,-0.125766,-0.0880636,0.0112152,0.0252533,0.0203705,0.00972748,0.0162506,0.01091,0.0176239,0.0191498,-9.97986,0.0178909,0.00038147,0.0127411,0.00465393,0.0159836,0.00957489,0.0126266,0.00648499
8,1,10.0097,0.00152588,0.000305176,-2.42928,0.0541551,-0.0762837,0.0495503,0.0816515,-0.0971137,0.143792,-0.127598,-0.0871481,0.0120926,0.0265503,0.0147247,0.014534,0.0200272,0.0108719,0.0205994,0.0204849,-9.97986,0.0110626,0.000991821,0.0171661,0.00514984,0.0176239,0.00167847,0.0161743,0.00549316
8,2,10.0097,0.000305176,0.000152588,-2.42867,0.0544603,-0.0762837,0.050771,0.0752428,-0.0946723,0.143792,-0.127292,-0.0871481,0.00919342,0.0289154,0.0201416,0.0110245,0.0177002,0.00904083,0.0167847,0.0190353,-9.97986,0.0128174,-0.00267029,0.0127029,0.0069809,0.0132751,-0.00190735,0.01194,0.0056076
8,3,10.0097,-0.00183105,0,-2.42867,0.0535448,-0.0744527,0.0532125,0.0718859,-0.0946723,0.143792,-0.125766,-0.0859274,0.00953674,0.0267792,0.0198746,0.00999451,0.0144958,0.00873566,0.0191116,0.02388,-9.97986,0.0230026,-0.00232697,0.016861,0.00835419,0.0173569,-0.00526428,0.0134659,0.00450134
8,4,10.0097,0.000915527,0.000610352,-2.42684,0.0553758,-0.0747579,0.0535176,0.0712755,-0.0934516,0.145013,-0.126987,-0.0847066,0.00598907,0.0281143,0.016861,0.00972748,0.015564,0.00938416,0.0162888,0.0268173,-9.97986,0.0162506,-0.00286102,0.0179291,0.00892639,0.0188065,-0.00320435,0.012207,0.00530243
8,5,10.0097,0.00274658,0.000305176,-2.42684,0.0550706,-0.0747579,0.0535176,0.0718859,-0.0928413,0.145318,-0.126682,-0.0837911,0.00713348,0.0275421,0.0164413,0.00972748,0.0203323,0.0100327,0.0195694,0.0283051,-9.97986,0.0169373,0.00320435,0.0156403,0.00770569,0.0189209,0.00110626,0.0126648,0.00675201
8,6,10.0097,0,0,-2.42653,0.0553758,-0.0723164,0.0535176,0.0709703,-0.0937568,0.147455,-0.126072,-0.0825704,0.0082016,0.0313187,0.0157547,0.0107956,0.0154495,0.00534058,0.0188446,0.0234222,-9.97986,0.0123978,-0.00164032,0.0109482,0.00133514,0.0147247,0.00198364,0.0132751,0.00396729
8,7,10.0097,0.00183105,0.000152588,-2.42531,0.0559862,-0.0744527,0.0535176,0.0709703,-0.0919257,0.145929,-0.124546,-0.0816549,0.0134277,0.0307846,0.0227737,0.0128555,0.0172043,0.0119019,0.0221634,0.0246429,-9.97986,0.0160217,0.00587463,0.0177383,0.00740051,0.014267,0.000801086,0.0167847,0.00572205
8,8,10.0097,0.000915527,0.000305176,-2.42562,0.0553758,-0.0738423,0.0532125,0.0639513,-0.0937568,0.146539,-0.124546,-0.0825704,0.00865936,0.0267792,0.0186539,0.0117493,0.0149536,0.00793457,0.0227737,0.020256,-9.97986,0.0129318,-0.000953674,0.0134659,0.0063324,0.0185013,-0.00736237,0.0131989,0.0043869
8,9,8.59334,-0.000610352,-0.00228882,-2.42714,0.0562914,-0.0738423,0.0526021,0.0242784,-0.0961982,0.146234,-0.127903,-0.0825704,0.0106812,0.0294113,0.0226593,0.00961304,0.0191879,0.0110245,0.0202942,0.013504,-9.97986,0.0130081,0.00205994,0.0139618,0.00431061,0.00923157,-0.0100708,0.0141144,0.00717163
9,0,-0.0715158,-0.000305176,-0.00457764,-2.42531,0.0569017,-0.0744527,0.0535176,-0.00715467,-0.0971137,0.147149,-0.127292,-0.0819601,0.00545502,0.0315094,0.0225067,0.0157928,0.0180435,0.00984192,0.0201797,0.0160217,-9.97986,0.0128555,-0.00198364,0.0138855,0.0056839,0.0109482,-0.00221252,0.0138092,0.00534058
9,1,-6.97398,0.000915527,-0.00473022,-2.42562,0.0569017,-0.073232,0.0538228,-0.0153944,-0.0971137,0.147149,-0.129429,-0.0813497,0.00896454,0.0314713,0.020752,0.00732422,0.0183487,0.0104523,0.0226974,0.01194,-9.97986,0.0075531,0.00232697,0.0128937,0.00675201,0.0155258,-0.001297,0.0152969,0.00606537
9,2,-9.99003,0.000610352,-0.00289917,-2.4244,0.0547655,-0.075063,0.0553487,0.00627307,-0.0946723,0.146539,-0.129429,-0.080129,0.00953674,0.0274277,0.016098,0.0115204,0.0235367,0.0144196,0.0205231,0.0186539,-9.97986,0.0133133,-0.00289917,0.013237,0.00244141,0.00522614,0.00370026,0.01194,0.00789642
9,3,-9.99003,0.0012207,-0.00137329,-2.42409,0.0562914,-0.0738423,0.055959,0.0438097,-0.0900947,0.145929,-0.125461,-0.0816549,0.0131226,0.0332642,0.0178909,0.0130463,0.0164795,0.0109863,0.0224686,0.0188065,-9.97986,0.0125885,0.00202179,0.0157928,0.00759125,-0.0100327,0.0100327,0.014267,0.00328064
9,4,-9.99003,0.0012207,-0.000152588,-2.42501,0.0550706,-0.0744527,0.0550435,0.0593737,-0.0913154,0.145929,-0.126987,-0.0825704,0.00980377,0.0217819,0.0156784,0.0141907,0.0151062,0.0115967,0.0227737,0.0189972,-9.97986,0.01297,-0.000152588,0.0120544,0.00732422,-0.0106049,0.00980377,0.0136566,0.00389099
9,5,-9.99003,-0.000610352,0.000762939,-2.42684,0.0562914,-0.0753682,0.0538228,0.0633409,-0.0910102,0.144403,-0.125766,-0.0837911,0.0129318,0.0133514,0.0167084,0.0123978,0.0144577,0.0157547,0.0230789,0.0176239,-9.97986,0.0172043,0.000343323,0.0110245,0.0030899,-0.00991821,0.0117111,0.0138092,0.00663757
9,6,-9.99003,0.00274658,0.00198364,-2.4247,0.055681,-0.0747579,0.0571797,0.117662,-0.0855171,0.144708,-0.122104,-0.0819601,0.00858307,0.00709534,0.0146866,0.0125122,0.0175858,0.0123596,0.0209045,0.0153351,-9.97986,0.018425,-0.00305176,0.0125885,0.00965118,0.0113297,0.0114441,0.0138092,0.00652313
9,7,-3.21544,0.000915527,0.00274658,-2.42684,0.0550706,-0.0762837,0.0562642,0.13933,-0.0894843,0.144098,-0.122104,-0.0834859,0.0094223,0.00514984,0.0175476,0.00850677,0.0183105,0.0118637,0.0203323,0.00934601,-9.97986,0.0140762,-0.00270844,0.0146484,0.0056076,0.0155258,0.00637054,0.0138474,0.00835419
9,8,4.46248,0.000610352,0.00350952,-2.42714,0.0541551,-0.0756734,0.0532125,0.152147,-0.0894843,0.143182,-0.120578,-0.0856222,0.0111771,0.0129318,0.022049,0.0139618,0.0202942,0.0122833,0.0231171,0.0166321,-9.97986,0.0159454,-0.000228882,0.0164795,0.00530243,0.0143433,0.00484467,0.0100708,0.00713348
9,9,10.0097,0.000915527,0.00473022,-2.42959,0.0541551,-0.0756734,0.0522969,0.14818,-0.090705,0.143487,-0.121189,-0.0862325,0.00972748,0.0123978,0.0246811,0.0112534,0.0156021,0.0131989,0.0205612,0.018158,-9.97986,0.0174713,-0.00160217,0.0167084,0.00400543,0.0138474,-0.00328064,0.0136948,0.00644684
10,0,10.0097,0.00152588,0.00137329,-2.43081,0.0538499,-0.07842,0.04894,0.0984362,-0.0974189,0.142572,-0.125766,-0.0889791,0.0107574,0.0170898,0.0246048,0.0130081,0.0181198,0.0147247,0.0248337,0.0168991,-9.97986,0.0120163,0.00339508,0.0134659,0.00675201,0.0157928,-0.00694275,0.0149918,0.00637054
10,1,10.0097,0.0012207,0,-2.4305,0.0544603,-0.0759786,0.0501607,0.0813463,-0.0968086,0.143487,-0.126987,-0.0880636,0.011673,0.0229645,0.0186539,0.00957489,0.0204468,0.0119781,0.0241852,0.0192642,-9.97986,0.0165558,-0.000267029,0.0127029,0.00564575,0.014267,-0.0112152,0.0142288,0.00400543
10,2,10.0097,0,-0.000152588,-2.42837,0.0553758,-0.0762837,0.0516866,0.0752428,-0.0946723,0.144708,-0.126987,-0.0865377,0.0130081,0.0252914,0.0257874,0.0110626,0.0167084,0.0169373,0.0230408,0.0120163,-9.97986,0.0145721,0.00171661,0.0154114,0.00762939,0.018959,-0.0132751,0.0131989,0.00602722
10,3,10.0097,0.000610352,0,-2.42806,0.0553758,-0.0744527,0.0522969,0.0715807,-0.0937568,0.145013,-0.126987,-0.085317,0.0152206,0.0210953,0.0291443,0.0111389,0.0157928,0.0104141,0.0206757,0.011673,-9.97986,0.017128,-0.000762939,0.0149918,0.00389099,0.0168228,-0.0178528,0.0155258,0.00629425
10,4,10.0097,0.000305176,0.000305176,-2.42837,0.0547655,-0.075063,0.0532125,0.0715807,-0.0928413,0.144403,-0.126682,-0.0844015,0.0147247,0.0323105,0.0263596,0.01194,0.0157166,0.00720978,0.0233078,0.0127029,-9.97986,0.0127029,-0.00156403,0.0144196,0.00514984,0.0169754,-0.0152588,0.0165176,0.00976563
10,5,10.0097,0.00152588,-0.000152588,-2.42592,0.0541551,-0.0744527,0.0544332,0.0709703,-0.0925361,0.145929,-0.125766,-0.0837911,0.0119781,0.027504,0.0164795,0.00934601,0.0175858,0.0123215,0.0208282,0.00751495,-9.97986,0.0141525,-0.00530243,0.0144577,0.00537872,0.0133896,-0.0136948,0.0168228,0.00732422
10,6,10.0097,0.000915527,0.000305176,-2.4244,0.0553758,-0.0744527,0.0550435,0.0709703,-0.0910102,0.146234,-0.124241,-0.0822652,0.0104141,0.0267029,0.0241852,0.00873566,0.0180817,0.0121307,0.0261307,0.00926971,-9.97986,0.018959,-0.00419617,0.0114441,0.00881195,0.0145721,-0.00827789,0.0166702,0.00370026
10,7,10.0097,0.000305176,0.000457764,-2.4247,0.0572069,-0.0753682,0.0529073,0.0715807,-0.0928413,0.146539,-0.125461,-0.0810445,0.0111771,0.0258255,0.0228119,0.00652313,0.0178909,0.01194,0.0234604,0.01091,-9.97986,0.014801,-0.000457764,0.0120163,0.00846863,0.0152588,-0.00606537,0.0153351,0.00549316
10,8,10.0097,-0.000305176,0.000610352,-2.42531,0.055681,-0.0738423,0.054128,0.0636461,-0.0934516,0.145318,-0.123935,-0.0816549,0.0143051,0.0172043,0.0196075,0.0100327,0.0192642,0.0148773,0.0247574,0.00892639,-9.97986,0.0130844,-0.00461578,0.0122833,0.00648499,0.0179291,-0.00644684,0.014801,0.00705719
10,9,8.60127,0.0012207,-0.00289917,-2.42684,0.0572069,-0.0729268,0.0529073,0.0254991,-0.0961982,0.145318,-0.127903,-0.0822652,0.0113678,0.000190735,0.0196075,0.00614166,0.0155258,0.0104904,0.0249481,0.00484467,-9.97986,0.018425,-0.00183105,0.015831,0.0131226,0.0175476,-0.00919342,0.0180054,0.00736237
11,0,-0.0702951,0,-0.00549316,-2.42562,0.0581224,-0.0738423,0.0538228,-0.00715467,-0.0980293,0.146844,-0.128208,-0.0819601,0.00450134,0.00732422,0.0219727,0.00740051,0.0137329,0.0112534,0.0228882,0.0102997,-9.97986,0.0193024,-0.00793457,0.0113297,0.0056839,0.0138855,-0.00778198,0.0147629,0.00610352
11,1,-6.91356,0.000305176,-0.00427246,-2.42623,0.0565965,-0.0738423,0.054128,-0.0153944,-0.0961982,0.146844,-0.130039,-0.0810445,0.00743866,0.030098,0.0181198,0.0111771,0.0196075,0.0115585,0.0190735,0.0117493,-9.97986,0.0229263,-0.00171661,0.0159454,0.00831604,0.0191879,-0.00717163,0.0140762,0.00911713
11,2,-9.99003,0.000305176,-0.00411987,-2.42531,0.0575121,-0.0735371,0.0550435,0.0071886,-0.0925361,0.146539,-0.128208,-0.0810445,0.00900269,0.0350952,0.01297,0.00873566,0.0191116,0.00858307,0.0244141,0.0202942,-9.97986,0.0144958,-0.00408173,0.0119019,0.00358582,0.0101089,-0.0131989,0.0120163,0.0075531
11,3,-9.99003,0.000915527,-0.000915527,-2.42592,0.055681,-0.0744527,0.0553487,0.0441149,-0.0894843,0.146234,-0.127292,-0.0807394,0.0104141,0.0308228,0.0134659,0.0130463,0.0203323,0.0124359,0.0261688,0.0261307,-9.97986,0.014534,-0.0038147,0.0169373,0.00385284,-0.00545502,-0.0103378,0.0141907,0.00572205
11,4,-9.99003,0.000915527,-0.0012207,-2.42562,0.0550706,-0.0747579,0.0550435,0.0584581,-0.0903999,0.144708,-0.126072,-0.0816549,0.00968933,0.0226212,0.00450134,0.0100708,0.0193787,0.0104141,0.0220108,0.0293732,-9.97986,0.017395,0.000228882,0.0141907,0.0112152,-0.00984192,-0.010376,0.0112534,0.00526428
11,5,-9.99003,0.0012207,0.000457764,-2.42714,0.0559862,-0.0759786,0.0550435,0.0648668,-0.0916206,0.145624,-0.126072,-0.0828756,0.00919342,0.0227737,0.00839233,0.0128555,0.021286,0.0114441,0.02285,0.0254059,-9.97986,0.0186539,-0.00389099,0.0146484,0.00972748,-0.00782013,-0.0104904,0.0112152,0.00724792
11,6,-9.99003,0.0012207,0.00152588,-2.42653,0.0550706,-0.0744527,0.055959,0.118273,-0.0858222,0.145013,-0.121494,-0.0825704,0.0115967,0.0223541,0.0144577,0.0136566,0.0113297,0.00801086,0.0218582,0.0196075,-9.97986,0.0148392,0.000190735,0.0146866,0.0062561,0.015831,-0.0191498,0.011673,0.00385284
11,7,-3.03203,0.000915527,0.00350952,-2.42745,0.0532396,-0.0747579,0.0544332,0.13933,-0.088874,0.143792,-0.122715,-0.0840963,0.0105286,0.0210571,0.0159454,0.0146484,0.0127029,0.0102615,0.0237274,0.0215149,-9.97986,0.0152588,-0.00263214,0.0136566,0.00423431,0.0208282,-0.015564,0.0132751,0.00804901
11,8,4.57082,0.0012207,0.00442505,-2.42776,0.0532396,-0.0753682,0.054128,0.151842,-0.088874,0.143792,-0.121494,-0.085317,0.00762939,0.0280762,0.0146103,0.0135422,0.0159836,0.00980377,0.0255585,0.016098,-9.97986,0.0155258,-0.001297,0.014267,0.0062561,0.018425,-0.0148773,0.0113678,0.00892639
11,9,10.0097,0,0.00442505,-2.42776,0.0535448,-0.0765889,0.0522969,0.150011,-0.0916206,0.142877,-0.122104,-0.0856222,0.0136948,0.020256,0.0137329,0.0124741,0.0133514,0.00865936,0.0215149,0.0133896,-9.97986,0.0127411,0.00118256,0.0122452,0.00621796,0.0197601,-0.00709534,0.0141144,0.00556946
12,0,10.0097,0,0.00137329,-2.42959,0.0541551,-0.0756734,0.04894,0.0972155,-0.0974189,0.142877,-0.126682,-0.0883688,0.0100708,0.0227356,0.0161743,0.0125122,0.0138855,0.0118637,0.0196838,0.0140381,-9.97986,0.014801,-0.00205994,0.00732422,0.00583649,0.0175858,0.000839233,0.0112534,0.0056839
12,1,10.0097,0,0.000152588,-2.42898,0.0529344,-0.0759786,0.0510762,0.0813463,-0.0961982,0.143182,-0.126987,-0.0886739,0.00968933,0.0277328,0.0175858,0.0103378,0.0134277,0.0112534,0.020752,0.0141907,-9.97986,0.0184631,0.00175476,0.0158691,0.00823975,0.0164795,0.00141144,0.0123215,0.00492096
12,2,10.0097,-0.0012207,-0.000305176,-2.42959,0.0547655,-0.0771993,0.0519917,0.075548,-0.0949775,0.144708,-0.126682,-0.0859274,0.00892639,0.0243759,0.0213242,0.011673,0.0147629,0.0114441,0.0198364,0.0167465,-9.97986,0.0160217,0.000762939,0.0139618,0.00946045,0.0183487,0.00835419,0.0179291,0.00469208
12,3,10.0097,0.000610352,-0.000305176,-2.42714,0.0559862,-0.0753682,0.0529073,0.0724962,-0.0931465,0.145929,-0.126072,-0.0847066,0.0100327,0.0240707,0.014267,0.00923157,0.0178909,0.0101089,0.0222397,0.0164032,-9.97986,0.0136185,-0.00816345,0.0128174,0.00595093,0.0202179,0.0100327,0.0162125,0.00629425
12,4,10.0097,-0.000305176,-0.000152588,-2.42776,0.0541551,-0.0756734,0.0532125,0.0731066,-0.0922309,0.145013,-0.125766,-0.0847066,0.00831604,0.0202179,0.0170135,0.0104141,0.0164032,0.00854492,0.0218964,0.0149536,-9.97986,0.0144577,-0.00537872,0.0128174,0.00736237,0.0147629,0.0109863,0.0154877,0.00724792
12,5,10.0097,-0.00152588,-0.000305176,-2.42776,0.0553758,-0.0738423,0.0544332,0.0728014,-0.0931465,0.145013,-0.125156,-0.0844015,0.0111771,0.0217438,0.0150299,0.00621796,0.0160217,0.00686646,0.0195313,0.01194,-9.97986,0.0143051,-0.00167847,0.015564,0.00598907,0.017128,0.00663757,0.0159073,0.00972748
12,6,10.0097,0.000915527,0.000457764,-2.42592,0.0575121,-0.0738423,0.0553487,0.0706652,-0.0919257,0.146539,-0.12363,-0.0831808,0.00858307,0.0169754,0.0171661,0.0138474,0.0164032,0.00934601,0.0242615,0.0133133,-9.97986,0.0151062,-0.00621796,0.0137329,0.00766754,0.0177002,0.00350952,0.0139236,0.00648499
12,7,10.0097,0.000610352,0.000152588,-2.42562,0.0569017,-0.0735371,0.0550435,0.0712755,-0.0916206,0.146234,-0.124546,-0.0813497,0.0112915,0.0189972,0.0154877,0.0117874,0.0126266,0.00965118,0.0196457,0.00953674,-9.97986,0.0167465,-0.00171661,0.0131989,0.00831604,0.0133133,0.00305176,0.0137329,0.00507355
12,8,10.0097,0,0.000152588,-2.42623,0.0559862,-0.0747579,0.0535176,0.065172,-0.0937568,0.147455,-0.124546,-0.0819601,0.00865936,0.0214005,0.0153351,0.00759125,0.0199127,0.00991821,0.0206375,0.00999451,-9.97986,0.0169373,-0.000953674,0.0121689,0.00762939,0.0174713,-0.00297546,0.0154495,0.00495911
12,9,8.71022,0.000305176,-0.00305176,-2.42562,0.0569017,-0.0744527,0.0526021,0.0261095,-0.0961982,0.145013,-0.127292,-0.0831808,0.00770569,0.0252914,0.0190353,0.0108719,0.0182343,0.00926971,0.0234222,0.0111389,-9.97986,0.0151443,0.000953674,0.0148773,0.00713348,0.0164413,-0.00530243,0.0119781,0.00549316
13,0,0.0154593,0.000305176,-0.00488281,-2.42501,0.0575121,-0.0741475,0.0529073,-0.00776502,-0.0974189,0.145929,-0.128818,-0.0819601,0.0107574,0.021286,0.0150299,0.00839233,0.0161743,0.0109863,0.0177002,0.0119019,-9.97986,0.0149536,-0.00038147,0.0178146,0.00991821,0.0193024,7.62939e-005,0.0126648,0.00499725
13,1,-6.81254,0,-0.00457764,-2.42501,0.0565965,-0.073232,0.0544332,-0.0166151,-0.0961982,0.146844,-0.129429,-0.0813497,0.0143433,0.0218201,0.0209808,0.0153732,0.0166702,0.0117874,0.0226593,0.0152206,-9.97986,0.0141907,0.000724792,0.0141907,0.00862122,0.0192261,0.00335693,0.0159073,0.00865936
13,2,-9.99003,-0.000305176,-0.00366211,-2.42531,0.0562914,-0.0729268,0.0550435,0.00749377,-0.0937568,0.146539,-0.128208,-0.0813497,0.0110626,0.0174332,0.0177002,0.0133133,0.0131607,0.00617981,0.024147,0.0175858,-9.97986,0.0136948,-0.00118256,0.0138474,0.00984192,0.0115585,-0.00087738,0.0157928,0.00534058
13,3,-9.99003,0.00183105,-0.00137329,-2.42531,0.0547655,-0.0741475,0.0556539,0.0438097,-0.0891792,0.145929,-0.126987,-0.0810445,0.0101852,0.025177,0.0143814,0.0146866,0.0159454,0.00679016,0.0260925,0.0170898,-9.97986,0.0115967,-0.00614166,0.0151062,0.00526428,-0.00640869,0.00110626,0.0139999,0.00549316
13,4,-9.99003,0.000915527,-0.000305176,-2.42501,0.0559862,-0.0741475,0.055959,0.0569322,-0.0916206,0.145318,-0.126072,-0.0822652,0.0121689,0.0225067,0.0205994,0.0139999,0.0160217,0.00652313,0.0235367,0.0172806,-9.97986,0.0127792,-0.0141144,0.0157928,0.00709534,-0.00659943,-0.000686646,0.0118637,0.00572205
13,5,-9.99003,0,0,-2.42684,0.0547655,-0.0738423,0.0544332,0.0648668,-0.0922309,0.145318,-0.125766,-0.0828756,0.0108337,0.0278091,0.0198746,0.0139618,0.0166321,0.0107193,0.0219345,0.0248718,-9.97986,0.0105286,-0.00198364,0.0135422,0.0123978,-0.00488281,-0.00541687,0.0168228,0.0127411
13,6,-9.99003,0.00183105,0.00152588,-2.42501,0.0550706,-0.0741475,0.0562642,0.119493,-0.0858222,0.146539,-0.122104,-0.0819601,0.00957489,0.0245667,0.0160599,0.00915527,0.00831604,0.00850677,0.0239182,0.020752,-9.97986,0.0131607,0.00156403,0.013237,0.00610352,0.0164413,-0.0130844,0.0143051,0.00431061
13,7,-2.86693,-0.000305176,0.00335693,-2.42745,0.0541551,-0.075063,0.054128,0.137499,-0.088874,0.143792,-0.122104,-0.0847066,0.0167847,0.0328445,0.0227356,0.0100327,0.0198364,0.011673,0.0242233,0.0255585,-9.97986,0.0164413,0.00144958,0.0149918,0.00675201,0.0186539,-0.00709534,0.0147629,0.00671387
13,8,4.81557,-0.000915527,0.00411987,-2.42776,0.0526292,-0.0753682,0.054128,0.152452,-0.0897895,0.142877,-0.121799,-0.0856222,0.014534,0.0349045,0.0244141,0.0131226,0.0186539,0.0136566,0.0210571,0.0216293,-9.97986,0.0109482,-0.000152588,0.0154495,0.00732422,0.0188446,-0.00457764,0.0151062,0.00782013
13,9,10.0097,0.000915527,0.0050354,-2.42745,0.0529344,-0.0775044,0.0516866,0.148485,-0.0916206,0.143182,-0.121799,-0.0862325,0.00801086,0.0289536,0.0209045,0.0101089,0.0131989,0.00900269,0.020256,0.0248718,-9.97986,0.00988007,-0.00038147,0.0156784,0.00614166,0.0201035,-0.00335693,0.0132751,0.0082016
14,0,10.0097,0.000610352,0.0012207,-2.4305,0.0529344,-0.0759786,0.0498555,0.0984362,-0.0977241,0.143182,-0.126682,-0.0889791,0.0102615,0.0278473,0.0253677,0.00957489,0.014267,0.00728607,0.0190353,0.0189972,-9.97986,0.0149536,0.0025177,0.0120163,0.00789642,0.0175476,-0.00102997,0.0119019,0.00579834
14,1,10.0097,0.000305176,0.000457764,-2.42959,0.0538499,-0.0762837,0.050771,0.0804308,-0.0968086,0.143182,-0.126987,-0.0883688,0.0125504,0.040741,0.030632,0.014534,0.0203323,0.0136185,0.0224304,0.0195694,-9.97986,0.0142288,0.0056839,0.0129318,0.00720978,0.0189972,0.00465393,0.0141525,0.0069809
14,2,10.0097,0.000610352,0,-2.42867,0.0541551,-0.0747579,0.0516866,0.0740221,-0.0946723,0.144098,-0.126377,-0.0874532,0.00804901,0.0494385,0.0296021,0.0115204,0.0167084,0.0126648,0.0230026,0.0195313,-9.97986,0.0142288,0.0069809,0.0159836,0.0104523,0.0195313,0.00267029,0.0152206,0.00946045
14,3,10.0097,-0.000610352,-0.000915527,-2.42776,0.0541551,-0.0744527,0.0516866,0.0718859,-0.094062,0.144403,-0.126987,-0.0859274,0.00911713,0.040741,0.0251007,0.00793457,0.0168228,0.00732422,0.0233841,0.0185394,-9.97986,0.0151443,0.00125885,0.0114441,0.00354767,0.0148392,-0.000572205,0.0100708,0.00453949
14,4,10.0097,0.000915527,-0.000610352,-2.42745,0.0547655,-0.0747579,0.0535176,0.0700548,-0.0925361,0.145318,-0.126072,-0.0844015,0.00915527,0.0283813,0.0335312,0.0116348,0.0219727,0.00659943,0.0231171,0.01194,-9.97986,0.0138474,0.00301361,0.0164413,0.00957489,0.0202942,-0.00244141,0.0150299,0.00953674
14,5,10.0097,0.000305176,-0.000762939,-2.42684,0.0547655,-0.0741475,0.0535176,0.0691393,-0.0937568,0.144708,-0.125461,-0.0840963,0.0108337,0.0268936,0.0291443,0.0111389,0.0151062,0.00907898,0.0218964,0.0128937,-9.97986,0.0184631,0.000457764,0.01297,0.00514984,0.0177765,0.00347137,0.0122833,0.00640869
14,6,10.0097,-0.000305176,0.000152588,-2.42531,0.0559862,-0.0738423,0.0538228,0.0706652,-0.0931465,0.146844,-0.123935,-0.0822652,0.0104523,0.0219345,0.0240326,0.0118637,0.0183487,0.00801086,0.0218582,0.01091,-9.97986,0.010376,-0.00617981,0.0126266,0.00499725,0.0191116,-0.000724792,0.0127029,0.00938416
14,7,10.0097,0.000915527,0.000305176,-2.42501,0.0562914,-0.0744527,0.054128,0.0706652,-0.0922309,0.146539,-0.123325,-0.0816549,0.00785828,0.0131226,0.022049,0.00961304,0.0168991,0.0112152,0.0276184,0.0088501,-9.97986,0.015564,-0.0130463,0.018158,0.00720978,0.0216675,0.00404358,0.0152206,0.00797272
14,8,10.0097,0,0.000305176,-2.4247,0.0569017,-0.0747579,0.0535176,0.0639513,-0.0928413,0.147455,-0.125156,-0.0813497,0.00801086,0.0159836,0.0296783,0.0118256,0.0159454,0.0137329,0.0245667,0.00835419,-9.97986,0.0142288,-0.0187302,0.0140381,0.00732422,0.0208664,0.00278473,0.0117493,0.00663757
14,9,8.56069,0.00152588,-0.00274658,-2.42684,0.0578172,-0.0744527,0.0522969,0.0245836,-0.0971137,0.146234,-0.126682,-0.0831808,0.0120163,0.0215149,0.0341415,0.0139999,0.0153351,0.010376,0.0231934,0.014267,-9.97986,0.0156403,-0.00965118,0.0182343,0.00473022,0.0216675,-0.00137329,0.0174332,0.00843048
15,0,-0.196027,0.000610352,-0.00457764,-2.4247,0.0547655,-0.0744527,0.0532125,-0.00593396,-0.0971137,0.146234,-0.129123,-0.0825704,0.0102234,0.0222015,0.0251007,0.0107193,0.0181961,0.0134277,0.0186157,0.0176239,-9.97986,0.0134277,-0.000686646,0.010376,0.00675201,0.0193405,-0.00270844,0.0141907,0.00785828
15,1,-6.95598,0.0012207,-0.0050354,-2.42592,0.0569017,-0.0738423,0.0529073,-0.0166151,-0.0965034,0.147149,-0.130039,-0.0819601,0.010376,0.0239944,0.0124741,0.0141525,0.0152969,0.0094986,0.020752,0.0194931,-9.97986,0.0132751,0.00629425,0.0153732,0.00370026,0.0212097,-0.00724792,0.0153351,0.00270844
15,2,-9.99003,0.00152588,-0.00350952,-2.4247,0.0572069,-0.073232,0.0556539,0.00810412,-0.0922309,0.147455,-0.127903,-0.0813497,0.00629425,0.0241852,0.00431061,0.00907898,0.0194168,0.0113297,0.0238037,0.0228119,-9.97986,0.0149155,0.0130081,0.0135422,0.00915527,0.0111008,-0.00823975,0.014534,0.00629425
15,3,-9.99003,0.000305176,-0.000457764,-2.42562,0.0550706,-0.0747579,0.0550435,0.0447252,-0.0900947,0.145624,-0.126377,-0.0810445,0.00846863,0.0267029,0.0100327,0.0116348,0.0153351,0.0105286,0.0207901,0.0210953,-9.97986,0.0120544,0.015564,0.0116348,0.00556946,-0.00663757,-0.0115204,0.0132751,0.00740051
15,4,-9.99003,-0.000915527,-0.000457764,-2.42623,0.055681,-0.075063,0.0547383,0.0587633,-0.0894843,0.145013,-0.125766,-0.0819601,0.0102615,0.0273895,0.00606537,0.0131226,0.0170898,0.0107574,0.0217438,0.0199509,-9.97986,0.0188065,0.0137711,0.0158691,0.00801086,-0.00442505,-0.000610352,0.0173569,0.00770569
15,5,-9.99003,0,-0.000152588,-2.42684,0.0538499,-0.0753682,0.0550435,0.065172,-0.0931465,0.144708,-0.124851,-0.0834859,0.00579834,0.0261307,0.00701904,0.0120544,0.0188446,0.0117874,0.0210571,0.0144958,-9.97986,0.0197983,0.0082016,0.0131607,0.00408173,-0.00724792,-0.00297546,0.0147247,0.00587463
15,6,-9.99003,-0.00183105,0.00183105,-2.42531,0.0559862,-0.073232,0.0562642,0.117357,-0.0852119,0.145929,-0.122104,-0.0822652,0.014534,0.0262833,0.00495911,0.00934601,0.0166321,0.0138474,0.0241852,0.0188065,-9.97986,0.0191879,0.00469208,0.0128937,0.00850677,0.0172043,-0.0141907,0.0179672,0.00518799
15,7,-3.25572,0.000610352,0.00366211,-2.42806,0.0541551,-0.0768941,0.0547383,0.137499,-0.0882636,0.144403,-0.121799,-0.0847066,0.0069809,0.0255203,0.0031662,0.0119019,0.0194168,0.0118637,0.0225449,0.0186539,-9.97986,0.0194931,-0.00389099,0.0161743,0.00511169,0.0234604,-0.0147629,0.0185394,0.00904083
15,8,4.41945,0.000305176,0.00366211,-2.42928,0.0538499,-0.0762837,0.0544332,0.151537,-0.0903999,0.144403,-0.121189,-0.085317,0.00652313,0.0266266,0.00507355,0.00888824,0.0166321,0.0062561,0.0232697,0.0156403,-9.97986,0.0143433,-0.0182343,0.0102997,0.00667572,0.0195694,-0.00682831,0.0167084,0.00400543
15,9,10.0097,-0.000915527,0.00473022,-2.42867,0.0526292,-0.0771993,0.0519917,0.149095,-0.0913154,0.143487,-0.122104,-0.0865377,0.0111771,0.0311279,0.0140381,0.0124359,0.0205612,0.0118637,0.02491,0.0180054,-9.97986,0.0161743,-0.0201416,0.0152206,0.00759125,0.0188065,-0.00453949,0.0209427,0.00522614
16,0,10.0097,0.0012207,0.000915527,-2.43081,0.0538499,-0.0765889,0.050771,0.0987413,-0.0989448,0.141351,-0.125766,-0.0883688,0.0117874,0.0246811,0.0102997,0.0102615,0.0186539,0.00923157,0.0206375,0.0172043,-9.97986,0.0178146,-0.00968933,0.00572205,0.00766754,0.0172806,0.000343323,0.0169754,0.00526428
16,1,10.0097,0.00152588,-0.000152588,-2.43172,0.0532396,-0.0756734,0.0501607,0.0813463,-0.0965034,0.144098,-0.127598,-0.0877584,0.0111389,0.0276947,0.00804901,0.010376,0.0195313,0.0111008,0.0188065,0.0162125,-9.97986,0.0160217,-0.00789642,0.0151443,0.00606537,0.0172424,0.00606537,0.0148773,0.00659943
16,2,10.0097,-0.000610352,-0.000305176,-2.42867,0.0550706,-0.0756734,0.0519917,0.0749376,-0.0949775,0.142877,-0.126072,-0.0874532,0.0103378,0.00854492,0.0108719,0.00862122,0.0201797,0.0102997,0.024147,0.0208664,-9.97986,0.0136948,-0.00530243,0.0132751,0.00770569,0.0172043,0.0115967,0.0175476,0.0069809
16,3,10.0097,0.00274658,-0.000457764,-2.42806,0.0538499,-0.075063,0.0519917,0.072191,-0.0946723,0.143792,-0.125766,-0.085317,0.00801086,-0.0101852,0.0134277,0.0138092,0.0190353,0.0111771,0.0261307,0.0169754,-9.97986,0.0196457,-0.00587463,0.0108719,0.00709534,0.0203705,0.0148392,0.019722,0.00507355
16,4,10.0097,0,-0.000915527,-2.42837,0.0550706,-0.0756734,0.0538228,0.0709703,-0.0946723,0.145318,-0.126072,-0.0837911,0.00801086,-0.00419617,0.0136185,0.0121689,0.0209045,0.0111771,0.0209808,0.0120926,-9.97986,0.0154114,-0.00328064,0.0127029,0.00774384,0.0165558,0.00812531,0.014267,0.00789642
16,5,10.0097,0.00244141,0.000305176,-2.42745,0.0544603,-0.0744527,0.0532125,0.0709703,-0.0931465,0.145013,-0.125156,-0.0840963,0.00919342,0.00747681,0.018959,0.0108719,0.0195694,0.0117874,0.0193405,0.0181961,-9.97986,0.0171661,-0.00747681,0.0127792,0.00919342,0.0193787,0.00530243,0.0178146,0.00591278
16,6,10.0097,-0.00152588,-0.000457764,-2.42562,0.0569017,-0.0741475,0.0544332,0.0715807,-0.0931465,0.146539,-0.124546,-0.0816549,0.00888824,0.0193787,0.022583,0.0114441,0.0122452,0.00873566,0.0212479,0.0164413,-9.97986,0.0150299,-0.00804901,0.00919342,0.00431061,0.0177765,-0.000610352,0.0130081,0.00476837
16,7,10.0097,-0.000305176,0.000457764,-2.42562,0.0562914,-0.0735371,0.0544332,0.0718859,-0.0919257,0.147149,-0.123935,-0.0825704,0.0136948,0.0192261,0.0239182,0.0120926,0.0195694,0.0137329,0.0228882,0.022583,-9.97986,0.0183868,0.00232697,0.0144577,0.00610352,0.0183487,-0.00255585,0.0135422,0.00614166
16,8,10.0097,-0.000610352,0,-2.42653,0.0562914,-0.0741475,0.0544332,0.0648668,-0.0928413,0.146539,-0.125156,-0.0819601,0.0113678,0.0180054,0.0259018,0.00617981,0.0210953,0.0124359,0.0165176,0.0205231,-9.97986,0.0174713,0.00846863,0.0149155,0.00648499,0.021553,0.000305176,0.0188065,0.00644684
16,9,8.52254,0,-0.00289917,-2.42745,0.0569017,-0.0744527,0.0519917,0.0242784,-0.0961982,0.145318,-0.128208,-0.0825704,0.01297,0.0169754,0.0198364,0.0149536,0.0170517,0.00900269,0.0189972,0.0203323,-9.97986,0.0157547,0.00770569,0.012207,0.00442505,0.0170135,-0.00370026,0.0140762,0.00205994
17,0,-0.110273,0.000610352,-0.0050354,-2.42501,0.0578172,-0.0729268,0.0535176,-0.00684949,-0.095893,0.146234,-0.128513,-0.0819601,0.00766754,0.0112534,0.0148392,0.00926971,0.0164413,0.0146866,0.0213623,0.0194931,-9.97986,0.0128937,0.0124359,0.0138855,0.0108719,0.0164032,0.000686646,0.0202942,0.00797272
17,1,-7.0164,0.00213623,-0.00488281,-2.42592,0.0575121,-0.0741475,0.0538228,-0.0150892,-0.0961982,0.146234,-0.129734,-0.0810445,0.0120544,0.00507355,0.0153351,0.00705719,0.0148392,0.0144958,0.0224304,0.021553,-9.97986,0.0178909,0.0177765,0.011673,0.00415802,0.0190735,-0.000610352,0.0150299,0.00358582
17,2,-9.99003,-0.000305176,-0.00335693,-2.42501,0.0559862,-0.0735371,0.0553487,0.00627307,-0.0925361,0.146844,-0.127903,-0.0813497,0.0108719,0.0069046,0.0121689,0.0134659,0.017662,0.0118256,0.018959,0.0178528,-9.97986,0.0115585,0.0226593,0.0112534,0.0012207,0.00953674,-0.00102997,0.0164413,0.00598907
17,3,-9.99003,0.00152588,-0.00137329,-2.4244,0.055681,-0.073232,0.0562642,0.0453356,-0.090705,0.145624,-0.126682,-0.0816549,0.0108337,0.0122833,0.021553,0.0108719,0.0153351,0.0126648,0.0201416,0.0216675,-9.97986,0.0144196,0.02388,0.0118637,0.00812531,-0.0124359,-0.00255585,0.017128,0.00659943
17,4,-9.99003,0.00152588,0.000305176,-2.42623,0.0572069,-0.0741475,0.0553487,0.0590685,-0.090705,0.146539,-0.126987,-0.0819601,0.0133133,0.0212479,0.0205994,0.0115204,0.0173187,0.0102997,0.020752,0.02388,-9.97986,0.0157166,0.019722,0.0127411,0.00907898,-0.0105286,-0.00644684,0.0154114,0.00740051
17,5,-9.99003,0.000610352,-0.000305176,-2.42653,0.0544603,-0.075063,0.0544332,0.0642565,-0.0931465,0.144403,-0.126072,-0.0825704,0.00926971,0.0230789,0.0195313,0.0120163,0.018158,0.00984192,0.0206757,0.0191879,-9.97986,0.0162125,0.0141525,0.0146484,0.00659943,-0.00759125,-0.00923157,0.0167847,0.00606537
17,6,-9.99003,0.0012207,0.0012207,-2.4247,0.0553758,-0.0744527,0.0571797,0.116136,-0.0861274,0.145624,-0.121799,-0.0816549,0.0128174,0.0253296,0.0212479,0.0118637,0.0179291,0.0115585,0.0212097,0.0186157,-9.97986,0.0155258,0.00801086,0.0147629,0.00720978,0.0175858,-0.0139618,0.014801,0.00564575
17,7,-3.26091,0.00183105,0.00366211,-2.42745,0.0544603,-0.0756734,0.0544332,0.137499,-0.0879585,0.143487,-0.122715,-0.0840963,0.0114441,0.0250626,0.0218201,0.0128174,0.020256,0.0122833,0.022316,0.0205612,-9.97986,0.0129318,-0.00087738,0.0178909,0.00724792,0.0210571,-0.0214386,0.0213242,0.00621796
17,8,4.41365,0.000610352,0.00427246,-2.42806,0.0544603,-0.0747579,0.0538228,0.152147,-0.0885688,0.142572,-0.121189,-0.0859274,0.0120926,0.021553,0.0211334,0.00808716,0.017395,0.0119019,0.018959,0.0193787,-9.97986,0.0155258,-0.014267,0.0102615,0.00335693,0.0185776,-0.0330734,0.0178909,0.0069809
17,9,10.0097,0,0.0050354,-2.42867,0.0541551,-0.0759786,0.0529073,0.148485,-0.0916206,0.144708,-0.121799,-0.0859274,0.0136185,0.025177,0.0231171,0.00904083,0.0189972,0.0117874,0.021286,0.0173187,-9.97986,0.0115204,-0.0222397,0.0163651,0.00335693,0.0146484,-0.0292206,0.0160217,0.00701904
18,0,10.0097,0.000915527,0.00137329,-2.4302,0.0535448,-0.0768941,0.0498555,0.0984362,-0.0986396,0.141351,-0.125766,-0.0877584,0.0149155,0.0242615,0.0219345,0.00892639,0.0163651,0.00881195,0.0235367,0.0198364,-9.97986,0.0153351,-0.020256,0.0143814,0.00434875,0.0177765,-0.0136948,0.0171661,0.00556946
18,1,10.0097,0.0012207,0,-2.42959,0.0538499,-0.0756734,0.0504659,0.0819567,-0.0965034,0.142572,-0.126377,-0.0886739,0.0137329,0.0234985,0.0173569,0.0138092,0.0175858,0.0102234,0.0187683,0.0204849,-9.97986,0.0165939,-0.0177002,0.0138474,0.0030899,0.018692,-0.0019455,0.0180435,0.00255585
18,2,10.0097,-0.000305176,-0.000152588,-2.42776,0.0547655,-0.0756734,0.0516866,0.0743273,-0.095893,0.143487,-0.126987,-0.0865377,0.0123596,0.0252533,0.0165558,0.0117111,0.0192261,0.00972748,0.0198364,0.0172043,-9.97986,0.0151062,-0.00709534,0.018692,0.00431061,0.0191116,0.0119019,0.0165176,0.00495911
18,3,10.0097,0.00152588,-0.000152588,-2.42745,0.0550706,-0.0753682,0.0532125,0.0731066,-0.0952827,0.145318,-0.126072,-0.085317,0.00411987,0.0217056,0.0211716,0.00495911,0.0194168,0.00854492,0.0192642,0.0218964,-9.97986,0.0147247,-0.0125885,0.0127792,0.00312805,0.0196457,0.0211334,0.0121689,0.00495911
18,4,10.0097,0.0012207,0.000305176,-2.42714,0.0541551,-0.0753682,0.0519917,0.0718859,-0.0931465,0.145013,-0.126682,-0.0847066,0.0107574,0.0265884,0.0239182,0.00732422,0.0169754,0.0112915,0.0243759,0.017662,-9.97986,0.0174332,-0.0156021,0.0166702,0.00938416,0.0178146,0.0265121,0.0160217,0.00640869
18,5,10.0097,0.000305176,0.000762939,-2.42684,0.055681,-0.075063,0.0532125,0.07036,-0.0931465,0.145624,-0.126072,-0.0844015,0.00999451,0.0245285,0.0182724,0.0112915,0.0141907,0.0107193,0.0215149,0.0193024,-9.97986,0.0127411,-0.0150299,0.0147247,0.00999451,0.0191116,0.028801,0.021019,0.00305176
18,6,10.0097,0.000915527,0.000152588,-2.4247,0.0569017,-0.0735371,0.0547383,0.0715807,-0.0919257,0.146234,-0.125156,-0.0822652,0.0108337,0.0271225,0.0208282,0.0136185,0.0135803,0.0075531,0.0164032,0.0168228,-9.97986,0.00972748,-0.0062561,0.01194,0.0075531,0.0185776,0.0252151,0.0188065,0.00556946
18,7,10.0097,0.000610352,0.000457764,-2.42562,0.0559862,-0.0735371,0.054128,0.0718859,-0.0925361,0.14776,-0.125156,-0.0816549,0.0113678,0.025177,0.0216675,0.0128174,0.0177765,0.00476837,0.0226593,0.0189209,-9.97986,0.0131989,-0.000610352,0.0180054,0.00797272,0.0191879,0.0153351,0.0130081,0.0056076
18,8,10.0097,-0.0012207,0.000305176,-2.42501,0.0553758,-0.0747579,0.0538228,0.0639513,-0.0931465,0.145929,-0.125766,-0.0822652,0.0125504,0.0300217,0.022583,0.0109482,0.0157166,0.00812531,0.0200272,0.018959,-9.97986,0.0155258,0.0038147,0.0115204,0.00854492,0.0169373,0.00816345,0.0131607,0.00724792
18,9,8.55397,0.000610352,-0.00274658,-2.42806,0.0578172,-0.073232,0.0522969,0.0245836,-0.0971137,0.146844,-0.127598,-0.0825704,0.0110245,0.0296402,0.0197601,0.0114441,0.0147629,0.00812531,0.0180817,0.0219727,-9.97986,0.0159454,0.0113297,0.0128937,0.00865936,0.0206757,0.001297,0.0158691,0.00595093
19,0,-0.0678537,-0.000610352,-0.00534058,-2.4247,0.0581224,-0.0738423,0.0544332,-0.00684949,-0.0971137,0.146844,-0.128513,-0.0816549,0.0138474,0.0278091,0.0218582,0.0123596,0.0164413,0.0120544,0.0178909,0.0222778,-9.97986,0.0128174,0.0106049,0.0141144,0.00679016,0.018692,3.8147e-005,0.0168228,0.00617981
19,1,-7.01426,-0.000915527,-0.00457764,-2.42501,0.0565965,-0.0741475,0.054128,-0.0147841,-0.095893,0.147149,-0.129429,-0.0810445,0.0124741,0.0286865,0.0192642,0.0112534,0.0162125,0.00801086,0.0206757,0.021019,-9.97986,0.0112152,0.00789642,0.0209045,0.00434875,0.0170517,0.00335693,0.0153351,0.00461578
19,2,-9.99003,0.000305176,-0.00350952,-2.4244,0.0565965,-0.0741475,0.0553487,0.00566272,-0.094062,0.146539,-0.129123,-0.0807394,0.00915527,0.0297928,0.0205231,0.0127792,0.0154495,0.0069046,0.0172806,0.0192642,-9.97986,0.0112152,0.000534058,0.0159836,0.00782013,0.00919342,0.000953674,0.0193405,0.0043869
19,3,-9.99003,0.000915527,-0.000915527,-2.42379,0.055681,-0.0738423,0.0556539,0.0450304,-0.0897895,0.145318,-0.126072,-0.0810445,0.0088501,0.0274277,0.017395,0.0117874,0.0181961,0.00907898,0.0233459,0.0214386,-9.97986,0.0108337,-0.0147247,0.0120544,0.00556946,-0.00907898,-0.0031662,0.016861,0.00404358
19,4,-9.99003,0.000305176,-0.000152588,-2.42501,0.055681,-0.075063,0.0550435,0.0596788,-0.0922309,0.145624,-0.126987,-0.0816549,0.0122452,0.0284576,0.0186157,0.00785828,0.0173569,0.0124741,0.0229645,0.0196457,-9.97986,0.016098,-0.0192261,0.0158691,0.00972748,-0.00747681,-0.00583649,0.0143814,0.00301361
19,5,-9.99003,0.0012207,0.000762939,-2.42776,0.0547655,-0.0747579,0.0553487,0.0642565,-0.0922309,0.145318,-0.125766,-0.0819601,0.0125122,0.0315857,0.0214767,0.0118256,0.0193024,0.0104904,0.0246811,0.0188446,-9.97986,0.0117493,-0.00850677,0.0165939,0.00514984,-0.0087738,-0.0138092,0.0167465,0.00595093
19,6,-9.99003,0.000610352,0.00167847,-2.42562,0.0550706,-0.0747579,0.0553487,0.117967,-0.0852119,0.144098,-0.122104,-0.0819601,0.0125122,0.0285339,0.0179672,0.00907898,0.0154495,0.0130463,0.0179672,0.0193787,-9.97986,0.0177383,-0.0138474,0.0124359,0.0109482,0.0192642,-0.0151062,0.0128937,0.00396729
19,7,-3.30485,0.000915527,0.00350952,-2.42806,0.0535448,-0.0768941,0.0556539,0.137804,-0.0894843,0.143792,-0.121799,-0.0847066,0.01091,0.025444,0.0182724,0.00789642,0.0201797,0.0147629,0.0226974,0.0186157,-9.97986,0.0156784,-0.00938416,0.0156021,0.00827789,0.0172043,-0.00225067,0.015831,0.00789642
19,8,4.31935,0.0012207,0.00488281,-2.42745,0.0550706,-0.0759786,0.0532125,0.151232,-0.090705,0.144403,-0.121494,-0.0847066,0.0117874,0.0222397,0.0170517,0.0125122,0.0143051,0.0114822,0.0209427,0.0191116,-9.97986,0.0151443,-0.00713348,0.0144196,0.00766754,0.0197983,0.000610352,0.0165176,0.00564575
19,9,10.0097,0,0.00457764,-2.42837,0.0541551,-0.0765889,0.0516866,0.149706,-0.090705,0.142572,-0.121799,-0.0871481,0.0133133,0.0214386,0.0112534,0.0087738,0.0153732,0.0129318,0.0242615,0.0197983,-9.97986,0.0117874,-0.0139618,0.0125504,0.00598907,0.0174713,-0.000572205,0.0179291,0.00782013
20,0,10.0097,-0.000305176,0.00183105,-2.4305,0.0535448,-0.0768941,0.0498555,0.0993517,-0.0977241,0.142572,-0.125156,-0.0883688,0.014534,0.0263596,0.0156403,0.0124741,0.0177383,0.0111008,0.0233078,0.0170135,-9.97986,0.0172424,-0.0104523,0.01297,0.00881195,0.0146866,-0.0112915,0.015831,0.00518799
20,1,10.0097,0.000610352,0.000610352,-2.42959,0.0541551,-0.0765889,0.0510762,0.0813463,-0.0971137,0.141961,-0.126377,-0.0883688,0.0164032,0.0200653,0.0163651,0.0130844,0.0186539,0.0120544,0.0233459,0.0206375,-9.97986,0.0180054,-0.00671387,0.0151825,0.00759125,0.0127411,-0.00984192,0.016098,0.0043869
20,2,10.0097,0.000610352,0,-2.42928,0.0547655,-0.0759786,0.0519917,0.075548,-0.095893,0.144098,-0.126987,-0.0865377,0.00991821,0.0234604,0.0183868,0.00804901,0.018692,0.0134659,0.0201035,0.0144958,-9.97986,0.0159836,-0.0018692,0.0123596,0.00827789,0.0143433,-0.00404358,0.0162125,0.00610352
20,3,10.0097,0.000915527,0.000610352,-2.42806,0.0553758,-0.0744527,0.0538228,0.0734117,-0.094062,0.144098,-0.126072,-0.0859274,0.0131989,0.02285,0.0137329,0.0094223,0.0178528,0.00991821,0.0211334,0.0163269,-9.97986,0.0141525,-0.00164032,0.0135422,0.00923157,0.015564,-0.0044632,0.0168991,0.00778198
20,4,10.0097,0.00152588,0.000305176,-2.42776,0.0553758,-0.0747579,0.0529073,0.0715807,-0.0937568,0.144708,-0.125461,-0.0850118,0.0123215,0.0193405,0.0209808,0.0069809,0.0165176,0.0125885,0.0261307,0.0188828,-9.97986,0.0163651,0.00289917,0.0102234,0.0115967,0.0130463,-0.00202179,0.0183487,0.00606537
20,5,10.0097,-0.000915527,0.000152588,-2.42684,0.0550706,-0.0756734,0.054128,0.0709703,-0.0931465,0.144708,-0.126377,-0.0831808,0.00648499,0.0247574,0.0213623,0.0108719,0.0172043,0.0152206,0.0234985,0.0157928,-9.97986,0.0124359,0.00484467,0.0156784,0.00782013,0.0143433,-0.00614166,0.0154495,0.00549316
20,6,10.0097,0.00152588,-0.000152588,-2.42531,0.0572069,-0.0744527,0.0556539,0.0728014,-0.0919257,0.145929,-0.124546,-0.0828756,0.0107574,0.0231934,0.0165558,0.00862122,0.0125885,0.015564,0.0193787,0.0163651,-9.97986,0.0136948,-0.000610352,0.0109863,0.00637054,0.0119781,-0.001297,0.0148773,0.00682831
20,7,10.0097,-0.00183105,-0.000305176,-2.42592,0.0559862,-0.0744527,0.054128,0.0718859,-0.0922309,0.147149,-0.125461,-0.0810445,0.0115204,0.0219727,0.0183868,0.00556946,0.0180435,0.0110245,0.0252151,0.0172424,-9.97986,0.0154877,0.00114441,0.0163651,0.00995636,0.0156784,0.00297546,0.0155258,0.00476837
20,8,10.0097,0.00152588,-0.000305176,-2.42531,0.0553758,-0.0753682,0.0538228,0.0657823,-0.0922309,0.146539,-0.124851,-0.0810445,0.00961304,0.020752,0.0177765,0.00488281,0.0168228,0.0123215,0.0191498,0.0146866,-9.97986,0.0108719,0.000648499,0.0146866,0.0101471,0.0145721,0.00335693,0.0174713,0.00484467
20,9,8.66261,0.000915527,-0.00244141,-2.42653,0.055681,-0.0741475,0.0532125,0.0233629,-0.0968086,0.145624,-0.128208,-0.0825704,0.0150299,0.0250626,0.0198364,0.0119781,0.0157928,0.0121689,0.021019,0.017128,-9.97986,0.0158691,0.00228882,0.0153351,0.00862122,0.0106812,-0.000953674,0.016861,0.00579834
21,0,0.0230887,0.000610352,-0.00534058,-2.42531,0.0575121,-0.0735371,0.0535176,-0.00715467,-0.0974189,0.146844,-0.129429,-0.0819601,0.00843048,0.0206375,0.0168228,0.0143814,0.0117111,0.0167084,0.0249481,0.0153732,-9.97986,0.0152588,0.0018692,0.0154495,0.0094223,0.0144577,-0.00682831,0.0154114,0.00644684
21,1,-6.88945,0.000915527,-0.00518799,-2.42501,0.0575121,-0.0738423,0.0544332,-0.0147841,-0.0968086,0.147149,-0.129734,-0.0816549,0.0151443,0.0241089,0.020256,0.00846863,0.0130844,0.00976563,0.0202942,0.015831,-9.97986,0.0151443,0.00286102,0.0159836,0.00682831,0.0135803,-0.0125122,0.0144958,0.00499725
21,2,-9.99003,0.000610352,-0.00274658,-2.42501,0.055681,-0.0717061,0.0544332,0.00627307,-0.0928413,0.147149,-0.128513,-0.0816549,0.0121689,0.0213623,0.0209808,0.00984192,0.0180817,0.0125885,0.0243378,0.0192261,-9.97986,0.0152588,0.000915527,0.0170135,0.00831604,0.00549316,-0.0105667,0.0149918,0.00328064
21,3,-9.99003,0.000610352,-0.0012207,-2.4244,0.0559862,-0.073232,0.0562642,0.0453356,-0.0919257,0.146234,-0.126377,-0.0810445,0.00617981,0.0264359,0.0190735,0.0138855,0.0188065,0.00976563,0.0198364,0.0117111,-9.97986,0.0160599,-0.000228882,0.0131607,0.00453949,-0.00827789,-0.0100327,0.0189972,0.0056839
21,4,-9.99003,0.00152588,-0.000457764,-2.42623,0.0547655,-0.0747579,0.0553487,0.0602892,-0.0913154,0.145318,-0.126072,-0.0822652,0.00846863,0.0262451,0.020752,0.00793457,0.0182343,0.0110245,0.0208282,0.0144577,-9.97986,0.0112152,-0.00175476,0.0136185,0.00759125,-0.01297,-0.0075531,0.0164413,0.00507355
21,5,-9.99003,-0.000915527,0.000152588,-2.42714,0.055681,-0.0735371,0.054128,0.0654772,-0.0925361,0.144708,-0.125766,-0.0828756,0.0134277,0.0305176,0.0236511,0.0123978,0.0201797,0.0127792,0.0237656,0.014267,-9.97986,0.00965118,0.00171661,0.016861,0.00789642,-0.0117874,-0.0109863,0.016861,0.00541687
21,6,-9.99003,0.0012207,0.00137329,-2.42653,0.0544603,-0.0738423,0.0571797,0.117967,-0.0849067,0.146234,-0.122715,-0.0816549,0.00988007,0.0258255,0.0187302,0.00957489,0.0148773,0.00953674,0.0249481,0.0175095,-9.97986,0.0127029,-3.8147e-005,0.0173187,0.0111389,0.0166321,-0.0126266,0.0170517,0.00396729
21,7,-3.07689,-0.000610352,0.00350952,-2.42776,0.0526292,-0.0753682,0.054128,0.136888,-0.0885688,0.144403,-0.12241,-0.0847066,0.0123978,0.0269318,0.023613,0.0124741,0.0191879,0.0116348,0.0225449,0.0178146,-9.97986,0.0101471,0.000534058,0.0164413,0.0108337,0.016098,-0.00808716,0.0180435,0.00587463
21,8,4.53877,0.00152588,0.00411987,-2.42745,0.0538499,-0.0756734,0.0550435,0.152147,-0.0894843,0.143792,-0.121189,-0.0847066,0.0103378,0.0253677,0.02388,0.0130081,0.0178528,0.0110626,0.0191116,0.0177383,-9.97986,0.0153732,0.00114441,0.0114822,0.0056839,0.0173187,-0.00957489,0.0174713,0.00499725
21,9,10.0097,0.000915527,0.00549316,-2.42867,0.0529344,-0.0762837,0.0532125,0.147569,-0.0916206,0.143487,-0.121799,-0.0865377,0.0113678,0.0265121,0.0256729,0.0126266,0.017128,0.0114059,0.0192261,0.0173187,-9.97986,0.0183868,0.00152588,0.0150299,0.00869751,0.0150681,-0.00984192,0.0162125,0.00461578
22,0,10.0097,0.00183105,0.00106812,-2.43081,0.0532396,-0.0756734,0.0516866,0.0984362,-0.0974189,0.141351,-0.125461,-0.0892843,0.00915527,0.0225067,0.0272751,0.00682831,0.0187302,0.00740051,0.0219727,0.0177383,-9.97986,0.0114441,0.000648499,0.0167465,0.00587463,0.0177383,-0.00507355,0.0156021,0.00579834
22,1,10.0097,0.000305176,0,-2.42928,0.0535448,-0.0775044,0.0510762,0.0819567,-0.0965034,0.143487,-0.127292,-0.0883688,0.0105667,0.0261307,0.0227737,0.00724792,0.0154877,0.00953674,0.0208282,0.017395,-9.97986,0.0144196,0.00419617,0.0141144,0.00915527,0.0124359,-0.00419617,0.0159454,0.00663757
22,2,10.0097,-0.000610352,0.000152588,-2.42837,0.0550706,-0.0759786,0.0504659,0.0752428,-0.0955879,0.144403,-0.126377,-0.0868429,0.0130463,0.0262451,0.0217819,0.00862122,0.0216293,0.0110245,0.022049,0.0229263,-9.97986,0.0152588,-0.00144958,0.0113297,0.00793457,0.0126648,-0.0147629,0.0167847,0.00610352
22,3,10.0097,0.00183105,-0.000457764,-2.42745,0.0553758,-0.0756734,0.0519917,0.0715807,-0.0949775,0.144098,-0.126377,-0.0856222,0.00732422,0.0242996,0.0191879,0.0109482,0.0177383,0.00732422,0.0227737,0.0159454,-9.97986,0.0156403,0.000762939,0.0144196,0.0082016,0.0130081,-0.00957489,0.0136948,0.00770569
22,4,10.0097,0.00244141,0.000305176,-2.42684,0.0547655,-0.0759786,0.0519917,0.0709703,-0.094062,0.144098,-0.125766,-0.0847066,0.0110626,0.024147,0.0180817,0.00938416,0.0173187,0.00896454,0.019455,0.0183487,-9.97986,0.0140381,-0.00442505,0.0156403,0.00751495,0.0133133,-0.00999451,0.0167847,0.00534058
22,5,10.0097,-0.000305176,0.000457764,-2.42776,0.0553758,-0.0756734,0.0535176,0.0712755,-0.0943672,0.145318,-0.125766,-0.0834859,0.0112534,0.0228119,0.0184631,0.00865936,0.0229263,0.0104904,0.0226593,0.0179291,-9.97986,0.0182343,-0.000648499,0.00934601,0.0100708,0.0100708,-0.00293732,0.0156021,0.00328064
22,6,10.0097,-0.000305176,0.000152588,-2.42592,0.0559862,-0.0744527,0.0532125,0.0715807,-0.0922309,0.146539,-0.124546,-0.0831808,0.0102615,0.0231934,0.0135803,0.0152206,0.0189972,0.0127029,0.0187683,0.0165558,-9.97986,0.0139999,-0.00648499,0.0130081,0.0094986,0.00995636,-0.000610352,0.0170898,0.00492096
22,7,10.0097,0.000305176,-0.000152588,-2.4247,0.055681,-0.0729268,0.0544332,0.0715807,-0.0916206,0.14776,-0.124851,-0.0825704,0.00930786,0.020256,0.00926971,0.0119781,0.0192261,0.0112152,0.0220871,0.0229645,-9.97986,0.0132751,-0.00167847,0.0130081,0.00774384,0.0139236,-0.00125885,0.0143051,0.00545502
22,8,10.0097,0.00183105,0.000457764,-2.42623,0.0559862,-0.0741475,0.054128,0.0627306,-0.0937568,0.146234,-0.124241,-0.0825704,0.0101471,0.0176239,0.0128174,0.0110626,0.0196075,0.00915527,0.0218201,0.0232697,-9.97986,0.016098,-0.00087738,0.0144958,0.00850677,0.0112534,0.00370026,0.0170135,0.00606537
22,9,8.46883,0.000305176,-0.00274658,-2.42714,0.0559862,-0.0738423,0.0538228,0.0233629,-0.0974189,0.146234,-0.127598,-0.0825704,0.00858307,0.019722,0.0115585,0.0100708,0.0152969,0.0105286,0.0192642,0.0223923,-9.97986,0.0205612,-0.000762939,0.0126266,0.00881195,0.012207,0.00492096,0.0190353,0.00583649
23,0,-0.264387,0.000305176,-0.00549316,-2.42562,0.0550706,-0.0738423,0.0522969,-0.00837537,-0.0961982,0.146844,-0.129429,-0.0825704,0.00804901,0.0180054,0.0144196,0.0031662,0.0169754,0.00984192,0.0197601,0.0221252,-9.97986,0.0128174,-0.00583649,0.0126648,0.00694275,0.00736237,-0.00137329,0.0120926,0.00389099
23,1,-7.15648,0.000610352,-0.00488281,-2.42531,0.0572069,-0.0735371,0.0544332,-0.0147841,-0.0961982,0.147149,-0.130344,-0.0819601,0.0158691,0.0268936,0.0208664,0.0145721,0.0188446,0.0075531,0.0245667,0.0222015,-9.97986,0.0169754,-0.00507355,0.0148392,0.0107574,0.0127029,-0.00331879,0.0156403,0.00709534
23,2,-9.99003,0.000610352,-0.00335693,-2.4247,0.0559862,-0.0735371,0.0550435,0.0084093,-0.0922309,0.145013,-0.127598,-0.0813497,0.00934601,0.0221252,0.0141907,0.00911713,0.0159454,0.0043869,0.0210571,0.0172806,-9.97986,0.0154495,0.00133514,0.0172806,0.00961304,0.000991821,-0.00576019,0.0179672,0.0056076
23,3,-9.99003,0,-0.00183105,-2.42592,0.0559862,-0.0735371,0.0565694,0.0438097,-0.0897895,0.146234,-0.126072,-0.0804342,0.012207,0.0247955,0.0202942,0.00782013,0.0162125,0.00999451,0.02285,0.0150299,-9.97986,0.0106049,0.00144958,0.0127411,0.00839233,-0.0127792,-0.00457764,0.017395,0.00640869
23,4,-9.99003,0.000915527,-0.000152588,-2.42653,0.0559862,-0.0747579,0.0538228,0.0584581,-0.0900947,0.145929,-0.127292,-0.0816549,0.0153351,0.0263214,0.0207901,0.0134277,0.0182724,0.0112152,0.0248718,0.0140762,-9.97986,0.017662,0.00492096,0.0170135,0.0141525,-0.01297,-0.00389099,0.0178909,0.00850677
23,5,-9.99003,-0.000610352,-0.000305176,-2.42562,0.0541551,-0.0744527,0.0532125,0.0654772,-0.0922309,0.145318,-0.125461,-0.0834859,0.00873566,0.0259781,0.0185394,0.00972748,0.0175476,0.0105286,0.0266647,0.01091,-9.97986,0.014534,-0.00167847,0.0117111,0.00900269,-0.0118256,-0.00389099,0.0142288,0.00587463
23,6,-9.99003,0.000610352,0.00244141,-2.42592,0.0550706,-0.0738423,0.0568746,0.116442,-0.0849067,0.146234,-0.12241,-0.0819601,0.014801,0.0307465,0.0210571,0.0104523,0.0174713,0.00892639,0.0214767,0.0132751,-9.97986,0.0110245,0.00812531,0.0154114,0.0107574,0.0104141,-0.00465393,0.0172424,0.00514984
23,7,-3.21849,0.0012207,0.00289917,-2.42745,0.0538499,-0.0762837,0.0532125,0.135057,-0.0885688,0.144403,-0.12241,-0.0844015,0.0113297,0.0201035,0.0178909,0.0134277,0.0163651,0.00648499,0.0220871,0.0146484,-9.97986,0.0128174,0.00602722,0.0114441,0.00892639,0.01091,-0.0146484,0.018692,0.00614166
23,8,4.30745,-0.0012207,0.00457764,-2.42776,0.0541551,-0.0753682,0.0538228,0.153063,-0.0897895,0.143792,-0.121799,-0.085317,0.0108719,0.0233459,0.0210953,0.0140762,0.018425,0.00839233,0.0218201,0.0205612,-9.97986,0.0112534,0.0037384,0.0159454,0.00934601,0.0155258,-0.0128555,0.0181961,0.00617981
23,9,10.0097,-0.00152588,0.0050354,-2.42928,0.0538499,-0.0768941,0.0535176,0.147264,-0.090705,0.144708,-0.121494,-0.0859274,0.0108719,0.0243378,0.0162888,0.0120163,0.0181961,0.0112152,0.0247955,0.0185394,-9.97986,0.017128,0.00652313,0.0172806,0.0115967,0.0150299,-0.00873566,0.0151443,0.00495911
24,0,10.0097,-0.000610352,0.00152588,-2.43142,0.0526292,-0.0768941,0.0501607,0.0990465,-0.0974189,0.141656,-0.126072,-0.0889791,0.00907898,0.0178528,0.0161362,0.0120163,0.0183487,0.0105286,0.0209045,0.022316,-9.97986,0.0126648,-0.00038147,0.0125504,0.00701904,0.012207,-0.00679016,0.016098,0.00614166
24,1,10.0097,0,0.000305176,-2.4302,0.0535448,-0.0762837,0.050771,0.080736,-0.0968086,0.142877,-0.127292,-0.0877584,0.0130463,0.0151062,0.0179672,0.01194,0.0198746,0.0115204,0.0239944,0.0213242,-9.97986,0.0136566,-0.00183105,0.0123215,0.00785828,0.0154877,-0.00259399,0.0196838,0.00656128
24,2,10.0097,0.000610352,0.000457764,-2.42806,0.0550706,-0.0753682,0.0526021,0.0743273,-0.0949775,0.143792,-0.126072,-0.0874532,0.0122833,0.020256,0.021019,0.016861,0.0212097,0.0104523,0.0225449,0.0188828,-9.97986,0.016098,0.0012207,0.0156403,0.0108337,0.0168228,0.00534058,0.0188065,0.00675201
24,3,10.0097,-0.000610352,-0.000152588,-2.42898,0.0553758,-0.0759786,0.0519917,0.0737169,-0.0949775,0.144708,-0.125766,-0.0856222,0.0106049,0.016098,0.0214386,0.0170517,0.0207138,0.00770569,0.0226974,0.018425,-9.97986,0.0113678,-0.00530243,0.0107956,0.00667572,0.0125122,0.00473022,0.0138092,0.00324249
24,4,10.0097,0.00183105,-0.000305176,-2.42653,0.0547655,-0.0747579,0.0535176,0.0709703,-0.0931465,0.145013,-0.125461,-0.0847066,0.00869751,0.0273895,0.0192642,0.0127792,0.0231171,0.0136185,0.0193405,0.0199509,-9.97986,0.0190353,0.00354767,0.0165558,0.0104904,0.0177765,0.0157547,0.0220871,0.0119781
24,5,10.0097,-0.000305176,0,-2.42684,0.0547655,-0.0753682,0.0529073,0.0712755,-0.0928413,0.145013,-0.125461,-0.0837911,0.00614166,0.0197983,0.0122452,0.00579834,0.0107956,0.0031662,0.0169754,0.0116348,-9.97986,0.0139618,-0.00522614,0.00938416,0.0030899,0.0102234,0.00267029,0.0113297,0.00507355
24,6,10.0097,-0.000610352,0.000305176,-2.42531,0.0565965,-0.0744527,0.054128,0.072191,-0.0922309,0.146539,-0.125766,-0.0828756,0.0141525,0.0320053,0.0190735,0.0190353,0.0214767,0.0152206,0.023613,0.0228119,-9.97986,0.0179672,0.00408173,0.0154495,0.0135422,0.0144958,0.00659943,0.0218201,0.00774384
24,7,10.0097,0.000915527,-0.000152588,-2.42531,0.0562914,-0.0735371,0.054128,0.0709703,-0.0903999,0.147149,-0.124851,-0.0816549,0.00595093,0.0283813,0.0140381,0.00797272,0.0123596,0.00671387,0.019989,0.0135803,-9.97986,0.0130844,-0.00724792,0.0134277,0.00396729,0.014801,-7.62939e-005,0.0143051,0.00335693
24,8,10.0097,0,0.000152588,-2.42623,0.0553758,-0.0741475,0.0547383,0.0645616,-0.0934516,0.146539,-0.125156,-0.0822652,0.00751495,0.0256348,0.016861,0.0123596,0.0180054,0.0110626,0.0193405,0.0167084,-9.97986,0.0163269,7.62939e-005,0.0158691,0.0114822,0.0165558,0.00289917,0.0162125,0.00782013
24,9,8.64552,-0.000610352,-0.00305176,-2.42623,0.0562914,-0.0747579,0.0532125,0.0267198,-0.0961982,0.145929,-0.128513,-0.0828756,0.00968933,0.0222397,0.0185394,0.0141144,0.0167084,0.0031662,0.0218201,0.0182343,-9.97986,0.0114822,-0.00209808,0.0105286,0.00984192,0.0139236,-0.00335693,0.0167465,0.00709534
25,0,0.0334647,-0.000610352,-0.00595093,-2.42623,0.0575121,-0.0738423,0.0535176,-0.00623914,-0.0961982,0.146234,-0.129734,-0.0813497,0.0107574,0.0127029,0.0175095,0.0109482,0.0162125,0.00995636,0.0218964,0.0181198,-9.97986,0.0138092,-0.00236511,0.015831,0.00930786,0.0147629,-0.000495911,0.0170517,0.0088501
25,1,-6.8632,0.000915527,-0.00488281,-2.42562,0.0572069,-0.0738423,0.0538228,-0.0160048,-0.0961982,0.14776,-0.130954,-0.0816549,0.0100327,0.0147629,0.0149155,0.0132751,0.0173569,0.0104523,0.0261307,0.0205231,-9.97986,0.0123978,-0.00167847,0.0149536,0.00988007,0.0123978,-0.00442505,0.0167847,0.00797272
25,2,-9.99003,0.000610352,-0.00274658,-2.42562,0.055681,-0.0738423,0.0562642,0.00627307,-0.0943672,0.146539,-0.127598,-0.0807394,0.0107956,0.0194931,0.0206757,0.0153732,0.0199127,0.0115585,0.0230026,0.0178909,-9.97986,0.0157547,-0.00110626,0.0154114,0.00923157,0.00778198,-0.00675201,0.0170517,0.0094223
25,3,-9.99003,-0.000305176,-0.00183105,-2.42409,0.0562914,-0.073232,0.0550435,0.04442,-0.090705,0.146844,-0.127292,-0.0813497,0.00671387,0.0248718,0.016861,0.0141525,0.0169754,0.013504,0.0234604,0.0135803,-9.97986,0.014267,-0.00450134,0.0133514,0.0082016,-0.00999451,-0.0161362,0.0167084,0.00507355
25,4,-9.99003,0.00183105,0.000305176,-2.42501,0.0547655,-0.0747579,0.0550435,0.059984,-0.0913154,0.145624,-0.126377,-0.0810445,0.0100708,0.028038,0.0176239,0.0143051,0.0152206,0.00850677,0.0238419,0.00934601,-9.97986,0.0178909,-0.00240326,0.0127792,0.00789642,-0.00831604,-0.0172424,0.0143814,0.00469208
25,5,-9.99003,0,-0.000152588,-2.42714,0.0544603,-0.0747579,0.0535176,0.0636461,-0.0916206,0.145013,-0.125766,-0.0828756,0.0104904,0.0233078,0.0188446,0.0154495,0.0143814,0.0124359,0.0258636,0.0110245,-9.97986,0.0156403,-0.00274658,0.0169373,0.00854492,-0.0128555,-0.0115967,0.0173187,0.00694275
25,6,-9.99003,0.000610352,0.00152588,-2.42501,0.0550706,-0.0747579,0.0562642,0.119188,-0.0861274,0.144098,-0.122715,-0.0813497,0.0105667,0.0205231,0.0208664,0.00968933,0.0172043,0.0129318,0.0212479,0.0109482,-9.97986,0.0149155,-0.00541687,0.0101852,0.0102615,0.0139236,-0.00137329,0.015564,0.00312805
25,7,-2.91789,-0.000305176,0.00396729,-2.42714,0.0535448,-0.075063,0.0553487,0.137804,-0.0879585,0.145013,-0.122104,-0.0844015,0.0112915,0.0238419,0.0204468,0.0132751,0.0202942,0.00896454,0.0223923,0.00881195,-9.97986,0.0167847,0.00240326,0.0172806,0.0112915,0.0152206,0.0132751,0.019455,0.00701904
25,8,4.6285,0.000610352,0.00411987,-2.42776,0.0541551,-0.0744527,0.0553487,0.151537,-0.0894843,0.144403,-0.121494,-0.0859274,0.00907898,0.0247574,0.0242233,0.0129318,0.0131226,0.0131226,0.0183868,0.0124741,-9.97986,0.016098,-0.00431061,0.0136948,0.00892639,0.0196838,0.0204086,0.0149536,0.00835419
25,9,10.0097,-0.000915527,0.00457764,-2.42837,0.0538499,-0.0765889,0.0519917,0.14818,-0.0922309,0.143182,-0.121494,-0.0868429,0.00785828,0.0318146,0.0220871,0.0129318,0.0214005,0.00907898,0.0217056,0.00804901,-9.97986,0.0147247,-0.00522614,0.01297,0.00663757,0.0143814,0.0120544,0.015831,0.00827789
26,0,10.0097,0,0.00137329,-2.42928,0.0520189,-0.0759786,0.0513814,0.0975206,-0.0971137,0.143487,-0.125766,-0.0886739,0.00854492,0.0281143,0.0201797,0.0128555,0.0152588,0.0111008,0.0211334,0.0136185,-9.97986,0.0163269,-0.00267029,0.0169754,0.00514984,0.0149155,0.00553131,0.0139999,0.00793457
26,1,10.0097,-0.000610352,0.000762939,-2.42898,0.0538499,-0.075063,0.0504659,0.0819567,-0.0961982,0.142572,-0.126682,-0.0880636,0.0121307,0.0263214,0.0165176,0.0116348,0.0136948,0.0140381,0.0249863,0.0186157,-9.97986,0.0170135,-0.00183105,0.0123215,0.00652313,0.0172424,0.0037384,0.013504,0.00488281
26,2,10.0097,0.000305176,0,-2.42928,0.0541551,-0.0759786,0.0519917,0.0758531,-0.0961982,0.144708,-0.126072,-0.0862325,0.00843048,0.0217819,0.0218201,0.0113678,0.0159073,0.0139999,0.0218582,0.0163651,-9.97986,0.0179672,-0.001297,0.0172043,0.00667572,0.0152588,-0.00396729,0.0145721,0.00549316
26,3,10.0097,0.000610352,0.000762939,-2.42745,0.0550706,-0.0744527,0.0529073,0.0718859,-0.094062,0.143792,-0.126987,-0.0859274,0.0136566,0.0172806,0.0208282,0.00736237,0.0156403,0.0104141,0.02285,0.0133133,-9.97986,0.0162125,-0.0037384,0.0135422,0.00598907,0.0148773,-0.0107956,0.0126648,0.00522614
26,4,10.0097,0.000915527,-0.000152588,-2.42745,0.0550706,-0.075063,0.0535176,0.0715807,-0.0931465,0.143792,-0.126072,-0.0844015,0.00564575,0.0228119,0.0226212,0.00881195,0.0175858,0.00873566,0.0220871,0.0179291,-9.97986,0.0166321,-0.00522614,0.0107193,0.00759125,0.0185013,-0.0062561,0.0136948,0.00572205
26,5,10.0097,0.0012207,0.000305176,-2.42714,0.0541551,-0.0741475,0.0529073,0.0694445,-0.0928413,0.144708,-0.125461,-0.0840963,0.0131226,0.0212479,0.0199127,0.010376,0.0175095,0.00843048,0.021286,0.0259018,-9.97986,0.0141144,-0.00312805,0.0139618,0.00850677,0.0134659,-0.00679016,0.0157166,0.00675201
26,6,10.0097,0.000305176,0.000457764,-2.42562,0.055681,-0.0747579,0.054128,0.0709703,-0.0919257,0.146234,-0.125461,-0.0822652,0.0109482,0.0241089,0.0226212,0.0123596,0.019989,0.0120926,0.0227356,0.0255966,-9.97986,0.0153732,0.00263214,0.0141525,0.0115204,0.0134659,-0.0107956,0.0197983,0.00576019
26,7,10.0097,0.000610352,-0.000457764,-2.42592,0.0575121,-0.0747579,0.0547383,0.0724962,-0.0922309,0.147149,-0.123325,-0.0819601,0.0087738,0.0225067,0.018425,0.0116348,0.018425,0.00728607,0.0237656,0.0209045,-9.97986,0.0169373,-0.00255585,0.00980377,0.00988007,0.0164413,-0.0119019,0.0175476,0.00701904
26,8,10.0097,-0.000915527,0,-2.42745,0.0565965,-0.0747579,0.0535176,0.0645616,-0.0919257,0.145318,-0.124851,-0.0816549,0.0117874,0.0278091,0.0243378,0.0088501,0.017128,0.00961304,0.0225067,0.0226212,-9.97986,0.0167847,-0.00434875,0.0156403,0.00888824,0.0169373,-0.0117493,0.0129318,0.00545502
26,9,8.63301,0.00183105,-0.00305176,-2.42623,0.0559862,-0.0741475,0.0526021,0.0254991,-0.0971137,0.147149,-0.128513,-0.0831808,0.0126266,0.0239944,0.0190735,0.0101471,0.0169754,0.00938416,0.0227737,0.0172424,-9.97986,0.0151443,-0.00366211,0.0126648,0.00720978,0.0178528,-0.00976563,0.0189209,0.00736237
27,0,0.000810897,0.000305176,-0.00488281,-2.42531,0.0562914,-0.0741475,0.054128,-0.00654431,-0.0977241,0.147149,-0.130039,-0.0816549,0.0144577,0.0304031,0.0165939,0.0109482,0.0152206,0.00740051,0.0210953,0.0130463,-9.97986,0.0163269,-0.00297546,0.0152206,0.00862122,0.0194168,-0.0075531,0.0154114,0.00854492
27,1,-6.84672,0.000610352,-0.00534058,-2.42531,0.0562914,-0.073232,0.0535176,-0.0160048,-0.0977241,0.145929,-0.130649,-0.0810445,0.0140381,0.0403976,0.014267,0.00999451,0.0170898,0.0087738,0.0223923,0.0141907,-9.97986,0.0119019,-0.00225067,0.0155258,0.00411987,0.0180054,-0.00278473,0.0167465,0.00957489
27,2,-9.99003,0.000305176,-0.00335693,-2.42501,0.0569017,-0.0747579,0.0550435,0.00627307,-0.0925361,0.146234,-0.128513,-0.0810445,0.0112152,0.0291824,0.0195694,0.0165939,0.0165939,0.00617981,0.0223541,0.0114441,-9.97986,0.0177383,0.000915527,0.013237,0.00892639,0.01194,-0.00366211,0.0204086,0.00583649
27,3,-9.99003,0.00152588,-0.00106812,-2.4244,0.055681,-0.0741475,0.0556539,0.0453356,-0.0897895,0.146234,-0.126682,-0.0804342,0.0113297,0.0260544,0.0216675,0.0138855,0.0153351,0.0164413,0.0262833,0.0128555,-9.97986,0.0162125,-0.00400543,0.0106812,0.00659943,-0.00968933,-0.00804901,0.0149155,0.00656128
27,4,-9.99003,0.00152588,-0.000915527,-2.42531,0.0562914,-0.0747579,0.0547383,0.0587633,-0.0913154,0.145318,-0.126377,-0.0825704,0.00740051,0.0276566,0.0194931,0.0137711,0.0121689,0.00831604,0.0229645,0.0143814,-9.97986,0.0146866,0.00411987,0.0107574,0.00961304,-0.00785828,-0.00572205,0.0147247,0.00534058
27,5,-9.99003,-0.000610352,0.000305176,-2.42653,0.0550706,-0.075063,0.0547383,0.0654772,-0.0922309,0.146539,-0.125766,-0.0822652,0.00934601,0.0269699,0.0168991,0.0131226,0.0123596,0.0104141,0.0267792,0.0122833,-9.97986,0.013504,0,0.0167465,0.00930786,-0.00488281,-0.00793457,0.0143051,0.00610352
27,6,-9.99003,0.00183105,0.00137329,-2.42501,0.0547655,-0.075063,0.0550435,0.119188,-0.0855171,0.144708,-0.122104,-0.0825704,0.00896454,0.0265884,0.0185013,0.0143051,0.0160217,0.00991821,0.0218582,0.0128555,-9.97986,0.0187683,-0.00236511,0.0128937,0.00751495,0.0163651,-3.8147e-005,0.0144958,0.00717163
27,7,-2.90812,-0.000305176,0.00320435,-2.42837,0.0535448,-0.075063,0.0544332,0.136888,-0.0885688,0.144098,-0.122104,-0.0847066,0.0101089,0.0281525,0.0221252,0.0125122,0.0140762,0.00965118,0.0292587,0.0125504,-9.97986,0.0163651,-0.000457764,0.00976563,0.00801086,0.0163269,-0.00228882,0.0161743,0.00679016
27,8,4.54915,0,0.00488281,-2.42776,0.0535448,-0.0762837,0.054128,0.152147,-0.0876533,0.143182,-0.121189,-0.0856222,0.0101852,0.0228119,0.0228882,0.0143814,0.0202179,0.0110245,0.022049,0.0186157,-9.97986,0.0180435,0.001297,0.0144577,0.00717163,0.0160599,-0.00209808,0.0164413,0.00751495
27,9,10.0097,0.00366211,0.00473022,-2.42776,0.0535448,-0.0768941,0.0516866,0.14818,-0.0925361,0.142267,-0.12241,-0.0874532,0.0120163,0.0201416,0.0225067,0.0119781,0.0172806,0.00770569,0.0231171,0.0157928,-9.97986,0.016098,-0.00118256,0.014534,0.00835419,0.017395,-0.00293732,0.0150299,0.00606537
28,0,10.0097,-0.0012207,0.00137329,-2.42959,0.0535448,-0.0771993,0.0501607,0.0987413,-0.0968086,0.143792,-0.125156,-0.0883688,0.00793457,0.0226212,0.022583,0.0114822,0.0143433,0.0087738,0.0219727,0.0140381,-9.97986,0.0153732,-0.00366211,0.0138092,0.00694275,0.0138474,0.00541687,0.0144577,0.00640869
28,1,10.0097,0.000610352,0.000915527,-2.4305,0.0541551,-0.0753682,0.0501607,0.0816515,-0.0968086,0.143792,-0.126072,-0.0883688,0.0149536,0.0239182,0.0305939,0.0087738,0.0122452,0.0106049,0.0228119,0.0172424,-9.97986,0.0148773,0.00167847,0.0139236,0.00583649,0.0225449,0.0043869,0.0146484,0.00598907
28,2,10.0097,0.000305176,-0.000610352,-2.42867,0.0535448,-0.0768941,0.0510762,0.0740221,-0.0952827,0.144708,-0.126377,-0.0871481,0.0120544,0.0181198,0.0266266,0.0094223,0.013237,0.00858307,0.0213242,0.0157928,-9.97986,0.0199127,-0.000762939,0.0101471,0.00484467,0.0156784,0.00839233,0.0163269,0.00606537
28,3,10.0097,0,-0.000305176,-2.42806,0.0541551,-0.0747579,0.0532125,0.0718859,-0.0949775,0.143487,-0.125766,-0.0862325,0.0122833,0.0275803,0.0242233,0.0107574,0.0159454,0.0104523,0.0213623,0.0157166,-9.97986,0.0190353,0.00320435,0.0146484,0.00720978,0.0159073,0.00469208,0.0148392,0.00476837
28,4,10.0097,-0.00244141,-0.000305176,-2.42684,0.055681,-0.0753682,0.0526021,0.0709703,-0.0934516,0.146234,-0.126987,-0.085317,0.0135422,0.0253296,0.0175858,0.0154495,0.0178146,0.00862122,0.0258255,0.0115585,-9.97986,0.022049,0.00255585,0.013237,0.00751495,0.0162125,0.00244141,0.0139618,0.00488281
28,5,10.0097,-0.000915527,-0.000610352,-2.42745,0.0565965,-0.0735371,0.054128,0.0709703,-0.0916206,0.146234,-0.126072,-0.0834859,0.0123215,0.0318909,0.015831,0.00831604,0.0173569,0.00957489,0.0262833,0.0128937,-9.97986,0.0141144,0.00114441,0.0168991,0.0044632,0.0180435,0.000991821,0.0127792,0.0062561
28,6,10.0097,0.000305176,0.000915527,-2.42562,0.0565965,-0.0729268,0.054128,0.0709703,-0.0916206,0.144403,-0.125461,-0.0828756,0.0130463,0.0389099,0.0115204,0.0102615,0.0180817,0.0102997,0.0189972,0.0165939,-9.97986,0.0146484,0.00431061,0.0149536,0.00549316,0.0154877,0.00221252,0.0166321,0.00419617
28,7,10.0097,0.000915527,0,-2.42531,0.0565965,-0.0744527,0.0550435,0.0724962,-0.0928413,0.147149,-0.124851,-0.0822652,0.00923157,0.0365829,0.0163269,0.00686646,0.0159836,0.0127411,0.0206757,0.0180435,-9.97986,0.014267,-0.00175476,0.0137329,0.00183105,0.0174713,0.00289917,0.0133896,0.00396729
28,8,10.0097,0.000915527,0.000610352,-2.42562,0.055681,-0.0735371,0.054128,0.0654772,-0.0934516,0.147149,-0.124851,-0.0819601,0.0129318,0.0329971,0.0185776,0.00766754,0.0175858,0.00938416,0.0193024,0.0171661,-9.97986,0.0188828,-0.010376,0.0149536,0.00911713,0.0190353,0.00343323,0.0159836,0.00659943
28,9,8.69557,0.000305176,-0.00274658,-2.42623,0.0547655,-0.0735371,0.0532125,0.0254991,-0.0965034,0.147149,-0.128208,-0.0828756,0.0094223,0.0330353,0.0203323,0.00968933,0.0189209,0.00984192,0.0252533,0.0200272,-9.97986,0.0139999,-0.0056076,0.0127029,0.00377655,0.018425,-0.000228882,0.0155258,0.00778198
29,0,0.103045,0,-0.0050354,-2.42531,0.0572069,-0.0738423,0.0547383,-0.00715467,-0.0980293,0.146844,-0.129429,-0.0816549,0.0123978,0.0266266,0.0165558,0.01194,0.0179291,0.00938416,0.0227356,0.0205231,-9.97986,0.0166702,0.00171661,0.0139236,0.00869751,0.0178528,0.00419617,0.0192261,0.00938416
29,1,-6.8156,0,-0.00442505,-2.42623,0.0569017,-0.0738423,0.0544332,-0.0147841,-0.0965034,0.147149,-0.129429,-0.0816549,0.0104904,0.00991821,0.0112152,0.00804901,0.0173187,0.0094986,0.0243378,0.0196457,-9.97986,0.0194168,0.00156403,0.017395,0.00682831,0.0232315,0.00232697,0.0191498,0.00980377
29,2,-9.99003,-0.000915527,-0.00411987,-2.4244,0.0575121,-0.0744527,0.054128,0.00749377,-0.0946723,0.145318,-0.128513,-0.0807394,0.00709534,0.00850677,0.00919342,0.0106049,0.0165176,0.00938416,0.0190735,0.0150681,-9.97986,0.0148773,-0.00301361,0.0104523,0.0025177,0.00648499,-0.00255585,0.0133896,-0.00205994
29,3,-9.99003,0.000305176,-0.00152588,-2.42531,0.0559862,-0.0738423,0.0568746,0.04442,-0.0897895,0.147455,-0.126987,-0.0807394,0.00907898,0.0113297,0.00331879,0.0101471,0.0185394,0.00865936,0.0239944,0.0182724,-9.97986,0.0211334,0.000991821,0.0154114,0.00267029,-0.00682831,0.00141144,0.016861,0.00843048
29,4,-9.99003,0.000610352,-0.000305176,-2.42501,0.0547655,-0.0744527,0.0556539,0.0584581,-0.0897895,0.145318,-0.125766,-0.0819601,0.0101089,0.0133133,0.0087738,0.00923157,0.0175858,0.0063324,0.0196457,0.0153351,-9.97986,0.013237,-0.0056076,0.0123978,0.00366211,-0.00957489,-0.000305176,0.0128937,0.00431061
29,5,-9.99003,0.00183105,0.000305176,-2.42745,0.0544603,-0.075063,0.0550435,0.0642565,-0.0928413,0.145013,-0.126072,-0.0828756,0.00930786,0.015564,0.0154495,0.00926971,0.0140381,0.0103378,0.0179672,0.0209427,-9.97986,0.0191498,0.000114441,0.0139236,0.00656128,-0.00801086,0.00507355,0.0165558,0.0037384
29,6,-9.99003,0.000305176,0.0012207,-2.4247,0.055681,-0.0744527,0.0568746,0.118273,-0.0852119,0.144403,-0.121189,-0.0819601,0.013237,0.0147629,0.0169754,0.0121307,0.0187683,0.00900269,0.0220871,0.0192642,-9.97986,0.0211334,-0.00461578,0.0178528,0.0056839,0.0157166,0.00587463,0.0138092,0.0082016
29,7,-2.99235,-0.000610352,0.00335693,-2.42714,0.0532396,-0.0747579,0.054128,0.138414,-0.0882636,0.143487,-0.122715,-0.0844015,0.00839233,0.0138092,0.0139618,0.0109863,0.0172806,0.0101852,0.020256,0.0250626,-9.97986,0.0169754,-0.00545502,0.0137329,0.00419617,0.0151062,0.0056076,0.0170135,0.00785828
29,8,4.60439,0.000610352,0.00427246,-2.42867,0.0547655,-0.0762837,0.0544332,0.152452,-0.0882636,0.144403,-0.121494,-0.0847066,0.0115967,0.0164032,0.0119781,0.0131607,0.0136185,0.00946045,0.0202179,0.0229645,-9.97986,0.0156784,-0.00686646,0.0153732,0.00614166,0.0176239,0.00114441,0.0208664,0.00747681
29,9,10.0097,0,0.00473022,-2.42898,0.0535448,-0.0765889,0.0522969,0.148485,-0.090705,0.144403,-0.121494,-0.0859274,0.0131607,0.0185013,0.0136948,0.00919342,0.0193787,0.0111008,0.0223541,0.0233459,-9.97986,0.0148773,-0.00232697,0.0136185,0.00473022,0.0134277,-0.00160217,0.0159836,0.00644684
30,0,10.0097,-0.000610352,0.000762939,-2.4305,0.0544603,-0.0762837,0.0498555,0.0987413,-0.0971137,0.143182,-0.126072,-0.0895895,0.00862122,0.0208664,0.013504,0.0102997,0.0206375,0.0110626,0.0255585,0.0220871,-9.97986,0.0137711,-0.000457764,0.0150681,0.00324249,0.0151825,-0.00267029,0.0172043,0.00774384
30,1,10.0097,0.000610352,0,-2.42898,0.0535448,-0.0756734,0.0513814,0.082567,-0.0965034,0.142572,-0.126072,-0.0880636,0.0124359,0.0237656,0.0188065,0.00976563,0.0175476,0.0111771,0.021286,0.0234604,-9.97986,0.0151825,-0.00289917,0.0162888,0.00492096,0.0170517,-0.00652313,0.0139999,0.00354767
30,2,10.0097,0.000305176,0.000152588,-2.42806,0.0538499,-0.0759786,0.0513814,0.0758531,-0.0952827,0.144403,-0.126987,-0.0868429,0.012207,0.021553,0.0185776,0.0139999,0.0186539,0.0118256,0.0189209,0.0197983,-9.97986,0.0143433,0.0104141,0.0143051,0.00362396,0.0149536,-0.0044632,0.0167084,0.0056076
30,3,10.0097,-0.000915527,0,-2.42745,0.0544603,-0.0762837,0.0538228,0.072191,-0.0949775,0.144708,-0.125461,-0.0850118,0.0144958,0.0105667,0.0180817,0.0125504,0.0167847,0.01091,0.0233078,0.0223541,-9.97986,0.0167084,0.00991821,0.0160217,0.00675201,0.0168228,-0.000801086,0.0205231,0.00614166
30,4,10.0097,0.000610352,0.000305176,-2.42776,0.0553758,-0.0756734,0.0532125,0.0706652,-0.0937568,0.145929,-0.126377,-0.0850118,0.0128555,0.00827789,0.0136948,0.00892639,0.0166321,0.00961304,0.0204086,0.0157547,-9.97986,0.0154114,0.00385284,0.0151825,0.0056839,0.0208282,-0.00255585,0.0146484,0.00774384
30,5,10.0097,0.00152588,0.000152588,-2.42776,0.0559862,-0.075063,0.0522969,0.0712755,-0.0949775,0.146234,-0.125766,-0.0840963,0.0118256,0.0156021,0.0177383,0.00839233,0.017662,0.00991821,0.019989,0.0165176,-9.97986,0.0146866,0.00675201,0.0123596,0.00461578,0.0133514,0.000457764,0.0142288,0.00419617
30,6,10.0097,0.000305176,0.000305176,-2.42623,0.0562914,-0.0738423,0.0538228,0.0715807,-0.0919257,0.146234,-0.125766,-0.0822652,0.0111389,0.0171661,0.0149918,0.0107193,0.0208664,0.0117874,0.0202942,0.018692,-9.97986,0.0151825,0.00473022,0.0162506,0.00530243,0.0140381,-0.00915527,0.0205994,0.00835419
30,7,10.0097,-0.000915527,0,-2.4247,0.055681,-0.073232,0.054128,0.0709703,-0.0922309,0.146844,-0.124546,-0.0819601,0.00907898,0.0203705,0.0191498,0.0130844,0.0169373,0.0125504,0.0227737,0.0170135,-9.97986,0.016098,-0.00148773,0.013504,0.00484467,0.0156403,-0.0135422,0.019722,0.00427246
30,8,10.0097,0.000610352,0.000305176,-2.42684,0.0559862,-0.0747579,0.0556539,0.0639513,-0.0931465,0.145929,-0.125156,-0.0807394,0.00988007,0.021553,0.019722,0.0127411,0.017128,0.0130081,0.0233078,0.0148773,-9.97986,0.0119781,-0.00587463,0.0148392,0.00747681,0.0178528,-0.016098,0.0153351,0.0082016
30,9,8.60768,0.000915527,-0.00244141,-2.42745,0.055681,-0.0738423,0.0529073,0.0254991,-0.0974189,0.147149,-0.126987,-0.0822652,0.00991821,0.0194931,0.0176239,0.0121689,0.0201035,0.0121689,0.0236511,0.0128937,-9.97986,0.0135803,-0.0209808,0.0115967,0.0031662,0.0183868,-0.0104523,0.0178909,0.0082016
31,0,0.0261405,0.000915527,-0.0050354,-2.42562,0.0559862,-0.0738423,0.0529073,-0.00684949,-0.0989448,0.146539,-0.128818,-0.0825704,0.0094223,0.0275803,0.0165939,0.00957489,0.0188446,0.00972748,0.0235367,0.0140762,-9.97986,0.0110626,-0.0199509,0.0146484,0.00495911,0.0165939,-0.00621796,0.0178528,0.00549316
31,1,-6.8928,0.00183105,-0.00442505,-2.42562,0.0578172,-0.073232,0.0535176,-0.0160048,-0.0968086,0.145318,-0.129734,-0.0819601,0.0111008,0.0284576,0.0216675,0.0141144,0.019455,0.0128937,0.0226212,0.0166702,-9.97986,0.0153351,-0.0111771,0.0137329,0.00545502,0.0162125,-0.00038147,0.0157166,0.00743866
31,2,-9.99003,0.00152588,-0.00366211,-2.42531,0.0562914,-0.0741475,0.0547383,0.00688342,-0.0931465,0.145624,-0.127598,-0.0810445,0.0123978,0.0246429,0.022049,0.0121307,0.012207,0.0142288,0.0191116,0.0182724,-9.97986,0.0144577,-0.00610352,0.0125504,0.00720978,0.0106049,0.00549316,0.019455,0.00953674
31,3,-9.99003,0.000305176,-0.00137329,-2.4247,0.0575121,-0.0744527,0.055959,0.04442,-0.090705,0.147455,-0.126987,-0.080129,0.00576019,0.0288391,0.0192261,0.0112915,0.0236511,0.00988007,0.0215149,0.014801,-9.97986,0.00930786,-0.0037384,0.0149918,0.00476837,-0.00484467,0.0114822,0.0197601,0.00602722
31,4,-9.99003,-0.000610352,0,-2.42562,0.0559862,-0.0747579,0.0556539,0.0587633,-0.0913154,0.146234,-0.126987,-0.0825704,0.00953674,0.0214005,0.0195694,0.0116348,0.0147629,0.0166702,0.0255966,0.0156403,-9.97986,0.0141907,0.00312805,0.0152969,0.00408173,-0.00144958,0.0108337,0.0154114,0.00675201
31,5,-9.99003,0,0,-2.42653,0.0553758,-0.0753682,0.054128,0.0642565,-0.0919257,0.144403,-0.125461,-0.0831808,0.0119019,0.0262451,0.0215912,0.0158691,0.018158,0.0138474,0.0185394,0.016098,-9.97986,0.0186157,0.0038147,0.0169373,0.00499725,-0.00621796,0.00495911,0.0125885,0.00476837
31,6,-9.99003,0.0012207,0.00137329,-2.42501,0.0550706,-0.0735371,0.0571797,0.117662,-0.0849067,0.147455,-0.12302,-0.0816549,0.01091,0.0268173,0.0221252,0.01194,0.0177002,0.0111008,0.02491,0.0171661,-9.97986,0.0133133,0.00312805,0.0175476,0.00507355,0.0174332,-0.00377655,0.017128,0.00545502
31,7,-3.11015,0.000610352,0.00320435,-2.42714,0.0538499,-0.075063,0.054128,0.136888,-0.0897895,0.143487,-0.122715,-0.0844015,0.0124741,0.0149918,0.0229645,0.0104141,0.0180817,0.0146103,0.0160217,0.0153351,-9.97986,0.0125122,0.0069809,0.013504,0.00312805,0.0175095,-0.00549316,0.0173569,0.00556946
31,8,4.49056,0.000610352,0.00442505,-2.42928,0.0535448,-0.0744527,0.0535176,0.152452,-0.0894843,0.142877,-0.121494,-0.085317,0.0133514,0.0153351,0.018959,0.01194,0.0156784,0.0121307,0.0244904,0.0200272,-9.97986,0.0114822,0.0075531,0.0161743,0.00709534,0.0180817,-0.00480652,0.0164032,0.00617981
31,9,10.0097,0.00274658,0.00427246,-2.42867,0.0535448,-0.0759786,0.0526021,0.146959,-0.0922309,0.143182,-0.122104,-0.0859274,0.00846863,0.0109482,0.0177765,0.012207,0.0194931,0.014534,0.0227356,0.0135422,-9.97986,0.0148392,0.00576019,0.0177765,0.00835419,0.015564,-0.00629425,0.0209427,0.00762939
32,0,10.0097,-0.000610352,0.00183105,-2.42989,0.0529344,-0.0759786,0.0495503,0.0987413,-0.0968086,0.141961,-0.126072,-0.0889791,0.0104523,0.0150681,0.0165176,0.0132751,0.0120926,0.0156021,0.0216293,0.0165939,-9.97986,0.0141525,0.000839233,0.0162888,0.00514984,0.0153351,-0.00331879,0.0212097,0.00637054
32,1,10.0097,0.0012207,0.000152588,-2.43081,0.0532396,-0.0759786,0.050771,0.080736,-0.0974189,0.143792,-0.125461,-0.0874532,0.0126648,0.0217819,0.0188446,0.0138092,0.0152588,0.00789642,0.0200653,0.0183487,-9.97986,0.0178146,0.00736237,0.0136185,0.0043869,0.0157928,0.000343323,0.0174332,0.00476837
32,2,10.0097,0.000305176,0.000762939,-2.42806,0.0532396,-0.0753682,0.0516866,0.0743273,-0.094062,0.142572,-0.126377,-0.0868429,0.010643,0.0226593,0.0199509,0.0109863,0.0166321,0.00888824,0.0203323,0.0208282,-9.97986,0.0125122,-0.000534058,0.0125122,0.00488281,0.0152206,0.00236511,0.0201797,0.00858307
32,3,10.0097,0.00183105,-0.000152588,-2.42745,0.055681,-0.0762837,0.0526021,0.0734117,-0.0949775,0.145318,-0.126072,-0.085317,0.0127792,0.0279999,0.0202179,0.0138474,0.0203705,0.0115585,0.0212479,0.0157547,-9.97986,0.0137329,-0.00705719,0.0152588,0.00774384,0.0178528,0.00675201,0.0170898,0.00522614
32,4,10.0097,0.00274658,0,-2.42684,0.0553758,-0.0759786,0.0535176,0.0709703,-0.0946723,0.144708,-0.124851,-0.0844015,0.00911713,0.0285721,0.0185013,0.0130081,0.0191116,0.00827789,0.0206757,0.0187683,-9.97986,0.0147629,-0.0109482,0.0221634,0.00640869,0.0166702,0.00816345,0.0177765,0.00759125
32,5,10.0097,0.000915527,0.000152588,-2.42684,0.0547655,-0.075063,0.0526021,0.0718859,-0.0934516,0.144098,-0.125461,-0.0850118,0.00793457,0.0279999,0.0214386,0.0120926,0.0218582,0.00953674,0.0219727,0.0200272,-9.97986,0.013504,-0.00610352,0.0172043,0.00610352,0.0184631,0.0107193,0.0193405,0.00354767
32,6,10.0097,0.00152588,0,-2.42623,0.0559862,-0.0738423,0.0550435,0.0709703,-0.0919257,0.146844,-0.125766,-0.0822652,0.0120544,0.0237274,0.0205994,0.0162888,0.0175095,0.0108337,0.022049,0.0137711,-9.97986,0.0186539,-0.00179291,0.0137329,0.00499725,0.0159073,0.0062561,0.021553,0.00679016
32,7,10.0097,0.00152588,0,-2.42562,0.0562914,-0.0735371,0.0547383,0.0712755,-0.0910102,0.146234,-0.125766,-0.0822652,0.012207,0.0169373,0.0192261,0.0130463,0.0177765,0.0115204,0.020256,0.0177002,-9.97986,0.0134659,-0.00434875,0.0143433,0.00659943,0.0180054,-0.00274658,0.0160217,0.00640869
32,8,10.0097,0.0012207,-0.000152588,-2.42623,0.0569017,-0.075063,0.0535176,0.0648668,-0.0943672,0.146234,-0.124241,-0.0819601,0.00709534,0.0121689,0.019989,0.0144196,0.0141144,0.00728607,0.0161362,0.0165939,-9.97986,0.0173569,-0.00682831,0.0150299,0.00312805,0.0188065,-0.0038147,0.0175858,0.00347137
32,9,8.67574,0.000915527,-0.00289917,-2.42562,0.0565965,-0.0741475,0.0535176,0.0282457,-0.0971137,0.146234,-0.127292,-0.0822652,0.014534,0.0223541,0.0233078,0.0134277,0.0183868,0.0125122,0.0223923,0.0175858,-9.97986,0.0137329,-0.000648499,0.0164032,0.00312805,0.0184631,-0.00408173,0.0204849,0.00808716
33,0,0.0545218,-0.00183105,-0.0050354,-2.4247,0.0569017,-0.0738423,0.0532125,-0.00684949,-0.0949775,0.145318,-0.128818,-0.0819601,0.0122833,0.0141144,0.018959,0.00930786,0.0159073,0.00926971,0.020256,0.0173569,-9.97986,0.0138855,0.00354767,0.0162125,0.00537872,0.0163651,-0.0030899,0.0191498,0.00740051
33,1,-6.85649,0.000915527,-0.00473022,-2.42592,0.0572069,-0.0738423,0.0538228,-0.0166151,-0.0961982,0.146844,-0.130344,-0.0813497,0.0114441,0.0247955,0.0250626,0.0143814,0.0140381,0.0125122,0.0222778,0.0200653,-9.97986,0.0115967,0.00289917,0.0130463,0.000801086,0.0179291,-0.00637054,0.0167847,0.00652313
33,2,-9.99003,0,-0.00366211,-2.4247,0.0562914,-0.0744527,0.0562642,0.00810412,-0.0937568,0.146234,-0.129123,-0.0807394,0.00530243,0.022049,0.0278854,0.0114822,0.0174332,0.00663757,0.0239944,0.0162888,-9.97986,0.0182724,0.000801086,0.0109482,0.0031662,0.0102234,-0.00610352,0.0183487,0.00930786
33,3,-9.99003,-0.000305176,-0.00167847,-2.4247,0.0550706,-0.0744527,0.0568746,0.0456407,-0.0897895,0.146539,-0.125766,-0.0819601,0.0094223,0.0193787,0.0287628,0.00999451,0.0181198,0.0101089,0.0206757,0.0148392,-9.97986,0.0115967,0.000572205,0.0126266,0.00278473,-0.00865936,-0.00854492,0.0165939,0.00537872
33,4,-9.99003,0.000610352,-0.000305176,-2.42653,0.0547655,-0.0744527,0.0550435,0.0596788,-0.090705,0.146234,-0.125156,-0.0813497,0.00888824,0.0244904,0.0256348,0.0110626,0.017128,0.0118637,0.0197601,0.0174713,-9.97986,0.00965118,-0.00152588,0.0135422,0.00205994,-0.00522614,-0.0111771,0.0202942,0.00686646
33,5,-9.99003,0,0.000152588,-2.42623,0.0547655,-0.0735371,0.0544332,0.0642565,-0.0922309,0.143487,-0.126377,-0.0828756,0.0125885,0.0236893,0.0215912,0.0121689,0.0164413,0.013504,0.0200272,0.021019,-9.97986,0.0141907,-0.0012207,0.0144196,0.00320435,-0.00801086,-0.0212097,0.0163651,0.00682831
33,6,-9.99003,0.00183105,0.00198364,-2.42562,0.0559862,-0.0753682,0.0553487,0.119188,-0.0855171,0.147455,-0.122104,-0.0819601,0.0132751,0.0214386,0.0187683,0.0102234,0.0172806,0.00953674,0.0185013,0.0202942,-9.97986,0.0138092,0.00389099,0.0144958,0.0043869,0.0202942,-0.0232315,0.0164413,0.00579834
33,7,-3.05308,0.0012207,0.00350952,-2.42806,0.0544603,-0.0753682,0.0544332,0.137804,-0.0885688,0.144403,-0.12241,-0.0850118,0.00717163,0.0264359,0.019455,0.00896454,0.018959,0.00934601,0.0218582,0.0131226,-9.97986,0.0123978,-0.00312805,0.0123596,0.00263214,0.0153732,-0.0255966,0.0148392,0.00427246
33,8,4.49819,0.00244141,0.00473022,-2.42623,0.0547655,-0.0756734,0.0544332,0.153063,-0.088874,0.143487,-0.121189,-0.085317,0.0062561,0.0368118,0.0179291,0.00934601,0.016861,0.0128555,0.0233841,0.0212479,-9.97986,0.0149536,-0.00518799,0.0143814,0.0044632,0.0164795,-0.0157928,0.0150299,0.0069046
33,9,10.0097,0.000915527,0.00442505,-2.42806,0.0535448,-0.0768941,0.0529073,0.147569,-0.0910102,0.145624,-0.121494,-0.0868429,0.0101089,0.0457001,0.0209427,0.0117111,0.018158,0.0133896,0.0210953,0.0145721,-9.97986,0.0151443,-0.00442505,0.0149918,0.00915527,0.0173187,0.00118256,0.0185013,0.00343323
34,0,10.0097,0.000610352,0.000915527,-2.42959,0.0538499,-0.0775044,0.0498555,0.0987413,-0.0965034,0.143487,-0.127598,-0.0892843,0.01091,0.0405121,0.0182343,0.0136948,0.0163651,0.0109863,0.0236511,0.0157547,-9.97986,0.0148392,-0.00350952,0.0123596,0.00389099,0.0175476,0.00797272,0.017395,0.00602722
34,1,10.0097,0.00152588,-0.000152588,-2.43203,0.0535448,-0.0759786,0.050771,0.0813463,-0.0974189,0.143182,-0.126072,-0.0886739,0.0159073,0.0199127,0.0248718,0.0111008,0.0201797,0.0151443,0.0220871,0.0151825,-9.97986,0.014534,-0.00255585,0.0146484,0.00522614,0.0198364,0.0188065,0.0159454,0.00682831
34,2,10.0097,-0.000915527,0.000457764,-2.42837,0.0544603,-0.0759786,0.0526021,0.0752428,-0.0952827,0.144098,-0.126987,-0.0859274,0.0112152,0.0136566,0.019722,0.00850677,0.012207,0.00926971,0.0178909,0.00968933,-9.97986,0.0122833,-0.00507355,0.0128174,0.00389099,0.0134659,0.0187683,0.0161362,0.00259399
34,3,10.0097,0.0012207,0,-2.42714,0.0541551,-0.0747579,0.0529073,0.0728014,-0.0937568,0.145013,-0.125461,-0.085317,0.00953674,0.0214386,0.021553,0.0114441,0.0194168,0.0133133,0.0212479,0.0177765,-9.97986,0.0155258,0.000305176,0.0136948,0.00419617,0.0164413,0.0144196,0.017662,0.00473022
34,4,10.0097,0,0.000152588,-2.42776,0.0553758,-0.0756734,0.0522969,0.0718859,-0.0928413,0.145624,-0.125766,-0.0837911,0.0110626,0.0267029,0.027504,0.0142288,0.021286,0.0142288,0.0263214,0.0220108,-9.97986,0.0136185,0.00392914,0.0172424,0.00667572,0.0217819,0.00862122,0.0207901,0.00850677
34,5,10.0097,0.00152588,0,-2.42653,0.0532396,-0.0744527,0.0538228,0.0715807,-0.0931465,0.145013,-0.125156,-0.0834859,0.00682831,0.0233459,0.0174332,0.00602722,0.0130463,0.00484467,0.0166321,0.0185394,-9.97986,0.0122452,-0.00133514,0.0151443,0.00782013,0.0167465,-0.00160217,0.0172806,0.00679016
34,6,10.0097,0.00183105,-0.000152588,-2.42562,0.0562914,-0.0744527,0.0538228,0.0715807,-0.0925361,0.144403,-0.12363,-0.0825704,0.0139999,0.0300217,0.014801,0.0121689,0.0174713,0.0107574,0.0231552,0.0236511,-9.97986,0.0175858,0.00450134,0.015564,0.00461578,0.016861,0.000839233,0.0154877,0.00671387
34,7,10.0097,-0.00183105,0.000152588,-2.42592,0.055681,-0.0744527,0.0544332,0.0718859,-0.090705,0.147455,-0.125156,-0.0810445,0.0102234,0.0155258,0.0135422,0.00995636,0.0118256,0.00656128,0.0199127,0.0141907,-9.97986,0.0167847,-0.00110626,0.014267,0.00476837,0.0169754,-0.00102997,0.0165176,0.00644684
34,8,10.0097,-0.000915527,0,-2.4247,0.0559862,-0.0738423,0.0544332,0.0663927,-0.0931465,0.145929,-0.124546,-0.0822652,0.0121689,0.0180817,0.0117111,0.01194,0.0144958,0.0166321,0.0236511,0.0190735,-9.97986,0.018425,-0.000572205,0.0154495,0.00434875,0.0238419,-0.000686646,0.0208664,0.00366211
34,9,8.72365,0,-0.00305176,-2.42592,0.0562914,-0.073232,0.0538228,0.0273302,-0.0971137,0.146844,-0.126987,-0.0834859,0.00759125,0.020256,0.0112915,0.0120544,0.0151062,0.0111008,0.0221634,0.0154877,-9.97986,0.0196457,-0.00328064,0.0144577,0.00720978,0.017128,-0.00865936,0.0173187,0.00797272
35,0,0.140887,0.000915527,-0.00457764,-2.42623,0.0572069,-0.0735371,0.0544332,-0.00654431,-0.0955879,0.14776,-0.128818,-0.0816549,0.0108719,0.0267029,0.0152969,0.00843048,0.0195694,0.0118256,0.0210953,0.0146484,-9.97986,0.0139999,-0.0037384,0.014534,0.00434875,0.0182724,-0.00358582,0.0169754,0.00808716
35,1,-6.74266,0.000915527,-0.00473022,-2.42592,0.0572069,-0.073232,0.0544332,-0.0144789,-0.0965034,0.146234,-0.130649,-0.0813497,0.013504,0.0242996,0.0149918,0.0151443,0.0136948,0.0125122,0.0249481,0.0172043,-9.97986,0.0169754,-0.00686646,0.0146866,0.00865936,0.0171661,-0.00480652,0.0175858,0.00938416
35,2,-9.99003,0,-0.00350952,-2.4247,0.0559862,-0.073232,0.0562642,0.00688342,-0.0931465,0.147149,-0.129123,-0.0813497,0.0126648,0.0260925,0.00984192,0.0140381,0.0165558,0.0108337,0.021553,0.0172043,-9.97986,0.0161362,-0.00896454,0.0162506,0.00598907,0.0138855,-0.00450134,0.0178146,0.00637054
35,3,-9.99003,-0.00152588,-0.000610352,-2.42531,0.0562914,-0.0741475,0.0544332,0.0419786,-0.088874,0.146234,-0.126377,-0.0810445,0.0127792,0.0256348,0.0104904,0.0128174,0.0156021,0.0113678,0.0255966,0.0167465,-9.97986,0.0141525,-0.00850677,0.014534,0.00404358,-0.00480652,-0.00495911,0.0164413,0.00637054
35,4,-9.99003,0.000305176,-0.000305176,-2.42501,0.0550706,-0.0747579,0.0538228,0.0593737,-0.0903999,0.145929,-0.126377,-0.0822652,0.0107956,0.0222015,0.0138855,0.011673,0.0174713,0.0120544,0.0244904,0.0178909,-9.97986,0.0138855,-0.00469208,0.0140381,0.00801086,-0.00896454,-0.00514984,0.0150299,0.00751495
35,5,-9.99003,0.000305176,0.000305176,-2.42501,0.0559862,-0.0744527,0.0544332,0.0642565,-0.0903999,0.145318,-0.126072,-0.0822652,0.0102234,0.0265884,0.0130081,0.0170135,0.0198364,0.0094986,0.0238419,0.0161362,-9.97986,0.011673,-0.000228882,0.0139999,0.00705719,-0.00469208,-0.00198364,0.0205994,0.00740051
35,6,-9.99003,-0.000305176,0.00183105,-2.42592,0.0553758,-0.0744527,0.0556539,0.117662,-0.0858222,0.145929,-0.122715,-0.0816549,0.0140381,0.0253677,0.0154114,0.0103378,0.0152206,0.0137711,0.0228119,0.0177765,-9.97986,0.0180435,-0.00274658,0.0113678,0.00476837,0.0177383,-0.0056076,0.0141907,0.00335693
35,7,-2.96306,-0.000305176,0.00320435,-2.42837,0.0538499,-0.0756734,0.0538228,0.136278,-0.0891792,0.143792,-0.122715,-0.0850118,0.0062561,0.02285,0.0162506,0.00934601,0.0178909,0.0118637,0.0213623,0.0187302,-9.97986,0.0138092,-0.00038147,0.0131989,0.00480652,0.0176239,-0.00404358,0.0172806,0.00705719
35,8,4.55373,0,0.00488281,-2.42745,0.0550706,-0.0756734,0.0529073,0.151842,-0.0885688,0.142572,-0.121189,-0.085317,0.00907898,0.0262451,0.018692,0.0106812,0.019989,0.0117493,0.0194931,0.0170898,-9.97986,0.0181961,-0.00370026,0.0142288,0.00827789,0.0138474,-0.00522614,0.017395,0.00717163
35,9,10.0097,0,0.00457764,-2.42898,0.0535448,-0.0768941,0.0529073,0.14879,-0.0916206,0.143182,-0.122715,-0.0868429,0.0105667,0.0224686,0.018158,0.00732422,0.0162125,0.0115967,0.0220871,0.0194931,-9.97986,0.0144196,-0.00255585,0.01297,0.00537872,0.0187683,-0.00686646,0.0154495,0.00663757
36,0,10.0097,-0.000610352,0.000762939,-2.42989,0.0541551,-0.0756734,0.0492452,0.098131,-0.0968086,0.143487,-0.125766,-0.0892843,0.0124741,0.0213623,0.0139618,0.00923157,0.0193787,0.0113678,0.0234222,0.0197601,-9.97986,0.0108719,-0.00148773,0.0150299,0.0069046,0.0177383,-0.00419617,0.0191879,0.00740051
36,1,10.0097,0.000610352,0.000152588,-2.4302,0.0535448,-0.075063,0.0513814,0.0804308,-0.095893,0.143182,-0.126072,-0.0880636,0.0100327,0.0264359,0.0159836,0.0088501,0.0193787,0.0138474,0.0190735,0.0161743,-9.97986,0.0167084,-0.00427246,0.0164032,0.00530243,0.0190735,-0.00404358,0.0164413,0.0069809
36,2,10.0097,0.00152588,0.000152588,-2.42959,0.0544603,-0.0759786,0.0526021,0.0746324,-0.0946723,0.144403,-0.126377,-0.0865377,0.00923157,0.0235748,0.0169754,0.0133896,0.0148773,0.00747681,0.023613,0.0163269,-9.97986,0.0144577,-0.00244141,0.0142288,0.00801086,0.0208664,-0.00305176,0.0200653,0.00724792
36,3,10.0097,0,0,-2.42684,0.0553758,-0.0747579,0.0522969,0.0718859,-0.0952827,0.145318,-0.126072,-0.0847066,0.0103378,0.0228882,0.0195694,0.0103378,0.0179672,0.00701904,0.0210571,0.0151062,-9.97986,0.0194168,-0.00114441,0.0150681,0.00648499,0.0157928,-0.00133514,0.0182343,0.00534058
36,4,10.0097,0.000915527,0,-2.42684,0.0550706,-0.075063,0.0544332,0.0709703,-0.0931465,0.145013,-0.126377,-0.0850118,0.0131607,0.021553,0.017395,0.00888824,0.0179672,0.0110626,0.0257492,0.0179672,-9.97986,0.0149155,-0.00335693,0.0184631,0.0044632,0.018158,-0.00141144,0.0179672,0.00785828
36,5,10.0097,0.00244141,0,-2.42684,0.0553758,-0.0756734,0.0522969,0.0712755,-0.0934516,0.145013,-0.126072,-0.0834859,0.00751495,0.0233841,0.0195694,0.0119781,0.0194931,0.0120926,0.0256729,0.0218582,-9.97986,0.0136185,-0.00240326,0.0101471,0.00782013,0.0185776,-0.0063324,0.0169754,0.0063324
36,6,10.0097,0.000305176,0.000610352,-2.42501,0.0559862,-0.0738423,0.0550435,0.0715807,-0.0910102,0.145624,-0.125766,-0.0825704,0.0101089,0.02388,0.0179291,0.0126648,0.0126648,0.0139236,0.0236893,0.0182343,-9.97986,0.0121307,-0.00385284,0.0123215,0.00354767,0.0235748,-0.00747681,0.0154114,0.0107956
36,7,10.0097,0.000915527,-0.000610352,-2.42531,0.0562914,-0.0741475,0.0553487,0.0718859,-0.0922309,0.146234,-0.124241,-0.0810445,0.0115585,0.0217438,0.0183487,0.00965118,0.016098,0.0169754,0.0223923,0.0133133,-9.97986,0.0102234,0.00152588,0.0165558,0.00656128,0.0205612,-0.00793457,0.0169754,0.00934601
36,8,10.0097,0.000305176,0.000152588,-2.42592,0.0559862,-0.0735371,0.0535176,0.065172,-0.0931465,0.146234,-0.125461,-0.0816549,0.0127029,0.0245667,0.0181961,0.0126266,0.0137329,0.00801086,0.0213623,0.014534,-9.97986,0.0109863,-0.00484467,0.0133133,0.00499725,0.0175095,-0.00598907,0.0181198,0.00457764
36,9,8.67085,0.000305176,-0.00289917,-2.42562,0.0569017,-0.0738423,0.0526021,0.0258043,-0.095893,0.145929,-0.128208,-0.0822652,0.0149155,0.0228882,0.0196075,0.00919342,0.0185776,0.00976563,0.0244904,0.0192642,-9.97986,0.0104904,-0.00114441,0.013237,0.00858307,0.0164795,-0.0069809,0.018959,0.00911713
37,0,-0.023298,-0.000915527,-0.00488281,-2.42501,0.0569017,-0.0744527,0.0538228,-0.00868054,-0.0971137,0.146234,-0.129429,-0.0816549,0.0114822,0.0242615,0.015564,0.0113678,0.015831,0.01091,0.0222397,0.0191498,-9.97986,0.010376,-0.00217438,0.0161743,0.00709534,0.0214386,-0.00499725,0.015564,0.00419617
37,1,-6.87602,0.000305176,-0.00518799,-2.4244,0.0562914,-0.0735371,0.0544332,-0.0160048,-0.0977241,0.146234,-0.129734,-0.0816549,0.00923157,0.0253296,0.0122452,0.0131226,0.0193024,0.00679016,0.0252914,0.0193024,-9.97986,0.0117111,0.000152588,0.0148773,0.00537872,0.0183487,-0.00465393,0.0149155,0.00747681
37,2,-9.99003,-0.000305176,-0.00320435,-2.4247,0.0559862,-0.0723164,0.0547383,0.00627307,-0.0922309,0.146539,-0.128513,-0.0810445,0.0126266,0.023613,0.0207901,0.00850677,0.0191498,0.0114822,0.0221252,0.0159454,-9.97986,0.0151062,-0.000686646,0.0148392,0.00598907,0.0118637,-0.000991821,0.0182343,0.00778198
37,3,-9.99003,-0.000305176,-0.00106812,-2.42501,0.0559862,-0.0747579,0.0565694,0.0435045,-0.0900947,0.145318,-0.126682,-0.0807394,0.0127029,0.0251007,0.0198746,0.00991821,0.0189209,0.00999451,0.0194931,0.0191498,-9.97986,0.0128555,0.0018692,0.0154114,0.00881195,-0.00617981,-0.00541687,0.0186539,0.00537872
37,4,-9.99003,0,-0.000305176,-2.42562,0.0559862,-0.0729268,0.055959,0.0575426,-0.090705,0.145318,-0.124851,-0.0825704,0.00930786,0.0228882,0.0164413,0.0114441,0.0187683,0.00907898,0.0239563,0.0185394,-9.97986,0.0107574,-0.00324249,0.0130081,0.0069046,-0.00549316,-0.00461578,0.0139999,0.00717163
37,5,-9.99003,-0.0012207,0.000610352,-2.42592,0.0559862,-0.0759786,0.0550435,0.0645616,-0.0919257,0.145929,-0.126072,-0.0831808,0.0123215,0.0260925,0.0183105,0.0157928,0.0175476,0.00816345,0.020256,0.0198746,-9.97986,0.0183105,-0.000991821,0.0136185,0.00648499,-0.00694275,-0.00556946,0.0151443,0.00602722
37,6,-9.99003,0.000915527,0.0012207,-2.42501,0.0559862,-0.0744527,0.0565694,0.116136,-0.0849067,0.146539,-0.122104,-0.0822652,0.0139236,0.0226593,0.0206757,0.015564,0.019722,0.0111008,0.0230408,0.0177383,-9.97986,0.0165558,0.000915527,0.0162506,0.00854492,0.0211716,-0.00270844,0.0164032,0.00682831
37,7,-3.11931,0.000610352,0.00366211,-2.42806,0.0535448,-0.0759786,0.0532125,0.135973,-0.088874,0.144403,-0.12302,-0.0850118,0.0123978,0.0222015,0.0164032,0.0156021,0.0193024,0.00957489,0.0205612,0.0149918,-9.97986,0.0131226,-0.00137329,0.0152969,0.00453949,0.0211334,-0.00507355,0.0149536,0.00469208
37,8,4.40602,0.000915527,0.00396729,-2.42806,0.0547655,-0.0744527,0.054128,0.152147,-0.0882636,0.143182,-0.121799,-0.0856222,0.0101089,0.0194931,0.0173187,0.00968933,0.0153732,0.00606537,0.0180054,0.0156784,-9.97986,0.0185394,-0.00350952,0.0141144,0.00492096,0.0179672,-0.00465393,0.014267,0.0069809
37,9,10.0097,-0.0012207,0.00488281,-2.42837,0.0535448,-0.0759786,0.0535176,0.147264,-0.0931465,0.144098,-0.121494,-0.0865377,0.0146484,0.0231934,0.0207901,0.0123215,0.0175858,0.0118256,0.0201035,0.0154495,-9.97986,0.0168991,0.00392914,0.0156403,0.00926971,0.0222015,-0.0018692,0.0151062,0.00598907
38,0,10.0097,0.00152588,0.00213623,-2.4302,0.0541551,-0.0756734,0.0504659,0.0987413,-0.0986396,0.143487,-0.125766,-0.0889791,0.0140762,0.0215149,0.0193024,0.00896454,0.016098,0.00701904,0.0194931,0.0136566,-9.97986,0.0116348,-0.00427246,0.00904083,0.00682831,0.0196457,0.00202179,0.0160599,0.00396729
38,1,10.0097,0.0012207,0.000152588,-2.4305,0.0547655,-0.0756734,0.0516866,0.0816515,-0.0971137,0.142877,-0.127598,-0.0880636,0.0101852,0.0217819,0.0177765,0.0125504,0.0154114,0.00988007,0.0213242,0.0165558,-9.97986,0.0159073,-0.00415802,0.0133514,0.00865936,0.0225067,0.000343323,0.0188065,0.00740051
38,2,10.0097,-0.0012207,-0.000152588,-2.42928,0.0526292,-0.0759786,0.0513814,0.0752428,-0.0946723,0.142877,-0.126377,-0.0871481,0.0110626,0.0234985,0.0187683,0.0128174,0.0203323,0.00793457,0.0216293,0.0157166,-9.97986,0.0148392,-0.00205994,0.0158691,0.00774384,0.0195694,-0.0043869,0.018158,0.00751495
38,3,10.0097,0.0012207,-0.000152588,-2.42776,0.0547655,-0.0756734,0.0529073,0.0734117,-0.0937568,0.144403,-0.126377,-0.0850118,0.0120544,0.0231171,0.0180817,0.0069046,0.0199509,0.0094986,0.0241089,0.0168991,-9.97986,0.0146866,-0.000534058,0.0132751,0.00377655,0.0190353,-0.00087738,0.0154495,0.00263214
38,4,10.0097,0,0.000305176,-2.42745,0.0544603,-0.0747579,0.0535176,0.0709703,-0.0937568,0.143792,-0.126682,-0.0847066,0.00873566,0.0216293,0.0147247,0.0147247,0.0148773,0.0124741,0.0235367,0.0159454,-9.97986,0.0165558,-0.0012207,0.0151443,0.0082016,0.0218201,0.00106812,0.014267,0.00495911
38,5,10.0097,0.000915527,0.000915527,-2.42714,0.055681,-0.0738423,0.0529073,0.0706652,-0.0943672,0.145624,-0.126072,-0.0844015,0.013237,0.0250244,0.0154495,0.00980377,0.0153732,0.00816345,0.0183105,0.0160599,-9.97986,0.0146866,0.00495911,0.0136948,0.00759125,0.0209045,-0.000610352,0.014534,0.00522614
38,6,10.0097,0,-0.000152588,-2.42562,0.0569017,-0.0735371,0.054128,0.0706652,-0.0925361,0.147149,-0.124851,-0.0831808,0.013504,0.0259399,0.0196838,0.0111389,0.0199127,0.0112915,0.0252151,0.0199509,-9.97986,0.0159073,0.00209808,0.0158691,0.0094223,0.0196838,-0.00175476,0.0180817,0.0056839
38,7,10.0097,0,0.000152588,-2.42531,0.0559862,-0.0726216,0.0544332,0.0715807,-0.0916206,0.145929,-0.125156,-0.0813497,0.0101852,0.0263214,0.0177383,0.00926971,0.0183868,0.00831604,0.0202942,0.0171661,-9.97986,0.0175476,0.00606537,0.0147629,0.00743866,0.0196838,-0.00228882,0.014267,0.00400543
38,8,10.0097,-0.000610352,0.000305176,-2.42653,0.0553758,-0.0738423,0.0535176,0.0654772,-0.0922309,0.145929,-0.125156,-0.0813497,0.00823975,0.0209808,0.0175095,0.0132751,0.0217438,0.00644684,0.0212479,0.0187683,-9.97986,0.0151443,0.0038147,0.013237,0.00427246,0.0217056,-0.00232697,0.0166321,0.0050354
38,9,8.73586,-0.000610352,-0.00213623,-2.42714,0.055681,-0.0738423,0.0535176,0.0261095,-0.0955879,0.145013,-0.126072,-0.0825704,0.0100327,0.0226974,0.0164413,0.00991821,0.0164795,0.0100327,0.0214386,0.0130081,-9.97986,0.0177002,0.00389099,0.0158691,0.0063324,0.0199509,-0.00759125,0.01194,0.00629425
39,0,0.108233,0.000610352,-0.00579834,-2.42562,0.0562914,-0.0735371,0.0535176,-0.00623914,-0.0971137,0.146539,-0.129123,-0.0813497,0.00816345,0.0216293,0.016861,0.00682831,0.0173187,0.00915527,0.0214386,0.0191498,-9.97986,0.0159073,-0.000534058,0.0114822,0.00717163,0.0214386,-0.00228882,0.0146484,0.00682831
39,1,-6.72587,0.000610352,-0.00488281,-2.4244,0.0562914,-0.073232,0.0532125,-0.0147841,-0.0968086,0.146234,-0.130039,-0.0807394,0.0125885,0.0249863,0.0215149,0.0120544,0.0156403,0.0102615,0.0248337,0.0185776,-9.97986,0.017662,-0.001297,0.0170898,0.00732422,0.0224686,-0.000572205,0.0152206,0.00259399
39,2,-9.99003,0.000610352,-0.00335693,-2.4244,0.0562914,-0.0738423,0.0550435,0.00566272,-0.0922309,0.146234,-0.130039,-0.0813497,0.00900269,0.0288773,0.0166321,0.0133896,0.0125504,0.00705719,0.0208282,0.0146866,-9.97986,0.0151443,0.00255585,0.0111771,0.00732422,0.00999451,-0.0043869,0.0187683,0.0037384
39,3,-9.99003,-0.000305176,-0.00167847,-2.4247,0.0562914,-0.0744527,0.0565694,0.04442,-0.090705,0.146844,-0.126682,-0.0807394,0.00965118,0.0255203,0.0159073,0.0121307,0.0190353,0.0106049,0.0255966,0.0159836,-9.97986,0.0196838,0.000572205,0.0147629,0.00507355,-0.00434875,-0.00274658,0.0138855,0.00324249
39,4,-9.99003,0.0012207,-0.000610352,-2.42592,0.0565965,-0.0756734,0.0556539,0.0593737,-0.0913154,0.146844,-0.126072,-0.0828756,0.0118637,0.0251007,0.0153732,0.0133133,0.0156784,0.0094986,0.0253677,0.0179672,-9.97986,0.0160599,0.00175476,0.014267,0.00553131,-0.00404358,-0.00522614,0.0127411,0.00682831
39,5,-9.99003,0,-0.000152588,-2.42653,0.0550706,-0.0744527,0.0538228,0.0642565,-0.0934516,0.145013,-0.126072,-0.0828756,0.00980377,0.0262833,0.0147247,0.0136948,0.0193405,0.0107956,0.0260162,0.0201797,-9.97986,0.0109863,0.00385284,0.0151443,0.00583649,-0.00640869,-0.00598907,0.0159454,0.0043869
39,6,-9.99003,0.000610352,0.00152588,-2.42531,0.0550706,-0.0747579,0.0568746,0.116136,-0.0852119,0.146234,-0.121799,-0.0813497,0.0138474,0.0214005,0.0194168,0.0118637,0.0194931,0.0134277,0.0210953,0.0164032,-9.97986,0.0177765,0.000457764,0.0131607,0.00400543,0.0178528,-0.00858307,0.0134277,0.00583649
39,7,-3.10863,-0.000915527,0.00335693,-2.42806,0.0538499,-0.0753682,0.054128,0.135362,-0.088874,0.144708,-0.121799,-0.0847066,0.0108337,0.0242233,0.0203323,0.00976563,0.0156021,0.0124359,0.0171661,0.0144577,-9.97986,0.0152588,-0.00106812,0.0148392,0.00785828,0.0201797,-0.00221252,0.0165939,0.00892639
39,8,4.35567,0,0.00473022,-2.42928,0.0538499,-0.0753682,0.0532125,0.151842,-0.088874,0.143182,-0.12241,-0.0859274,0.0113297,0.0238419,0.0197983,0.00759125,0.0141144,0.00831604,0.0169754,0.0141525,-9.97986,0.0149918,-0.000343323,0.0128937,0.00732422,0.0169373,-0.00511169,0.0135803,0.00411987
39,9,10.0097,0.000305176,0.00534058,-2.42867,0.0523241,-0.0756734,0.0522969,0.146654,-0.0916206,0.143487,-0.12241,-0.0862325,0.00926971,0.0251007,0.0170898,0.0136566,0.0193787,0.00606537,0.0191879,0.015831,-9.97986,0.0107193,-0.00366211,0.0117493,0.00659943,0.0154877,-0.0043869,0.0121689,0.00404358
40,0,10.0097,0.00152588,0.00137329,-2.4305,0.0529344,-0.0768941,0.0513814,0.0996569,-0.0983344,0.143182,-0.126072,-0.0889791,0.0101852,0.0244522,0.0193024,0.00926971,0.0119781,0.0127029,0.0201797,0.014534,-9.97986,0.0110626,-0.00148773,0.0112534,0.0106049,0.0201035,0.00209808,0.016861,0.00774384
40,1,10.0097,0.00152588,0.000305176,-2.42989,0.0532396,-0.0759786,0.050771,0.0804308,-0.0974189,0.143792,-0.126072,-0.0886739,0.00843048,0.0220871,0.0165558,0.0100708,0.0180817,0.0114441,0.0215912,0.0141144,-9.97986,0.0135803,0.000839233,0.0143433,0.00431061,0.0212097,-0.000457764,0.0110626,0.00839233
40,2,10.0097,-0.000305176,0.000762939,-2.42928,0.0541551,-0.0759786,0.0529073,0.075548,-0.0955879,0.143792,-0.126377,-0.0859274,0.00930786,0.0223923,0.0208664,0.0104523,0.0180817,0.013504,0.0222778,0.0179291,-9.97986,0.0125122,0.00156403,0.0164795,0.00926971,0.0199509,-0.00247955,0.0133133,0.00656128
40,3,10.0097,0.000915527,-0.000152588,-2.42745,0.0550706,-0.075063,0.0522969,0.0737169,-0.094062,0.144098,-0.126072,-0.0856222,0.00812531,0.0203323,0.0210571,0.0122452,0.0143051,0.0125122,0.0195694,0.0198746,-9.97986,0.0110626,0.00110626,0.0100708,0.00553131,0.0185776,-0.00556946,0.0155258,0.00671387
40,4,10.0097,0.000915527,0.000762939,-2.42776,0.0550706,-0.0741475,0.054128,0.0706652,-0.0943672,0.144403,-0.125766,-0.0850118,0.00896454,0.0254059,0.022049,0.00644684,0.0161743,0.00923157,0.0185776,0.0132751,-9.97986,0.0149155,-0.000915527,0.0168991,0.00476837,0.0159073,-0.000495911,0.0144196,0.0069809
40,5,10.0097,0.0012207,0.000610352,-2.42684,0.0550706,-0.075063,0.054128,0.0712755,-0.0937568,0.144098,-0.125461,-0.0837911,0.0112915,0.0263214,0.0218582,0.01297,0.0190735,0.00976563,0.0217438,0.018692,-9.97986,0.0161362,0.000228882,0.0124741,0.00724792,0.0163651,0.000114441,0.0138092,0.00495911
40,6,10.0097,0.000305176,-0.000152588,-2.42653,0.0572069,-0.0741475,0.0535176,0.0715807,-0.0916206,0.145318,-0.126072,-0.0822652,0.00915527,0.0218964,0.0172043,0.00675201,0.0144196,0.00427246,0.0180054,0.014534,-9.97986,0.0151825,-0.000572205,0.0142288,0.00400543,0.0172806,-0.00156403,0.0104141,0.00740051
