
Devices
1200
,,BP Load cell - Voltage,String Length - Voltage,Clutch Active - Voltage,#7 iPecs - Voltage,,,,,,,,,EMG 1-8 Left - Voltage,,,,,,,,Pylon Force - Voltage,EMG 9-16 Right - Voltage,,,,,,,,
Frame,Sub Frame,BP Load Cell,String Length,From Arduino Logic,A45,A135,A225,A315,S0,S90,S180,S270,ZSum,EMG 1 Glut Max,EMG 2 Glut Med,EMG 3 Biceps Femoris Long,EMG 4 Rectus Femoris,EMG 5 Vastus Medialis,EMG 6 Tib Ant,EMG 7 Med Gas,EMG 8 Soleus,Pylon volts,EMG 9 Glut Max,EMG 10 Glut Med,EMG 11 Biceps Femoris Long,EMG 12 Rectus Femoris,EMG 13 Vastus Medialis,EMG 14 Tib Ant,EMG 15 Med Gas,EMG 16 Soleus
,,V,V,V,V,V,V,V,V,V,V,V,V,V,V,V,V,V,V,V,V,V,V,V,V,V,V,V,V,V
1,0,10.0097,0,0.0012207,-2.4305,0.0529344,-0.0753682,0.0516866,0.0850084,-0.0961982,0.143487,-0.126377,-0.0889791,0.0378036,0.0400925,0.0255585,0.0133133,0.0481033,-0.00514984,0.0133133,0.0196075,-9.97986,0.0164032,-0.00408173,0.0695419,0.0296021,0.0269699,0.0106812,0.0146866,0.0136948
1,1,10.0097,0.00305176,0.00106812,-2.42928,0.0538499,-0.0771993,0.050771,0.077379,-0.0952827,0.142267,-0.126987,-0.0880636,0.0621796,0.0425339,0.0259018,0.0170135,0.058403,-0.00164032,0.00534058,0.0271225,-9.97986,0.00839233,-0.0019455,0.0753784,0.046463,0.0269318,0.0123978,0.01297,0.0126266
1,2,10.0097,0.00152588,0.0012207,-2.42837,0.055681,-0.0756734,0.0526021,0.0731066,-0.0937568,0.145013,-0.126072,-0.085317,0.0861359,0.0382996,0.0227356,0.0171661,0.0615311,0.00339508,0.0105286,0.0312424,-9.97986,-0.00656128,-0.00228882,0.0790405,0.0522614,0.0294113,0.0104141,0.00892639,0.0125885
1,3,10.0097,-0.000915527,0.000915527,-2.42684,0.0544603,-0.0747579,0.0532125,0.0709703,-0.0937568,0.145318,-0.126987,-0.0850118,0.0831985,0.0353622,0.016861,0.0149918,0.0670242,-0.000572205,0.00736237,0.0223541,-9.97986,-0.0359726,-0.00400543,0.0752258,0.053215,0.0276947,0.00892639,0.00576019,0.0188446
1,4,10.0097,-0.000305176,-0.000915527,-2.42776,0.055681,-0.0744527,0.054128,0.07036,-0.0937568,0.145318,-0.127292,-0.085317,0.0878525,0.0311279,0.0158691,0.0101852,0.0659943,0.0102997,-0.0031662,0.0214386,-9.97986,-0.0660324,-0.00400543,0.0794601,0.0511551,0.0326538,0.00480652,0.0103378,0.0242996
1,5,10.0097,-0.000915527,0.000610352,-2.42592,0.0550706,-0.0744527,0.0495503,0.0694445,-0.0919257,0.144403,-0.125766,-0.0834859,0.0737,0.0256348,0.0110245,0.0186157,0.0642395,0.00965118,-0.0231934,0.0239182,-9.97986,-0.089035,-0.0069809,0.071907,0.0482178,0.0295639,0.000610352,0.00236511,0.0256729
1,6,10.0097,-0.0012207,-0.000457764,-2.42562,0.0559862,-0.0726216,0.054128,0.0715807,-0.0922309,0.145318,-0.122104,-0.0810445,0.0455856,0.0273514,0.0108719,0.0136185,0.066452,0.01194,-0.0392532,0.0134659,-9.97986,-0.0955582,-0.000953674,0.0763321,0.0504303,0.0354385,0.00183105,0.0018692,0.0261688
1,7,10.0097,0.0012207,0.000305176,-2.4247,0.0562914,-0.0744527,0.0547383,0.0712755,-0.0913154,0.147455,-0.124546,-0.0813497,0.0337601,0.0243378,0.014534,0.0156021,0.060997,0.0124741,-0.0428009,0.0162888,-9.97986,-0.0950241,-0.00404358,0.0778961,0.0519943,0.0317383,-0.00244141,0.00587463,0.0304031
1,8,10.0097,0.000305176,-0.00198364,-2.42776,0.0562914,-0.0756734,0.0526021,0.027025,-0.0977241,0.144098,-0.129123,-0.0834859,-0.00457764,0.0212097,0.00823975,0.0143051,0.0636673,0.017395,-0.0406265,0.0156021,-9.97986,-0.0730515,-0.00392914,0.0725174,0.0481033,0.0339127,0.000572205,0.00118256,0.0234222
1,9,4.14693,0.000915527,-0.00427246,-2.42592,0.0578172,-0.0747579,0.0544332,-0.0172255,-0.100471,0.147149,-0.130344,-0.0828756,-0.0262833,0.0239944,0.00873566,0.0128555,0.055809,0.0144958,-0.0366592,0.0273895,-9.97986,-0.0422668,-0.00293732,0.0775909,0.0483322,0.0302505,-0.00408173,0.00457764,0.0203323
2,0,-3.7321,-0.00152588,-0.00518799,-2.42592,0.0559862,-0.0729268,0.0547383,-0.0187513,-0.0980293,0.146539,-0.129429,-0.0822652,-0.0149536,0.0174713,0.00469208,0.0146484,0.047493,0.0157547,-0.0321579,0.0319672,-9.97986,-0.031395,-0.00804901,0.0737381,0.0399399,0.0246811,-0.00694275,0.00190735,0.0150681
2,1,-9.99003,0.000305176,-0.0050354,-2.4247,0.0575121,-0.0744527,0.054128,-0.00135633,-0.0937568,0.145929,-0.128513,-0.0813497,-0.0405884,0.0198746,0.00400543,0.0149155,0.045929,0.0174332,-0.0231171,0.0403976,-9.97986,-0.0157928,-0.00396729,0.0727463,0.0417328,0.0221634,-0.00385284,0.00801086,0.00911713
2,2,-9.99003,0,-0.00244141,-2.4247,0.0569017,-0.0744527,0.0556539,0.0340441,-0.0910102,0.147149,-0.127292,-0.0807394,-0.0867462,0.0218582,0.00305176,0.0130463,0.0295639,0.0227737,-0.0187302,0.0311279,-9.97986,0.031929,-0.00663757,0.0686264,0.0349426,-0.0107193,-0.0112152,0.0030899,0.00663757
2,3,-9.99003,-0.000610352,-0.000457764,-2.42653,0.0553758,-0.0738423,0.0565694,0.0566271,-0.0897895,0.145929,-0.126072,-0.0816549,-0.0723648,0.024147,0.00873566,0.0151443,0.0237274,0.0199127,-0.0134659,0.0270844,-9.97986,0.0894165,-0.00335693,0.0577927,0.032959,-0.0149918,-0.00652313,0.00598907,0.00259399
2,4,-9.99003,0.000305176,-0.000457764,-2.42501,0.0553758,-0.0738423,0.0556539,0.0660875,-0.0903999,0.145318,-0.126377,-0.0822652,-0.00621796,0.0248718,0.0113678,0.0163269,0.0156784,0.0228119,-0.00347137,0.0241852,-9.97986,0.147667,-0.00221252,0.0547409,0.0302124,-0.0162888,-0.00637054,0.00652313,0.00087738
2,5,-9.99003,-0.000305176,0.000762939,-2.42562,0.0547655,-0.0747579,0.0553487,0.0889757,-0.0891792,0.145013,-0.124241,-0.0834859,0.0228119,0.0265884,0.0138092,0.0179672,0.0134659,0.0333023,-0.000419617,0.022583,-9.97986,0.154037,-0.00724792,0.0428391,0.0234985,0.00732422,-0.00209808,0.00865936,-0.000572205
2,6,-4.71904,-0.000305176,0.00411987,-2.42714,0.0535448,-0.0744527,0.054128,0.136888,-0.0879585,0.143487,-0.121799,-0.0844015,0.00583649,0.0318527,0.0193787,0.021553,0.0120926,0.0320053,0.00595093,0.0149536,-9.97986,0.1157,-0.0101471,0.0328827,0.0187302,0.00686646,-0.0118256,0.0112152,-0.00640869
2,7,2.55452,0.000305176,0.00427246,-2.42837,0.0544603,-0.075063,0.059316,0.153063,-0.0879585,0.144098,-0.120273,-0.0847066,0.00747681,0.0303268,0.0211334,0.0235748,0.0161743,0.0278854,0.00221252,0.0113297,-9.97986,0.0726318,-0.014534,0.031395,0.0152969,0.00350952,-0.0128174,0.0162125,-0.00324249
2,8,9.74324,0.000610352,0.0038147,-2.42776,0.0544603,-0.075063,0.0535176,0.159471,-0.0882636,0.143182,-0.121494,-0.0859274,0.0340271,0.0324631,0.0229645,0.0212097,0.010376,0.0272369,0.00202179,0.0103378,-9.97986,0.0510406,-0.0112152,0.0287628,0.00354767,0.00751495,-0.0145721,0.0156403,-0.00293732
2,9,10.0097,0.000610352,0.00152588,-2.43081,0.0523241,-0.0762837,0.0501607,0.106981,-0.0971137,0.141961,-0.126682,-0.0901998,0.0767517,0.0339508,0.0235367,0.020256,0.0158691,0.0317001,0.00984192,0.0139618,-9.97986,0.0470352,-0.00904083,0.0334167,-0.000457764,0.00762939,-0.0142288,0.0198746,-0.00450134
3,0,10.0097,-0.000305176,0.000152588,-2.4302,0.0544603,-0.0762837,0.0510762,0.0831774,-0.0971137,0.141656,-0.126072,-0.0892843,0.113678,0.0300217,0.02285,0.0209808,0.0120926,0.0384521,0.00892639,0.013237,-9.97986,0.0340652,-0.0100327,0.03582,-0.00728607,0.00896454,-0.0122833,0.0233459,-0.000534058
3,1,10.0097,-0.000610352,-0.000305176,-2.42989,0.0541551,-0.0756734,0.0526021,0.0758531,-0.0974189,0.142877,-0.124851,-0.0865377,0.0758743,0.0304413,0.0175858,0.0193405,0.0114822,0.0415421,0.0103378,0.0122833,-9.97986,0.00984192,-0.00770569,0.0452423,-0.0094223,-0.00450134,-0.01091,0.0198746,-0.00305176
3,2,10.0097,0.000915527,0.000152588,-2.42684,0.055681,-0.0741475,0.0526021,0.072191,-0.0952827,0.145013,-0.125766,-0.085317,0.0019455,0.0255966,0.0113678,0.017128,0.00175476,0.0436401,0.0128937,0.0094223,-9.97986,-0.0166321,-0.00812531,0.0591278,-0.00320435,-0.010643,-0.0124359,0.0178909,-0.00324249
3,3,10.0097,0.00244141,-0.000305176,-2.42806,0.0547655,-0.0744527,0.0504659,0.07036,-0.0946723,0.145013,-0.125461,-0.0844015,-0.0270844,0.0192642,0.00743866,0.0151825,-0.00457764,0.0419617,0.0131989,0.0157547,-9.97986,-0.0505066,-0.00522614,0.0619125,-0.0037384,-0.0107956,-0.00770569,0.0170517,-0.0056076
3,4,10.0097,0.000305176,0.000915527,-2.42623,0.0541551,-0.075063,0.054128,0.07036,-0.0925361,0.144403,-0.126987,-0.0856222,-0.0131226,0.0140381,0.00614166,0.0170135,-0.013237,0.0411987,0.0164795,0.00919342,-9.97986,-0.0655365,-0.00175476,0.0786591,-0.000267029,-0.00930786,-0.00686646,0.0163269,-0.00175476
3,5,10.0097,-0.00183105,0.000915527,-2.42592,0.055681,-0.0744527,0.0556539,0.0715807,-0.0922309,0.145318,-0.125461,-0.0822652,-0.00648499,0.00984192,0.00652313,0.0185013,-0.0193024,0.0365829,0.0186157,0.00423431,-9.97986,-0.0476837,-0.000762939,0.0941086,0.00854492,-0.0125504,-0.00389099,0.0132751,0.00347137
3,6,10.0097,0.000915527,0.000457764,-2.42714,0.0547655,-0.0747579,0.0526021,0.0712755,-0.0919257,0.146539,-0.124851,-0.0813497,-0.0307083,0.00968933,0.000343323,0.0141525,-0.0217819,0.0377655,0.0162506,0.00362396,-9.97986,-0.0340271,0.00404358,0.0998306,0.0154114,-0.0152969,-0.00492096,0.0213242,0.0180435
3,7,10.0097,0.00305176,0.000610352,-2.42531,0.0569017,-0.0744527,0.0547383,0.0715807,-0.0919257,0.146844,-0.125461,-0.0816549,-0.0170135,0.00804901,0.00434875,0.017395,-0.0317764,0.0477982,0.0143433,0.00297546,-9.97986,-0.0276947,0.00545502,0.103912,0.01194,-0.0129318,-0.00267029,0.0247574,0.027771
3,8,10.0097,0.000305176,-0.00137329,-2.42806,0.0562914,-0.0753682,0.0510762,0.0282457,-0.0974189,0.145318,-0.128513,-0.0834859,7.62939e-005,0.0147629,0.00328064,0.0129318,-0.0203705,0.0458527,0.0152969,0.010376,-9.97986,-0.0274277,0.00732422,0.0978088,0.0165176,-0.0164795,-0.00553131,0.0231171,0.0369644
3,9,4.02425,-0.000915527,-0.00411987,-2.42684,0.0559862,-0.0738423,0.0522969,-0.0166151,-0.100471,0.145929,-0.129123,-0.0834859,-0.00118256,0.0082016,-0.00106812,0.0123978,-0.0218201,0.0392151,0.014801,0.0201035,-9.97986,-0.0302887,0.00453949,0.0855637,0.0263596,-0.022316,-0.00144958,0.0246048,0.044632
4,0,-3.89995,0.00244141,-0.00396729,-2.42531,0.0565965,-0.0741475,0.0522969,-0.0196669,-0.0971137,0.145929,-0.130649,-0.0825704,-0.00873566,0.0143051,0.00526428,0.01091,-0.0154877,0.0397873,0.0260162,0.0218201,-9.97986,-0.0315475,0.00499725,0.0740814,0.0350571,-0.0246429,-0.00144958,0.0279236,0.0523758
4,1,-9.99003,0.000915527,-0.00350952,-2.4244,0.0572069,-0.0735371,0.0562642,-0.00196668,-0.0934516,0.146844,-0.130039,-0.080129,-0.032196,0.00808716,7.62939e-005,0.0139618,-0.0178146,0.040741,0.0309372,0.026474,-9.97986,-0.0438309,0.00358582,0.0470734,0.0501633,-0.0140762,-0.00522614,0.0305176,0.0556564
4,2,-9.99003,0.000610352,-0.000915527,-2.4244,0.0578172,-0.0735371,0.054128,0.0340441,-0.0894843,0.146234,-0.125766,-0.0804342,-0.0453186,0.0161743,0.00328064,0.0139618,-0.0210571,0.0397491,0.0354385,0.031395,-9.97986,-0.0388718,0.00705719,0.0231552,0.0603485,-0.0391006,-0.0120544,0.0294113,0.0498581
4,3,-9.99003,0.000610352,0.000610352,-2.42562,0.055681,-0.075063,0.0547383,0.054796,-0.090705,0.144708,-0.127292,-0.0813497,-0.0584412,0.0188828,0.00118256,0.0163651,-0.0265121,0.037117,0.0413132,0.0336838,-9.97986,-0.0167847,0.00534058,-0.0030899,0.0793457,-0.0365448,-0.010376,0.0292587,0.0505447
4,4,-9.99003,0.00213623,0.0012207,-2.42653,0.0553758,-0.0747579,0.0535176,0.0639513,-0.0910102,0.145318,-0.126072,-0.0828756,-0.0891495,0.00705719,-0.000267029,0.00988007,-0.0349045,0.040741,0.0444031,0.0351715,-9.97986,0.00358582,0.00556946,-0.0246429,0.0976944,-0.0315475,-0.0122452,0.0318146,0.0466919
4,5,-9.99003,-0.0012207,0.00198364,-2.42592,0.0535448,-0.0738423,0.0535176,0.0898912,-0.0897895,0.146234,-0.124851,-0.0828756,-0.0867081,0.0125504,0.00102997,0.00972748,-0.0368881,0.0437546,0.0467682,0.0281525,-9.97986,0.0190735,0.00957489,-0.0406265,0.103798,0.0107956,-0.0123596,0.0364304,0.0343323
4,6,-4.86796,0.000305176,0.00534058,-2.42653,0.0547655,-0.0753682,0.055959,0.138414,-0.0873481,0.144098,-0.123325,-0.0834859,-0.0386047,0.0177765,-0.000839233,0.00995636,-0.0360489,0.0437927,0.0479507,0.0190735,-9.97986,0.0407791,0.0109863,-0.0635147,0.109291,0.0112152,-0.0134277,0.0362778,0.0240707
4,7,2.42635,0.000915527,0.00473022,-2.42776,0.0538499,-0.0762837,0.0526021,0.153978,-0.0873481,0.143792,-0.12241,-0.0844015,0.0164795,0.0177765,0.00495911,0.0141144,-0.0328827,0.0419235,0.051918,0.00572205,-9.97986,0.0687408,0.013504,-0.0844193,0.113945,0.010376,-0.00518799,0.0392532,0.0132751
4,8,9.7051,-0.000305176,0.00457764,-2.42837,0.0544603,-0.0756734,0.0532125,0.159776,-0.0891792,0.143792,-0.121189,-0.0850118,0.070076,0.0213623,0.013504,0.0154495,-0.0268173,0.034523,0.0476074,-0.00892639,-9.97986,0.0772476,0.0108337,-0.103111,0.113907,0.0186157,-0.00804901,0.0374222,3.8147e-005
4,9,10.0097,0,0.00244141,-2.43142,0.0529344,-0.0765889,0.0495503,0.107286,-0.0968086,0.142572,-0.121799,-0.0898946,0.101776,0.0260162,0.0120926,0.0188446,-0.0279617,0.0299454,0.0508499,-0.0172043,-9.97986,0.0537491,0.0135803,-0.124054,0.113182,0.0255203,-0.00679016,0.0378418,-0.0259399
5,0,10.0097,-0.000305176,0.000457764,-2.43081,0.0550706,-0.0765889,0.050771,0.0840929,-0.0955879,0.143182,-0.126682,-0.0886739,0.1091,0.0219345,0.00968933,0.0153732,-0.0188828,0.0249863,0.0521469,-0.0131607,-9.97986,0.031929,0.014267,-0.145721,0.111046,0.0282669,-0.00511169,0.0353241,-0.0274277
5,1,10.0097,0.0012207,0.000610352,-2.42837,0.0544603,-0.0753682,0.0501607,0.0761583,-0.0955879,0.142877,-0.127598,-0.0874532,0.106812,0.02388,0.0094223,0.0179672,-0.0139999,0.0175858,0.0462723,-0.0126648,-9.97986,0.058403,0.0115967,-0.155869,0.117912,0.016861,-0.00221252,0.0261688,-0.0271606
5,2,10.0097,-0.0012207,-0.000305176,-2.42806,0.0547655,-0.0762837,0.0522969,0.0743273,-0.0949775,0.145013,-0.126682,-0.085317,0.0972366,0.02285,0.00797272,0.0126266,-0.0130463,0.013237,0.0407028,-0.00389099,-9.97986,0.0874329,0.00812531,-0.16571,0.119934,0.0117874,-0.00171661,0.0250626,-0.0302505
5,3,10.0097,0,0.000152588,-2.42714,0.0544603,-0.0753682,0.0522969,0.0718859,-0.0943672,0.145318,-0.126377,-0.0847066,0.08358,0.0173187,-0.000343323,0.0130463,-0.00759125,0.0165558,0.0333405,0.00499725,-9.97986,0.119286,0.00648499,-0.16819,0.122299,0.0177002,-0.0043869,0.0195313,-0.0295258
5,4,10.0097,0.00152588,0.000457764,-2.42592,0.0547655,-0.0744527,0.0522969,0.0712755,-0.0931465,0.144708,-0.125156,-0.0837911,0.0588608,0.017662,0.00205994,0.014267,-0.00572205,0.0146866,0.0336456,0.00846863,-9.97986,0.128937,0.00331879,-0.163803,0.117569,0.0134277,-0.0169373,0.0170135,-0.031662
5,5,10.0097,-0.000305176,-0.000457764,-2.42592,0.0562914,-0.0738423,0.0522969,0.0706652,-0.0934516,0.146539,-0.126072,-0.0834859,0.0476456,0.0216293,0.00171661,0.0131607,-0.000152588,0.00900269,0.03479,0.00595093,-9.97986,0.109787,0.00709534,-0.159798,0.113945,0.00976563,-0.0232697,0.0177002,-0.0272369
5,6,10.0097,0.000610352,0.000152588,-2.42592,0.0575121,-0.0738423,0.0544332,0.0706652,-0.0916206,0.145624,-0.125156,-0.0825704,0.0367355,0.0211716,-0.00228882,0.0114059,0.000190735,0.0136948,0.0381851,0.00980377,-9.97986,0.0821686,0.00858307,-0.160179,0.106506,0.00785828,-0.0234985,0.0163269,-0.0318527
5,7,10.0097,0.000305176,-0.000152588,-2.42501,0.0572069,-0.073232,0.0544332,0.0712755,-0.0913154,0.14776,-0.124546,-0.0810445,0.0194931,0.0195694,0.0025177,0.00770569,0.00614166,0.0212479,0.0315094,0.0138092,-9.97986,0.0351715,0.0132751,-0.163918,0.103836,0.0075531,-0.0202942,0.017395,-0.0426102
5,8,10.0097,-0.0012207,-0.0012207,-2.42776,0.0547655,-0.0756734,0.0519917,0.0285509,-0.0983344,0.144403,-0.127903,-0.0837911,0.026207,0.0247574,0.00190735,0.0115585,0.00423431,0.0211716,0.0345993,0.0137711,-9.97986,0.0162125,0.0116348,-0.160255,0.104752,0.0148773,-0.0175858,0.00785828,-0.0444794
5,9,4.05751,-0.000610352,-0.00442505,-2.42653,0.055681,-0.0738423,0.0522969,-0.0169203,-0.09925,0.145318,-0.130954,-0.0834859,0.0358582,0.0237274,0.0043869,0.00831604,0.00541687,0.0240326,0.0341797,0.0246429,-9.97986,0.0347519,0.0111771,-0.158195,0.0904083,0.0163269,-0.010376,0.00682831,-0.0492859
6,0,-3.84013,0.00183105,-0.0050354,-2.42653,0.055681,-0.0738423,0.0538228,-0.0169203,-0.0986396,0.146844,-0.130649,-0.0819601,0.0420761,0.0266266,0.00396729,0.00644684,0.00255585,0.0252914,0.0351715,0.0174332,-9.97986,0.066452,0.0131607,-0.161972,0.0807571,0.0130844,-0.00976563,0.00797272,-0.0493622
6,1,-9.99003,-0.000305176,-0.00518799,-2.4244,0.0578172,-0.0738423,0.0550435,-0.000440799,-0.0934516,0.145318,-0.129429,-0.0825704,0.042305,0.0283432,0.00141144,0.00984192,0.00602722,0.0249481,0.0379562,0.0200272,-9.97986,0.0605392,0.0120163,-0.162201,0.0770187,-0.00602722,-0.00362396,0.00549316,-0.0483704
6,2,-9.99003,0.000305176,-0.00305176,-2.4244,0.055681,-0.073232,0.0562642,0.0334337,-0.0900947,0.147149,-0.126987,-0.0807394,0.0151443,0.0299835,0.00545502,0.0130844,0.00617981,0.0279236,0.0373077,0.018158,-9.97986,0.0508881,0.00801086,-0.163193,0.0760651,-0.0403976,-0.00423431,0.00965118,-0.0496674
6,3,-9.99003,0.0012207,-0.000762939,-2.42501,0.0553758,-0.0735371,0.055959,0.0541857,-0.0900947,0.146234,-0.126072,-0.0804342,-0.00404358,0.0449753,0.0110245,0.0087738,0.000228882,0.0193787,0.0368118,0.01194,-9.97986,0.0637817,0.00534058,-0.155182,0.0791931,-0.0352478,-0.0019455,0.0163269,-0.0463104
6,4,-9.99003,0.000305176,0.000152588,-2.42592,0.055681,-0.0744527,0.055959,0.0624254,-0.0913154,0.144403,-0.126987,-0.0822652,-0.00335693,0.052948,0.00858307,0.00614166,0.000839233,0.0127411,0.0434113,0.00595093,-9.97986,0.064888,0.00587463,-0.149956,0.0763702,-0.0316238,0.000152588,0.00770569,-0.0458908
6,5,-9.99003,0.00183105,0.000457764,-2.42623,0.0550706,-0.0753682,0.0547383,0.0901964,-0.0891792,0.145929,-0.124241,-0.0825704,0.00778198,0.0365067,0.0137329,0.0138092,0.00198364,0.0127411,0.0402451,0.0044632,-9.97986,0.0741196,-0.00183105,-0.137825,0.0818634,0.0202179,0.00644684,0.0050354,-0.0437546
6,6,-4.62901,0.000610352,0.0038147,-2.42714,0.0541551,-0.0753682,0.0522969,0.137193,-0.0870429,0.144098,-0.121494,-0.0831808,0.0160217,0.0283051,0.00972748,0.0124359,-0.00255585,0.00419617,0.0408173,0.00431061,-9.97986,0.0707626,0.00198364,-0.139465,0.0806427,0.0450134,0.00225067,0.0043869,-0.0457001
6,7,2.66347,0.000610352,0.0050354,-2.42837,0.0532396,-0.075063,0.054128,0.153673,-0.0882636,0.145318,-0.121189,-0.085317,0.0289917,0.0320816,0.0127411,0.0136185,-0.000762939,0.000686646,0.0455475,0.00812531,-9.97986,0.0754166,0.00450134,-0.141716,0.0848389,0.0756454,0.000534058,0.00644684,-0.0423813
6,8,9.88515,0,0.00427246,-2.42745,0.0547655,-0.0756734,0.0532125,0.160997,-0.0885688,0.145318,-0.120884,-0.0850118,0.0287247,0.0453186,0.013504,0.0159454,-0.00171661,-0.000190735,0.0458145,0.00747681,-9.97986,0.0672913,-0.00312805,-0.132675,0.087471,0.0920868,-0.00469208,0.0122452,-0.0410461
6,9,10.0097,-0.000610352,0.00213623,-2.43203,0.0526292,-0.0765889,0.0495503,0.105455,-0.0986396,0.142877,-0.125461,-0.0898946,0.0184631,0.0485611,0.0170517,0.0127792,-0.000839233,-0.00038147,0.0392532,0.0102615,-9.97986,0.0611115,0.00118256,-0.131378,0.0930405,0.112457,-0.000457764,0.0121689,-0.0344086
7,0,10.0097,0.00244141,0.00137329,-2.4305,0.0538499,-0.0762837,0.0519917,0.0840929,-0.0971137,0.142877,-0.127598,-0.0886739,0.010643,0.0428772,0.0180817,0.0122452,0.00225067,-0.00167847,0.0437164,0.00595093,-9.97986,0.0401306,-0.00137329,-0.127106,0.0929642,0.120277,-0.0111389,0.0125885,-0.0288391
7,1,10.0097,0.000305176,0.000457764,-2.42867,0.0550706,-0.0768941,0.0516866,0.0761583,-0.0955879,0.143792,-0.126682,-0.0868429,0.0147629,0.0380707,0.0168228,0.0113297,0.00762939,-0.00267029,0.0424194,0.00595093,-9.97986,0.00331879,-0.0094223,-0.118446,0.103798,0.119629,-0.00900269,0.0144196,-0.0246048
7,2,10.0097,-0.00183105,0.000762939,-2.42684,0.0550706,-0.0744527,0.0547383,0.0715807,-0.0949775,0.145013,-0.126987,-0.0862325,0.0125885,0.0387192,0.0144577,0.0108337,0.0172043,0.000305176,0.043335,0.00843048,-9.97986,-0.0123596,-0.0199127,-0.110168,0.103569,0.115128,-0.0131226,0.0165558,-0.0225067
7,3,10.0097,0.000915527,0.000305176,-2.42714,0.055681,-0.0747579,0.0544332,0.072191,-0.0934516,0.144098,-0.126072,-0.0844015,0.00453949,0.0427628,0.0133896,0.0137329,0.0261307,-0.00328064,0.0386429,0.0117111,-9.97986,-0.0160599,-0.0159073,-0.103035,0.100594,0.114021,-0.0101852,0.0130463,-0.0278473
7,4,10.0097,0.00152588,-0.000457764,-2.42684,0.0553758,-0.0753682,0.054128,0.0715807,-0.0928413,0.144708,-0.126072,-0.0840963,0.0063324,0.0392151,0.0157928,0.00991821,0.0352859,-0.00221252,0.0416946,0.0106812,-9.97986,-0.0227737,-0.0200272,-0.0891113,0.098877,0.108604,-0.0165176,0.0136185,-0.034256
7,5,10.0097,0,-0.000457764,-2.42562,0.0559862,-0.0738423,0.054128,0.0709703,-0.0925361,0.145624,-0.125156,-0.0840963,0.0117874,0.0389481,0.017128,0.0125122,0.029068,-0.00160217,0.0369263,0.00953674,-9.97986,-0.0299072,-0.0148773,-0.0806808,0.0976563,0.103073,-0.00846863,0.0107956,-0.0337601
7,6,10.0097,0,0.000305176,-2.42501,0.0559862,-0.0735371,0.0556539,0.0709703,-0.0937568,0.145318,-0.124851,-0.0822652,-0.00606537,0.0380707,0.0177002,0.0118256,0.0322723,-0.00431061,0.0374603,0.0127029,-9.97986,-0.0302505,-0.0138474,-0.0741959,0.0982666,0.0907898,-0.0043869,0.00530243,-0.0393295
7,7,10.0097,0.0012207,0,-2.42501,0.0575121,-0.0738423,0.0556539,0.0728014,-0.0919257,0.145624,-0.123325,-0.0816549,0.0107574,0.0362015,0.0204468,0.0157928,0.0251007,-0.000724792,0.0382233,0.0130463,-9.97986,-0.0287628,-0.0125885,-0.0605011,0.0880814,0.0910187,-0.000724792,0.0063324,-0.043869
7,8,10.0097,-0.000915527,-0.00274658,-2.42776,0.0553758,-0.0747579,0.0513814,0.0282457,-0.0980293,0.145624,-0.126377,-0.0834859,0.0320816,0.0383377,0.0210953,0.0104523,0.0260162,0.00385284,0.0260925,0.0158691,-9.97986,-0.0243378,-0.0160217,-0.0537491,0.0794983,0.0918579,-0.00938416,-0.00183105,-0.0383759
7,9,3.98244,-0.000915527,-0.00564575,-2.42623,0.0559862,-0.0756734,0.0513814,-0.0172255,-0.101081,0.144098,-0.130954,-0.0834859,0.0188828,0.0381088,0.0196075,0.00835419,0.0196075,0.00343323,0.0283813,0.016098,-9.97986,-0.00602722,-0.0129318,-0.0500107,0.0547028,0.0961685,-0.0147247,-0.00583649,-0.0307465
8,0,-3.91856,0.000915527,-0.00686646,-2.42592,0.0559862,-0.0735371,0.0535176,-0.0187513,-0.0986396,0.146844,-0.130039,-0.0834859,0.0104523,0.0385666,0.022583,0.0111389,0.0152969,0.00656128,0.0275421,0.0172806,-9.97986,0.0180817,-0.0189209,-0.0377655,0.0231934,0.107346,-0.014801,-0.00621796,-0.0101852
8,1,-9.99003,0.0012207,-0.00793457,-2.42501,0.0565965,-0.0726216,0.0565694,-0.000440799,-0.0931465,0.145929,-0.127903,-0.0810445,-0.0270462,0.036087,0.0200653,0.011673,0.0126648,0.00850677,0.0253296,0.02388,-9.97986,0.0352097,-0.0141907,-0.0382996,-0.00816345,0.126266,-0.0062561,-0.00450134,0.00587463
8,2,-9.99003,-0.000305176,-0.00518799,-2.42409,0.0565965,-0.0735371,0.0565694,0.0334337,-0.0910102,0.145624,-0.127292,-0.0816549,-0.079155,0.0397491,0.0250244,0.0135422,-0.00118256,0.0166702,0.0181198,0.0227356,-9.97986,0.0535583,-0.0103378,-0.0363159,-0.0364304,0.110474,0.00461578,0.000762939,0.0117874
8,3,-9.99003,0.0012207,-0.00411987,-2.42562,0.0559862,-0.0741475,0.0553487,0.0560167,-0.0919257,0.145929,-0.125461,-0.0825704,-0.0935745,0.0406647,0.0283432,0.00873566,-0.00171661,0.0104141,0.0169373,0.0238419,-9.97986,0.0457001,-0.00587463,-0.0361633,-0.0731277,0.119438,0.018692,0.00114441,0.0205612
8,4,-9.99003,-0.000915527,-0.00244141,-2.42592,0.0559862,-0.0747579,0.0550435,0.0630358,-0.0916206,0.146539,-0.125461,-0.0828756,-0.076828,0.0436401,0.0328064,0.0123215,-0.0101089,0.0094986,0.020752,0.0242615,-9.97986,0.0218582,-0.0121307,-0.0411224,-0.0999069,0.122261,0.0286102,0.00324249,0.0244904
8,5,-9.99003,-0.0012207,-0.0012207,-2.42623,0.0550706,-0.0744527,0.0562642,0.0889757,-0.0885688,0.145013,-0.122715,-0.0834859,-0.0668335,0.0487137,0.0376511,0.0133514,-0.0100708,0.0186157,0.00602722,0.0121689,-9.97986,3.8147e-005,-0.0193405,-0.0437927,-0.120468,0.159607,0.0338364,0.00370026,0.02285
8,6,-4.71354,0.000610352,0.00198364,-2.42623,0.0544603,-0.075063,0.0544332,0.136888,-0.0876533,0.143792,-0.12302,-0.0847066,-0.0582123,0.0515366,0.0419235,0.0154877,-0.00743866,0.0164795,0.0128174,-0.0128174,-9.97986,-0.0063324,-0.0216293,-0.0384521,-0.138969,0.163536,0.0198364,0.00255585,0.0263596
8,7,2.51515,0.000305176,0.00320435,-2.42745,0.0532396,-0.0768941,0.0535176,0.155504,-0.0882636,0.143487,-0.121189,-0.0856222,0.0213623,0.0511551,0.045166,0.0200272,-0.00976563,0.0110245,0.00846863,-0.0231934,-9.97986,-0.0189972,-0.0258255,-0.0294876,-0.159225,0.15831,0.00583649,0.00358582,0.030899
8,8,9.71944,-0.000915527,0.00289917,-2.42806,0.0544603,-0.0771993,0.0529073,0.159776,-0.088874,0.143182,-0.120273,-0.0862325,0.0732803,0.0517273,0.0552368,0.0214767,-0.0140381,0.0115204,0.00736237,-0.0207138,-9.97986,-0.0325775,-0.0130844,-0.0263977,-0.167084,0.1511,0.00541687,0.00724792,0.0310135
8,9,10.0097,0.00213623,0.00106812,-2.43233,0.0526292,-0.0778096,0.0495503,0.105455,-0.0977241,0.142267,-0.125766,-0.0895895,0.0425339,0.0501251,0.0542068,0.0228119,-0.0162888,0.00980377,0.000648499,-0.0149918,-9.97986,-0.0472641,-0.0155258,-0.0196457,-0.180511,0.142136,0.00652313,0.00354767,0.0299454
9,0,10.0097,0.00152588,-0.000610352,-2.42959,0.0535448,-0.0765889,0.0519917,0.0831774,-0.0974189,0.142877,-0.125766,-0.0892843,0.0521469,0.0408554,0.0495148,0.0189972,-0.0151062,0.00293732,-0.000419617,-0.00759125,-9.97986,-0.0608063,-0.014267,-0.0187683,-0.192108,0.124283,0.000915527,-0.000267029,0.0216675
9,1,10.0097,-0.000610352,-0.000762939,-2.42837,0.0544603,-0.0768941,0.0519917,0.075548,-0.0955879,0.143182,-0.126987,-0.0874532,0.0289917,0.0432587,0.0499725,0.0122833,-0.0134277,0.00602722,-7.62939e-005,-0.000648499,-9.97986,-0.0680542,-0.00720978,-0.0126648,-0.197754,0.119362,-0.00343323,0.00545502,0.0196075
9,2,10.0097,0.000610352,-0.000915527,-2.42837,0.0547655,-0.0744527,0.0535176,0.0728014,-0.0946723,0.145013,-0.126377,-0.0859274,0.0164413,0.0434113,0.0450516,0.0130844,-0.00724792,0.00480652,-0.01091,0.00591278,-9.97986,-0.0753784,-0.0141907,-0.0138092,-0.204239,0.109901,-0.00736237,0.00354767,0.0175858
9,3,10.0097,0.0012207,-0.000457764,-2.42837,0.0550706,-0.0753682,0.0526021,0.072191,-0.0934516,0.144403,-0.126682,-0.085317,0.0538254,0.0375366,0.0439453,0.0148392,-0.00522614,0.00339508,-0.00648499,0.0130844,-9.97986,-0.0661087,-0.0179672,-0.0125122,-0.206413,0.109711,-0.00968933,0.00854492,0.0127411
9,4,10.0097,0.00183105,0,-2.42745,0.0547655,-0.0747579,0.054128,0.0715807,-0.0937568,0.144708,-0.125766,-0.0834859,0.0818253,0.0317001,0.0300598,0.0134277,-0.00873566,0.000610352,-0.0154114,0.0122833,-9.97986,-0.0352478,-0.0193405,-0.0111771,-0.206871,0.111237,-0.00427246,0.0100708,0.0112534
9,5,10.0097,-0.000305176,0.000457764,-2.42501,0.0565965,-0.0735371,0.0538228,0.0718859,-0.0913154,0.145929,-0.126987,-0.0831808,0.0971222,0.0257111,0.0289917,0.0101852,-0.010643,-0.00415802,-0.0177002,0.0200272,-9.97986,-0.0196838,-0.0409698,-0.0175476,-0.210762,0.117111,0.00312805,0.00663757,0.0102997
9,6,10.0097,0.000610352,-0.000457764,-2.42562,0.0569017,-0.0738423,0.0547383,0.0767687,-0.0913154,0.145013,-0.124851,-0.0816549,0.0932312,0.0236511,0.0212097,0.00656128,-0.00782013,-0.0136566,-0.0252151,0.0213623,-9.97986,-0.00457764,-0.0463104,-0.0116348,-0.210152,0.121231,0.012207,0.00431061,0.0130463
9,7,10.0097,0.000305176,0.000610352,-2.42379,0.055681,-0.075063,0.0550435,0.0712755,-0.0925361,0.146234,-0.123935,-0.0798238,0.0671387,0.0234222,0.014801,0.0063324,-0.00331879,-0.0122452,-0.0285339,0.0263214,-9.97986,-0.00583649,-0.0360107,-0.00522614,-0.213852,0.114021,0.0216675,0.00640869,0.0179672
9,8,10.0097,0.000915527,-0.00167847,-2.42592,0.0553758,-0.075063,0.0519917,0.0282457,-0.0986396,0.146234,-0.127903,-0.0831808,0.0314331,0.0224686,0.0160217,0.00598907,3.8147e-005,-0.00900269,-0.0294876,0.0312424,-9.97986,-0.0088501,-0.0237274,-0.00610352,-0.214424,0.104675,0.0270844,-0.00255585,0.0185394
9,9,3.83016,-0.000305176,-0.0038147,-2.42837,0.055681,-0.0738423,0.0529073,-0.018141,-0.101386,0.14837,-0.129429,-0.0844015,0.00957489,0.0196457,0.00831604,0.00484467,0.0107956,-0.00991821,-0.0305176,0.0332642,-9.97986,-0.0109482,0.000801086,-0.00671387,-0.214729,0.105705,0.0332642,-0.00190735,0.0173187
10,0,-4.08519,0.00183105,-0.00457764,-2.42592,0.055681,-0.0738423,0.054128,-0.0190565,-0.09925,0.146234,-0.128818,-0.0822652,0.00854492,0.0208282,0.0106049,0.00705719,0.0115967,-0.0143433,-0.0285339,0.0348663,-9.97986,-0.00244141,0.013504,0.00411987,-0.209503,0.109711,0.0313187,0.00160217,0.0117874
10,1,-9.99003,-0.000610352,-0.00442505,-2.42257,0.0572069,-0.0741475,0.0553487,0.000779904,-0.0946723,0.146539,-0.129429,-0.0804342,0.0244904,0.022316,0.00793457,0.00705719,0.00663757,-0.00419617,-0.0357056,0.0333023,-9.97986,0.00152588,0.020256,0.00637054,-0.211906,0.116959,0.0252533,0.00247955,-0.00358582
10,2,-9.99003,0,-0.00152588,-2.42531,0.0565965,-0.0735371,0.0556539,0.0383165,-0.0897895,0.145929,-0.126377,-0.0795187,0.0608826,0.0293732,0.0136185,0.00392914,0.00404358,-0.0107956,-0.0350952,0.0288391,-9.97986,0.0193024,0.0249481,0.00572205,-0.213928,0.0997543,0.00762939,0.00240326,-0.0156784
10,3,-9.99003,0.000610352,-0.000610352,-2.42592,0.0544603,-0.0744527,0.0556539,0.054796,-0.0900947,0.146539,-0.126072,-0.0816549,0.0749969,0.0337601,0.0196075,0.00602722,0.0031662,-0.00457764,-0.0356293,0.033493,-9.97986,0.0439835,0.0223923,0.00335693,-0.21389,0.102806,-0.000534058,-7.62939e-005,-0.0205231
10,4,-9.99003,-0.000305176,0.000305176,-2.42379,0.0550706,-0.0747579,0.0538228,0.0624254,-0.0925361,0.144403,-0.125766,-0.0825704,0.0372314,0.0292969,0.0164032,0.0151825,0.0030899,-0.00225067,-0.0355911,0.0325775,-9.97986,0.0498199,0.00953674,0.00663757,-0.219078,0.109711,0.000648499,0.00125885,-0.0189209
10,5,-9.99003,0.00152588,0.00137329,-2.42623,0.0553758,-0.0744527,0.0571797,0.0935533,-0.0870429,0.145624,-0.12363,-0.0822652,-0.00865936,0.0285721,0.0162125,0.00549316,-0.0037384,-0.00431061,-0.0336456,0.0273132,-9.97986,0.0547409,0.00835419,0.00484467,-0.220757,0.138664,0.00278473,0.0101089,-0.0145721
10,6,-4.74986,0.000610352,0.00350952,-2.42714,0.0547655,-0.0756734,0.055959,0.136278,-0.0879585,0.145013,-0.122715,-0.0840963,-0.021286,0.0252914,0.0209045,0.00804901,0.000610352,-0.00221252,-0.0382614,0.0267792,-9.97986,0.0775528,0.00370026,-0.00263214,-0.223618,0.13504,0.00263214,0.0118256,-0.0139236
10,7,2.5176,0.000915527,0.00350952,-2.42837,0.0544603,-0.075063,0.0535176,0.153978,-0.0897895,0.144403,-0.121189,-0.0844015,-0.0394058,0.0276566,0.017662,0.00858307,-0.00495911,0.00282288,-0.0360489,0.0164032,-9.97986,0.0626373,0.000648499,-0.0186539,-0.228882,0.118484,0.00335693,0.0206757,-0.0145721
10,8,9.68129,-0.000305176,0.00366211,-2.42806,0.0532396,-0.0753682,0.0535176,0.154283,-0.088874,0.143487,-0.120578,-0.0859274,-0.0770569,0.0288391,0.018425,0.0115204,-0.00289917,0.00610352,-0.034256,0.00171661,-9.97986,0.0394058,0.00835419,-0.0273895,-0.239105,0.11322,0.00652313,0.0257111,-0.00743866
10,9,10.0097,-0.000610352,0.00137329,-2.4305,0.0529344,-0.0771993,0.0498555,0.107286,-0.0961982,0.143487,-0.125766,-0.0898946,-0.0260162,0.0310135,0.013237,0.0133514,-0.000457764,0.00701904,-0.0296783,-0.00953674,-9.97986,0.031929,0.019722,-0.0324631,-0.250397,0.112801,0.00915527,0.0281906,-0.0161362
11,0,10.0097,0.000610352,0.000152588,-2.42959,0.0550706,-0.0762837,0.0510762,0.0837877,-0.0965034,0.142267,-0.126682,-0.0892843,0.0380707,0.0296402,0.0157928,0.0136948,0.00339508,0.0143433,-0.0311279,-0.00598907,-9.97986,0.0275803,0.0206757,-0.0424194,-0.257683,0.113449,0.010643,0.0225449,-0.0281525
11,1,10.0097,0.00152588,-0.000457764,-2.42806,0.0532396,-0.0759786,0.050771,0.0758531,-0.095893,0.143182,-0.125156,-0.0865377,0.0228119,0.0280762,0.0178146,0.00823975,-0.000762939,0.0140762,-0.0317001,0.00534058,-9.97986,0.0151443,0.0130081,-0.043602,-0.257454,0.110703,0.00762939,0.022049,-0.0294113
11,2,10.0097,0.00213623,0,-2.42837,0.0547655,-0.0753682,0.0532125,0.0724962,-0.0955879,0.143792,-0.126377,-0.085317,0.0069809,0.0176239,0.0141525,0.00881195,-0.00492096,0.0169754,-0.0271988,0.0133133,-9.97986,0.00728607,0.0186157,-0.0369644,-0.253296,0.108185,0.00118256,0.0194931,-0.0227356
11,3,10.0097,-0.000915527,0.000610352,-2.42592,0.0550706,-0.0747579,0.0532125,0.07036,-0.0919257,0.144403,-0.126987,-0.0856222,-0.0112152,0.0107956,0.00556946,0.011673,-0.00675201,0.0175858,-0.0276566,0.0301361,-9.97986,0.00156403,0.00705719,-0.0391388,-0.239983,0.103607,0.0056839,0.0205612,-0.0173187
11,4,10.0097,0.00183105,0.00106812,-2.42714,0.0541551,-0.0744527,0.0535176,0.0697496,-0.0937568,0.144403,-0.125766,-0.0840963,-0.04776,0.0124359,-0.00461578,0.00888824,-0.0107956,0.0148392,-0.0258255,0.0274658,-9.97986,0.00339508,0.0127411,-0.0418854,-0.22831,0.0960541,0.0109482,0.0208282,-0.00476837
11,5,10.0097,0.000610352,0.00167847,-2.42531,0.055681,-0.0741475,0.0544332,0.0715807,-0.0934516,0.146539,-0.124546,-0.0822652,-0.0586319,0.0131607,3.8147e-005,0.00572205,-0.0134659,0.017662,-0.0284958,0.0217438,-9.97986,0.0063324,0.00709534,-0.0318527,-0.215912,0.0811005,0.0108337,0.0160599,0.00606537
11,6,10.0097,0,0.000915527,-2.42531,0.0569017,-0.0726216,0.0544332,0.0706652,-0.0922309,0.146844,-0.124546,-0.0822652,-0.0601959,0.0217438,0.001297,0.00400543,-0.0132751,0.022049,-0.0285339,0.0217438,-9.97986,0.00183105,0.0134277,-0.00854492,-0.204086,0.0717545,0.00835419,0.02285,0.0233459
11,7,10.0097,-0.000610352,0.000915527,-2.42501,0.0581224,-0.0735371,0.0562642,0.0715807,-0.0919257,0.146844,-0.12363,-0.0807394,-0.0502014,0.0255203,0.00225067,-0.000801086,-0.022583,0.0206375,-0.023613,0.019722,-9.97986,-0.00110626,0.0139236,0.0120926,-0.197334,0.0599289,-0.000534058,0.0232697,0.0365067
11,8,10.0097,0.000305176,-0.000610352,-2.42684,0.055681,-0.0744527,0.0529073,0.0276354,-0.0983344,0.144708,-0.127903,-0.0840963,-0.0136566,0.0175476,0.00202179,0.00839233,-0.0182343,0.0307083,-0.0209427,0.0254059,-9.97986,-0.000610352,0.00793457,0.0363922,-0.182838,0.0449371,-0.00545502,0.0415802,0.0352859
11,9,3.62844,-0.000305176,-0.00289917,-2.42684,0.0565965,-0.0744527,0.0519917,-0.0166151,-0.100471,0.146539,-0.130954,-0.0828756,0.00656128,0.015564,-0.00537872,0.00587463,-0.00671387,0.0260925,-0.0211334,0.0329971,-9.97986,-0.0044632,0.0117111,0.0623322,-0.178604,0.0299835,-0.00995636,0.0444794,0.0296783
12,0,-4.26341,0.000610352,-0.0038147,-2.42562,0.0559862,-0.0738423,0.054128,-0.0187513,-0.0974189,0.145624,-0.130039,-0.0816549,0.0151443,0.0121689,-0.00839233,0.000572205,-0.00431061,0.0289536,-0.0183487,0.0384903,-9.97986,0.00389099,0.0125885,0.105438,-0.166245,0.0169373,-0.00537872,0.0487137,0.0226212
12,1,-9.99003,0.000610352,-0.00411987,-2.42379,0.0578172,-0.0729268,0.0568746,0.000779904,-0.0925361,0.14776,-0.128208,-0.0807394,0.0323868,0.0232315,-0.0111008,-0.00217438,0.000114441,0.0338745,-0.0231171,0.0380325,-9.97986,0.00747681,0.0109482,0.147972,-0.164833,-0.00995636,-0.00225067,0.0378799,0.0213242
12,2,-9.99003,0,-0.00213623,-2.42531,0.0559862,-0.0747579,0.0574849,0.0370958,-0.0900947,0.146234,-0.126072,-0.0807394,0.0317764,0.0365067,-0.0019455,-7.62939e-005,0.00442505,0.033989,-0.0219345,0.0222778,-9.97986,0.0299072,0.00892639,0.19352,-0.164909,-0.0517654,-0.0050354,0.0321198,0.0249481
12,3,-9.99003,0.0012207,-0.000457764,-2.42623,0.0553758,-0.0759786,0.0568746,0.0569322,-0.0903999,0.145013,-0.126377,-0.0822652,0.0328827,0.0484085,0.012207,0.00442505,0.017395,0.0344849,-0.0230026,0.0113678,-9.97986,0.0510788,0.00865936,0.220108,-0.170822,-0.0733566,-0.00137329,0.0272369,0.0294495
12,4,-9.99003,-0.000305176,-0.000457764,-2.42592,0.0541551,-0.0741475,0.055959,0.0630358,-0.0922309,0.145318,-0.126682,-0.0828756,0.0294113,0.0656128,0.0160599,0.00247955,0.022049,0.0341415,-0.0202179,0.0063324,-9.97986,0.0751114,0.000762939,0.232582,-0.175285,-0.0947571,-0.00461578,0.0239944,0.0334549
12,5,-9.99003,0.0012207,0.000915527,-2.42531,0.0553758,-0.075063,0.0568746,0.0953844,-0.0885688,0.145013,-0.12363,-0.0822652,0.0193405,0.070343,0.0233078,-0.00102997,0.0230789,0.0302505,-0.025444,-0.00148773,-9.97986,0.0949478,0.000686646,0.237122,-0.173073,-0.0903702,0.00614166,0.0214005,0.0352478
12,6,-4.81303,-0.0012207,0.0038147,-2.42714,0.0535448,-0.0756734,0.0556539,0.137193,-0.0876533,0.142572,-0.122104,-0.0837911,0.0167847,0.0582886,0.0259781,0.000915527,0.0260544,0.0322723,-0.0242233,0.00228882,-9.97986,0.104828,0.00213623,0.234718,-0.168571,-0.108871,0.00209808,0.0219345,0.0407791
12,7,2.59206,0,0.00457764,-2.42776,0.0535448,-0.0753682,0.0544332,0.154283,-0.088874,0.142877,-0.121189,-0.0850118,0.0165558,0.0447083,0.0201797,0.00320435,0.0265121,0.0233841,-0.028038,0.00545502,-9.97986,0.0907898,0.00324249,0.23983,-0.169487,-0.127182,-0.000762939,0.0238419,0.0437546
12,8,9.81801,-0.000610352,0.00457764,-2.42837,0.0535448,-0.0756734,0.0532125,0.158556,-0.0903999,0.142267,-0.121189,-0.0856222,0.0102234,0.00743866,0.0120926,0.00717163,0.0256348,0.0304413,-0.0234222,0.0221252,-9.97986,0.0835419,-0.00183105,0.242996,-0.168991,-0.134277,0.00301361,0.0231171,0.0490952
12,9,10.0097,0.000610352,0.00228882,-2.43172,0.0550706,-0.0771993,0.0495503,0.104845,-0.0974189,0.140741,-0.126072,-0.0892843,0.00576019,-0.0208282,0.00366211,0.00366211,0.0304031,0.0322342,-0.0235367,0.0340271,-9.97986,0.069313,-0.00892639,0.244637,-0.163307,-0.144081,-0.000915527,0.0255585,0.0518036
13,0,10.0097,0.00152588,0.00167847,-2.43081,0.0538499,-0.0756734,0.0510762,0.0837877,-0.0986396,0.142572,-0.126072,-0.0886739,0.0100708,-0.0203705,0.00408173,0.0117874,0.0298309,0.0286102,-0.025444,0.0350571,-9.97986,0.0540543,-0.00858307,0.247078,-0.153351,-0.160332,-0.0137329,0.0254822,0.0482941
13,1,10.0097,-0.000305176,0.000152588,-2.42959,0.0541551,-0.0756734,0.0501607,0.0758531,-0.0965034,0.144708,-0.125461,-0.0871481,0.00709534,0.00038147,0.00526428,0.0166702,0.0281143,0.0252533,-0.021286,0.036087,-9.97986,0.0465012,-0.00720978,0.250092,-0.142441,-0.167923,-0.0149155,0.0254822,0.0487137
13,2,10.0097,0.000610352,0.00106812,-2.42806,0.0535448,-0.075063,0.0516866,0.0737169,-0.0943672,0.143792,-0.125766,-0.0856222,0.00461578,0.00862122,-0.00774384,0.0210953,0.0385666,0.0190353,-0.0173187,0.0315094,-9.97986,0.034523,0.00286102,0.243187,-0.130119,-0.17437,-0.0139618,0.0298691,0.0498581
13,3,10.0097,0.000915527,0.000457764,-2.42714,0.0559862,-0.075063,0.0526021,0.0715807,-0.0943672,0.144708,-0.126072,-0.0847066,0.00724792,0.00167847,-0.0193405,0.0199509,0.0385284,0.0171661,-0.0133133,0.0200272,-9.97986,0.0329208,0.00595093,0.235252,-0.130997,-0.174675,-0.0153732,0.0239944,0.0540161
13,4,10.0097,0.000610352,0.000457764,-2.42653,0.0541551,-0.0747579,0.0529073,0.0709703,-0.094062,0.145318,-0.125461,-0.0847066,0.00797272,-0.00671387,-0.0244904,0.0163651,0.0424957,0.0180054,-0.0115967,0.0204468,-9.97986,0.0312042,-0.001297,0.226898,-0.132942,-0.176926,-0.0151443,0.0186157,0.0474548
13,5,10.0097,0.0012207,0.000305176,-2.42623,0.055681,-0.0756734,0.0529073,0.07036,-0.0931465,0.145929,-0.125766,-0.0828756,0.01091,-0.0195313,-0.0286102,0.0157547,0.0463867,0.00274658,-0.0100327,0.0278854,-9.97986,0.0285339,0.00110626,0.229912,-0.140076,-0.173492,-0.0133514,0.0170898,0.044136
13,6,10.0097,0.000305176,-0.000305176,-2.4244,0.0559862,-0.0747579,0.0547383,0.0718859,-0.0916206,0.145929,-0.123935,-0.0813497,0.0106049,-0.0264359,-0.016098,0.0167465,0.0497437,0.00621796,-0.00270844,0.0299835,-9.97986,0.0175476,0.00930786,0.228691,-0.134964,-0.170403,-0.00759125,0.0197983,0.0453568
13,7,10.0097,0.000305176,0.000915527,-2.42501,0.0562914,-0.0735371,0.0553487,0.0709703,-0.0922309,0.146234,-0.124546,-0.0810445,0.00621796,-0.0182724,0.000534058,0.0140381,0.0490189,0.00701904,-0.00267029,0.0378418,-9.97986,0.0151825,0.00423431,0.226898,-0.1334,-0.175056,-0.00453949,0.0119019,0.0386429
13,8,10.0097,-0.000305176,-0.00137329,-2.42714,0.0550706,-0.0747579,0.050771,0.0285509,-0.0971137,0.145013,-0.127598,-0.0834859,0.00606537,-0.0082016,0.00572205,0.00743866,0.0538635,0.0101089,0.000572205,0.03479,-9.97986,0.0088501,-0.00392914,0.223351,-0.139046,-0.167274,-0.00400543,0.00984192,0.0373077
13,9,3.7676,0.000305176,-0.00411987,-2.42776,0.055681,-0.073232,0.0522969,-0.0166151,-0.0998603,0.146234,-0.131565,-0.0834859,0.0101089,-0.00392914,0.00823975,0.00339508,0.0562286,0.0161743,0.0044632,0.0387955,-9.97986,0.00400543,0.0088501,0.227127,-0.14534,-0.163689,-0.00202179,0.00415802,0.0394821
14,0,-4.10899,0.0012207,-0.00457764,-2.42592,0.0572069,-0.0738423,0.0538228,-0.0190565,-0.0980293,0.145929,-0.130954,-0.0816549,0.00743866,0.00225067,0.00934601,-0.00385284,0.055809,0.0153351,0.00564575,0.0356674,-9.97986,0.00450134,0.00694275,0.22377,-0.145149,-0.154228,-0.00553131,0.00141144,0.0315857
14,1,-9.99003,0.00152588,-0.00473022,-2.42501,0.0569017,-0.0726216,0.0550435,-0.000440799,-0.0913154,0.146844,-0.128208,-0.0813497,0.0104904,0.00320435,0.0133896,-0.0150299,0.0547409,0.0102234,0.00694275,0.0333023,-9.97986,-0.00339508,0.00621796,0.211105,-0.152054,-0.138512,-0.00144958,-0.00232697,0.0287247
14,2,-9.99003,0.0012207,-0.00228882,-2.42531,0.055681,-0.0744527,0.0553487,0.0361803,-0.0897895,0.147149,-0.128208,-0.0804342,0.0117493,0.00743866,0.015564,-0.0225449,0.052948,0.01091,0.0106049,0.0356293,-9.97986,-0.00217438,0.00827789,0.204811,-0.145035,-0.160637,-0.00461578,-0.00534058,0.0206375
14,3,-9.99003,0.000610352,-0.000457764,-2.42562,0.0559862,-0.0735371,0.0550435,0.0541857,-0.0900947,0.145624,-0.126987,-0.0810445,0.0130463,0.0118637,0.0209045,-0.0280762,0.054512,0.0109482,0.0146103,0.0351334,-9.97986,-0.00370026,0.00846863,0.197906,-0.146713,-0.149689,-0.00286102,-0.00629425,0.0152969
14,4,-9.99003,0.000305176,0.000610352,-2.42653,0.0559862,-0.0738423,0.0547383,0.0624254,-0.0910102,0.145013,-0.126072,-0.0822652,0.00854492,0.0140381,0.0261307,-0.0138855,0.0558472,0.0106812,0.018692,0.030365,-9.97986,-0.0112915,0.00263214,0.187035,-0.135498,-0.147629,-0.00656128,-0.014801,0.0166702
14,5,-9.99003,0,0.00213623,-2.42623,0.0562914,-0.075063,0.0544332,0.0898912,-0.0897895,0.144403,-0.123935,-0.0831808,0.01194,0.0120544,0.0297546,0.0294113,0.0580215,0.0113678,0.0234604,0.0313568,-9.97986,-0.00640869,-0.00244141,0.181923,-0.126076,-0.115395,-0.0147629,-0.0171661,0.0105286
14,6,-4.56584,0.0012207,0.00518799,-2.42806,0.0529344,-0.0762837,0.0544332,0.137804,-0.0876533,0.144403,-0.122104,-0.0834859,0.0166321,0.0069809,0.0349045,0.0515747,0.0517273,0.0135422,0.0279999,0.0208664,-9.97986,-0.00629425,-0.0101852,0.168686,-0.113983,-0.109825,-0.0172043,-0.0190735,0.0112915
14,7,2.93019,-0.000305176,0.00564575,-2.42684,0.0535448,-0.0747579,0.0568746,0.151842,-0.088874,0.143487,-0.12241,-0.0844015,0.00587463,0.00789642,0.0370407,0.0311279,0.0574875,0.0114059,0.0361633,0.0136566,-9.97986,-0.00865936,-0.0050354,0.166855,-0.104103,-0.0969696,-0.0212479,-0.0245285,0.00930786
14,8,9.94313,0.000915527,0.00473022,-2.42837,0.0550706,-0.0762837,0.0532125,0.157335,-0.0891792,0.146539,-0.121494,-0.0850118,0.00415802,0.0170517,0.0409317,0.0122452,0.0517654,0.00812531,0.0341797,-0.00495911,-9.97986,-0.00579834,-0.00671387,0.17189,-0.0987244,-0.0817108,-0.0227356,-0.028801,0.00541687
14,9,10.0097,0.0012207,0.00213623,-2.42989,0.0523241,-0.0765889,0.04894,0.10454,-0.0977241,0.141656,-0.125156,-0.0883688,0.00457764,0.0288391,0.0422287,0.00823975,0.0545502,0.00400543,0.0380707,-0.00774384,-9.97986,-0.0127029,-0.00511169,0.164871,-0.0909424,-0.0683212,-0.0178528,-0.0357056,0.0087738
15,0,10.0097,0.000610352,0.00183105,-2.4305,0.0529344,-0.0765889,0.0510762,0.0831774,-0.0977241,0.143792,-0.127292,-0.0880636,0.00789642,0.0375748,0.0364685,0.00621796,0.0560379,0.000228882,0.0375748,-0.00370026,-9.97986,-0.0182724,-0.00434875,0.157623,-0.085144,-0.0551987,-0.0185394,-0.0390244,0.00972748
15,1,10.0097,0,0.00106812,-2.42928,0.0541551,-0.0756734,0.050771,0.0758531,-0.095893,0.146844,-0.126072,-0.0856222,0.00789642,0.0320053,0.0382233,0.019455,0.056839,0.00125885,0.0444031,-0.0111389,-9.97986,-0.0161743,0.00530243,0.137825,-0.0680542,-0.0515747,-0.0128174,-0.0399017,0.00854492
15,2,10.0097,0,0.00152588,-2.42837,0.0541551,-0.0747579,0.0519917,0.0718859,-0.0943672,0.142572,-0.126377,-0.085317,0.00545502,0.0315094,0.0348663,0.0555038,0.0572586,-0.0025177,0.0495148,-0.0143051,-9.97986,-0.0174713,0.00541687,0.117416,-0.0597382,-0.0531387,-0.0137711,-0.039444,0.00892639
15,3,10.0097,-0.000610352,0.00106812,-2.42806,0.0547655,-0.0747579,0.0519917,0.0712755,-0.0937568,0.145318,-0.126072,-0.0840963,0.00614166,0.0282288,0.0399017,0.0744247,0.0572205,-0.0030899,0.0622177,-0.00923157,-9.97986,-0.00926971,0.0082016,0.102272,-0.0512314,-0.0501251,-0.0133514,-0.0378799,0.0136185
15,4,10.0097,0.0012207,0.000762939,-2.42623,0.0550706,-0.0747579,0.054128,0.072191,-0.0937568,0.145013,-0.126072,-0.0837911,0.00556946,0.0213242,0.0351715,0.0571823,0.0593948,-0.00400543,0.0665665,-0.00862122,-9.97986,0.00850677,0.0140381,0.0988007,-0.0363159,-0.052948,-0.00938416,-0.0456238,0.0154495
15,5,10.0097,0.00183105,0.00137329,-2.42592,0.0550706,-0.0747579,0.0532125,0.0715807,-0.0931465,0.146539,-0.125156,-0.0822652,0.00881195,0.0326157,0.0242233,0.0351334,0.0600815,-0.00823975,0.0799179,0.00495911,-9.97986,0.0213242,0.0164795,0.0892258,-0.0193405,-0.052948,-0.00595093,-0.0498962,0.0222397
15,6,10.0097,-0.000610352,0.00198364,-2.42531,0.0562914,-0.0741475,0.0553487,0.0715807,-0.0916206,0.146234,-0.124851,-0.0813497,0.00965118,0.0388336,0.0144958,0.0252914,0.0589371,-0.0130081,0.0836182,0.0120544,-9.97986,0.0203705,0.0120926,0.0772095,-0.00492096,-0.0547791,-0.0100708,-0.0438309,0.02491
15,7,10.0097,0.000915527,0.00183105,-2.42501,0.055681,-0.0729268,0.0550435,0.07036,-0.0922309,0.146234,-0.124241,-0.0810445,0.00679016,0.00980377,0.00923157,0.0162888,0.0588989,-0.0163651,0.086174,0.0189972,-9.97986,0.014534,0.00873566,0.0616455,0.00823975,-0.0554657,-0.0109482,-0.0430298,0.0337219
15,8,10.0097,0.0012207,0.000305176,-2.42684,0.0569017,-0.075063,0.0510762,0.0279405,-0.0968086,0.146234,-0.127598,-0.0834859,0.00709534,0.000724792,0.0170517,0.0124741,0.0619888,-0.00995636,0.0885773,0.0164413,-9.97986,0.00259399,0.00736237,0.0436783,0.02491,-0.0620651,-0.015564,-0.0408936,0.0315094
15,9,3.55611,-0.000610352,-0.00213623,-2.42714,0.0562914,-0.075063,0.0513814,-0.0190565,-0.101386,0.145624,-0.130344,-0.0834859,0.00518799,0.00350952,0.0246811,0.0112915,0.0624847,-0.0161362,0.0884247,0.0159454,-9.97986,-0.00320435,0.00431061,0.0402832,0.0452423,-0.067749,-0.0194168,-0.0432587,0.0278473
16,0,-4.29912,-0.000305176,-0.00320435,-2.42623,0.0575121,-0.0744527,0.0516866,-0.0184462,-0.0980293,0.14776,-0.130649,-0.0819601,0.00858307,0.0131989,0.028801,0.0037384,0.0595474,-0.0143051,0.0890732,0.00980377,-9.97986,-0.00518799,0.0102234,0.0233459,0.0589752,-0.0683975,-0.0263977,-0.0456619,0.0247574
16,1,-9.99003,0.000915527,-0.00305176,-2.42287,0.055681,-0.0738423,0.0556539,0.000169553,-0.0928413,0.147455,-0.128818,-0.080129,0.00667572,0.0313568,0.0304031,0.000305176,0.0650787,-0.0154877,0.101395,0.0119781,-9.97986,-0.00442505,0.00984192,0.0112915,0.0697708,-0.0732803,-0.0204468,-0.0397491,0.0283432
16,2,-9.99003,-0.000305176,-0.00167847,-2.42348,0.0562914,-0.0735371,0.0568746,0.0358751,-0.0910102,0.145929,-0.127598,-0.0804342,0.00556946,0.0312424,0.0333405,-0.00396729,0.0559616,-0.0162888,0.0973892,0.0062561,-9.97986,-0.00377655,0.00785828,0.00606537,0.0790405,-0.103378,-0.0244522,-0.0345993,0.031395
16,3,-9.99003,0.000915527,0.000152588,-2.4247,0.0562914,-0.0753682,0.055959,0.0566271,-0.0903999,0.147455,-0.126682,-0.0813497,-0.000572205,0.0384521,0.0334549,-0.00839233,0.0510406,-0.0162125,0.0931931,0.00160217,-9.97986,0.00144958,0.00904083,-0.00263214,0.0876236,-0.102119,-0.0378418,-0.0269699,0.0361252
16,4,-9.99003,0.000305176,0.000610352,-2.42653,0.055681,-0.0744527,0.054128,0.0621202,-0.0910102,0.145013,-0.126072,-0.0831808,0.0056839,0.0369263,0.0328827,0.00663757,0.0447083,-0.0103378,0.0959778,0.00549316,-9.97986,0.00427246,0.0094986,-0.0140381,0.102386,-0.103874,-0.0407791,-0.0213242,0.0428391
16,5,-9.99003,-0.00152588,0.00228882,-2.42592,0.0541551,-0.0753682,0.0556539,0.0880602,-0.0885688,0.145929,-0.124851,-0.0825704,0.00202179,0.0348282,0.0266266,0.0214005,0.0395203,-0.00854492,0.0840759,0.00293732,-9.97986,0.00736237,0.00137329,-0.0226974,0.108948,-0.0827789,-0.0327301,-0.0124741,0.0460815
16,6,-4.77946,-0.00152588,0.0050354,-2.42714,0.0553758,-0.0756734,0.0556539,0.137499,-0.0879585,0.144098,-0.123325,-0.0834859,0.00400543,0.013237,0.0183487,0.0138092,0.0255966,-0.0130844,0.0737381,-0.00389099,-9.97986,0.00305176,-0.00522614,-0.0309753,0.118942,-0.0854492,-0.0322723,-0.00434875,0.0482178
16,7,2.73152,-0.0012207,0.00610352,-2.42806,0.0535448,-0.0768941,0.0535176,0.153368,-0.0885688,0.141656,-0.120884,-0.0847066,0.00461578,-0.0246429,0.0202942,0.00957489,0.0232315,0.000457764,0.0716782,-0.00213623,-9.97986,0.00377655,-0.00511169,-0.041275,0.129204,-0.0843048,-0.0321198,0.00148773,0.0484085
16,8,9.70967,0.0012207,0.00473022,-2.42867,0.0550706,-0.0765889,0.0529073,0.157335,-0.0864326,0.143487,-0.120884,-0.0850118,0.00110626,-0.0314713,0.0273514,0.00476837,0.0181961,0.00530243,0.0724792,-0.00576019,-9.97986,0.00141144,-0.00377655,-0.0510788,0.128632,-0.089035,-0.0167084,0.0124359,0.0443268
16,9,10.0097,0.000915527,0.00289917,-2.43172,0.0535448,-0.0759786,0.0504659,0.106981,-0.0983344,0.143182,-0.125461,-0.0892843,0.0087738,-0.0141525,0.0327301,0.0102615,0.0162888,0.00869751,0.066185,-0.00804901,-9.97986,-0.00339508,0.00125885,-0.0588608,0.14061,-0.0919342,-0.00442505,0.0210571,0.0458908
17,0,10.0097,-0.000610352,0.00152588,-2.42898,0.0535448,-0.0765889,0.0510762,0.0853136,-0.0965034,0.142877,-0.126377,-0.0883688,0.00915527,-0.00190735,0.0390625,0.00743866,0.0197983,0.0127029,0.0676727,0.00564575,-9.97986,-0.00408173,0.00659943,-0.0640106,0.14698,-0.092926,0.0124359,0.0272751,0.0395584
17,1,10.0097,0.000610352,0.000915527,-2.42959,0.0547655,-0.075063,0.0519917,0.0764635,-0.0946723,0.143182,-0.127292,-0.0865377,0.00865936,0.00865936,0.0550842,-0.00587463,0.0167084,0.0146484,0.0695801,0.00556946,-9.97986,0.000686646,0.00720978,-0.0760651,0.155067,-0.0961304,0.0154877,0.0339127,0.0283813
17,2,10.0097,0.000305176,0.00106812,-2.42806,0.0541551,-0.0753682,0.0526021,0.0731066,-0.094062,0.143487,-0.126682,-0.0847066,0.000648499,0.00423431,0.0549698,-0.0157547,0.0148392,0.0217819,0.071907,0.0152969,-9.97986,-0.00617981,0.00312805,-0.0859833,0.159607,-0.0967026,0.0172043,0.0470734,0.0252151
17,3,10.0097,-0.000305176,0.000915527,-2.42653,0.0550706,-0.075063,0.0522969,0.0718859,-0.0934516,0.145929,-0.126377,-0.0850118,0.00385284,0.00858307,0.057869,-0.0175858,0.0121307,0.0278473,0.0696564,0.016098,-9.97986,-0.0121689,0.00385284,-0.109863,0.169601,-0.0943375,0.0166702,0.0553894,0.021553
17,4,10.0097,0.000305176,0.000762939,-2.42714,0.0547655,-0.0738423,0.0519917,0.0715807,-0.094062,0.145013,-0.125766,-0.0840963,0.0114441,0.0162125,0.0666809,-0.0257492,0.0088501,0.030632,0.0674057,0.0135422,-9.97986,-0.0208664,-0.00160217,-0.133667,0.17334,-0.0994492,0.0195694,0.0598145,0.0234222
17,5,10.0097,0,0.0012207,-2.42592,0.0550706,-0.0729268,0.0547383,0.0709703,-0.0922309,0.145929,-0.124851,-0.0828756,0.00946045,0.0380325,0.0569534,-0.0431824,0.00263214,0.0319672,0.0615311,0.018692,-9.97986,-0.0177002,-0.00644684,-0.140724,0.185242,-0.104485,0.00972748,0.0621033,0.02285
17,6,10.0097,0.00152588,0.0012207,-2.4244,0.0532396,-0.0747579,0.0556539,0.072191,-0.0922309,0.146234,-0.125156,-0.0816549,0.00720978,0.0567627,0.0391769,-0.0128555,0.00282288,0.0350571,0.0590134,0.0321198,-9.97986,-0.0121307,-0.00331879,-0.143051,0.194016,-0.104027,0.000686646,0.0725937,0.0259399
17,7,10.0097,-0.00213623,0.000915527,-2.42348,0.0547655,-0.073232,0.0547383,0.0718859,-0.0873481,0.146844,-0.124241,-0.0810445,0.00854492,0.0399399,0.0325775,0.0239944,0.000686646,0.0449371,0.0617599,0.0287628,-9.97986,-0.0105286,0.00583649,-0.151443,0.198555,-0.0988388,-0.00930786,0.0777817,0.0286865
17,8,10.0097,0,-0.0012207,-2.42806,0.0562914,-0.0744527,0.0526021,0.0291613,-0.0980293,0.146539,-0.127903,-0.0834859,0.0105667,0.0525665,0.0299454,0.00965118,-0.00713348,0.047493,0.0536346,0.0243759,-9.97986,-0.00610352,0.0118637,-0.154381,0.206223,-0.0975418,-0.0154495,0.080986,0.0276566
17,9,3.64034,0.000610352,-0.0038147,-2.42623,0.0572069,-0.0738423,0.050771,-0.0190565,-0.101081,0.146844,-0.130954,-0.0840963,0.00980377,0.0937271,0.038414,0.00797272,-0.0121307,0.0481415,0.0580215,0.0250626,-9.97986,-0.00335693,0.00926971,-0.16552,0.203171,-0.0932693,-0.0120163,0.0833893,0.0271225
18,0,-4.30003,0.000610352,-0.00411987,-2.42562,0.055681,-0.0747579,0.054128,-0.018141,-0.0989448,0.147149,-0.130649,-0.0819601,0.00823975,0.0882339,0.0551224,0.0326157,-0.0148392,0.0574112,0.0507736,0.0215149,-9.97986,-0.00427246,0.00915527,-0.168648,0.204048,-0.0904846,-0.00675201,0.0944901,0.0289917
18,1,-9.99003,0.000305176,-0.00427246,-2.42348,0.0569017,-0.0738423,0.0556539,-0.000135623,-0.0934516,0.148675,-0.128513,-0.0813497,0.00862122,0.0827026,0.0576019,0.0482178,-0.0150681,0.0607681,0.0490189,0.022316,-9.97986,-0.00144958,-0.00205994,-0.170021,0.197868,-0.0813675,-0.00286102,0.0901413,0.0283813
18,2,-9.99003,0.00244141,-0.00228882,-2.42562,0.055681,-0.073232,0.0571797,0.0358751,-0.0900947,0.146234,-0.126377,-0.0813497,0.00930786,0.0670242,0.0609207,0.0475311,-0.0196838,0.0587082,0.0477219,0.0229263,-9.97986,0.00213623,-0.0159454,-0.173302,0.19207,-0.0997543,-0.00171661,0.0930786,0.0270844
18,3,-9.99003,-0.000915527,-0.00183105,-2.42501,0.0553758,-0.0738423,0.0547383,0.0557115,-0.0910102,0.143182,-0.125766,-0.0831808,0.00621796,0.0279617,0.0577545,0.0460434,-0.0300598,0.0637817,0.0433731,0.0195694,-9.97986,0.0088501,-0.0200653,-0.18074,0.177383,-0.0884247,-0.00183105,0.0848007,0.0305939
18,4,-9.99003,-0.0012207,-0.000762939,-2.42684,0.0562914,-0.0756734,0.0535176,0.0630358,-0.0903999,0.146844,-0.126987,-0.0837911,0.00591278,0.0476837,0.0506973,0.0018692,-0.0314713,0.0676727,0.0434494,0.00968933,-9.97986,0.0144958,-0.0215149,-0.187531,0.16613,-0.0774384,-0.00102997,0.0926971,0.0274658
18,5,-9.99003,0.00152588,-0.000152588,-2.42531,0.0572069,-0.0744527,0.0550435,0.0911119,-0.0885688,0.145624,-0.123935,-0.0828756,0.0133896,0.076828,0.0537109,-0.0482941,-0.0401306,0.0652695,0.0366211,0.00213623,-9.97986,0.0132751,-0.00125885,-0.191956,0.151863,-0.0499725,-0.000724792,0.0968552,0.0280762
18,6,-4.62413,0.000610352,0.00228882,-2.42776,0.0541551,-0.0762837,0.0544332,0.137193,-0.0894843,0.143487,-0.122715,-0.0850118,0.0114441,0.0517654,0.0546265,-0.0529099,-0.0389481,0.0690079,0.0376892,-0.00648499,-9.97986,0.0185013,0.0161743,-0.18856,0.133095,-0.0444031,-0.00602722,0.099144,0.0245667
18,7,2.71565,0.00152588,0.00305176,-2.42714,0.0547655,-0.0747579,0.0547383,0.153368,-0.0882636,0.143182,-0.121189,-0.0856222,0.00934601,0.0088501,0.039711,-0.0520706,-0.0421906,0.0615692,0.03685,-0.00408173,-9.97986,0.0263596,0.023613,-0.184975,0.116539,-0.0426102,-0.00408173,0.101624,0.0247192
18,8,9.91078,0.0012207,0.00259399,-2.42776,0.0517137,-0.0762837,0.0532125,0.156725,-0.0891792,0.141961,-0.121189,-0.0865377,0.0127792,-0.0230789,0.0337219,-0.0255966,-0.0452042,0.0654984,0.0298309,0.00858307,-9.97986,0.0252914,0.0292206,-0.179367,0.0935745,-0.0349808,-0.00732422,0.0999069,0.0249863
18,9,10.0097,0.000305176,0,-2.43325,0.0526292,-0.0768941,0.0510762,0.106066,-0.0980293,0.143182,-0.125766,-0.0886739,0.0124359,-0.0130463,0.033989,0.0588608,-0.054245,0.0676727,0.0283813,0.0169373,-9.97986,0.0279999,0.0200653,-0.177498,0.0721359,-0.0318527,-0.00362396,0.097084,0.0230408
19,0,10.0097,-0.000305176,-0.00198364,-2.42959,0.0541551,-0.0768941,0.0495503,0.0831774,-0.0971137,0.142267,-0.126987,-0.0901998,0.00621796,-0.00549316,0.0312805,0.102196,-0.0570679,0.0775146,0.0172806,0.0212479,-9.97986,0.0314331,-0.00389099,-0.167542,0.0473404,-0.0286865,-3.8147e-005,0.100136,0.0203323
19,1,10.0097,-0.000610352,-0.00244141,-2.42867,0.0550706,-0.0759786,0.0516866,0.075548,-0.095893,0.142572,-0.126987,-0.0865377,0.00358582,-0.0288391,0.0218582,0.0967789,-0.0609589,0.0750351,0.0188446,0.0304413,-9.97986,0.0369644,-0.00972748,-0.160332,0.0259781,-0.0262833,-0.00396729,0.1017,0.0191879
19,2,10.0097,0.000915527,-0.00213623,-2.42837,0.0538499,-0.0756734,0.0526021,0.0728014,-0.094062,0.145013,-0.125766,-0.0859274,0.00530243,-0.0476074,0.00156403,0.0630188,-0.0574493,0.0773621,0.0155258,0.0310898,-9.97986,0.0365067,-0.00995636,-0.154152,0.00274658,-0.0244904,0.000305176,0.102806,0.0146866
19,3,10.0097,-0.000610352,-0.00244141,-2.42714,0.0547655,-0.0756734,0.0519917,0.0724962,-0.094062,0.144098,-0.126377,-0.0862325,0.0082016,-0.0402069,-0.0107956,0.0283813,-0.0568008,0.0753021,0.0133896,0.0289154,-9.97986,0.0337219,-0.0050354,-0.144958,-0.0232697,-0.0186157,0.00289917,0.107193,0.0152969
19,4,10.0097,0.000610352,-0.00289917,-2.42837,0.0550706,-0.0747579,0.0532125,0.0700548,-0.094062,0.145929,-0.125461,-0.0847066,0.00827789,-0.0180817,-0.0156403,0.0177383,-0.0546265,0.0704575,0.00514984,0.0189972,-9.97986,0.030365,-0.000114441,-0.134354,-0.0367355,-0.0063324,0.00228882,0.10582,0.0133514
19,5,10.0097,0.00244141,-0.00198364,-2.42684,0.055681,-0.0747579,0.0547383,0.07036,-0.0910102,0.145624,-0.126682,-0.0834859,0.00717163,-0.00930786,-0.0285721,0.00453949,-0.0513458,0.0643921,0.0104141,0.0123215,-9.97986,0.0235367,0.00236511,-0.130005,-0.0627136,0.00598907,0.00228882,0.103302,0.0128174
19,6,10.0097,-0.000305176,-0.00289917,-2.42592,0.0575121,-0.0738423,0.054128,0.0715807,-0.0900947,0.146234,-0.124546,-0.0822652,0.0106049,-0.00900269,-0.032692,0.00377655,-0.0468826,0.0654602,0.00728607,0.0162506,-9.97986,0.0248718,0.00915527,-0.115204,-0.0925446,0.0182724,0.00141144,0.101204,0.0119781
19,7,10.0097,0.000610352,-0.00289917,-2.42562,0.0578172,-0.0738423,0.0553487,0.0709703,-0.090705,0.146234,-0.124546,-0.0810445,0.00919342,0.00148773,-0.0323868,-0.0172424,-0.0423431,0.0622177,-0.000953674,0.0114441,-9.97986,0.0232315,0.00270844,-0.105896,-0.116463,0.0332642,0.000839233,0.10334,0.00495911
19,8,10.0097,0.00335693,-0.00411987,-2.42592,0.0559862,-0.0741475,0.0529073,0.0267198,-0.0968086,0.145929,-0.128513,-0.0840963,0.00835419,0.00331879,-0.0294113,-0.0572205,-0.0415421,0.0633621,-0.00766754,0.0121307,-9.97986,0.023613,-0.0110626,-0.105782,-0.142899,0.0421906,-0.000534058,0.100212,0.00743866
19,9,3.49599,-0.000305176,-0.00656128,-2.42714,0.0562914,-0.0747579,0.0519917,-0.0175306,-0.0998603,0.146844,-0.130954,-0.0834859,0.0094223,0.01297,-0.0197983,-0.0340271,-0.0352859,0.0650024,-0.00881195,0.00602722,-9.97986,0.0276947,-0.0044632,-0.102081,-0.170784,0.0512695,-0.00087738,0.0993347,0.00179291
20,0,-4.42332,0.000915527,-0.00793457,-2.4244,0.0559862,-0.0735371,0.0544332,-0.0175306,-0.0971137,0.14776,-0.130344,-0.0825704,0.0137329,0.0244141,-0.0175476,0.0457382,-0.037384,0.0730133,-0.000267029,0.00827789,-9.97986,0.027771,-0.00240326,-0.101051,-0.210991,0.0608826,0.00255585,0.0940323,-0.000572205
20,1,-9.99003,0.000610352,-0.00808716,-2.4247,0.0569017,-0.0738423,0.0544332,0.000474729,-0.0928413,0.146234,-0.128208,-0.0831808,0.0075531,0.02388,-0.0115585,0.0572205,-0.0291824,0.0781631,0.00564575,0.0152206,-9.97986,0.025177,-0.00301361,-0.0975037,-0.249138,0.0697327,0.00312805,0.0918198,-0.00167847
20,2,-9.99003,0.00152588,-0.00549316,-2.42409,0.055681,-0.0741475,0.0562642,0.0364855,-0.0903999,0.146539,-0.126072,-0.0813497,0.00812531,0.0254059,-0.00926971,0.0333786,-0.0261307,0.0838089,0.00717163,0.0238419,-9.97986,0.0242996,-0.00183105,-0.100479,-0.275192,0.0506592,0.00537872,0.0878525,-0.00156403
20,3,-9.99003,0.00366211,-0.00274658,-2.4244,0.0559862,-0.0747579,0.0562642,0.054796,-0.0903999,0.146539,-0.126072,-0.0822652,0.00793457,0.0237274,-0.00331879,0.0378036,-0.0266266,0.0853729,0.00202179,0.0271988,-9.97986,0.0256348,0.00232697,-0.0975037,-0.295792,0.0522232,0.0038147,0.077858,-0.00556946
20,4,-9.99003,-0.000305176,-0.00228882,-2.42592,0.0553758,-0.0747579,0.054128,0.0636461,-0.0922309,0.145624,-0.125461,-0.0840963,0.00545502,0.0246048,0.00293732,0.0554276,-0.0152206,0.0893784,-0.00759125,0.0294876,-9.97986,0.0244904,0.0100327,-0.0948715,-0.316277,0.0624466,0.00812531,0.073967,-0.0102234
20,5,-9.99003,0.000305176,-0.000610352,-2.42501,0.0553758,-0.075063,0.0556539,0.0889757,-0.0894843,0.145013,-0.12363,-0.0831808,0.00640869,0.0188446,0.0050354,0.0683212,-0.016861,0.0878143,-0.0181961,0.0310135,-9.97986,0.0257874,0.0118256,-0.0954056,-0.330124,0.0958633,0.00671387,0.0639343,-0.00934601
20,6,-4.68516,0.000305176,0.00274658,-2.42653,0.0529344,-0.075063,0.0544332,0.136583,-0.0870429,0.143792,-0.122715,-0.085317,0.00671387,0.0145721,0.010643,0.0637054,-0.0106049,0.0908661,-0.0158691,0.0353241,-9.97986,0.0296402,0.0144577,-0.0970078,-0.336418,0.0985336,0.00259399,0.0529861,-0.0167847
20,7,2.61251,0.00183105,0.00320435,-2.42745,0.0541551,-0.0762837,0.054128,0.152147,-0.088874,0.145624,-0.121799,-0.085317,0.0037384,0.0182343,0.0225449,0.0493622,-0.00881195,0.0870514,-0.00946045,0.0316238,-9.97986,0.0275421,0.0128174,-0.0944901,-0.342255,0.105858,-0.00267029,0.0462341,-0.0156021
20,8,9.81221,0.000610352,0.0038147,-2.42776,0.0535448,-0.0756734,0.0538228,0.15703,-0.0900947,0.143487,-0.119968,-0.0850118,0.00907898,0.0232697,0.0296783,0.0222778,-0.00347137,0.0806427,0.00549316,0.0392532,-9.97986,0.0243759,0.0172043,-0.0906754,-0.340309,0.11364,-0.00404358,0.031929,-0.0179291
20,9,10.0097,0.000610352,0.00228882,-2.43172,0.0532396,-0.0762837,0.0495503,0.10515,-0.0980293,0.142267,-0.125766,-0.0886739,0.00778198,0.0234604,0.0308228,-0.0299072,0.00862122,0.0784683,0.00911713,0.0391388,-9.97986,0.021553,0.0208664,-0.089798,-0.329094,0.12188,0.00343323,0.0241852,-0.0340652
21,0,10.0097,-0.000915527,0.00198364,-2.43081,0.0535448,-0.0759786,0.0510762,0.0856188,-0.0968086,0.143792,-0.126682,-0.0874532,0.00331879,0.0244522,0.0315857,-0.063591,0.00930786,0.0699997,0.00682831,0.0386047,-9.97986,0.0182724,0.0156021,-0.0942993,-0.312729,0.122528,0.00679016,0.0110626,-0.0445557
21,1,10.0097,-0.000915527,0.00274658,-2.42837,0.0550706,-0.0759786,0.0519917,0.0752428,-0.0955879,0.143182,-0.126682,-0.0871481,0.00991821,0.0294876,0.038147,-0.0719833,0.0164032,0.0572586,0.0018692,0.0385666,-9.97986,0.0106049,0.0170135,-0.0930786,-0.27668,0.126953,0.0143051,0.00343323,-0.0415039
21,2,10.0097,-0.000305176,0.00183105,-2.42898,0.055681,-0.0753682,0.0526021,0.0728014,-0.094062,0.143182,-0.125766,-0.0850118,0.00774384,0.0234985,0.0367737,-0.0986481,0.0230789,0.0502396,-0.0087738,0.0312042,-9.97986,0.00801086,0.00175476,-0.0904083,-0.255051,0.1297,0.0160217,-0.00789642,-0.0444031
21,3,10.0097,0.0012207,0.00167847,-2.42806,0.0544603,-0.075063,0.0529073,0.0718859,-0.0931465,0.145013,-0.125766,-0.0844015,0.00709534,0.0175476,0.0402451,-0.130157,0.030098,0.0475693,-0.0162506,0.0252151,-9.97986,0.00980377,-0.00991821,-0.0963211,-0.237465,0.133934,0.0214005,-0.019455,-0.0380325
21,4,10.0097,-0.0012207,0.00167847,-2.42653,0.0562914,-0.0747579,0.0535176,0.0706652,-0.0937568,0.145624,-0.125156,-0.0837911,0.00671387,0.0197601,0.0391769,-0.119553,0.0368118,0.0426102,-0.0223541,0.019722,-9.97986,0.0108337,-0.00835419,-0.101089,-0.219688,0.131683,0.022049,-0.0316238,-0.0328827
21,5,10.0097,0.000610352,0.000915527,-2.42653,0.0544603,-0.0744527,0.0535176,0.0697496,-0.0925361,0.145624,-0.124546,-0.0831808,0.0114441,0.0272369,0.0400162,-0.0690079,0.0445557,0.0389481,-0.0236511,0.0162506,-9.97986,0.00900269,0.00125885,-0.0930023,-0.217819,0.133743,0.0105286,-0.0394058,-0.0264359
21,6,10.0097,0.00183105,0.000152588,-2.4247,0.0559862,-0.0738423,0.0550435,0.0709703,-0.0913154,0.146844,-0.124546,-0.0819601,0.0144577,0.0347137,0.0359344,-0.0366211,0.051384,0.0319672,-0.010376,0.0281525,-9.97986,0.00854492,0.00915527,-0.0933456,-0.234528,0.132904,-0.0025177,-0.0498199,-0.0181198
21,7,10.0097,0.000610352,-0.000457764,-2.42684,0.0553758,-0.0738423,0.0550435,0.0718859,-0.0922309,0.14776,-0.124546,-0.0804342,0.00839233,0.042305,0.0318527,-0.0240326,0.0557327,0.0256348,-0.00701904,0.0479507,-9.97986,0.0119019,0.00934601,-0.0989151,-0.2351,0.13176,-0.00545502,-0.0571823,-0.0101852
21,8,10.0097,-0.00274658,-0.00167847,-2.42653,0.0565965,-0.075063,0.0522969,0.0279405,-0.0983344,0.145624,-0.127292,-0.0825704,0.00743866,0.0373459,0.0233841,0.0429153,0.0507355,0.0210571,-0.00694275,0.0567245,-9.97986,0.0128937,0.0121307,-0.0990295,-0.236511,0.134201,-0.00232697,-0.068779,-0.00671387
21,9,3.5558,0.00213623,-0.0038147,-2.42776,0.0565965,-0.0735371,0.0519917,-0.0175306,-0.100165,0.145013,-0.129734,-0.0837911,0.0102234,0.0492477,0.0239182,0.137787,0.0599289,0.0245285,-0.00591278,0.0625229,-9.97986,0.00644684,0.0214386,-0.0967407,-0.231323,0.129128,0.00648499,-0.0721741,-0.0146484
22,0,-4.38212,0.0012207,-0.00427246,-2.42562,0.0559862,-0.0741475,0.0532125,-0.0187513,-0.0971137,0.146539,-0.130954,-0.0825704,0.0152588,0.0517273,0.0204468,0.188103,0.0609207,0.0276184,-0.00324249,0.0586319,-9.97986,0.00759125,0.014801,-0.0948715,-0.218658,0.133934,0.00152588,-0.0772858,-0.0277328
22,1,-9.99003,0.000915527,-0.00366211,-2.42287,0.0565965,-0.073232,0.0553487,0.00230578,-0.0931465,0.146539,-0.128513,-0.080129,0.01194,0.0402832,0.0297165,0.174065,0.0673676,0.0224304,-0.000152588,0.0628281,-9.97986,0.00263214,0.00652313,-0.0902176,-0.213966,0.131874,0.0102234,-0.0828552,-0.0380707
22,2,-9.99003,0.00183105,-0.00152588,-2.4244,0.0550706,-0.0726216,0.0565694,0.0361803,-0.0913154,0.145929,-0.126987,-0.0810445,0.0158691,0.037384,0.0382233,0.12249,0.0667191,0.0189972,0.00682831,0.0645828,-9.97986,-0.0012207,0.0111771,-0.0821304,-0.205269,0.112305,0.0170135,-0.0781631,-0.0461578
22,3,-9.99003,0.00213623,0.00152588,-2.42623,0.055681,-0.0744527,0.0553487,0.0569322,-0.0903999,0.144708,-0.126377,-0.0810445,0.0154495,0.0429153,0.0556183,0.0745392,0.0701141,0.0132751,0.0111389,0.0515366,-9.97986,0.000953674,0.00995636,-0.0699234,-0.185623,0.114822,0.0158691,-0.0719833,-0.0443268
22,4,-9.99003,-0.000305176,0.00289917,-2.42592,0.0538499,-0.0747579,0.0556539,0.0624254,-0.0919257,0.145318,-0.125766,-0.0822652,0.0030899,0.0468826,0.0753403,0.0534821,0.0646973,0.00461578,0.014801,0.0468826,-9.97986,0.00102997,0.00499725,-0.057373,-0.150681,0.110779,0.00732422,-0.0752258,-0.0507355
22,5,-9.99003,0,0.00396729,-2.42714,0.0553758,-0.0744527,0.0553487,0.0908068,-0.0882636,0.145929,-0.123935,-0.0819601,0.00377655,0.0584412,0.086174,0.0492859,0.0615311,-0.0030899,0.0225067,0.0404739,-9.97986,-0.000343323,0.00492096,-0.0440979,-0.123444,0.127449,0.00930786,-0.0783157,-0.0505447
22,6,-4.59208,0.000610352,0.00610352,-2.42745,0.0535448,-0.0753682,0.0550435,0.135973,-0.0876533,0.144403,-0.12363,-0.0844015,0.0050354,0.0650787,0.083313,0.0399399,0.0621796,-0.00236511,0.030098,0.0229645,-9.97986,0.000152588,0.00255585,-0.0310898,-0.111198,0.129051,0.00347137,-0.0792694,-0.0508881
22,7,2.70955,0.00244141,0.00610352,-2.42776,0.0547655,-0.0762837,0.054128,0.154588,-0.0876533,0.142877,-0.121799,-0.0850118,0.00614166,0.0772095,0.0819397,0.0291061,0.0636292,-0.000801086,0.0357437,-0.00156403,-9.97986,-0.00205994,-0.00358582,-0.00705719,-0.0986862,0.123596,0.00507355,-0.0774002,-0.0536346
22,8,9.89644,0.000305176,0.00518799,-2.42837,0.0535448,-0.0747579,0.0526021,0.15703,-0.088874,0.145318,-0.121494,-0.0840963,0.0137329,0.0960541,0.0752258,0.0567245,0.0645065,0.000991821,0.043869,-0.0298309,-9.97986,-0.00850677,-0.00473022,0.0375366,-0.0863266,0.121994,0.00415802,-0.0767517,-0.0559998
22,9,10.0097,-0.000305176,0.00320435,-2.43111,0.0526292,-0.0768941,0.0504659,0.106066,-0.0974189,0.143487,-0.126072,-0.0886739,0.0187302,0.136261,0.0804138,0.106812,0.0606918,0.00415802,0.0489426,-0.0419617,-9.97986,-0.00530243,-0.000724792,0.0561142,-0.0721741,0.118179,-0.000419617,-0.0800705,-0.0618744
23,0,10.0097,-0.000610352,0.00183105,-2.4305,0.055681,-0.0771993,0.0513814,0.0837877,-0.0971137,0.142572,-0.126377,-0.0892843,0.013504,0.157738,0.0691986,0.101814,0.0630569,0.000915527,0.058136,-0.0449753,-9.97986,7.62939e-005,-0.00587463,0.0576782,-0.0567245,0.120583,0.00385284,-0.079422,-0.0639725
23,1,10.0097,0,0.00198364,-2.42867,0.0547655,-0.075063,0.0522969,0.0761583,-0.0946723,0.142267,-0.126987,-0.0862325,0.0156784,0.0782776,0.041008,0.0627899,0.0561142,0.001297,0.0675583,-0.0315857,-9.97986,0.0117493,-0.00362396,0.0793839,-0.0299835,0.12085,0.00930786,-0.067482,-0.0596237
23,2,10.0097,-0.000305176,0.00305176,-2.42867,0.0541551,-0.075063,0.0532125,0.0731066,-0.0949775,0.141656,-0.125766,-0.0844015,0.0125122,-0.0330734,0.00644684,0.0531387,0.0542068,-0.00343323,0.0723267,-0.0199127,-9.97986,0.018158,-0.00766754,0.104752,0.0159073,0.121384,0.00999451,-0.0535202,-0.0629044
23,3,10.0097,0.000305176,0.00442505,-2.42623,0.0553758,-0.0756734,0.0553487,0.072191,-0.0934516,0.144098,-0.126072,-0.0831808,0.00831604,-0.0837326,-0.026474,0.04673,0.0521088,-0.00370026,0.0714493,-0.0124359,-9.97986,0.0231552,-0.00572205,0.139084,0.0551987,0.113678,0.0139618,-0.0477219,-0.0618744
23,4,10.0097,0.000610352,0.0038147,-2.42684,0.0547655,-0.0753682,0.0538228,0.07036,-0.0928413,0.145013,-0.124241,-0.0834859,0.014534,-0.069046,-0.0294876,0.0418472,0.0489426,-0.00617981,0.0691223,-0.0056076,-9.97986,0.030098,-0.000991821,0.167236,0.0887299,0.116081,0.0125504,-0.0491333,-0.0566864
23,5,10.0097,0.000610352,0.00335693,-2.42592,0.0559862,-0.0735371,0.0538228,0.0712755,-0.0916206,0.147149,-0.124851,-0.0825704,0.00938416,-0.0523758,-0.0223541,0.0279236,0.0422668,-0.0147247,0.0629044,0.00637054,-9.97986,0.0271225,0.00419617,0.162544,0.124741,0.117416,0.00370026,-0.0432587,-0.0521851
23,6,10.0097,-0.000610352,0.00427246,-2.4244,0.0565965,-0.0735371,0.0550435,0.0706652,-0.0916206,0.147149,-0.125156,-0.0807394,0.0135422,-0.0559998,-0.0346756,0.0108337,0.038681,-0.0218201,0.0606918,0.0196075,-9.97986,0.0291443,-0.000839233,0.163116,0.166969,0.114479,-0.00545502,-0.043869,-0.0535202
23,7,10.0097,0.000610352,0.00350952,-2.42531,0.0562914,-0.0729268,0.0550435,0.0715807,-0.090705,0.147455,-0.12363,-0.080129,0.0149536,-0.0579453,-0.0474548,-0.00160217,0.0418854,-0.0323486,0.0562668,0.0380707,-9.97986,0.0241852,-0.000953674,0.172882,0.198097,0.111122,-0.00766754,-0.0381088,-0.0546265
23,8,10.0097,0.00183105,0.00198364,-2.42714,0.0559862,-0.0744527,0.0519917,0.0291613,-0.0980293,0.146539,-0.126682,-0.0822652,0.0120163,-0.0463867,-0.0365448,0.00480652,0.0455475,-0.0353622,0.0566483,0.0355148,-9.97986,0.0211334,-0.00312805,0.189095,0.23983,0.113831,-0.0088501,-0.0266647,-0.0548553
23,9,3.54848,0.00274658,0.000457764,-2.42623,0.055681,-0.073232,0.0526021,-0.0184462,-0.100776,0.145318,-0.130039,-0.0813497,0.0172424,-0.0259399,-0.0435638,-0.00328064,0.0391769,-0.0308228,0.0650024,0.0343323,-9.97986,0.0174332,-0.00598907,0.211487,0.289497,0.104752,-0.0094986,-0.0281906,-0.0533676
24,0,-4.36351,-0.000305176,-0.000305176,-2.42653,0.0569017,-0.0747579,0.0544332,-0.018141,-0.0974189,0.147455,-0.130649,-0.0810445,0.018158,-0.00579834,-0.043869,-0.0245285,0.0445557,-0.0363541,0.0639725,0.0296783,-9.97986,0.0177383,-0.00377655,0.244331,0.332642,0.100212,-0.00751495,-0.0274658,-0.0497818
24,1,-9.99003,0.000610352,0.000305176,-2.42318,0.0572069,-0.0738423,0.0562642,0.00322131,-0.0928413,0.148065,-0.128513,-0.0795187,0.018692,0.00366211,-0.0404358,-0.0424194,0.0429916,-0.039711,0.065918,0.0292969,-9.97986,0.0136948,-0.00907898,0.256538,0.385323,0.0977325,-0.00621796,-0.0187683,-0.0440979
24,2,-9.99003,0.0012207,0.00259399,-2.4247,0.0565965,-0.073232,0.0562642,0.0377062,-0.0900947,0.145624,-0.126682,-0.080129,0.0157547,0.0201035,-0.0432968,-0.0542068,0.0458527,-0.0494003,0.0576782,0.032692,-9.97986,0.0125122,-0.0063324,0.245972,0.439606,0.0734329,-0.00419617,-0.0175858,-0.0359344
24,3,-9.99003,0.00183105,0.0038147,-2.42653,0.0565965,-0.0744527,0.0550435,0.0554064,-0.0910102,0.145929,-0.126072,-0.0810445,0.019455,0.0192261,-0.0372696,-0.0893784,0.051384,-0.0465775,0.0517273,0.0425339,-9.97986,0.0094986,-0.00366211,0.249329,0.48317,0.0671005,-0.00484467,-0.0196075,-0.0352097
24,4,-9.99003,0.000610352,0.00442505,-2.42653,0.0550706,-0.0753682,0.0553487,0.0630358,-0.0910102,0.145013,-0.126072,-0.0816549,0.0141525,-0.00225067,-0.0283432,-0.0802612,0.0576019,-0.0450897,0.0471115,0.0440598,-9.97986,0.0135803,-0.00835419,0.247841,0.521622,0.0666428,-0.00549316,-0.0170898,-0.0291443
24,5,-9.99003,-0.000610352,0.0050354,-2.42562,0.055681,-0.0753682,0.055959,0.0914171,-0.0894843,0.145318,-0.123935,-0.0810445,0.0185776,-0.0286102,-0.0283051,-0.0305939,0.0650024,-0.0449753,0.0379562,0.0392151,-9.97986,0.0129318,-0.00450134,0.251312,0.562782,0.0862503,-0.00152588,-0.00541687,-0.023613
24,6,-4.48649,0.000915527,0.00808716,-2.42837,0.0541551,-0.0759786,0.0550435,0.136583,-0.0882636,0.143792,-0.12241,-0.0831808,0.019989,-0.0276184,-0.0285339,0.0115585,0.072937,-0.0465012,0.0357437,0.0394821,-9.97986,0.00572205,-0.00473022,0.262833,0.593147,0.0806046,-0.00637054,-0.00286102,-0.0198364
24,7,2.83864,-0.000305176,0.00762939,-2.42745,0.0541551,-0.0762837,0.0538228,0.153673,-0.0891792,0.144708,-0.120884,-0.0840963,0.021019,-0.0153732,-0.0120926,-0.0140762,0.076561,-0.0569534,0.0312805,0.0366592,-9.97986,0.00579834,-0.00984192,0.263939,0.616188,0.0707245,-0.00640869,-0.00411987,-0.016861
24,8,10.0097,0.0012207,0.00762939,-2.42806,0.0547655,-0.0753682,0.0529073,0.156114,-0.0897895,0.144403,-0.121494,-0.085317,0.0220871,-0.00591278,0.0132751,-0.0509262,0.0802994,-0.0693893,0.0292969,0.0292587,-9.97986,0.00648499,-0.00873566,0.272293,0.64785,0.0680161,-0.00797272,-0.00469208,-0.0177765
24,9,10.0097,-0.000610352,0.0050354,-2.43172,0.0535448,-0.0771993,0.0483296,0.103929,-0.0971137,0.142572,-0.125766,-0.0877584,0.015564,-0.000572205,0.032196,-0.098877,0.0761795,-0.0722122,0.0250626,0.0152588,-9.97986,0.0139236,-0.00656128,0.272598,0.670967,0.0624466,-0.00453949,-0.00114441,-0.0123978
25,0,10.0097,0.000610352,0.00305176,-2.43081,0.0535448,-0.0759786,0.0498555,0.0828722,-0.0977241,0.141656,-0.124851,-0.0877584,0.0222015,0.00850677,0.0435257,-0.114174,0.0699997,-0.0820923,0.0200653,0.000267029,-9.97986,0.0112915,-0.00839233,0.270271,0.687752,0.0508881,-0.00797272,-0.00144958,-0.00537872
25,1,10.0097,-0.000305176,0.00137329,-2.42806,0.0538499,-0.0759786,0.0510762,0.0752428,-0.0949775,0.143487,-0.127292,-0.0865377,0.016098,0.0122833,0.0522995,-0.0521469,0.0668335,-0.0895691,0.0150681,-0.0281143,-9.97986,0.0117111,-0.00576019,0.268784,0.704384,0.0488663,-0.00888824,0.00442505,-0.00938416
25,2,10.0097,0,0.00152588,-2.42837,0.0538499,-0.0747579,0.0535176,0.0724962,-0.095893,0.145318,-0.126072,-0.0856222,0.0153351,0.0166321,0.0485611,0.0154114,0.0661469,-0.0956726,0.0131989,-0.0437927,-9.97986,0.00911713,-0.00526428,0.266991,0.7164,0.0397873,-0.00614166,0.00793457,-0.0118256
25,3,10.0097,0,0.000305176,-2.42745,0.0553758,-0.0744527,0.0538228,0.0731066,-0.0955879,0.144403,-0.125461,-0.0837911,0.0125885,0.00961304,0.0429535,0.000801086,0.0577545,-0.0985336,0.011673,-0.0554657,-9.97986,0.0178528,-0.00415802,0.266571,0.713272,0.0343323,-0.00812531,0.00808716,-0.00793457
25,4,10.0097,0.000915527,-0.000457764,-2.42684,0.0553758,-0.0747579,0.0535176,0.0706652,-0.0928413,0.145013,-0.126987,-0.0847066,0.0133133,0.0185013,0.0572205,-0.0293732,0.0485992,-0.0984573,0.0154495,-0.0572205,-9.97986,0.0185394,-0.00843048,0.26741,0.694923,0.0264359,-0.0088501,0.00934601,-0.00240326
25,5,10.0097,0.000915527,-0.00106812,-2.42653,0.0550706,-0.075063,0.0532125,0.0709703,-0.0922309,0.145318,-0.124241,-0.0831808,0.017395,0.0213623,0.0723267,0.013504,0.0445557,-0.103989,0.0126266,-0.0432205,-9.97986,0.0193024,-0.00629425,0.258446,0.674744,0.0244141,-0.00972748,0.0104523,0.00888824
25,6,10.0097,0,-0.00106812,-2.42562,0.0565965,-0.0735371,0.0538228,0.0712755,-0.0919257,0.14837,-0.125461,-0.0822652,0.0152969,0.0354385,0.0896454,0.0724411,0.0510025,-0.106392,0.0142288,-0.0271225,-9.97986,0.018158,-0.00808716,0.244675,0.659218,0.0154495,-0.0111771,0.0138855,0.016861
25,7,10.0097,0.000305176,-0.000152588,-2.42592,0.0562914,-0.0729268,0.0550435,0.0715807,-0.0916206,0.146234,-0.124851,-0.0810445,0.014534,0.0527191,0.104866,0.0633621,0.0639343,-0.105705,0.00804901,0.001297,-9.97986,0.0222397,-0.00686646,0.229263,0.659218,0.0111771,-0.0130463,0.021553,0.0207138
25,8,10.0097,0.0012207,-0.00183105,-2.42684,0.055681,-0.0756734,0.0504659,0.0291613,-0.0974189,0.145624,-0.127292,-0.0834859,0.0145721,0.043602,0.108452,0.0297546,0.0686646,-0.105705,0.00823975,0.0146866,-9.97986,0.0200653,-0.00938416,0.208473,0.658493,0.00720978,-0.0137329,0.02491,0.0257111
25,9,3.54665,0.000610352,-0.00366211,-2.42562,0.0553758,-0.0747579,0.0516866,-0.0184462,-0.101081,0.146234,-0.130954,-0.0831808,0.00930786,0.0316238,0.107346,0.0255203,0.0710297,-0.101471,0.0143814,0.0229645,-9.97986,0.0226974,-0.00953674,0.197716,0.662003,0.00495911,-0.0186157,0.0292587,0.0314331
26,0,-4.44011,-0.000915527,-0.00564575,-2.42562,0.0562914,-0.0738423,0.0522969,-0.0193617,-0.0968086,0.146844,-0.130344,-0.0813497,0.00396729,0.022049,0.0754929,0.0676346,0.0661087,-0.10231,0.015831,0.0220871,-9.97986,0.0267792,-0.015831,0.192223,0.654411,0.0111389,-0.0155258,0.0391388,0.0381088
26,1,-9.99003,0.000305176,-0.00534058,-2.4247,0.0575121,-0.0735371,0.055959,0.00291613,-0.0931465,0.150506,-0.128818,-0.0813497,0.0069809,0.0175858,0.0556564,0.088501,0.0667191,-0.109253,0.0165176,0.0105667,-9.97986,0.0241852,-0.0128174,0.187645,0.64167,0.0267029,-0.0152969,0.0491333,0.0278473
26,2,-9.99003,-0.0012207,-0.00488281,-2.42501,0.0562914,-0.0744527,0.055959,0.0361803,-0.088874,0.145624,-0.126682,-0.0813497,0.00774384,0.0359344,0.0465012,0.0342178,0.0622559,-0.117798,0.0193024,0.00534058,-9.97986,0.0182343,-0.00881195,0.176773,0.607224,0.00240326,-0.01297,0.0545502,0.018425
26,3,-9.99003,0,-0.00335693,-2.42592,0.0550706,-0.0729268,0.0556539,0.0563219,-0.0900947,0.145929,-0.125461,-0.0825704,0.00850677,0.0510788,0.0283813,-0.0221252,0.0514603,-0.12619,0.0193787,0.017128,-9.97986,0.0210571,-0.0157547,0.165215,0.580902,0.00141144,-0.0106812,0.056839,0.01194
26,4,-9.99003,0.000305176,-0.00213623,-2.42653,0.0562914,-0.0747579,0.0538228,0.0608995,-0.0913154,0.144403,-0.126682,-0.0828756,0.00995636,0.0669098,0.00850677,-0.0522995,0.0403976,-0.121613,0.0185776,0.0151062,-9.97986,0.0166702,-0.0185394,0.167923,0.569382,-0.00244141,-0.00953674,0.0564957,0.00911713
26,5,-9.99003,0.00244141,0.000915527,-2.42592,0.0544603,-0.0741475,0.0547383,0.0908068,-0.0885688,0.144708,-0.124546,-0.0822652,0.0119019,0.0756073,-0.00465393,-0.0235748,0.0288391,-0.123177,0.022049,0.0233078,-9.97986,0.0148392,-0.0216675,0.163918,0.565453,0.014534,-0.00263214,0.0514221,0.0120544
26,6,-4.5225,0.00152588,0.00442505,-2.42776,0.0544603,-0.0762837,0.0538228,0.134447,-0.0882636,0.142877,-0.121799,-0.0837911,0.0132751,0.0580215,-0.0257874,0.041008,0.0210571,-0.126038,0.0260162,0.0403214,-9.97986,0.0144196,-0.0333023,0.162201,0.575027,0.00816345,-0.00766754,0.0472641,0.00564575
26,7,2.85939,0.000610352,0.00640869,-2.42806,0.0532396,-0.0759786,0.0538228,0.153063,-0.0879585,0.145013,-0.121189,-0.0847066,0.0131989,0.0604248,-0.0283813,0.0541306,0.017395,-0.114365,0.0248718,0.0606155,-9.97986,0.0123215,-0.0214386,0.166092,0.594139,0.00682831,-0.00274658,0.0437927,-0.00469208
26,8,10.0097,0.00274658,0.00549316,-2.42837,0.0538499,-0.0753682,0.0553487,0.157335,-0.0900947,0.145013,-0.121189,-0.0847066,0.0138092,0.0699997,-0.00831604,0.0471878,0.0139999,-0.107079,0.0230789,0.0819397,-9.97986,0.0109863,-0.0141907,0.149536,0.610542,0.00537872,-0.00717163,0.0409698,-0.00465393
26,9,10.0097,0.000610352,0.00213623,-2.43203,0.0535448,-0.0768941,0.04894,0.103319,-0.0986396,0.142877,-0.125156,-0.0889791,0.0123596,0.077858,0.0206375,0.0307846,0.0279236,-0.10601,0.0247192,0.0752258,-9.97986,0.00850677,-0.00663757,0.13504,0.602226,0.0138855,-0.0104904,0.0436401,-0.00812531
27,0,10.0097,-0.0012207,-0.000152588,-2.4302,0.0538499,-0.0756734,0.0495503,0.0834825,-0.0977241,0.145318,-0.126682,-0.0889791,0.0130463,0.10952,0.0370026,0.0319672,0.032692,-0.110741,0.0276947,0.0717926,-9.97986,0.00522614,-0.00270844,0.141144,0.581703,0.0143814,-0.0100327,0.0440979,-0.00617981
27,1,10.0097,0,-0.00137329,-2.42837,0.0544603,-0.0762837,0.0529073,0.0761583,-0.0961982,0.145013,-0.128208,-0.0865377,0.0161743,0.149803,0.0534439,0.0593185,0.0307083,-0.112457,0.0344086,0.0810242,-9.97986,0.00915527,0.00236511,0.148201,0.571098,0.0212479,-0.00705719,0.0447845,0.00152588
27,2,10.0097,0.000305176,-0.00274658,-2.42837,0.0550706,-0.0762837,0.0519917,0.0718859,-0.0946723,0.145318,-0.126377,-0.0862325,0.00640869,0.168266,0.0358963,0.0598145,0.0241852,-0.118523,0.0239182,0.0605011,-9.97986,0.00747681,-0.00564575,0.119705,0.556412,0.00774384,-0.0192642,0.0285339,0.0019455
27,3,10.0097,-0.000915527,0.000152588,-2.42684,0.0550706,-0.0747579,0.0513814,0.0706652,-0.094062,0.143487,-0.126377,-0.0844015,0.0133896,0.143814,0.0094986,0.0767517,0.0298691,-0.111771,0.0308228,0.0606918,-9.97986,0.0143814,0.00175476,0.088768,0.570984,0.0127029,-0.016861,0.0289917,0.0151443
27,4,10.0097,0.000610352,0.0012207,-2.42623,0.0550706,-0.075063,0.0529073,0.0715807,-0.0919257,0.142572,-0.125461,-0.0834859,0.0142288,0.0436783,-0.0245667,0.0738907,0.0232315,-0.107765,0.0298691,0.030899,-9.97986,0.01297,0.0056839,0.0582123,0.582428,0.0133896,-0.018425,0.0214005,0.0247192
27,5,10.0097,0.000610352,0.000610352,-2.42623,0.0559862,-0.0747579,0.0550435,0.0697496,-0.0928413,0.143792,-0.125461,-0.0831808,0.00839233,-0.00331879,-0.0216675,0.0615311,0.030632,-0.0937653,0.0321198,0.0139618,-9.97986,0.0226593,0.00518799,0.0546646,0.584793,0.0120926,-0.0156403,0.014534,0.0381088
27,6,10.0097,0,0.000457764,-2.42501,0.0550706,-0.0741475,0.054128,0.0724962,-0.0922309,0.145013,-0.124851,-0.0825704,0.0172043,0.0136566,-0.0131607,0.0422668,0.0349045,-0.0849533,0.0302887,-0.0031662,-9.97986,0.0169754,-0.00514984,0.0362778,0.5867,0.0156021,-0.0129318,0.0150299,0.0373459
27,7,10.0097,0.00152588,0.000457764,-2.42562,0.0562914,-0.0744527,0.0544332,0.0718859,-0.090705,0.147149,-0.124241,-0.0807394,0.0175095,0.0489807,-0.00713348,0.0302887,0.0217056,-0.0710678,0.0362015,-0.0111771,-9.97986,0.0193405,-0.00984192,0.0188446,0.594063,0.0131989,-0.0107193,0.0167465,0.0407791
27,8,10.0097,0.000305176,-0.0012207,-2.42806,0.0562914,-0.075063,0.0519917,0.0282457,-0.0961982,0.146539,-0.127598,-0.0825704,0.0165176,0.0937653,-0.0122452,0.0260925,0.0217438,-0.0600433,0.0354767,-0.0133514,-9.97986,0.0185394,-0.0131989,-0.00102997,0.598335,0.0162506,-0.0043869,0.0235748,0.0458145
27,9,3.43923,0,-0.00396729,-2.42745,0.0572069,-0.0747579,0.0495503,-0.0190565,-0.100471,0.145624,-0.130344,-0.0828756,0.0216293,0.0985336,-0.0301361,0.00694275,0.0277328,-0.0505829,0.041275,-0.0226974,-9.97986,0.019722,-0.00621796,-0.0201416,0.596275,0.0209808,0.00190735,0.0281525,0.0529861
28,0,-4.43858,0,-0.00579834,-2.42562,0.0559862,-0.0729268,0.0538228,-0.0193617,-0.0971137,0.144708,-0.130649,-0.0822652,0.0133514,0.0182724,-0.0545502,-0.00328064,0.0271225,-0.0538635,0.0374222,-0.0505066,-9.97986,0.0185013,-0.0069046,-0.0400925,0.579605,0.0157166,-0.000953674,0.0230408,0.0500107
28,1,-9.99003,-0.000915527,-0.00579834,-2.42409,0.0578172,-0.0738423,0.0553487,0.00169543,-0.0931465,0.145624,-0.128513,-0.0810445,0.0124359,-0.0307846,-0.0709915,-0.00259399,0.0289536,-0.0541687,0.0372314,-0.0636292,-9.97986,0.0167847,-0.00255585,-0.0537872,0.574722,0.0179291,-0.0063324,0.0230789,0.0436401
28,2,-9.99003,0,-0.00289917,-2.4244,0.0559862,-0.0756734,0.0574849,0.0340441,-0.0900947,0.146539,-0.126682,-0.0810445,0.0150299,-0.00530243,-0.0590897,-0.00675201,0.028801,-0.04879,0.0352859,-0.0742722,-9.97986,0.0268936,-0.00534058,-0.0739288,0.572968,-0.00839233,-0.00320435,0.0190353,0.03685
28,3,-9.99003,0.00183105,-0.00228882,-2.42531,0.0547655,-0.075063,0.0553487,0.0566271,-0.0910102,0.145013,-0.125766,-0.0828756,0.0176239,0.00125885,-0.0529861,-0.0147629,0.0273514,-0.0450516,0.037117,-0.0740433,-9.97986,0.0276947,-0.0120544,-0.0987244,0.550842,-0.0104523,-0.00629425,0.0148392,0.0395966
28,4,-9.99003,0.00152588,-0.00259399,-2.42714,0.055681,-0.075063,0.0544332,0.0639513,-0.0913154,0.143792,-0.125461,-0.0834859,0.0171661,-0.0578308,-0.0523376,-0.0252151,0.0253296,-0.0344467,0.0387573,-0.07061,-9.97986,0.0362015,-0.0164795,-0.115623,0.518875,-0.00522614,-0.0037384,0.0187302,0.0398254
28,5,-9.99003,0.0012207,-0.0012207,-2.42623,0.055681,-0.073232,0.0547383,0.0914171,-0.088874,0.143792,-0.123935,-0.0828756,0.0188828,-0.0999832,-0.0465393,-0.0480652,0.0325394,-0.0249481,0.0355911,-0.0622177,-9.97986,0.0358963,-0.0100708,-0.122604,0.488281,0.0156784,-0.00217438,0.0111771,0.0368881
28,6,-4.40654,-0.000305176,0.00244141,-2.42684,0.0544603,-0.0744527,0.0553487,0.135668,-0.0882636,0.143792,-0.12241,-0.0844015,0.0201797,-0.100479,-0.0543213,-0.065155,0.0325394,-0.0147247,0.0400925,-0.0354385,-9.97986,0.0330734,-0.00762939,-0.131264,0.476646,0.0174713,-0.00606537,0.00484467,0.0420761
28,7,2.91829,0.00244141,0.00305176,-2.42898,0.0541551,-0.0759786,0.0535176,0.153368,-0.0894843,0.144098,-0.121799,-0.0856222,0.0211334,-0.0828171,-0.0551224,-0.0709915,0.0248718,-0.0075531,0.0405502,-0.0138474,-9.97986,0.0307465,-0.0125504,-0.143051,0.455666,0.013237,-0.00766754,0.00160217,0.0439835
28,8,10.0097,0.00152588,0.00198364,-2.42745,0.0532396,-0.0762837,0.0532125,0.155809,-0.0885688,0.143182,-0.120884,-0.0850118,0.0131989,-0.0669479,-0.0544739,-0.0529099,0.021553,0.00465393,0.0400543,-0.0056076,-9.97986,0.0294876,-0.0127411,-0.15667,0.433388,0.0138855,-0.000801086,0.00656128,0.0486755
28,9,10.0097,-0.000305176,-0.000152588,-2.43172,0.0532396,-0.0768941,0.0495503,0.10454,-0.0980293,0.141961,-0.124851,-0.0892843,0.0177765,-0.0600815,-0.0414276,-0.0352097,0.0216675,0.0126266,0.0336456,0.00556946,-9.97986,0.0310898,-0.00400543,-0.161819,0.409088,0.0118256,0.00301361,0.00244141,0.0477982
29,0,10.0097,0.0012207,-0.000762939,-2.42959,0.0526292,-0.0765889,0.0519917,0.0831774,-0.0968086,0.142572,-0.126682,-0.0892843,0.0130463,-0.0806808,-0.0202942,-0.0217056,0.0244141,0.0241852,0.03479,0.0105286,-9.97986,0.0225067,-0.000343323,-0.16304,0.392151,0.0143814,0.00263214,0.0018692,0.046196
29,1,10.0097,0.000915527,-0.00137329,-2.42837,0.0547655,-0.075063,0.0526021,0.0752428,-0.0955879,0.144403,-0.127292,-0.0880636,0.0133896,-0.0907516,-0.0063324,-0.0140762,0.0256729,0.0296783,0.033226,0.0180817,-9.97986,0.0262833,-0.00896454,-0.159225,0.379372,0.0088501,-0.00236511,0.000801086,0.0473404
29,2,10.0097,0.00152588,-0.000915527,-2.42867,0.055681,-0.0759786,0.0538228,0.0737169,-0.0946723,0.145318,-0.125461,-0.0850118,0.0156403,-0.0621414,0.0075531,-0.0395584,0.0258636,0.0336838,0.033493,0.0180817,-9.97986,0.0229645,-0.00267029,-0.157089,0.382118,0.00530243,-0.00389099,0.00114441,0.0497055
29,3,10.0097,-0.000305176,0.000305176,-2.42776,0.0538499,-0.075063,0.0529073,0.0709703,-0.0949775,0.144708,-0.126072,-0.0850118,0.0114822,-0.0373077,0.0225067,-0.0561523,0.0304031,0.0403214,0.0363922,0.02491,-9.97986,0.022049,-0.000801086,-0.151253,0.38578,0.00793457,-0.00202179,0.00267029,0.0519562
29,4,10.0097,0,-0.000915527,-2.42653,0.0559862,-0.0747579,0.050771,0.0715807,-0.0937568,0.144708,-0.126072,-0.0850118,0.0146484,-0.0185776,0.0306702,-0.0473404,0.0304413,0.0431824,0.0375748,0.0214386,-9.97986,0.0201416,-0.00202179,-0.139809,0.354118,0.00717163,0.00133514,0.00259399,0.0502396
29,5,10.0097,0.0012207,-0.00274658,-2.42684,0.0572069,-0.0741475,0.0544332,0.0712755,-0.0931465,0.146539,-0.125461,-0.0837911,0.0123978,0.0018692,0.0383377,-0.0448608,0.0356293,0.0484085,0.0358963,0.00804901,-9.97986,0.017662,-0.00488281,-0.13382,0.320015,0.00377655,0.0019455,0.00473022,0.0489044
29,6,10.0097,0.000610352,-0.00320435,-2.42592,0.0559862,-0.0741475,0.0547383,0.0706652,-0.0919257,0.145929,-0.123935,-0.0828756,0.0144958,0.00473022,0.0422287,0.00167847,0.0350571,0.0494385,0.0359344,0.00732422,-9.97986,0.0196075,-0.0163651,-0.124397,0.281906,0.000801086,0.0030899,0.00167847,0.0506592
29,7,10.0097,0.000915527,-0.00289917,-2.4247,0.0562914,-0.0738423,0.054128,0.0718859,-0.0925361,0.147455,-0.123325,-0.0816549,0.0155258,0.016861,0.04673,0.0276947,0.0305176,0.0516129,0.0398254,0.00854492,-9.97986,0.017395,-0.0181961,-0.117989,0.254135,-0.00278473,0.000343323,0.00305176,0.0498962
29,8,10.0097,0.00152588,-0.00396729,-2.42776,0.0559862,-0.0753682,0.0529073,0.0294664,-0.0971137,0.145624,-0.126987,-0.0834859,0.0126266,0.0272369,0.0466156,0.000495911,0.0259399,0.0540543,0.0397873,0.0112915,-9.97986,0.0137711,-0.0143814,-0.111313,0.235062,-0.00347137,0.00232697,-0.000572205,0.0537491
29,9,3.34279,0.00183105,-0.00518799,-2.42776,0.0565965,-0.0720113,0.0513814,-0.0175306,-0.101386,0.147149,-0.129734,-0.0831808,0.0108719,0.0148773,0.042572,-0.00450134,0.0270081,0.0583267,0.0453949,0.023613,-9.97986,0.018959,-0.0139618,-0.10704,0.23819,-0.00774384,0.00328064,-0.00289917,0.0502396
30,0,-4.4871,0.000305176,-0.0050354,-2.42592,0.055681,-0.073232,0.0535176,-0.0190565,-0.0986396,0.147149,-0.130344,-0.0825704,0.0126266,0.0270462,0.0394821,0.0225067,0.0255203,0.0642395,0.0436401,0.0213623,-9.97986,0.0140381,-0.00556946,-0.0909805,0.241165,-0.00606537,0.00209808,-0.00465393,0.0488281
30,1,-9.99003,0.000305176,-0.00778198,-2.42409,0.0553758,-0.0723164,0.0565694,0.00291613,-0.0928413,0.14776,-0.128818,-0.0813497,0.0132751,0.0244904,0.0363922,0.039444,0.0242996,0.066185,0.044899,0.0296021,-9.97986,0.0163651,0.00679016,-0.0733185,0.180969,-0.00572205,0.00434875,0.001297,0.0432205
30,2,-9.99003,-0.000305176,-0.00961304,-2.42409,0.0559862,-0.073232,0.0571797,0.0370958,-0.0894843,0.146539,-0.127292,-0.0834859,0.0123596,0.00873566,0.0340652,0.0340271,0.0256729,0.050354,0.0458527,0.0411606,-9.97986,0.0130844,0.0100708,-0.0466156,0.0697327,-0.0243759,0.00465393,0.00297546,0.0444412
30,3,-9.99003,0,-0.0102234,-2.42531,0.055681,-0.0747579,0.0565694,0.0566271,-0.0910102,0.145929,-0.125766,-0.0840963,0.0102234,0.0123978,0.0258636,0.0178528,0.0241852,0.0466156,0.0454712,0.0454712,-9.97986,0.0102234,0.00953674,-0.00907898,-0.0479507,-0.0257111,0.00331879,-0.000190735,0.0413895
30,4,-9.99003,0,-0.010376,-2.42714,0.0538499,-0.0741475,0.0547383,0.0639513,-0.0913154,0.144403,-0.125766,-0.0856222,0.00881195,0.0309753,0.0258255,0.0139618,0.0235367,0.0386429,0.0436401,0.044136,-9.97986,0.01091,0.00480652,0.021286,-0.149994,-0.0292206,0.00389099,0.00858307,0.0368881
30,5,-9.99003,0.000915527,-0.00762939,-2.42776,0.0550706,-0.0744527,0.0562642,0.0911119,-0.0894843,0.145013,-0.12363,-0.0850118,0.0111771,0.0431824,0.0339127,0.0400162,0.0239944,0.0352859,0.0461578,0.0511551,-9.97986,0.00984192,0.00453949,0.0151062,-0.231323,-0.00907898,0.0031662,0.0118637,0.0287628
30,6,-4.44499,0.000915527,-0.00366211,-2.42592,0.0541551,-0.0756734,0.0544332,0.135973,-0.0879585,0.144098,-0.122104,-0.0859274,0.00991821,0.0464249,0.0507355,0.0489426,0.0183487,0.0343704,0.0476074,0.0591278,-9.97986,0.00385284,0.00228882,0.00492096,-0.314369,-0.0131989,0.0044632,0.0108719,0.0069046
30,7,2.90822,0.000915527,-0.000915527,-2.42837,0.0535448,-0.0765889,0.0532125,0.153978,-0.088874,0.144098,-0.121799,-0.0862325,0.0124359,0.0517654,0.0714874,0.0363541,0.0221252,0.030098,0.0459671,0.0629807,-9.97986,0.00400543,0.00228882,0.00549316,-0.356522,-0.0119019,0.00473022,0.0144577,-0.00389099
30,8,10.0097,0.000610352,0.000610352,-2.42776,0.0541551,-0.0762837,0.054128,0.156725,-0.0903999,0.144403,-0.121799,-0.0871481,0.0143051,0.0497055,0.0774002,0.0230026,0.0171661,0.0329971,0.0466537,0.0624084,-9.97986,0.00408173,0.00595093,-0.000991821,-0.385628,-0.00907898,0.00843048,0.0193787,-0.00423431
30,9,10.0097,0.0012207,-0.00106812,-2.43081,0.0529344,-0.0781148,0.0495503,0.104845,-0.0968086,0.142877,-0.125461,-0.0895895,0.0111771,0.0630569,0.0795364,0.0246811,0.0193405,0.0309753,0.0456619,0.0592804,-9.97986,0.00629425,0.00404358,-0.00617981,-0.410767,-0.00831604,0.000991821,0.0204468,0.000801086
31,0,10.0097,0.000305176,-0.0012207,-2.42989,0.0541551,-0.0762837,0.0510762,0.0837877,-0.0983344,0.146234,-0.127292,-0.0895895,0.0109863,0.0818253,0.086937,0.033989,0.0120163,0.0354767,0.043335,0.0550079,-9.97986,0.00572205,0.00492096,-0.00282288,-0.429764,-0.0133133,0.00137329,0.0231171,0.0170517
31,1,10.0097,0.00213623,-0.00305176,-2.42898,0.0538499,-0.0759786,0.0516866,0.075548,-0.0946723,0.144708,-0.126987,-0.0886739,0.0128174,0.106697,0.100136,0.0376129,0.0159836,0.0407028,0.0429153,0.0606918,-9.97986,0.000724792,0.0094223,0.00545502,-0.472832,-0.017128,0.00106812,0.0252914,0.0354385
31,2,10.0097,-0.00274658,-0.00366211,-2.42684,0.055681,-0.0759786,0.0519917,0.0743273,-0.0946723,0.145624,-0.126072,-0.0874532,0.0130844,0.123711,0.105591,0.0175476,0.00450134,0.0345612,0.0373459,0.049324,-9.97986,-0.000305176,0.00968933,0.0108719,-0.514641,-0.0205231,-0.00164032,0.0242615,0.0507736
31,3,10.0097,0.000915527,-0.00274658,-2.42745,0.0550706,-0.0756734,0.0529073,0.0718859,-0.0934516,0.145318,-0.126072,-0.085317,0.00812531,0.10891,0.105209,0.00324249,0.0031662,0.039444,0.0358963,0.0307465,-9.97986,0.000152588,0.00213623,0.0216675,-0.530853,-0.023613,-0.00175476,0.0255585,0.0699615
31,4,10.0097,0.000915527,-0.00274658,-2.42714,0.0553758,-0.0747579,0.0535176,0.0718859,-0.0934516,0.144098,-0.125461,-0.0844015,0.0157928,0.0629807,0.0910187,0.00923157,-0.00198364,0.0428391,0.0334549,0.0112915,-9.97986,0.00701904,-0.00499725,0.0315475,-0.554543,-0.0288391,-0.0030899,0.0260162,0.0793076
31,5,10.0097,-0.000915527,-0.00411987,-2.42684,0.055681,-0.0747579,0.0544332,0.0724962,-0.0922309,0.144098,-0.126682,-0.0847066,0.0110626,0.0256348,0.0774002,-0.00106812,-0.0111389,0.0484085,0.0327301,0.000953674,-9.97986,0.0133133,-0.00602722,0.0314331,-0.601463,-0.0218964,-0.000762939,0.032196,0.075531
31,6,10.0097,0.000610352,-0.00549316,-2.42592,0.0569017,-0.0726216,0.0535176,0.0715807,-0.0922309,0.143182,-0.124241,-0.0837911,0.0105286,0.00335693,0.0463867,-0.00823975,-0.0185776,0.0530624,0.0299072,0.00839233,-9.97986,0.018959,-0.000190735,0.0236511,-0.674133,-0.0228119,-0.00545502,0.0349808,0.0660324
31,7,10.0097,-0.000610352,-0.00595093,-2.4244,0.0569017,-0.073232,0.0550435,0.0706652,-0.090705,0.147149,-0.123325,-0.0831808,0.0105667,0.00518799,-0.0044632,-0.014267,-0.0231171,0.0551987,0.0279617,0.0129318,-9.97986,0.0215149,-0.0131226,0.022583,-0.744972,-0.0239563,-0.0056839,0.0438309,0.0592422
31,8,10.0097,-0.000610352,-0.00778198,-2.42684,0.0553758,-0.0744527,0.0529073,0.0291613,-0.0971137,0.145929,-0.128208,-0.0844015,0.00366211,0.00823975,-0.0402832,0.00350952,-0.0283051,0.0510406,0.0267792,0.0120163,-9.97986,0.0226974,-0.0088501,0.0253677,-0.796165,-0.0211334,-0.00286102,0.0499725,0.0512695
31,9,3.22408,-0.000915527,-0.00839233,-2.42714,0.0562914,-0.0747579,0.0513814,-0.0169203,-0.100165,0.145318,-0.128513,-0.0834859,0.00801086,0.0149155,-0.0498962,0.0199127,-0.0358582,0.0477219,0.0268936,-0.00419617,-9.97986,0.0252151,-0.0094986,0.0186157,-0.825462,-0.0221634,-0.00358582,0.0634003,0.0411987
32,0,-4.60765,0.00183105,-0.00747681,-2.42653,0.055681,-0.0744527,0.0522969,-0.0193617,-0.0983344,0.146844,-0.130954,-0.0831808,0.0062561,0.0302887,-0.0436401,0.0152206,-0.0354004,0.0405502,0.0255203,-0.00175476,-9.97986,0.0296783,-0.0139999,0.00419617,-0.843163,-0.0188828,-0.00392914,0.0747299,0.0269699
32,1,-9.99003,-0.00213623,-0.00656128,-2.42592,0.0575121,-0.0735371,0.0562642,0.00230578,-0.0928413,0.146844,-0.129123,-0.0807394,0.00896454,0.0179291,-0.0360107,0.0101471,-0.038681,0.0374222,0.02388,-0.0043869,-9.97986,0.0260544,-0.0130081,-0.00736237,-0.854454,-0.018158,-0.00431061,0.0716782,0.0156784
32,2,-9.99003,0.000610352,-0.00274658,-2.42379,0.0565965,-0.0735371,0.0565694,0.037401,-0.088874,0.145318,-0.127292,-0.0816549,0.00892639,-0.0311661,-0.0417709,0.00759125,-0.0439072,0.0376892,0.0212097,-0.00102997,-9.97986,0.0207901,-0.00629425,0.00751495,-0.8461,-0.0457001,-0.00312805,0.0638962,0.00965118
32,3,-9.99003,0.0012207,0.000915527,-2.42562,0.0547655,-0.0738423,0.055959,0.0578478,-0.0903999,0.144403,-0.126072,-0.0822652,0.00911713,-0.0434875,-0.0390625,0.00797272,-0.0418472,0.0400162,0.0177002,0.00705719,-9.97986,0.0234604,-0.00629425,0.026474,-0.820618,-0.0473022,-0.00881195,0.0574493,0.00892639
32,4,-9.99003,0.00335693,0.00244141,-2.42745,0.0550706,-0.0747579,0.0522969,0.0624254,-0.090705,0.145624,-0.127903,-0.0825704,0.00953674,-0.0234222,-0.0151443,0.0112152,-0.0420761,0.043335,0.0205231,0.00984192,-9.97986,0.0206757,-0.00564575,0.0185776,-0.798492,-0.0462341,-0.00789642,0.0558472,0.0121307
32,5,-9.99003,0.000915527,0.00320435,-2.42501,0.0550706,-0.073232,0.055959,0.0905016,-0.0891792,0.144708,-0.124241,-0.0822652,0.013237,-0.0146484,-0.0056839,0.00736237,-0.0381088,0.0407028,0.0137329,0.0104523,-9.97986,0.0187302,-0.00419617,0.0125122,-0.772285,-0.0279617,-0.00335693,0.0520706,0.0130081
32,6,-4.48466,0.000610352,0.00518799,-2.42684,0.0541551,-0.0759786,0.0590108,0.136583,-0.0873481,0.143792,-0.121494,-0.0840963,0.0167465,-0.00267029,0.00213623,0.00988007,-0.0361252,0.0502777,0.0130844,0.0172043,-9.97986,0.0201416,-0.00450134,0.00732422,-0.755424,-0.031395,-0.00972748,0.0503922,0.0153351
32,7,2.89845,0.0012207,0.00579834,-2.42776,0.0532396,-0.0741475,0.0547383,0.154894,-0.0873481,0.144708,-0.119968,-0.085317,0.0139618,0.0107956,0.00419617,0.00789642,-0.0384521,0.0450897,0.011673,0.0252914,-9.97986,0.0133514,-0.00972748,0.00919342,-0.742416,-0.0364685,-0.00823975,0.0504303,0.0160217
32,8,10.0097,0.000915527,0.00564575,-2.42806,0.0538499,-0.0756734,0.0519917,0.154588,-0.0913154,0.143792,-0.120884,-0.085317,0.00995636,0.0205994,0.0180435,0.00705719,-0.0336456,0.0521088,0.0128174,0.0363922,-9.97986,0.0130463,-0.0101471,0.0132751,-0.724068,-0.036087,-0.00743866,0.0545502,0.014534
32,9,10.0097,0.000610352,0.00350952,-2.43294,0.0526292,-0.0771993,0.0498555,0.103929,-0.0968086,0.142572,-0.124851,-0.0886739,0.0154877,0.0207901,0.0226974,0.00782013,-0.0365448,0.0452423,0.00919342,0.0405502,-9.97986,0.0162888,-0.00728607,0.0178528,-0.700951,-0.0366211,-0.00862122,0.0616837,0.0128174
33,0,10.0097,0.00152588,0.00137329,-2.42989,0.0541551,-0.0759786,0.0504659,0.0843981,-0.0977241,0.141961,-0.125461,-0.0886739,0.0104904,0.0272369,0.02285,0.00301361,-0.0419998,0.0488281,0.00564575,0.0349045,-9.97986,0.0153732,-0.00789642,0.0299454,-0.688171,-0.0331497,-0.0120926,0.0616074,0.013237
33,1,10.0097,-0.000915527,0,-2.4302,0.0532396,-0.0753682,0.050771,0.0758531,-0.095893,0.143182,-0.128513,-0.0865377,0.0120544,0.028038,0.0283813,0.00431061,-0.0370407,0.0446701,0.00415802,0.0376129,-9.97986,0.013504,-0.00770569,0.0277328,-0.683899,-0.032196,-0.010376,0.0619888,0.0118256
33,2,10.0097,0.000915527,0.000610352,-2.42745,0.0541551,-0.0741475,0.055959,0.0737169,-0.0934516,0.143487,-0.126682,-0.0862325,0.00793457,0.0217056,0.0259399,0.00640869,-0.0336075,0.0426483,0.00465393,0.0379181,-9.97986,0.0135422,-0.0088501,0.0193405,-0.6633,-0.0222778,-0.00892639,0.0620651,0.01297
33,3,10.0097,-0.0012207,0.00198364,-2.42776,0.0550706,-0.0753682,0.0513814,0.0724962,-0.0943672,0.144403,-0.125156,-0.0847066,0.010643,0.0259781,0.0296783,0.00812531,-0.0342178,0.0378799,0.00343323,0.0283813,-9.97986,0.0125885,-0.00408173,0.0139236,-0.640144,-0.0237274,-0.00846863,0.0583649,0.00869751
33,4,10.0097,0.00244141,0.00244141,-2.42745,0.0553758,-0.0747579,0.0532125,0.0697496,-0.0937568,0.144708,-0.126072,-0.0837911,0.010376,0.0327682,0.030899,0.00843048,-0.0236511,0.0416183,0.00102997,0.0279999,-9.97986,0.0125122,-0.0044632,0.0128937,-0.615883,-0.0263596,-0.0107193,0.0557709,0.0109482
33,5,10.0097,0,0.00244141,-2.42531,0.0550706,-0.0744527,0.0553487,0.0715807,-0.0916206,0.145929,-0.124851,-0.0819601,0.00915527,0.0352478,0.0265121,0.00854492,-0.0124741,0.0428009,0.00183105,0.0306702,-9.97986,0.0112534,-0.00343323,0.0152588,-0.587044,-0.0197601,-0.00926971,0.0574493,0.0117111
33,6,10.0097,0.000915527,0.00183105,-2.42623,0.055681,-0.0747579,0.0544332,0.0715807,-0.090705,0.146844,-0.124241,-0.0810445,0.01091,0.039978,0.0336838,0.00915527,-0.0117111,0.0421143,0.00705719,0.0314713,-9.97986,0.00808716,-0.00286102,0.0107193,-0.575409,-0.0152206,-0.0088501,0.061264,0.00495911
33,7,10.0097,0.000305176,0.00167847,-2.42623,0.0569017,-0.0738423,0.0553487,0.0712755,-0.0910102,0.145318,-0.125461,-0.0810445,0.0125504,0.0385666,0.0270081,0.0104141,-0.00968933,0.0473404,0.00240326,0.0245285,-9.97986,0.00789642,-0.00152588,0.0124741,-0.556602,-0.0147247,-0.00713348,0.0540161,-0.00823975
33,8,10.0097,0.000610352,0.000915527,-2.42684,0.0562914,-0.0759786,0.050771,0.0294664,-0.0980293,0.145318,-0.126987,-0.0825704,0.0150299,0.0387192,0.0323868,0.010643,-0.00484467,0.0455093,0.00141144,0.0262833,-9.97986,0.00484467,-0.00621796,0.00865936,-0.514297,-0.0131607,-0.00556946,0.0546265,-0.00629425
33,9,3.28328,-0.000305176,0,-2.42592,0.0565965,-0.0738423,0.0526021,-0.0172255,-0.101081,0.146539,-0.130649,-0.0816549,0.00663757,0.0392151,0.0381851,0.0115967,-0.00564575,0.0479126,0.000686646,0.0283813,-9.97986,0.00961304,-0.00759125,0.00976563,-0.474014,-0.00717163,-0.00701904,0.0551224,-0.00392914
34,0,-4.61223,0.0012207,-0.00167847,-2.42592,0.0572069,-0.0735371,0.0529073,-0.0190565,-0.0971137,0.145929,-0.130039,-0.0816549,0.00656128,0.0376511,0.0382233,0.0112152,-0.0107574,0.0492859,-0.0069809,0.0387192,-9.97986,0.00961304,-0.010376,0.00801086,-0.444489,-0.000953674,-0.00648499,0.0497437,0
34,1,-9.99003,0.000305176,-0.00320435,-2.4244,0.0565965,-0.0744527,0.0550435,0.00352649,-0.0946723,0.147455,-0.128818,-0.080129,0.00663757,0.0323486,0.0404739,0.0094223,-0.0165558,0.0551224,-0.00602722,0.0387573,-9.97986,0.00640869,-0.0144958,0.0018692,-0.429344,0.00171661,-0.00270844,0.0543594,0.0147247
34,2,-9.99003,0,0.000305176,-2.42501,0.0559862,-0.0738423,0.054128,0.0364855,-0.0894843,0.146539,-0.127292,-0.0792135,0.00720978,0.0364685,0.0389099,0.00102997,-0.0242233,0.0595093,-0.0119019,0.0352478,-9.97986,0.00995636,-0.0113678,-0.0025177,-0.394363,-0.0157928,-0.0056839,0.0524902,0.02388
34,3,-9.99003,0.00213623,0.00305176,-2.42623,0.0562914,-0.0744527,0.0550435,0.0566271,-0.0903999,0.145013,-0.128513,-0.0798238,0.0106049,0.0337982,0.0401306,-0.00564575,-0.0410843,0.0518036,-0.0170135,0.0395966,-9.97986,0.0107574,-0.00747681,-0.00377655,-0.341797,-0.0163651,-0.01091,0.0483704,0.0294876
34,4,-9.99003,0.00244141,0.00396729,-2.42562,0.0547655,-0.0759786,0.0550435,0.0639513,-0.0903999,0.145929,-0.125766,-0.0816549,0.00827789,0.0323868,0.0359344,-0.0188065,-0.0434494,0.0601959,-0.0224686,0.0410843,-9.97986,0.00743866,-0.00392914,-0.013237,-0.307426,-0.0146103,-0.00892639,0.0512314,0.0305176
34,5,-9.99003,0.000610352,0.00427246,-2.42684,0.0544603,-0.0729268,0.0553487,0.0953844,-0.0885688,0.145624,-0.126072,-0.0825704,0.00862122,0.0276947,0.0325394,-0.022583,-0.0477219,0.063324,-0.025444,0.0400925,-9.97986,0.00301361,-0.00457764,-0.0200653,-0.283546,0.0194168,-0.0056076,0.0588989,0.0254059
34,6,-4.22709,0.00183105,0.00564575,-2.42776,0.0532396,-0.0762837,0.0538228,0.135668,-0.0882636,0.145013,-0.123325,-0.0837911,0.00938416,0.0304031,0.0296021,-0.0214386,-0.0490189,0.0619507,-0.0310135,0.0363541,-9.97986,0.000648499,0.000228882,-0.0317764,-0.280151,0.0291061,-0.00896454,0.0654984,0.0110626
34,7,3.11605,0.000915527,0.00488281,-2.42837,0.0514085,-0.0759786,0.0538228,0.153673,-0.0879585,0.142877,-0.121189,-0.0850118,0.0126648,0.0285721,0.0356674,-0.0452805,-0.0405884,0.0641251,-0.0384521,0.0344467,-9.97986,0.00999451,-0.00415802,-0.0399399,-0.284233,0.0358963,-0.00473022,0.0698853,0.00492096
34,8,10.0097,0.00305176,0.00518799,-2.42806,0.0535448,-0.0747579,0.0538228,0.154894,-0.0900947,0.144098,-0.120273,-0.0840963,0.0152588,0.0328064,0.0397491,-0.044632,-0.0456238,0.0609589,-0.0439453,0.0335312,-9.97986,0.00732422,-0.00682831,-0.0356293,-0.267143,0.047493,-0.00492096,0.0696564,0.00705719
34,9,10.0097,0.000305176,0.00350952,-2.43142,0.0535448,-0.0765889,0.0504659,0.103929,-0.0974189,0.142572,-0.126377,-0.0883688,0.0139618,0.0420761,0.0432968,-0.0349045,-0.0543976,0.0495911,-0.0511169,0.030899,-9.97986,0.0126648,-0.00320435,-0.0213242,-0.245018,0.0613022,-0.00152588,0.0621796,0.00255585
35,0,10.0097,0.00244141,0.00137329,-2.42928,0.0538499,-0.0771993,0.050771,0.0831774,-0.0971137,0.143182,-0.127598,-0.0883688,0.011673,0.0468445,0.0568771,-0.0258636,-0.04879,0.049057,-0.059166,0.0290298,-9.97986,0.00923157,-0.00701904,-0.0127029,-0.252647,0.0622559,0,0.0655365,-0.00881195
35,1,10.0097,0,-0.000457764,-2.42959,0.0535448,-0.0756734,0.050771,0.0761583,-0.0955879,0.144403,-0.126072,-0.0871481,0.0156021,0.0442505,0.063591,0.000953674,-0.041008,0.0447464,-0.0636292,0.0169373,-9.97986,0.0088501,-0.00507355,-0.00827789,-0.261765,0.07164,-0.00312805,0.071373,-0.0160599
35,2,10.0097,0.00213623,-0.000915527,-2.42714,0.0547655,-0.075063,0.0522969,0.0737169,-0.094062,0.144098,-0.126987,-0.0877584,0.011673,0.0447845,0.0645828,0.0153351,-0.0329208,0.0383377,-0.0709152,0.0192261,-9.97986,0.0117874,-0.0063324,-0.00442505,-0.271187,0.0673294,-0.0031662,0.0712967,-0.0164032
35,3,10.0097,0.000305176,-0.00228882,-2.42714,0.0547655,-0.075063,0.0535176,0.0715807,-0.0934516,0.143792,-0.126682,-0.085317,0.0102234,0.0531006,0.0695419,0.0158691,-0.0201035,0.0416183,-0.0772095,0.0334549,-9.97986,0.00801086,-0.01194,0.00984192,-0.312767,0.0639343,-0.00148773,0.0711823,-0.0128174
35,4,10.0097,0.000305176,-0.00213623,-2.42806,0.0553758,-0.0753682,0.0532125,0.0706652,-0.094062,0.144403,-0.126682,-0.085317,0.00640869,0.0603867,0.0740051,0.0315475,-0.0172043,0.040741,-0.0852585,0.0431442,-9.97986,0.0102615,-0.00988007,0.0110626,-0.334587,0.0650787,0.0030899,0.0606155,-0.0175095
35,5,10.0097,0,0.000152588,-2.42623,0.0562914,-0.0747579,0.0550435,0.0712755,-0.0922309,0.144708,-0.126377,-0.0837911,0.00831604,0.0842285,0.0767517,0.0270462,-0.00694275,0.0418472,-0.0934219,0.0390625,-9.97986,0.0152969,-0.0037384,-0.00118256,-0.323257,0.0659943,0.00301361,0.0510025,-0.0152206
35,6,10.0097,-0.00213623,0.00183105,-2.42684,0.055681,-0.0735371,0.054128,0.0715807,-0.0916206,0.146234,-0.123935,-0.0819601,0.0102997,0.0990295,0.0789261,0.0228882,-0.000152588,0.0482941,-0.0986481,0.0135422,-9.97986,0.00797272,-0.0050354,-0.00846863,-0.296288,0.0679016,0.0050354,0.046463,-0.0088501
35,7,10.0097,0.000610352,0.00228882,-2.4247,0.0562914,-0.0738423,0.054128,0.0712755,-0.0910102,0.147149,-0.124241,-0.0804342,0.0109863,0.0922394,0.060997,0.0727844,0.00469208,0.0509644,-0.1054,0.00411987,-9.97986,0.012207,-0.00968933,7.62939e-005,-0.264511,0.0648499,0.00537872,0.0419617,-0.00846863
35,8,10.0097,0,0.00152588,-2.42714,0.055681,-0.0738423,0.0519917,0.0294664,-0.0971137,0.143487,-0.127292,-0.0825704,0.0113678,0.050621,0.0377655,0.101776,0.0094223,0.0477219,-0.104713,0.0018692,-9.97986,0.0115204,-0.0044632,0.00312805,-0.218658,0.0671768,0.00541687,0.0373077,-0.00774384
35,9,3.14809,0.000915527,-0.000457764,-2.42684,0.0569017,-0.0729268,0.0519917,-0.0147841,-0.0998603,0.146844,-0.130649,-0.0816549,0.0121307,0.0209808,0.0273895,0.0738144,0.00904083,0.049324,-0.114594,0.0173569,-9.97986,0.0108337,-0.00888824,0.00110626,-0.178871,0.0691223,0.00259399,0.0340271,-0.0102615
36,0,-4.68089,-0.000305176,-0.00167847,-2.42592,0.0569017,-0.0744527,0.054128,-0.0193617,-0.0980293,0.145624,-0.130039,-0.0816549,0.00553131,0.0204468,0.0188828,0.0563812,0.00934601,0.0485992,-0.133591,0.0284576,-9.97986,0.0105286,-0.0101471,0.00190735,-0.15667,0.0669098,0.00450134,0.0286102,-0.014267
36,1,-9.99003,0.0012207,-0.00244141,-2.42531,0.0572069,-0.0738423,0.0553487,0.00291613,-0.0922309,0.146539,-0.127598,-0.0795187,0.00766754,0.0056839,0.018959,0.0384521,0.0129318,0.0489426,-0.147934,0.0580597,-9.97986,0.0119781,-0.00804901,0.00743866,-0.117607,0.0634003,0.00770569,0.0269699,-0.0205612
36,2,-9.99003,-0.00152588,0.00198364,-2.4247,0.055681,-0.073232,0.0565694,0.0389269,-0.0882636,0.145929,-0.126377,-0.0798238,0.010643,0.00293732,0.0189972,0.0219345,0.0118256,0.0555038,-0.15461,0.0674438,-9.97986,0.0160217,-0.00808716,0.00785828,-0.0761414,0.0379562,0.00629425,0.0212479,-0.0155258
36,3,-9.99003,-0.000305176,0.00289917,-2.4244,0.0553758,-0.0747579,0.0547383,0.0560167,-0.0900947,0.145929,-0.126072,-0.0816549,0.00968933,0.00770569,0.0208282,-0.00038147,0.0124741,0.0511551,-0.150681,0.0632858,-9.97986,0.0141907,-0.00610352,0.0101089,-0.0497437,0.0389862,0.0121307,0.0189972,-0.0133133
36,4,-9.99003,-0.000610352,0.00198364,-2.42653,0.0550706,-0.0744527,0.0544332,0.0630358,-0.0916206,0.145929,-0.126377,-0.0819601,0.00732422,7.62939e-005,0.00778198,-0.0202179,0.00831604,0.0509262,-0.146065,0.0456619,-9.97986,0.0151062,-0.0127792,0.0125122,-0.0234604,0.0398254,0.00934601,0.0195694,-0.0148392
36,5,-9.99003,0.000915527,0.00595093,-2.42592,0.0550706,-0.0744527,0.0556539,0.0944689,-0.0894843,0.144708,-0.124241,-0.0825704,0.0115204,0.00595093,-0.000267029,-0.0305939,0.0145721,0.0498962,-0.143318,0.00923157,-9.97986,0.0200272,-0.012207,0.0109482,0.0339127,0.0584793,0.0111771,0.015831,-0.0147247
36,6,-4.28691,0.000610352,0.00854492,-2.42776,0.055681,-0.075063,0.0556539,0.136583,-0.0891792,0.145318,-0.122104,-0.0825704,0.0143433,0.030899,-0.00133514,-0.00953674,0.0122833,0.0528717,-0.132065,-0.0113678,-9.97986,0.0169754,0.000915527,0.00934601,0.0691605,0.0602341,0.00408173,0.00473022,-0.0112915
36,7,3.10994,-0.00213623,0.00579834,-2.42714,0.0541551,-0.075063,0.054128,0.154588,-0.0885688,0.143792,-0.121494,-0.0850118,0.017128,0.047493,-0.00480652,0.0115585,0.0146484,0.0482941,-0.110321,-0.018158,-9.97986,0.0213623,-0.000343323,0.00408173,0.0775146,0.0591278,0.000953674,0.000190735,-0.0131226
36,8,10.0097,0,0.00457764,-2.42867,0.0529344,-0.0775044,0.0529073,0.153978,-0.0897895,0.143182,-0.121494,-0.085317,0.0132751,0.0315094,-0.0206757,-0.0112915,0.018425,0.0461197,-0.0791168,-0.0284576,-9.97986,0.0199509,0.00190735,0.00205994,0.0725555,0.0593948,0.0094223,-0.00362396,-0.0154495
36,9,10.0097,0.000610352,0.00198364,-2.43203,0.0532396,-0.0781148,0.0486348,0.10454,-0.0980293,0.142877,-0.124241,-0.0880636,0.0143051,0.00347137,-0.0434494,-0.0523758,0.0181961,0.0492477,-0.042038,-0.0374985,-9.97986,0.0194168,0.00751495,0.00614166,0.0731659,0.0574493,0.00686646,-0.00209808,-0.0144577
37,0,10.0097,0.00183105,0.000915527,-2.42989,0.0532396,-0.0756734,0.0501607,0.0850084,-0.0977241,0.142877,-0.127903,-0.0877584,0.0153732,0.000801086,-0.0547409,-0.0588226,0.0195313,0.0477982,0.0030899,-0.0355911,-9.97986,0.0167084,-0.000228882,0.00892639,0.0867462,0.0571442,0.00743866,-0.00244141,-0.0127411
37,1,10.0097,0.000915527,0.00106812,-2.42928,0.0541551,-0.0753682,0.050771,0.0746324,-0.0965034,0.143487,-0.126682,-0.0865377,0.0167465,-0.0170135,-0.0367737,-0.0364685,0.0273895,0.043869,0.0512314,-0.0315475,-9.97986,0.0227356,-0.000801086,0.00926971,0.098877,0.055542,0.00991821,-0.00682831,-0.0119781
37,2,10.0097,0.00183105,0.00152588,-2.42837,0.0550706,-0.0762837,0.0535176,0.0737169,-0.0943672,0.142877,-0.124851,-0.085317,0.021019,-0.0306702,-0.01091,-0.00705719,0.0266266,0.0412369,0.0914383,-0.0328445,-9.97986,0.0205994,0.00171661,0.00995636,0.10788,0.051651,0.00930786,-0.00595093,-0.0120544
37,3,10.0097,0.00152588,0.00228882,-2.42776,0.0544603,-0.075063,0.0532125,0.07036,-0.0937568,0.144098,-0.126987,-0.0847066,0.0165558,-0.0112915,-0.00228882,0.00843048,0.0241852,0.0426483,0.135574,-0.0234222,-9.97986,0.0216293,-0.00335693,0.0124741,0.117416,0.0521851,0.00900269,-0.00873566,-0.0134277
37,4,10.0097,0.00183105,0.00152588,-2.42867,0.0550706,-0.0735371,0.0538228,0.0712755,-0.0943672,0.145318,-0.125461,-0.0834859,0.0150299,-0.0127411,0.0124741,-0.0127792,0.0268936,0.036087,0.175667,-0.00965118,-9.97986,0.0192261,-0.000534058,0.0101852,0.133591,0.0489044,0.00473022,-0.00957489,-0.00892639
37,5,10.0097,0.00305176,0.000305176,-2.42684,0.0562914,-0.0744527,0.054128,0.0709703,-0.0928413,0.141351,-0.123935,-0.0828756,0.0124359,-0.0452042,0.0193405,0.0104141,0.0417709,0.0306702,0.215454,-0.00675201,-9.97986,0.0216293,-0.0107574,0.0142288,0.123787,0.0471878,0.00827789,-0.0159836,-0.0103378
37,6,10.0097,0.000305176,-0.00137329,-2.42501,0.0565965,-0.0729268,0.0556539,0.0706652,-0.0910102,0.145318,-0.124546,-0.0837911,0.0133133,-0.0422668,0.0111771,0.0912094,0.039978,0.0313187,0.236893,0.00190735,-9.97986,0.0194931,-0.00400543,0.0153351,0.103912,0.0444412,0.00392914,-0.0196838,-0.00778198
37,7,10.0097,0.00244141,-0.00167847,-2.42531,0.0559862,-0.0735371,0.0556539,0.0712755,-0.0913154,0.14837,-0.12363,-0.0816549,0.0160599,-0.00572205,0.0056076,0.124054,0.0401688,0.0341034,0.253944,-0.000915527,-9.97986,0.0251389,-0.00526428,0.0218201,0.0823212,0.0437546,0.00686646,-0.0183868,-0.00553131
37,8,10.0097,0.000915527,-0.00320435,-2.42684,0.0553758,-0.0741475,0.0513814,0.0297716,-0.0971137,0.144708,-0.126682,-0.0831808,0.010376,0.0369644,0.00507355,0.101433,0.0434113,0.0265503,0.261879,0.00038147,-9.97986,0.0233078,-0.00160217,0.0193024,0.0712204,0.0418091,0.0050354,-0.022316,-0.00663757
37,9,3.31838,0.000610352,-0.00473022,-2.42531,0.0559862,-0.0741475,0.0519917,-0.0166151,-0.0995551,0.145318,-0.129734,-0.0828756,0.0125504,0.0619125,0.0128174,0.0891113,0.0434875,0.0273132,0.268898,0.00679016,-9.97986,0.0231171,-0.000534058,0.02491,0.0674057,0.0389099,0.00434875,-0.0196457,-0.00850677
38,0,-4.4807,0.000915527,-0.00411987,-2.4244,0.0572069,-0.0744527,0.0544332,-0.0187513,-0.0980293,0.147455,-0.130039,-0.0825704,0.00984192,0.0536346,0.0227737,0.106697,0.0522614,0.0187302,0.265884,0.00659943,-9.97986,0.0229645,0.00530243,0.0271988,0.0776672,0.0400543,0.0102234,-0.018425,-0.00904083
38,1,-9.99003,-0.000305176,-0.00427246,-2.42379,0.0569017,-0.0741475,0.0574849,0.00413684,-0.0928413,0.144098,-0.128513,-0.0807394,0.00991821,0.0320435,0.0302505,0.106049,0.0508118,0.0125885,0.259933,0.0201797,-9.97986,0.0216293,-0.000419617,0.022583,0.0811005,0.0359726,0.0105667,-0.0224686,-0.00770569
38,2,-9.99003,0.00183105,-0.00198364,-2.42409,0.0559862,-0.0741475,0.055959,0.0364855,-0.0900947,0.147149,-0.126072,-0.0804342,0.0123596,0.0413132,0.0335312,0.0497818,0.0541306,0.0191879,0.258751,0.0289536,-9.97986,0.0254822,0.00247955,0.0296021,0.0724792,0.00457764,0.00637054,-0.0197601,-0.0075531
38,3,-9.99003,0.000610352,-0.00228882,-2.42531,0.0547655,-0.0726216,0.0568746,0.0544908,-0.0913154,0.145624,-0.125766,-0.0834859,0.00988007,0.0563431,0.0379944,-0.00579834,0.0584793,0.0145721,0.247345,0.0310898,-9.97986,0.022316,0.000648499,0.0307465,0.0325394,0.00225067,0.0069046,-0.0210953,-0.00904083
38,4,-9.99003,-0.000305176,-0.00289917,-2.42684,0.0550706,-0.073232,0.0550435,0.0627306,-0.0922309,0.142572,-0.125766,-0.0834859,0.00961304,0.037117,0.031395,-0.0221634,0.0653839,0.0181198,0.232048,0.0402069,-9.97986,0.0237656,-0.00328064,0.0313568,-0.00125885,0.000686646,0.0125504,-0.0206757,-0.000267029
38,5,-9.99003,-0.000610352,-0.00274658,-2.42592,0.0553758,-0.075063,0.055959,0.0966051,-0.0882636,0.145013,-0.123935,-0.0837911,0.00724792,0.0203705,0.0382996,-0.024147,0.0709915,0.0139618,0.219612,0.0533676,-9.97986,0.0216675,-0.0037384,0.0382614,-0.0520706,0.0261688,0.00934601,-0.0209808,0.000991821
38,6,-3.89171,0.0012207,-0.000762939,-2.42745,0.0547655,-0.075063,0.0544332,0.136278,-0.0876533,0.143792,-0.122715,-0.0859274,0.00709534,0.0315857,0.0382614,-0.00617981,0.0712967,0.0118637,0.210762,0.0535583,-9.97986,0.019455,-0.00350952,0.0424957,-0.104675,0.0271225,0.0107574,-0.0178909,0.00263214
38,7,3.4438,0,0.00198364,-2.42684,0.0535448,-0.0756734,0.0553487,0.154894,-0.0900947,0.144708,-0.122104,-0.0850118,0.00743866,0.0331879,0.0276566,0.0322342,0.0745773,0.0199127,0.196762,0.0636673,-9.97986,0.0153351,-0.000572205,0.0436783,-0.116463,0.0268173,0.00965118,-0.0188446,0.00724792
38,8,10.0097,-0.000305176,0.00320435,-2.42959,0.0544603,-0.0771993,0.054128,0.154894,-0.0900947,0.143792,-0.122104,-0.0865377,0.00717163,0.044632,0.0217438,0.0698853,0.0728989,0.0247955,0.178566,0.0534821,-9.97986,0.0138855,-0.00289917,0.0436401,-0.123482,0.0236893,0.00595093,-0.0175476,0.00205994
38,9,10.0097,0.00213623,0.0012207,-2.43233,0.0532396,-0.0765889,0.0492452,0.102709,-0.0980293,0.142877,-0.126072,-0.0895895,0.00717163,0.0463486,0.0323868,0.0779343,0.0704956,0.0271225,0.168114,0.0561905,-9.97986,0.010643,-0.0105667,0.0466919,-0.126801,0.0239182,0.00701904,-0.0108337,0.00434875
39,0,10.0097,0.000610352,0.000457764,-2.42867,0.0526292,-0.0759786,0.0504659,0.0816515,-0.0971137,0.143487,-0.127292,-0.0883688,0.00602722,0.0422668,0.0418854,0.0494003,0.0644684,0.0303268,0.151062,0.0826263,-9.97986,0.00545502,-0.0137711,0.0301361,-0.117111,0.0196838,0.00457764,-0.012207,-0.00507355
39,1,10.0097,0,-0.000457764,-2.42714,0.0550706,-0.0765889,0.0516866,0.075548,-0.0955879,0.143792,-0.126072,-0.0868429,0.0062561,0.030899,0.053978,0.0431442,0.0580215,0.0279999,0.14679,0.0860977,-9.97986,0.0037384,-0.014267,0.0245285,-0.124435,0.026741,0.00190735,-0.00976563,-0.00984192
39,2,10.0097,0.000610352,-0.000610352,-2.42898,0.0547655,-0.0753682,0.0522969,0.0724962,-0.0931465,0.144708,-0.126072,-0.0862325,0.0056839,0.0416565,0.059967,0.0599289,0.0649261,0.0268173,0.135803,0.0820541,-9.97986,0.00499725,-0.00854492,0.0376129,-0.137444,0.0345993,0,0.00240326,-0.0141525
39,3,10.0097,0,-0.00259399,-2.42776,0.0553758,-0.0753682,0.0544332,0.0718859,-0.0934516,0.146539,-0.126072,-0.0844015,0.00862122,0.0571442,0.0512695,0.064621,0.0682449,0.0197601,0.121307,0.0896072,-9.97986,0.0116348,0.00141144,0.0531769,-0.181465,0.0350189,0.00427246,0.00858307,-0.0133896
39,4,10.0097,0.000610352,-0.00473022,-2.42562,0.0532396,-0.0744527,0.0538228,0.0709703,-0.0934516,0.145318,-0.126072,-0.0859274,0.00682831,0.0838852,0.0548553,0.0556946,0.0586319,0.0149536,0.110512,0.0910568,-9.97986,0.00644684,0.00766754,0.064888,-0.245361,0.026207,0.00366211,0.00572205,-0.0191116
39,5,10.0097,0.000610352,-0.00350952,-2.4247,0.0550706,-0.075063,0.0547383,0.0715807,-0.0922309,0.146234,-0.124546,-0.0840963,0.00850677,0.0961304,0.0548172,0.0442505,0.0614166,0.00324249,0.102768,0.0703049,-9.97986,0.00789642,0.017395,0.0782013,-0.273705,0.0284576,0.00999451,0.00511169,-0.0116348
39,6,10.0097,-0.0012207,-0.00305176,-2.42653,0.0559862,-0.0744527,0.054128,0.07036,-0.0916206,0.145929,-0.125156,-0.0825704,0.0123596,0.0764084,0.0627518,0.0341034,0.0548553,-0.00110626,0.0939941,0.0437927,-9.97986,0.00495911,0.0162888,0.0681305,-0.308151,0.0309753,0.00873566,0.00587463,-0.0125504
39,7,10.0097,-0.0012207,-0.0038147,-2.42653,0.055681,-0.0756734,0.054128,0.0718859,-0.0913154,0.146539,-0.124546,-0.0819601,0.0102234,0.0662613,0.0469589,0.0247955,0.051651,-0.00686646,0.0822449,0.0183487,-9.97986,-0.000267029,0.0134659,0.0513458,-0.357285,0.0273895,0.00915527,0.00995636,-0.0111389
39,8,10.0097,-0.000915527,-0.00595093,-2.42592,0.055681,-0.0753682,0.0519917,0.0297716,-0.0983344,0.146844,-0.126987,-0.0847066,0.0124741,0.0787354,0.00495911,0.0220871,0.0487137,-0.0128174,0.0780487,-0.0165558,-9.97986,0.00724792,0.0159073,0.0458527,-0.39402,0.0275421,0.00835419,0.0165939,-0.01091
39,9,3.14565,0,-0.00549316,-2.42623,0.0559862,-0.0741475,0.0519917,-0.0153944,-0.0998603,0.145624,-0.130039,-0.0825704,0.0125122,0.0563431,-0.00835419,0.020256,0.051918,-0.0152206,0.0722122,-0.039444,-9.97986,0.0117111,0.0165558,0.042038,-0.388527,0.0248718,0.00583649,0.020752,-0.0104904
40,0,-4.65495,0,-0.00213623,-2.42837,0.0572069,-0.0747579,0.0538228,-0.0184462,-0.0977241,0.146234,-0.130039,-0.0807394,0.0117493,0.0347519,-0.0127411,0.0176239,0.0368118,-0.017128,0.0641632,-0.0457764,-9.97986,0.0151825,0.0172806,0.0280762,-0.326691,0.0224686,0.00869751,0.020256,-0.00904083
40,1,-9.99003,0.0012207,0.00106812,-2.42257,0.0572069,-0.073232,0.055959,0.00291613,-0.0928413,0.145624,-0.128513,-0.078298,0.00556946,0.0495529,-0.0469208,0.0125885,0.0397491,-0.0233078,0.0579834,-0.0423431,-9.97986,0.0190735,0.0148392,0.0263214,-0.250969,0.0237656,0.00286102,0.0207138,-0.00595093
40,2,-9.99003,0.0161743,0.00396729,-2.4247,0.0562914,-0.073232,0.055959,0.0364855,-0.0910102,0.155999,-0.126682,-0.0734151,0.00595093,0.018692,-0.0667953,0.00392914,0.0370789,-0.0268555,0.0526428,-0.0437546,-9.97986,0.0271988,0.0168228,0.0375748,-0.176697,-0.00320435,0.0019455,0.0116348,-0.0069809
40,3,-9.99003,0.0012207,0.00579834,-2.42592,0.0547655,-0.0753682,0.0556539,0.0554064,-0.090705,0.148675,-0.125156,-0.080129,0.00892639,-0.00961304,-0.0660706,-0.00354767,0.0429535,-0.0311661,0.0531769,-0.044136,-9.97986,0.0286865,0.0157928,0.0498962,-0.114021,-0.00522614,-0.00259399,0.00427246,-0.00595093
40,4,-9.99003,0.00213623,0.00747681,-2.42684,0.0553758,-0.0738423,0.0553487,0.0624254,-0.0928413,0.147149,-0.126682,-0.080129,0.0146103,-0.00244141,-0.045929,-0.0056076,0.041275,-0.0273895,0.0455475,-0.0440598,-9.97986,0.0279236,0.0143433,0.055809,-0.0157928,-0.00865936,-0.00343323,0.00888824,-0.00530243
