
Devices
1200
,,BP Load cell - Voltage,String Length - Voltage,Clutch Active - Voltage,#7 iPecs - Voltage,,,,,,,,,EMG 1-8 Left - Voltage,,,,,,,,Pylon Force - Voltage,EMG 9-16 Right - Voltage,,,,,,,,
Frame,Sub Frame,BP Load Cell,String Length,From Arduino Logic,A45,A135,A225,A315,S0,S90,S180,S270,ZSum,EMG 1 Glut Max,EMG 2 Glut Med,EMG 3 Biceps Femoris Long,EMG 4 Rectus Femoris,EMG 5 Vastus Medialis,EMG 6 Tib Ant,EMG 7 Med Gas,EMG 8 Soleus,Pylon volts,EMG 9 Glut Max,EMG 10 Glut Med,EMG 11 Biceps Femoris Long,EMG 12 Rectus Femoris,EMG 13 Vastus Medialis,EMG 14 Tib Ant,EMG 15 Med Gas,EMG 16 Soleus
,,V,V,V,V,V,V,V,V,V,V,V,V,V,V,V,V,V,V,V,V,V,V,V,V,V,V,V,V,V
1,0,10.0097,-0.000915527,0.000152588,-2.42501,0.0532396,-0.075063,0.0547383,0.07036,-0.0922309,0.147455,-0.124546,-0.0822652,-0.00926971,0.0601959,0.160408,0.149384,0.0156403,-0.0120163,0.0500107,0.00812531,-9.97986,0.00896454,-0.00320435,0.0226974,-0.0139999,0.0126648,0.0150681,0.0257111,-0.00118256
1,1,10.0097,-0.000915527,-0.000152588,-2.42501,0.0559862,-0.0735371,0.054128,0.0712755,-0.094062,0.145624,-0.124241,-0.0810445,-0.0307846,0.0563049,0.113716,0.106163,0.00968933,-0.0123215,0.0460815,0.00968933,-9.97986,0.0121307,0.00148773,0.0147247,-0.0159454,0.0128174,0.0205612,0.0207138,-0.00144958
1,2,10.0097,-0.00244141,0,-2.42501,0.0569017,-0.0735371,0.0547383,0.0706652,-0.0916206,0.146844,-0.125156,-0.0810445,-0.0327682,0.0481796,0.0516129,0.0923538,0.0118637,-0.0146103,0.0456238,0.00576019,-9.97986,0.0212479,0.00144958,0.0173569,-0.0151443,0.00953674,0.025177,0.0229263,0.000915527
1,3,10.0097,-0.000915527,0.000305176,-2.42592,0.0541551,-0.0747579,0.0553487,0.0718859,-0.0910102,0.14776,-0.124546,-0.080129,-0.0136185,0.0415039,-0.0187302,0.0888443,0.0139618,-0.0181198,0.0403595,0.00904083,-9.97986,0.0448608,0.000343323,0.0162506,-0.0125504,0.0117874,0.020752,0.0190735,0.000457764
1,4,10.0097,0.000305176,-0.00106812,-2.42592,0.0559862,-0.0735371,0.0538228,0.0438097,-0.0971137,0.146234,-0.126987,-0.0822652,-0.0151443,0.0429535,-0.0642014,0.0877762,0.00812531,-0.0143051,0.0346756,0.0069809,-9.97986,0.0244904,0.00362396,0.0168991,-0.0127792,0.0124741,0.00301361,0.0193787,-0.00259399
1,5,8.60463,-0.000610352,-0.00137329,-2.42531,0.0581224,-0.0744527,0.0532125,0.0438097,-0.0931465,0.145318,-0.126377,-0.0819601,-0.026474,0.0292206,-0.0912094,0.0753784,0.00865936,-0.0151443,0.028801,0.0110626,-9.97986,0.00038147,0.00415802,0.0150681,-0.0153732,0.0062561,-0.00988007,0.021286,-0.00339508
1,6,7.50203,-0.000610352,-0.000457764,-2.42562,0.0602586,-0.0744527,0.0538228,0.0560167,-0.0925361,0.145013,-0.126072,-0.0816549,-0.0193405,0.0209808,-0.0985336,0.0577164,0.0102615,-0.0178909,0.0286865,0.0179672,-9.97986,-0.00926971,0.0105286,0.0162506,-0.00850677,0.0108337,-0.0177765,0.0202942,0.000648499
1,7,7.45687,0.00244141,-0.000610352,-2.42684,0.0547655,-0.0747579,0.0547383,0.0660875,-0.0910102,0.145013,-0.125766,-0.0822652,0.0180817,0.00762939,-0.0911713,0.0458527,0.013237,-0.0143051,0.0314713,0.00843048,-9.97986,-0.0128174,0.00556946,0.0159836,-0.00804901,0.00946045,-0.0194931,0.0159836,-0.00263214
1,8,7.76174,0.000610352,0.0012207,-2.42653,0.055681,-0.0744527,0.054128,0.0740221,-0.0931465,0.144708,-0.124241,-0.0840963,0.0256729,0.000267029,-0.0828934,0.0204086,0.0141907,-0.01194,0.0324249,-7.62939e-005,-9.97986,-0.00400543,0.00907898,0.0146866,-0.0106049,0.00873566,-0.0193405,0.0151443,-0.00297546
1,9,9.75209,0.00183105,0.000762939,-2.42684,0.0544603,-0.0756734,0.0538228,0.100572,-0.0894843,0.145013,-0.123325,-0.0831808,0.00652313,-0.00663757,-0.0663757,-0.0125885,0.0102997,-0.0156784,0.0339127,3.8147e-005,-9.97986,0.00759125,0.00488281,0.014267,-0.00850677,0.0122452,-0.00896454,0.0148773,0.000801086
2,0,10.0097,-0.000305176,0.00167847,-2.42928,0.0535448,-0.0762837,0.0519917,0.0898912,-0.0925361,0.144708,-0.126377,-0.0859274,0.0138092,-0.0038147,-0.0563812,-0.0136566,0.0138855,-0.0175095,0.0366592,-0.00160217,-9.97986,0.0242615,-0.00312805,0.0154495,-0.00400543,0.0123596,0.000419617,0.0149155,-0.000267029
2,1,10.0097,0.000915527,0.000305176,-2.42928,0.0535448,-0.0747579,0.0516866,0.0792101,-0.094062,0.143792,-0.125766,-0.0871481,0.0310135,-0.00743866,-0.0521469,-0.000991821,0.0132751,-0.0117874,0.0313187,0.000991821,-9.97986,0.057869,-0.00778198,0.0140381,-0.00286102,0.00839233,0.00694275,0.013504,-0.00209808
2,2,10.0097,0.000915527,0.000305176,-2.42837,0.0575121,-0.0762837,0.0516866,0.0731066,-0.0955879,0.143487,-0.126682,-0.0868429,0.0543594,-0.00396729,-0.0502777,-0.0152588,0.0152588,-0.00907898,0.0304794,0.000839233,-9.97986,0.0914764,-0.000762939,0.014534,0.00171661,0.00747681,0.0136566,0.0113678,-0.00232697
2,3,10.0097,0.00152588,0.000152588,-2.42959,0.0526292,-0.0762837,0.0519917,0.0700548,-0.0943672,0.143792,-0.126987,-0.0871481,0.0576019,-0.00915527,-0.0553894,-0.0331497,0.013504,-0.0118256,0.0294876,0.00289917,-9.97986,0.089798,-0.00263214,0.0136566,-0.0030899,0.00717163,0.0147247,0.010376,-0.000114441
2,4,10.0097,0.000305176,-0.000152588,-2.42928,0.0541551,-0.075063,0.0529073,0.0697496,-0.0955879,0.142877,-0.127598,-0.0874532,0.0575638,-0.00392914,-0.0481415,-0.0505829,0.0104141,-0.0167084,0.0242996,0.00335693,-9.97986,0.0591278,0.00423431,0.0154114,0.0019455,0.00190735,0.00396729,0.0125122,-0.00164032
2,5,10.0097,0.00152588,-0.000152588,-2.42806,0.0511034,-0.0756734,0.0522969,0.0688341,-0.0949775,0.142877,-0.126987,-0.0859274,0.0556183,-0.000991821,-0.0395584,-0.072403,0.018425,-0.0114059,0.0328064,0.00747681,-9.97986,0.0334549,0.00423431,0.0157928,0.000114441,0.00183105,-0.00652313,0.00762939,-0.00297546
2,6,10.0097,0.000610352,0.000305176,-2.42837,0.0547655,-0.0756734,0.0535176,0.0697496,-0.094062,0.143487,-0.125156,-0.085317,0.0501251,-0.00579834,-0.0273895,-0.0544739,0.0146866,-0.01297,0.0298309,0.00572205,-9.97986,0.0159454,0.00087738,0.0169373,0.00339508,0.000915527,-0.00598907,0.0102615,-0.0037384
2,7,10.0097,0.0012207,0.000610352,-2.42776,0.0550706,-0.0744527,0.0529073,0.0700548,-0.0931465,0.146234,-0.126377,-0.0844015,0.0419235,-0.00301361,-0.00846863,-0.0255585,0.0123215,-0.0127792,0.025177,0.00259399,-9.97986,0.0183868,-0.00392914,0.0165939,0.00648499,0.0018692,0.00293732,0.00995636,-0.00205994
2,8,10.0097,0.000915527,0,-2.42623,0.0569017,-0.0753682,0.0535176,0.0706652,-0.0913154,0.145318,-0.125766,-0.0834859,0.0130463,0.000190735,-0.0110626,-0.0292206,0.0151443,-0.0163269,0.0199127,0.0141525,-9.97986,0.040741,0.00114441,0.00988007,0.00629425,0.00320435,0.00835419,0.0109482,-0.00614166
2,9,10.0097,-0.000610352,-0.000457764,-2.42592,0.0569017,-0.0747579,0.054128,0.0712755,-0.0928413,0.145929,-0.125766,-0.0828756,0.00587463,-0.00579834,0.0018692,-0.0296021,0.0159073,-0.0159454,0.016861,0.0138474,-9.97986,0.0434113,0.00217438,0.0136948,0.0107574,0.00362396,0.00644684,0.0123596,-0.00785828
3,0,10.0097,0.000610352,0.000610352,-2.42562,0.0562914,-0.0726216,0.0544332,0.0718859,-0.0913154,0.147455,-0.123935,-0.0819601,0.0159836,0.000343323,0.0121689,-0.0165558,0.014534,-0.0139236,0.0170517,0.0125504,-9.97986,0.0362778,-0.00400543,0.0166702,0.0120163,0.00427246,0.0063324,0.0164795,-0.00576019
3,1,10.0097,0.000305176,-0.000152588,-2.42562,0.0572069,-0.0741475,0.0544332,0.0715807,-0.0913154,0.145929,-0.122715,-0.0810445,0.0217056,0.00556946,0.0176239,-0.0174713,0.0169754,-0.00976563,0.0209045,0.0178528,-9.97986,0.0395203,-0.000152588,0.0149155,0.0127411,0.00343323,-0.00339508,0.0175858,-0.00659943
3,2,10.0097,0.000915527,0.000610352,-2.42623,0.055681,-0.0735371,0.054128,0.0709703,-0.0922309,0.148065,-0.123935,-0.0807394,0.0164032,0.00350952,0.024147,-0.0323868,0.0169754,-0.0117493,0.0173569,0.018959,-9.97986,0.0592041,-0.00114441,0.0173187,0.0180817,0.00244141,-0.00331879,0.0152969,-0.00492096
3,3,10.0097,0.000915527,0.00106812,-2.42684,0.0559862,-0.0744527,0.055959,0.0697496,-0.0919257,0.147149,-0.123935,-0.0810445,0.0106812,0.0117111,0.0352097,-0.0741196,0.0173187,-0.0127411,0.0203323,0.0157166,-9.97986,0.065918,-0.0075531,0.0137329,0.0190353,0.000343323,-0.00247955,0.0181198,-0.00476837
3,4,10.0097,0.000305176,-0.00106812,-2.42592,0.055681,-0.0735371,0.0532125,0.0447252,-0.0952827,0.145929,-0.126987,-0.0819601,0.00541687,0.0128937,0.0347137,-0.108871,0.0193787,-0.0111389,0.0312042,0.0216293,-9.97986,0.0577927,-0.0139999,0.0154495,0.0214386,0.00728607,-0.00087738,0.0185013,-0.000534058
3,5,8.73464,0.000305176,-0.00106812,-2.42562,0.0569017,-0.0744527,0.0532125,0.0465563,-0.0943672,0.146539,-0.126072,-0.0822652,0.00396729,0.01297,0.0323105,-0.140762,0.0112152,-0.0144577,0.0345612,0.0185013,-9.97986,0.0508499,-0.0139999,0.0119781,0.0234985,0.00827789,-0.00038147,0.0183868,-0.00190735
3,6,7.63112,-0.000610352,-0.000152588,-2.42623,0.0562914,-0.0747579,0.0529073,0.0566271,-0.0922309,0.146234,-0.126377,-0.0822652,0.00785828,0.02285,0.0308228,-0.141678,0.0221634,-0.0106812,0.0395584,0.0269699,-9.97986,0.0498199,-0.000457764,0.0170898,0.0296021,0.0114822,0.0127411,0.0226212,0.00457764
3,7,7.5649,0.0012207,-0.000305176,-2.42623,0.0559862,-0.0753682,0.0544332,0.0654772,-0.0913154,0.145318,-0.126072,-0.0825704,0.000495911,0.0130463,0.0137329,-0.135574,0.0129318,-0.0161362,0.0193787,0.0188065,-9.97986,0.0402451,-0.00171661,0.0140381,0.0257492,0.00225067,0.00774384,0.0130463,-0.00328064
3,8,7.85298,-0.00152588,0.000457764,-2.42714,0.0559862,-0.0747579,0.0553487,0.0752428,-0.0900947,0.146844,-0.126377,-0.0828756,0.0110245,0.0181961,0.0174332,-0.0809479,0.018692,-0.00530243,0.0201035,0.0229645,-9.97986,0.0501251,0.00480652,0.0108719,0.0274277,0.00583649,0.00782013,0.0151062,-0.00423431
3,9,9.88942,-0.0012207,0.00106812,-2.42776,0.0544603,-0.075063,0.0544332,0.100572,-0.088874,0.145013,-0.12363,-0.0840963,0.0145721,0.0200653,0.0118637,0.0237274,0.0172806,-0.00679016,0.0224686,0.0252533,-9.97986,0.0498581,0.00339508,0.0121689,0.0238037,0.00713348,0.000114441,0.0127411,-0.00495911
4,0,10.0097,0,0.00152588,-2.42837,0.0547655,-0.0753682,0.0526021,0.0886705,-0.0934516,0.144403,-0.124851,-0.0862325,0.022049,0.0231552,0.0200272,0.0683975,0.0162125,-0.0112534,0.0257111,0.0202179,-9.97986,0.0476837,0.00217438,0.0137711,0.0224304,0.00545502,-0.00617981,0.00759125,-0.00782013
4,1,10.0097,0.000915527,0.000305176,-2.42989,0.0544603,-0.0762837,0.0519917,0.0764635,-0.0952827,0.143487,-0.126682,-0.0868429,0.0292969,0.0334167,0.0287628,0.0496674,0.0174332,-0.00411987,0.0257874,0.0227356,-9.97986,0.041275,-0.0102234,0.0172043,0.0291061,0.00202179,-0.0105667,0.00537872,-0.0056076
4,2,10.0097,0.00213623,-0.000610352,-2.42928,0.0532396,-0.075063,0.0529073,0.0728014,-0.095893,0.143792,-0.126987,-0.0877584,0.0397491,0.0390244,0.0345993,0.0272369,0.0193024,-0.00228882,0.0330353,0.0177383,-9.97986,0.03582,-0.014267,0.0148773,0.0259781,0.0062561,-0.0292206,0.00125885,-0.00602722
4,3,10.0097,0.000610352,0.000152588,-2.42928,0.0532396,-0.0768941,0.050771,0.0676134,-0.0971137,0.143182,-0.127292,-0.0877584,0.0229645,0.0423813,0.0404358,-0.0106812,0.0196075,-0.00152588,0.0256729,0.0162888,-9.97986,0.0219727,-0.00804901,0.0156403,0.0191116,0.00434875,-0.0491714,-0.00556946,-0.00656128
4,4,10.0097,-0.000610352,-0.000610352,-2.42837,0.0544603,-0.0747579,0.0532125,0.0679186,-0.0965034,0.143487,-0.128208,-0.0868429,0.00930786,0.0460815,0.0457001,-0.0527954,0.0164032,0.00213623,0.0247574,0.0182724,-9.97986,0.0147629,-7.62939e-005,0.0150681,0.0292587,0.00736237,-0.0458908,-0.00270844,-0.00175476
4,5,10.0097,0.00244141,-0.000915527,-2.42837,0.0550706,-0.0756734,0.0526021,0.07036,-0.0937568,0.143792,-0.126987,-0.0862325,0.0127411,0.0413513,0.0512695,-0.0463104,0.0152969,0.00221252,0.0233078,0.0193024,-9.97986,0.00434875,0.00152588,0.0169754,0.0265884,0.00919342,-0.0327682,-0.00450134,-0.00270844
4,6,10.0097,-0.000610352,-0.000152588,-2.42867,0.0541551,-0.0753682,0.0522969,0.0691393,-0.0937568,0.143792,-0.126072,-0.0850118,0.014267,0.044899,0.0553513,-0.0210953,0.0186539,0.00476837,0.025444,0.0183868,-9.97986,-0.0025177,0.0069046,0.0205612,0.0288391,0.0075531,-0.0136566,-0.00205994,0.000343323
4,7,10.0097,0.000610352,0,-2.42745,0.0535448,-0.0762837,0.0535176,0.0700548,-0.0934516,0.145013,-0.125156,-0.0844015,0.00556946,0.0456238,0.0511169,-0.00888824,0.0149155,0.001297,0.0219727,0.0229263,-9.97986,-0.0178146,0.0018692,0.0216675,0.0259399,0.00709534,0.00694275,-0.00267029,0.00171661
4,8,10.0097,0.000610352,0.000457764,-2.42653,0.0547655,-0.0753682,0.0547383,0.0691393,-0.0931465,0.145624,-0.125766,-0.0825704,-0.00865936,0.0400543,0.0495148,0.00354767,0.0232315,-0.00350952,0.019722,0.0225067,-9.97986,-0.0140381,-0.00457764,0.0214767,0.0331497,0.00865936,0.0300598,0.00572205,0.00202179
4,9,10.0097,0,0.000762939,-2.42562,0.0562914,-0.0747579,0.054128,0.0709703,-0.0913154,0.145013,-0.124851,-0.0813497,-0.0205612,0.0353622,0.0499725,0.0300598,0.0228882,0.00343323,0.0164413,0.0208664,-9.97986,-0.0205231,-0.00450134,0.0253296,0.0329971,0.0123978,0.0510788,0.0038147,0.00312805
5,0,10.0097,0.000610352,-0.000152588,-2.42562,0.055681,-0.0747579,0.0550435,0.07036,-0.0919257,0.146844,-0.125156,-0.0819601,-0.0153351,0.0329971,0.0508499,0.0618362,0.0235748,0.00400543,0.0197983,0.0191879,-9.97986,-0.0243759,-0.00617981,0.0278473,0.0365067,0.00988007,0.0568771,0.00259399,0.00442505
5,1,10.0097,0.0012207,0.000762939,-2.42592,0.0584276,-0.073232,0.0550435,0.0709703,-0.0910102,0.145929,-0.124241,-0.0807394,0.0118256,0.0301361,0.0508881,0.0557327,0.0191116,0.000228882,0.0181961,0.0191116,-9.97986,-0.0282288,-0.000190735,0.028801,0.0364685,0.0114822,0.0553513,0.00614166,0.00301361
5,2,10.0097,-0.000305176,0.000152588,-2.42562,0.0559862,-0.0744527,0.0553487,0.0709703,-0.090705,0.147455,-0.124241,-0.0807394,0.0283432,0.0256348,0.0626373,-0.022049,0.02285,0.00495911,0.0240707,0.0167847,-9.97986,-0.0340652,-0.00709534,0.0271606,0.039711,0.0127792,0.0498962,0.00789642,0.0044632
5,3,10.0097,-0.000610352,0.000305176,-2.42562,0.0562914,-0.0753682,0.0550435,0.0700548,-0.0922309,0.145929,-0.12363,-0.0810445,0.0215912,0.0275421,0.0613785,-0.0374222,0.0222015,0.00434875,0.014801,0.0212097,-9.97986,-0.0335312,-0.0161362,0.0285339,0.03685,0.0124359,0.0406647,0.00595093,0.00160217
5,4,10.0097,-0.00183105,-0.000762939,-2.42653,0.0562914,-0.0723164,0.0532125,0.0435045,-0.0955879,0.146234,-0.125461,-0.0825704,0.0107193,0.0237656,0.0559235,0.0699615,0.0244522,0.00419617,0.00907898,0.0208664,-9.97986,-0.0286102,-0.0031662,0.0256348,0.0419998,0.0138855,0.0273514,0.0019455,0.0030899
5,5,8.71266,-0.000305176,-0.000915527,-2.42409,0.055681,-0.0735371,0.054128,0.0450304,-0.0919257,0.145624,-0.125156,-0.0816549,0.00282288,0.025177,0.0527573,0.186996,0.0236893,0.0125885,0.0174713,0.0161362,-9.97986,-0.026741,-0.000228882,0.0255203,0.0488281,0.0138855,0.0218582,-0.00240326,0.0018692
5,6,7.58779,-0.00183105,-0.000610352,-2.42684,0.0565965,-0.0738423,0.0556539,0.0551012,-0.0913154,0.145929,-0.126072,-0.0813497,0.00946045,0.0340652,0.0374603,0.181351,0.0236511,0.0102234,0.0210953,0.0127792,-9.97986,-0.00835419,0.00804901,0.0283432,0.0481796,0.019722,0.0255203,-0.00946045,0.0056839
5,7,7.49806,0.000305176,-0.000152588,-2.42623,0.0544603,-0.0744527,0.0544332,0.0663927,-0.0925361,0.145624,-0.124851,-0.0831808,0.0189209,0.0389481,0.0273132,0.0985336,0.0216293,0.0124359,0.0188446,0.0131226,-9.97986,0.0181961,-0.00297546,0.0285721,0.0442886,0.0147629,0.0163651,-0.0138474,0.00679016
5,8,7.78493,0.000305176,0.000305176,-2.42714,0.055681,-0.0744527,0.0532125,0.0743273,-0.0910102,0.145013,-0.125156,-0.0834859,0.0453186,0.0426483,0.0167847,0.0452805,0.0259399,0.00114441,0.0166702,0.00846863,-9.97986,0.0360107,-0.0185776,0.0302505,0.0442886,0.0156403,0.00896454,-0.00843048,0.00621796
5,9,9.71089,0.000610352,0.00106812,-2.42653,0.0553758,-0.075063,0.0547383,0.0996569,-0.0891792,0.143792,-0.12363,-0.0837911,0.0778961,0.0430679,0.00553131,0.0408554,0.0262451,-0.00183105,0.018425,0.00675201,-9.97986,0.0457764,-0.0236893,0.0269318,0.0477982,0.0224686,0.0018692,-0.0117493,0.00762939
6,0,10.0097,0.000610352,0.00137329,-2.42928,0.0535448,-0.0756734,0.0519917,0.0898912,-0.0943672,0.142572,-0.125766,-0.0865377,0.0755692,0.0386047,-0.00907898,0.0265503,0.0232697,-0.000228882,0.0220108,0.0063324,-9.97986,0.0439453,-0.00778198,0.0291824,0.0483322,0.019989,0.00339508,-0.013237,0.00946045
6,1,10.0097,-0.000915527,0.000305176,-2.42928,0.055681,-0.0756734,0.0516866,0.0767687,-0.0961982,0.144403,-0.126377,-0.0874532,0.0526047,0.0403214,-0.0249481,0.00358582,0.0294876,-0.0012207,0.0269318,0.00961304,-9.97986,0.0392151,0.00480652,0.030365,0.0495148,0.0206375,0.0105286,-0.0151825,0.0121307
6,2,10.0097,0.000305176,0.000152588,-2.42898,0.0532396,-0.0756734,0.0519917,0.0718859,-0.0961982,0.143182,-0.126987,-0.0868429,0.0217056,0.0407791,-0.0304413,-0.0197983,0.0242615,-0.0088501,0.0217438,0.0101471,-9.97986,0.0173187,-0.00331879,0.0301743,0.0532532,0.0194168,0.00656128,-0.0130844,0.0109863
6,3,10.0097,0.000915527,-0.000915527,-2.42898,0.0529344,-0.0759786,0.0513814,0.0700548,-0.0952827,0.143792,-0.127598,-0.0871481,0.00598907,0.0328445,-0.0299835,-0.0461578,0.0265503,-0.00228882,0.0170898,0.0220108,-9.97986,-0.0043869,0.0118256,0.0310135,0.0517273,0.0166321,-0.00709534,-0.00946045,0.0101852
6,4,10.0097,-0.000915527,0,-2.42867,0.0544603,-0.0753682,0.0529073,0.0691393,-0.0943672,0.143792,-0.126377,-0.0862325,-0.0128174,0.0285339,-0.0318909,-0.0635147,0.030632,0.00537872,0.0191498,0.0217056,-9.97986,-0.0156403,0.0400925,0.0329971,0.0511551,0.0168228,-0.0102997,-0.00770569,0.0137711
6,5,10.0097,0.00152588,-0.000457764,-2.42837,0.0550706,-0.0759786,0.0519917,0.0676134,-0.0949775,0.143487,-0.127598,-0.0859274,-0.0410461,0.0222015,-0.0241852,-0.0828552,0.0275803,0.00713348,0.0214386,0.0310135,-9.97986,-0.0248718,0.0410461,0.0343704,0.0608063,0.0170517,-0.0162125,-0.0114441,0.010376
6,6,10.0097,0.00305176,0,-2.42867,0.0553758,-0.075063,0.0532125,0.07036,-0.0952827,0.144098,-0.126377,-0.0844015,-0.0323105,0.0160599,-0.0109482,-0.0988388,0.028801,0.0111771,0.028801,0.0349045,-9.97986,-0.0259018,0.0308609,0.0341415,0.0625992,0.0168228,-0.014801,-0.0144958,0.0129318
6,7,10.0097,0.00213623,0.000457764,-2.42806,0.0538499,-0.0747579,0.0532125,0.0691393,-0.0943672,0.145013,-0.126377,-0.0840963,-0.0241852,0.0144577,0.00324249,-0.0819397,0.0295258,0.0144958,0.0321198,0.0340271,-9.97986,-0.0146866,0.0261307,0.0309372,0.0556564,0.0123978,-0.0082016,-0.0241089,0.0075531
6,8,10.0097,0.00213623,0.00137329,-2.42714,0.0553758,-0.0747579,0.0547383,0.0694445,-0.0925361,0.145624,-0.125461,-0.0844015,-0.0395584,0.016098,0.0171661,-0.0493622,0.0328445,0.0147629,0.0326538,0.0446701,-9.97986,-0.00682831,0.0120544,0.0316238,0.0670242,0.0147247,-0.00534058,-0.0250626,0.00888824
6,9,10.0097,-0.000915527,0.000610352,-2.4244,0.0565965,-0.0738423,0.0538228,0.0709703,-0.0925361,0.145929,-0.125766,-0.0822652,-0.021019,0.0127029,0.0243759,-0.0308609,0.0322342,0.0167084,0.0301743,0.0376129,-9.97986,3.8147e-005,-0.0133514,0.0310135,0.0663376,0.0173569,-0.0106812,-0.0299835,0.0108337
7,0,10.0097,0.000915527,-0.000305176,-2.42501,0.0569017,-0.0747579,0.0550435,0.0715807,-0.0913154,0.145624,-0.124546,-0.0813497,-0.022316,0.0169373,0.0387192,-0.00431061,0.036087,0.02285,0.0247192,0.038414,-9.97986,-0.00209808,-0.0225449,0.0330353,0.0611115,0.01297,-0.00343323,-0.0353622,0.0124359
7,1,10.0097,0.000610352,0,-2.42531,0.0562914,-0.0744527,0.0538228,0.0688341,-0.0910102,0.147455,-0.123325,-0.0819601,-0.0359344,0.0165558,0.0540924,-0.00228882,0.0349808,0.0162125,0.0245667,0.0379181,-9.97986,-0.00846863,-0.0277328,0.0224686,0.0548935,0.0117111,-0.0149155,-0.0382233,0.00720978
7,2,10.0097,0.0012207,-0.000152588,-2.42653,0.0575121,-0.0741475,0.055959,0.072191,-0.090705,0.14837,-0.123935,-0.0807394,-0.0252151,0.0227737,0.0584412,-0.015564,0.0349808,0.0113678,0.02388,0.0300217,-9.97986,-0.0147629,-0.0403214,0.0148773,0.0468445,0.0145721,-0.0231171,-0.0404739,0.0130463
7,3,10.0097,0.0012207,0.000305176,-2.4244,0.0572069,-0.0741475,0.0547383,0.0706652,-0.0913154,0.14776,-0.123935,-0.0816549,-0.0183868,0.0267029,0.07061,-0.00724792,0.0323486,0.0112152,0.0249481,0.0153351,-9.97986,-0.00858307,-0.031929,0.0149155,0.0501251,0.0200272,-0.0126266,-0.0422287,0.0144958
7,4,10.0097,0.0012207,-0.00137329,-2.42684,0.0559862,-0.0744527,0.0538228,0.0447252,-0.0952827,0.145929,-0.125766,-0.0822652,0.00473022,0.0328064,0.0728226,-0.0215912,0.0329971,0.0107193,0.0239563,0.00160217,-9.97986,-0.00343323,-0.0171661,0.0186539,0.0467682,0.017395,-0.0159073,-0.0437164,0.0123215
7,5,8.65712,0.000915527,-0.00137329,-2.42501,0.0565965,-0.0741475,0.0532125,0.0450304,-0.094062,0.146539,-0.126072,-0.0819601,-0.019989,0.03479,0.0699234,-0.0272369,0.0354385,0.00793457,0.0193787,0.00232697,-9.97986,-0.00656128,-0.0050354,0.0256729,0.0407028,0.018158,-0.00946045,-0.0463486,0.0162125
7,6,7.52126,-0.000305176,-0.00167847,-2.42562,0.0559862,-0.0741475,0.0538228,0.0566271,-0.0913154,0.146234,-0.126987,-0.0828756,-0.0321579,0.0398636,0.0775909,0.0206375,0.0289154,0.0118637,0.0149536,0.0153351,-9.97986,-0.0252533,-0.00205994,0.0278854,0.032196,0.0144958,-0.00728607,-0.0499344,0.0196457
7,7,7.47609,0.000915527,-0.000457764,-2.42623,0.0553758,-0.0738423,0.0550435,0.065172,-0.0925361,0.144708,-0.125156,-0.0834859,0.000991821,0.0453949,0.0854874,0.0347519,0.0317383,0.00919342,0.0140381,0.0341034,-9.97986,-0.0736618,-0.00125885,0.0333023,0.0250626,0.0164795,-0.00694275,-0.0460815,0.0208664
7,8,7.76692,-0.000915527,-0.000610352,-2.42592,0.055681,-0.0744527,0.0532125,0.0724962,-0.0922309,0.145318,-0.125461,-0.0831808,-0.0276184,0.0477219,0.0914764,0.0888824,0.0320053,0.0141144,0.0138855,0.0473022,-9.97986,-0.130501,0.00263214,0.0406265,0.0151443,0.0226593,-0.00816345,-0.0482941,0.0243378
7,9,9.74263,0.000915527,0.000152588,-2.42653,0.0541551,-0.0759786,0.0553487,0.0984362,-0.0900947,0.145318,-0.124241,-0.0834859,-0.0561905,0.0494766,0.0852203,0.20546,0.0317383,0.00118256,0.00835419,0.0487137,-9.97986,-0.156746,0.00827789,0.0556564,0.00709534,0.0224304,-0.00904083,-0.0495911,0.021286
8,0,10.0097,0,0.00106812,-2.42928,0.0529344,-0.0765889,0.0532125,0.0886705,-0.0937568,0.144098,-0.126377,-0.0868429,-0.0761032,0.0424957,0.0767136,0.233154,0.0365067,-0.0012207,0.00404358,0.0432968,-9.97986,-0.141869,0.0148392,0.0627518,0.00297546,0.020256,-0.00850677,-0.056572,0.0246429
8,1,10.0097,-0.000610352,0.000305176,-2.42989,0.0538499,-0.0762837,0.0513814,0.0785997,-0.0952827,0.144098,-0.126377,-0.0865377,-0.0522995,0.0439835,0.0641251,0.18898,0.0328445,-0.00873566,0.00553131,0.0285339,-9.97986,-0.0973511,0.0105667,0.0705719,0.00160217,0.0228882,-0.0094223,-0.0536346,0.0245667
8,2,10.0097,-0.000915527,-0.000610352,-2.42928,0.0529344,-0.0753682,0.0526021,0.0743273,-0.0943672,0.143182,-0.126987,-0.0862325,-0.00957489,0.0374222,0.0505829,0.131569,0.0362396,-0.0145721,0.00431061,0.018692,-9.97986,-0.0429153,0.00667572,0.0840759,0.000343323,0.0222397,-0.000686646,-0.0486755,0.0223923
8,3,10.0097,0.000610352,-0.000762939,-2.42776,0.0535448,-0.075063,0.0529073,0.0700548,-0.0943672,0.142267,-0.126987,-0.0868429,-0.00225067,0.0387573,0.0265884,0.0846481,0.0323486,-0.0151825,0.00724792,0.00556946,-9.97986,-0.0137711,-0.0069809,0.0854492,0.00358582,0.0204086,0.00576019,-0.0420761,0.0244904
8,4,10.0097,-0.00213623,-0.000305176,-2.42898,0.0541551,-0.0762837,0.0519917,0.0700548,-0.0949775,0.142572,-0.127598,-0.0868429,0.00694275,0.0336075,0.000839233,0.0680161,0.0371933,-0.0105286,0.0102997,-0.0285721,-9.97986,-0.0031662,-0.0156403,0.0858688,0.00904083,0.0192642,-0.00274658,-0.0358963,0.0241852
8,5,10.0097,-0.0012207,0.000457764,-2.42898,0.0541551,-0.0762837,0.0522969,0.0700548,-0.0928413,0.143792,-0.127292,-0.0859274,0.00946045,0.0334549,-0.0257874,0.0749969,0.0323105,-0.0111389,0.00862122,-0.0624847,-9.97986,0.034523,-0.0268173,0.0879669,0.00656128,0.0231934,-0.00205994,-0.0340652,0.0217056
8,6,10.0097,-0.000610352,0.000457764,-2.42684,0.0547655,-0.0756734,0.0532125,0.0718859,-0.0922309,0.145013,-0.128208,-0.0850118,0.0840759,0.0241089,-0.0421524,0.0695038,0.0344467,-0.0174713,0.00812531,-0.0740051,-9.97986,0.0477219,-0.028801,0.0930023,0.0151825,0.0259018,-0.0139999,-0.0304413,0.0221634
8,7,10.0097,0.000915527,0.00167847,-2.42592,0.0550706,-0.0756734,0.0532125,0.07036,-0.0922309,0.144403,-0.125461,-0.0834859,0.159836,0.0166321,-0.0534058,0.069046,0.0364304,-0.0156021,0.0154877,-0.0696564,-9.97986,0.0344086,-0.0223923,0.0982285,0.0204849,0.0261688,-0.0116348,-0.025177,0.0201416
8,8,10.0097,0.000915527,0.00137329,-2.42745,0.0550706,-0.07842,0.0535176,0.0688341,-0.0925361,0.145318,-0.124851,-0.0831808,0.11364,0.00514984,-0.0653458,0.0675583,0.0452805,-0.0152969,0.0189972,-0.0531769,-9.97986,0.0268555,-0.0154114,0.0899506,0.0242615,0.0283813,-0.00846863,-0.02285,0.0240326
8,9,10.0097,0.00152588,0.00137329,-2.42562,0.0565965,-0.0741475,0.0535176,0.0691393,-0.0925361,0.14776,-0.124241,-0.0822652,0.0764465,-0.00362396,-0.0697327,0.0489807,0.0409317,-0.0218964,0.0194931,-0.0328445,-9.97986,0.00297546,-0.0138474,0.067482,0.0342941,0.0250244,-0.00511169,-0.0196457,0.0186157
9,0,10.0097,-0.0012207,0,-2.42501,0.0559862,-0.0738423,0.054128,0.0700548,-0.0922309,0.145929,-0.124241,-0.0804342,0.0570297,-0.0104904,-0.0658417,0.0352478,0.0551224,-0.0260925,0.0318146,-0.0192642,-9.97986,-0.0102615,-0.00850677,0.0504303,0.0431824,0.0243378,0.00366211,-0.00873566,0.0203323
9,1,10.0097,0.00152588,0.000610352,-2.4247,0.0575121,-0.0717061,0.0535176,0.0706652,-0.090705,0.145624,-0.125766,-0.0819601,0.0255585,-0.0269318,-0.0702286,0.0144196,0.0535583,-0.026741,0.0243759,-0.00347137,-9.97986,-0.0359344,-0.0129318,0.0283051,0.0501633,0.0239944,0.00461578,-0.00621796,0.0157547
9,2,10.0097,0,0.000915527,-2.42592,0.0562914,-0.0744527,0.0532125,0.0706652,-0.0910102,0.149896,-0.124241,-0.0807394,0.0503922,-0.0263214,-0.0660324,0.000457764,0.0562668,-0.0299072,0.0242615,0.00747681,-9.97986,-0.0662994,-0.0101471,0.0062561,0.0562668,0.021286,0.00442505,0.00400543,0.0128174
9,3,10.0097,0.00152588,0.000305176,-2.42501,0.0547655,-0.0729268,0.0544332,0.0706652,-0.0919257,0.146539,-0.123935,-0.0819601,0.0746155,-0.0196457,-0.0564575,-0.00423431,0.0580978,-0.0350571,0.0275421,0.0239182,-9.97986,-0.0641632,-0.0105286,-0.00606537,0.0558853,0.0147629,-0.00335693,0.0105667,0.00823975
9,4,10.0097,-0.00183105,-0.00106812,-2.42653,0.0562914,-0.0735371,0.0526021,0.0450304,-0.0955879,0.147149,-0.126072,-0.0816549,0.0499344,-0.0156784,-0.0544739,-0.00694275,0.0656509,-0.0356674,0.0252533,0.0261688,-9.97986,-0.0735474,-0.0101471,-0.022049,0.0587463,0.0130463,-0.0101471,0.0213623,0.00362396
9,5,8.78133,0.000915527,-0.00106812,-2.42501,0.0575121,-0.0735371,0.0535176,0.0462511,-0.0928413,0.145624,-0.125461,-0.0816549,0.00652313,-0.0173187,-0.0426483,-0.00236511,0.0645828,-0.0344467,0.0180435,0.0297928,-9.97986,-0.0450516,-0.00907898,-0.0344467,0.0566101,0.013237,-0.0140762,0.0326538,-0.00087738
9,6,7.67629,0.000915527,0,-2.42623,0.0553758,-0.0735371,0.054128,0.0590685,-0.0925361,0.145929,-0.126377,-0.0816549,-0.0228119,-0.0112534,-0.0337219,0.0192642,0.0695419,-0.0304413,0.021553,0.031662,-9.97986,0.0735474,-0.0063324,-0.0480652,0.0662613,0.00576019,-0.0192642,0.0392532,-0.00389099
9,7,7.61861,0.000915527,0.000152588,-2.42623,0.0553758,-0.0775044,0.0544332,0.0694445,-0.0931465,0.144708,-0.125461,-0.0822652,-0.0447083,-0.012207,-0.0273514,0.0392532,0.0696945,-0.029335,0.0268173,0.0320816,-9.97986,0.220337,0.000190735,-0.0642014,0.0664139,0.00469208,-0.0226974,0.044136,-0.0102997
9,8,7.94484,0.00213623,0.000762939,-2.42592,0.0547655,-0.0747579,0.0550435,0.0770738,-0.0913154,0.145013,-0.125156,-0.0828756,-0.0629044,-0.00339508,-0.017395,0.0292206,0.0725555,-0.0187683,0.0267792,0.0424576,-9.97986,0.323601,0.00297546,-0.0695419,0.0685501,-0.00473022,-0.0194931,0.0456238,-0.0123215
9,9,9.93703,0.000305176,0.0012207,-2.42714,0.0547655,-0.0753682,0.0538228,0.100267,-0.0897895,0.146234,-0.124851,-0.0837911,-0.0725555,-0.000915527,-0.0151825,0.0136566,0.077858,-0.0189209,0.0247192,0.050354,-9.97986,0.322571,0.00694275,-0.0756073,0.0676346,0.00259399,-0.0193405,0.0455093,-0.013237
10,0,10.0097,0.00152588,0.000915527,-2.4305,0.0544603,-0.0814717,0.0532125,0.0883654,-0.094062,0.142877,-0.124851,-0.0868429,-0.0524902,0.00392914,-0.00736237,0.00270844,0.0746536,-0.0163651,0.0249863,0.0484085,-9.97986,0.267296,0.00553131,-0.0802994,0.0662613,-0.000305176,-0.0160599,0.0465393,-0.0138092
10,1,10.0097,-0.000915527,0.000152588,-2.4305,0.0538499,-0.0756734,0.0516866,0.0761583,-0.0949775,0.144403,-0.126682,-0.0868429,-0.0519943,0.0124741,-0.00621796,-0.00240326,0.0811005,-0.0139999,0.0244522,0.0323105,-9.97986,0.220108,-0.00988007,-0.0883484,0.0574875,0,-0.0315857,0.0423431,-0.0160599
10,2,10.0097,-0.000610352,0,-2.42898,0.0544603,-0.0756734,0.0519917,0.0688341,-0.095893,0.144403,-0.126987,-0.0868429,-0.0950241,0.0169373,-0.00606537,-0.00213623,0.0785065,-0.0134659,0.0217819,0.00347137,-9.97986,0.17868,-0.0199127,-0.0921631,0.0587082,-0.00614166,-0.0373077,0.044899,-0.0143051
10,3,10.0097,0.000305176,0.000762939,-2.42867,0.0544603,-0.0753682,0.0516866,0.0685289,-0.0946723,0.143792,-0.126682,-0.0868429,-0.116844,0.0151825,-0.00167847,-0.00305176,0.0780869,-0.0151062,0.017395,-0.0187683,-9.97986,0.126038,-0.0141525,-0.0920486,0.0657272,-0.0062561,-0.0309372,0.0540543,-0.0105286
10,4,10.0097,0.000915527,-0.000610352,-2.42898,0.0523241,-0.0756734,0.0516866,0.07036,-0.094062,0.144098,-0.126682,-0.0868429,-0.0724792,0.0174332,0.00434875,-0.00988007,0.0729752,-0.0175476,0.0135422,-0.016098,-9.97986,0.067749,0.00175476,-0.0949097,0.0509262,-0.00640869,-0.0215149,0.058403,-0.00606537
10,5,10.0097,0.000610352,-0.00137329,-2.42806,0.0538499,-0.0762837,0.0532125,0.0676134,-0.0943672,0.143182,-0.126377,-0.0856222,0.0214005,0.017128,0.0121689,-0.0114822,0.0656891,-0.018158,0.0179291,-0.000572205,-9.97986,0.0123978,0.0075531,-0.0942993,0.0386429,-0.00598907,-0.0219345,0.0630188,0.00270844
10,6,10.0097,0.000610352,-0.0012207,-2.42684,0.0541551,-0.0768941,0.0535176,0.0688341,-0.0931465,0.144098,-0.127292,-0.0856222,0.0782394,0.0153732,0.0195313,-0.0154114,0.0617981,-0.0229263,0.0172424,0.00358582,-9.97986,-0.026474,-0.000724792,-0.0865936,0.0266266,-0.00724792,-0.0173187,0.0645447,0.00621796
10,7,10.0097,0.00152588,-0.00152588,-2.42684,0.0514085,-0.075063,0.0529073,0.067003,-0.094062,0.145624,-0.126072,-0.0847066,0.0791931,0.0177002,0.0215149,-0.0200653,0.0589752,-0.0248337,0.0171661,-0.0114059,-9.97986,-0.073967,-0.00427246,-0.0730515,0.00915527,-0.00869751,-0.0144577,0.047493,0.00980377
10,8,10.0097,-0.000610352,-0.000915527,-2.42745,0.0562914,-0.075063,0.0538228,0.0682238,-0.0925361,0.146234,-0.126377,-0.0834859,0.055542,0.0222015,0.0276566,-0.0159836,0.0526428,-0.0308228,0.016098,-0.0188065,-9.97986,-0.135498,-0.00896454,-0.0613022,-0.000343323,-0.0152588,-0.0110626,0.0469971,0.0170898
10,9,10.0097,0.000610352,-0.000610352,-2.42501,0.055681,-0.0747579,0.0547383,0.0685289,-0.0922309,0.145929,-0.125156,-0.0822652,0.0442886,0.0197983,0.026474,-0.0244904,0.0468826,-0.0343704,0.019455,-0.0169754,-9.97986,-0.162735,-0.00492096,-0.0497437,-0.00274658,-0.00785828,-0.0138474,0.0434494,0.0214005
11,0,10.0097,-0.000610352,0.000457764,-2.42562,0.0529344,-0.0744527,0.0562642,0.072191,-0.0913154,0.146234,-0.124851,-0.0813497,0.088768,0.0131989,0.0189972,-0.0257492,0.0431442,-0.0366592,0.0166321,-0.00782013,-9.97986,-0.134354,-0.0069046,-0.0332642,-0.00602722,-0.0110626,-0.00629425,0.0398636,0.0294876
11,1,10.0097,0.000610352,0.000152588,-2.42379,0.0559862,-0.0738423,0.0562642,0.0734117,-0.0922309,0.147149,-0.124851,-0.0819601,0.129776,0.01194,0.0159073,-0.0307465,0.0464249,-0.0367355,0.0197601,-0.0025177,-9.97986,-0.0537109,-0.0211334,-0.0225067,-0.00278473,-0.0087738,-0.00286102,0.0325012,0.0424576
11,2,10.0097,0.00152588,-0.000152588,-2.42592,0.0559862,-0.0741475,0.0562642,0.0737169,-0.0931465,0.147455,-0.12363,-0.0810445,0.118179,0.00652313,0.011673,-0.0284958,0.0356674,-0.0375366,0.021553,0.000839233,-9.97986,0.0276566,-0.0258636,0.00133514,0.000839233,-0.00484467,-0.0088501,0.0317764,0.0481796
11,3,10.0097,0.00152588,0.00137329,-2.42501,0.0541551,-0.073232,0.054128,0.0709703,-0.0913154,0.146539,-0.12302,-0.0807394,0.0775528,0.00747681,0.0172043,-0.0304413,0.0323486,-0.037384,0.0273895,-0.000610352,-9.97986,0.0553894,-0.0306702,0.0248718,0.00541687,-0.00495911,-0.0107574,0.034523,0.0556564
11,4,10.0097,0.000915527,0.000305176,-2.42592,0.0569017,-0.0738423,0.0535176,0.0447252,-0.0925361,0.146234,-0.125461,-0.0816549,0.0525665,0.00484467,0.0199509,-0.030098,0.0335693,-0.0224686,0.0243378,-0.0056076,-9.97986,0.0468826,-0.030632,0.0363159,0.0210571,-0.00114441,-0.0131226,0.0390244,0.068779
11,5,8.84542,-0.000305176,0,-2.42562,0.0562914,-0.0738423,0.0556539,0.0465563,-0.0934516,0.146539,-0.126682,-0.0807394,0.0465012,0.00827789,0.0229263,-0.0287628,0.0251007,-0.0271988,0.021286,-0.0145721,-9.97986,0.0471497,-0.0411224,0.0474548,0.0256348,0.00125885,-0.0181961,0.0436401,0.0743866
11,6,7.74983,-0.000305176,0.000915527,-2.42592,0.0529344,-0.0741475,0.0565694,0.0572374,-0.0925361,0.148065,-0.126072,-0.0816549,0.0373459,0.0128555,0.0196838,-0.0300598,0.02491,-0.0331879,0.0231934,-0.0186539,-9.97986,0.0488281,-0.0372696,0.0645447,0.0369644,0.00305176,-0.0181198,0.0421906,0.0808334
11,7,7.75746,-0.000610352,0.00137329,-2.42684,0.0550706,-0.075063,0.054128,0.067003,-0.0931465,0.146539,-0.125461,-0.0822652,0.0453568,0.0152969,0.0178909,-0.0262451,0.0224686,-0.0394058,0.0231171,-0.0132751,-9.97986,0.0965881,-0.0288773,0.0758362,0.0513458,0.0056076,-0.0122833,0.0395584,0.0866699
11,8,8.08095,0.00274658,0.00183105,-2.42684,0.0562914,-0.0756734,0.0553487,0.075548,-0.090705,0.144708,-0.126072,-0.0828756,0.0603867,0.00953674,0.018692,-0.0291443,0.0168991,-0.0564194,0.0217438,-0.00671387,-9.97986,0.164223,-0.0255585,0.0907135,0.0672531,0.00576019,-0.0069046,0.0531387,0.0910187
11,9,10.0097,0.000610352,0.00305176,-2.42684,0.0581224,-0.0759786,0.0553487,0.102098,-0.0894843,0.144403,-0.123935,-0.0844015,0.0689697,0.00869751,0.0159836,-0.0292587,0.0297928,-0.052681,0.021019,0.00907898,-9.97986,0.179176,-0.0269318,0.101204,0.0826263,0.00720978,-0.00221252,0.0676727,0.0975037
12,0,10.0097,-0.000610352,0.00228882,-2.42898,0.0538499,-0.0762837,0.0519917,0.0880602,-0.0937568,0.143792,-0.126987,-0.0862325,0.0482941,0.00598907,0.0155258,-0.0279617,0.030098,-0.0533295,0.0248718,0.0122452,-9.97986,0.172272,-0.0367355,0.100784,0.0845718,0.00862122,-0.00244141,0.0827789,0.0980377
12,1,10.0097,0.000305176,0.000610352,-2.42928,0.0559862,-0.0756734,0.0519917,0.075548,-0.0949775,0.144098,-0.127292,-0.0868429,0.0283432,0.0123596,0.0213242,-0.0215912,0.0216675,-0.0579834,0.0206757,0.0107574,-9.97986,0.167274,-0.0369263,0.109024,0.0888824,0.00934601,-0.00225067,0.088501,0.0995636
12,2,10.0097,-0.00152588,0.000152588,-2.42837,0.0501878,-0.0753682,0.0522969,0.0709703,-0.0946723,0.143792,-0.126377,-0.0862325,0.0147629,0.0118256,0.0191116,-0.0216675,0.0161743,-0.0650787,0.0175858,0.0150299,-9.97986,0.156021,-0.0320816,0.11425,0.0925446,0.00595093,0.00480652,0.0969696,0.100327
12,3,10.0097,0.00183105,-0.000610352,-2.42806,0.0544603,-0.0759786,0.0522969,0.0697496,-0.101691,0.143792,-0.127292,-0.0868429,0.0216293,0.0126266,0.0207901,-0.024147,-0.00110626,-0.0613785,0.0193405,0.0242233,-9.97986,0.143433,-0.0274277,0.120201,0.0954819,0.00900269,0.00324249,0.111427,0.098114
12,4,10.0097,0.000915527,-0.000305176,-2.42898,0.0532396,-0.0747579,0.0516866,0.0691393,-0.0943672,0.143182,-0.126987,-0.0868429,0.0189972,0.014534,0.0281525,-0.0245667,-0.0186539,-0.0482941,0.0150299,0.0328827,-9.97986,0.133667,-0.0240707,0.125465,0.0959015,0.00740051,0.00209808,0.120277,0.0967789
12,5,10.0097,0.0012207,-0.00137329,-2.42898,0.050493,-0.0747579,0.0532125,0.0691393,-0.0949775,0.143487,-0.126987,-0.0862325,-0.0384521,0.0211716,0.0244522,-0.0245667,-0.0340652,-0.0258255,0.0152206,0.0337982,-9.97986,0.133705,-0.0224304,0.127907,0.0921249,0.00511169,0.00102997,0.13607,0.094223
12,6,10.0097,0.000915527,0,-2.42653,0.0535448,-0.075063,0.0535176,0.0688341,-0.0949775,0.143487,-0.125766,-0.085317,-0.079689,0.0261688,0.030899,-0.0187302,-0.0471115,-0.00419617,0.0174713,0.0305939,-9.97986,0.131798,-0.0164032,0.133743,0.0926208,0.00392914,-0.0063324,0.151787,0.0905609
12,7,10.0097,0.000610352,-0.000457764,-2.42653,0.0547655,-0.0756734,0.0532125,0.0694445,-0.0931465,0.145013,-0.126377,-0.0847066,-0.0733185,0.019455,0.031929,-0.0225067,-0.0708389,0.0128174,0.00995636,0.0333023,-9.97986,0.0914764,-0.00843048,0.128517,0.0933456,0.000495911,-0.0163651,0.162964,0.0875854
12,8,10.0097,0.00396729,0.000305176,-2.42714,0.0541551,-0.0747579,0.054128,0.0706652,-0.0925361,0.144403,-0.124241,-0.0831808,-0.02285,0.0262833,0.0381088,-0.0183487,-0.0876617,0.0345612,0.0180817,0.0373077,-9.97986,0.0546265,-0.0106049,0.126762,0.0937653,0.000343323,-0.0148773,0.177689,0.0876617
12,9,10.0097,0.0012207,0,-2.42501,0.0562914,-0.0735371,0.0553487,0.0712755,-0.0855171,0.145929,-0.124851,-0.0822652,0.038147,0.0328064,0.0420761,-0.0142288,-0.119286,0.0537491,0.0107956,0.0437927,-9.97986,0.0354385,-0.0151062,0.134087,0.0846481,-0.00133514,-0.0107574,0.185699,0.0831223
13,0,10.0097,0.000610352,-0.000610352,-2.4247,0.0578172,-0.0738423,0.054128,0.0706652,-0.0913154,0.145929,-0.125156,-0.0819601,0.0680923,0.0341415,0.0403214,-0.0102234,-0.143242,0.073204,0.00835419,0.042572,-9.97986,0.00564575,-0.0136948,0.140839,0.0923538,-0.00358582,-0.01297,0.200081,0.079689
13,1,10.0097,0.00213623,0.000305176,-2.42531,0.0507982,-0.0741475,0.0556539,0.0685289,-0.0913154,0.146234,-0.12363,-0.0816549,0.0802231,0.0355911,0.0483704,-0.00682831,-0.166779,0.098114,0.00938416,0.0365448,-9.97986,-0.0157547,-0.0187302,0.150642,0.100746,-0.00419617,-0.013237,0.218925,0.0776291
13,2,10.0097,-0.000610352,0.000305176,-2.42562,0.0562914,-0.0738423,0.0562642,0.0706652,-0.0864326,0.146539,-0.12363,-0.0816549,0.0600433,0.0415802,0.0476456,-0.00629425,-0.196495,0.121536,0.00984192,0.0296402,-9.97986,-0.020752,-0.0197601,0.151634,0.0993729,-0.00591278,-0.0128174,0.232506,0.0789642
13,3,10.0097,0.0012207,0.000610352,-2.42501,0.0572069,-0.0744527,0.0544332,0.07036,-0.0919257,0.145929,-0.124241,-0.0804342,0.0211716,0.038681,0.0488281,-0.00476837,-0.223808,0.145264,0.00789642,0.0195694,-9.97986,-0.0228882,-0.0163651,0.144119,0.105133,-0.00835419,-0.0150681,0.245476,0.068779
13,4,10.0097,0.000610352,-0.000305176,-2.42623,0.0544603,-0.0747579,0.054128,0.04442,-0.0955879,0.145624,-0.127292,-0.0822652,0.00240326,0.0411987,0.0542068,0.00312805,-0.250969,0.169563,0.00778198,0.0147629,-9.97986,-0.0105286,-0.00774384,0.138397,0.115051,-0.00988007,-0.00869751,0.262718,0.0650787
13,5,8.72731,-0.000305176,-0.000915527,-2.42623,0.0569017,-0.073232,0.0538228,0.0441149,-0.0885688,0.145624,-0.127598,-0.0816549,-0.00366211,0.039711,0.0479126,-0.00270844,-0.277634,0.179253,0.00434875,0.0241852,-9.97986,-0.00411987,-0.00339508,0.127945,0.11055,-0.00480652,0.00328064,0.265846,0.0650406
13,6,7.57375,-0.000915527,-0.00167847,-2.42653,0.0569017,-0.0738423,0.0538228,0.054796,-0.0931465,0.147149,-0.126072,-0.0825704,-0.0416183,0.0437164,0.0485992,-0.00427246,-0.2948,0.18589,0.00423431,0.0400543,-9.97986,-0.018692,-0.00740051,0.114479,0.0925827,-0.00644684,0.0123596,0.251312,0.0614166
13,7,7.49288,-0.000305176,-0.00198364,-2.42623,0.0584276,-0.0738423,0.0547383,0.0639513,-0.0922309,0.144708,-0.125766,-0.0837911,-0.0892258,0.0437164,0.0536728,0.00209808,-0.298958,0.195961,0.00526428,0.043869,-9.97986,-0.0486374,-0.0139999,0.0998688,0.0851059,-0.00377655,0.0108337,0.247421,0.0558853
13,8,7.78493,0,-0.000762939,-2.42623,0.0559862,-0.0756734,0.0544332,0.0740221,-0.0922309,0.145318,-0.125461,-0.0828756,-0.0902557,0.0439072,0.0487137,0.00202179,-0.297737,0.193253,0.0037384,0.0382614,-9.97986,-0.0663376,-0.00534058,0.0850677,0.0825882,-0.000267029,0.00507355,0.246162,0.0446701
13,9,9.82869,0.0012207,0.000610352,-2.42684,0.0550706,-0.075063,0.0553487,0.101183,-0.0879585,0.145318,-0.124851,-0.0834859,-0.0741577,0.0442886,0.0498962,0.00476837,-0.286751,0.19001,0.00328064,0.0316238,-9.97986,-0.0613403,-0.00389099,0.0683975,0.0753403,-0.00228882,0.00370026,0.241623,0.0392914
14,0,10.0097,0.000305176,0.000915527,-2.42898,0.0532396,-0.0765889,0.0513814,0.0911119,-0.0943672,0.143487,-0.126682,-0.0874532,-0.0326538,0.0464249,0.0532913,0.0056076,-0.278549,0.196114,0.00167847,0.0204468,-9.97986,-0.0447845,-0.00572205,0.0518417,0.0712204,0.00267029,0.00846863,0.238724,0.032196
14,1,10.0097,-0.00244141,-0.000305176,-2.42898,0.0538499,-0.0768941,0.0519917,0.0776842,-0.0968086,0.143792,-0.127292,-0.0874532,-0.0063324,0.0379562,0.0528336,0.0113678,-0.267525,0.187912,0.000190735,0.00431061,-9.97986,0.00217438,-0.0075531,0.0276947,0.0603867,0.00808716,0.0087738,0.243912,0.017662
14,2,10.0097,-0.0012207,-0.000610352,-2.42776,0.0547655,-0.0762837,0.0522969,0.0724962,-0.0943672,0.143487,-0.127598,-0.0871481,-0.00133514,0.0415802,0.0508118,0.00968933,-0.243187,0.182915,0.00362396,0.00705719,-9.97986,0.041275,-0.0107193,0.0157166,0.0550079,0.00881195,0.0164413,0.247345,0.0143051
14,3,10.0097,-0.000915527,-0.000915527,-2.42989,0.0523241,-0.0756734,0.0513814,0.0709703,-0.0949775,0.144098,-0.126377,-0.0868429,-0.0131989,0.0479889,0.0505447,0.0112152,-0.21492,0.177345,0.00179291,-0.00114441,-9.97986,0.0580978,-0.00190735,-0.00980377,0.0524902,0.0113297,0.0218964,0.238724,0.00461578
14,4,10.0097,-0.000305176,-0.000152588,-2.42928,0.0526292,-0.0762837,0.0513814,0.0688341,-0.0910102,0.142877,-0.126682,-0.085317,0.0195694,0.049057,0.0534058,0.0180435,-0.186958,0.173264,0.00038147,-0.0257874,-9.97986,0.0381088,0.0038147,-0.033493,0.0522232,0.0128937,0.0360489,0.239487,0.00141144
14,5,10.0097,0,-0.000152588,-2.42776,0.0541551,-0.0756734,0.0513814,0.0694445,-0.0934516,0.144403,-0.127292,-0.0859274,0.118713,0.0439072,0.0471115,0.0183487,-0.161781,0.172348,0.00221252,-0.0398636,-9.97986,-0.0216675,0.00617981,-0.0528717,0.0614929,0.0214005,0.0337601,0.249786,-0.0037384
14,6,10.0097,0,0.00106812,-2.42714,0.0538499,-0.0756734,0.0529073,0.0691393,-0.0934516,0.145013,-0.126072,-0.085317,0.162735,0.0465012,0.0398636,0.0182724,-0.132294,0.168037,0.0056076,-0.0248718,-9.97986,-0.0849533,0.00278473,-0.0714874,0.0737,0.0220871,0.0366211,0.248718,-0.0105286
14,7,10.0097,0.000305176,0.000457764,-2.42776,0.0553758,-0.0741475,0.054128,0.0673082,-0.0955879,0.142572,-0.126377,-0.085317,0.124702,0.0347137,0.034256,0.0133133,-0.10582,0.159569,0.00183105,-0.00358582,-9.97986,-0.153656,0.00881195,-0.0808716,0.0736237,0.0217438,0.0476837,0.247459,-0.0154877
14,8,10.0097,-0.000305176,0.000762939,-2.42745,0.0550706,-0.0741475,0.0529073,0.0682238,-0.0934516,0.145624,-0.126377,-0.0844015,0.0764465,0.0312424,0.0308609,0.0101852,-0.0852585,0.150146,0.0056076,0.00469208,-9.97986,-0.200005,0.00980377,-0.0961304,0.0748825,0.0289536,0.0515747,0.23243,-0.0222015
14,9,10.0097,0.000610352,0.000457764,-2.42562,0.0617845,-0.0735371,0.0547383,0.0697496,-0.0925361,0.146234,-0.124851,-0.0822652,0.0270844,0.0282669,0.0269318,0.014267,-0.0692368,0.140114,0.0044632,0.00522614,-9.97986,-0.215607,0.00434875,-0.113945,0.0788879,0.0308609,0.0543976,0.213966,-0.022049
15,0,10.0097,0,0.000305176,-2.42562,0.0565965,-0.075063,0.054128,0.07036,-0.0931465,0.146539,-0.124851,-0.0813497,0.000610352,0.0244141,0.0275421,0.00976563,-0.0500107,0.116997,0.0113678,0.00179291,-9.97986,-0.208206,0.0152588,-0.121498,0.0884628,0.0416183,0.0605011,0.199051,-0.0255966
15,1,10.0097,-0.000305176,-0.000305176,-2.4247,0.0578172,-0.0735371,0.0550435,0.0724962,-0.0922309,0.147149,-0.123935,-0.0819601,0.00953674,0.0246811,0.0234985,0.016098,-0.0376511,0.110855,0.0113297,-0.00679016,-9.97986,-0.167694,0.0172043,-0.14225,0.0802231,0.0409698,0.0570679,0.176315,-0.0332642
15,2,10.0097,0.000610352,-0.000610352,-2.42562,0.0553758,-0.0735371,0.0544332,0.0724962,-0.0922309,0.147455,-0.124241,-0.0807394,0.00850677,0.0230026,0.0204086,0.0168228,-0.0212097,0.100021,0.0143433,-0.00286102,-9.97986,-0.0736618,0.0163651,-0.144005,0.0679398,0.0538254,0.0578308,0.154343,-0.0269699
15,3,10.0097,0.00183105,-0.000457764,-2.42379,0.0562914,-0.0735371,0.0550435,0.0737169,-0.0946723,0.146844,-0.124851,-0.0810445,0.0228119,0.0213242,0.0173187,0.0131607,-0.0088501,0.0977325,0.0138092,0.00667572,-9.97986,0.0257874,0.0138855,-0.145912,0.0680542,0.0545502,0.0562286,0.122795,-0.0269699
15,4,10.0097,0,-0.000610352,-2.42501,0.0569017,-0.075063,0.054128,0.0428942,-0.0952827,0.145624,-0.126072,-0.0825704,0.0247192,0.025177,0.0144196,0.0141525,0.0087738,0.0929642,0.0213242,0.0184631,-9.97986,0.0706482,0.0122833,-0.150948,0.0689316,0.0556946,0.0518417,0.0794983,-0.0263214
15,5,8.66078,0.000915527,-0.00183105,-2.42531,0.0602586,-0.0741475,0.0547383,0.042589,-0.0949775,0.145624,-0.126072,-0.0819601,-0.0395584,0.0172043,0.0168228,0.0156403,0.026741,0.086937,0.0207901,0.0240326,-9.97986,0.054512,0.0162506,-0.145836,0.0601578,0.0678253,0.0416946,0.0405121,-0.0220108
15,6,7.52919,0.00152588,-0.00137329,-2.42501,0.0569017,-0.073232,0.0547383,0.0544908,-0.0952827,0.147149,-0.125766,-0.0819601,-0.106659,0.020752,0.0170517,0.0113678,0.0424576,0.0808716,0.0229645,0.0346756,-9.97986,0.0308609,0.0167084,-0.142021,0.0456238,0.0717545,0.0359344,0.0149155,-0.0166321
15,7,7.49684,0.000305176,-0.000762939,-2.42592,0.0550706,-0.0738423,0.0544332,0.0648668,-0.0922309,0.145624,-0.126377,-0.0828756,-0.134735,0.028038,0.0196838,0.0165176,0.0490189,0.0704956,0.0246048,0.0294876,-9.97986,0.0152588,0.018692,-0.135651,0.0335693,0.0786591,0.0355148,0.00572205,-0.0140762
15,8,7.79805,0.000610352,-0.000915527,-2.42623,0.0538499,-0.0744527,0.0553487,0.075548,-0.0903999,0.145318,-0.125461,-0.0828756,-0.103874,0.0278473,0.0214386,0.0165558,0.0540161,0.0606537,0.0207138,0.0217438,-9.97986,0.018692,0.0232315,-0.124016,0.0241852,0.0820923,0.0346375,-0.0103378,-0.0135803
15,9,9.83876,0,0.000457764,-2.42684,0.0544603,-0.075063,0.0553487,0.100267,-0.0882636,0.144098,-0.123325,-0.0837911,-0.0236893,0.0274277,0.0255966,0.0173187,0.0599289,0.0469971,0.0224686,0.0226974,-9.97986,0.0205994,0.0113297,-0.109291,0.0193787,0.0824738,0.0287247,-0.0331497,-0.0212479
16,0,10.0097,-0.000610352,0.000915527,-2.42776,0.0547655,-0.075063,0.0522969,0.0908068,-0.0931465,0.142572,-0.126072,-0.0859274,0.0269318,0.0304031,0.0255203,0.0179291,0.064621,0.039444,0.0240326,0.0217819,-9.97986,0.0382233,0.022049,-0.0803375,0.0246048,0.0935745,0.0270462,-0.0482559,-0.0138474
16,1,10.0097,0,0.000305176,-2.42867,0.0575121,-0.0762837,0.0522969,0.0761583,-0.0952827,0.143487,-0.129123,-0.0871481,0.0501633,0.030632,0.021286,0.0148392,0.063858,0.029335,0.0215149,0.0286865,-9.97986,0.0413132,0.0141144,-0.0555801,0.0214767,0.0947189,0.0208282,-0.0692368,-0.0280762
16,2,10.0097,0.000305176,-0.000457764,-2.42867,0.0541551,-0.075063,0.0538228,0.0709703,-0.0937568,0.143792,-0.126987,-0.0868429,0.0633621,0.0304031,0.0242615,0.0151062,0.0690079,0.0298691,0.0286102,0.0402832,-9.97986,0.0486755,0.011673,-0.0297546,0.0252914,0.10025,0.027771,-0.0839233,-0.0317383
16,3,10.0097,0.00183105,-0.000152588,-2.42806,0.0547655,-0.0756734,0.0513814,0.0718859,-0.0946723,0.142572,-0.126682,-0.0874532,0.103912,0.0283432,0.0173187,0.0106812,0.0624466,0.020752,0.0228882,0.0432205,-9.97986,0.0546265,0.013504,-0.00968933,0.032196,0.103493,0.0247192,-0.0994873,-0.0365829
16,4,10.0097,0.000915527,-0.000152588,-2.42928,0.0544603,-0.075063,0.0526021,0.0676134,-0.0949775,0.143487,-0.133701,-0.0868429,0.115395,0.0283813,0.018425,0.0139618,0.0642776,0.017128,0.0260162,0.0466919,-9.97986,0.0562668,0.0203323,0.00297546,0.0302124,0.106392,0.0215912,-0.098877,-0.0483322
16,5,10.0097,-0.00244141,0.000305176,-2.42776,0.0535448,-0.0753682,0.0532125,0.0676134,-0.0955879,0.143487,-0.126987,-0.0871481,0.0940323,0.0278473,0.0204468,0.0127792,0.0663376,0.00976563,0.0270081,0.0453949,-9.97986,0.0498199,0.0244522,0.0111008,0.0368881,0.11158,0.0115967,-0.101318,-0.0548553
16,6,10.0097,-0.00183105,-0.000610352,-2.42837,0.0547655,-0.0753682,0.0556539,0.0706652,-0.0937568,0.143792,-0.125156,-0.0844015,0.0655746,0.0271988,0.0166702,0.0162125,0.0647736,0.00289917,0.0242996,0.0489044,-9.97986,0.0746918,0.0202179,0.0136948,0.0362778,0.113029,0.00370026,-0.0989151,-0.0627899
16,7,10.0097,0,-0.000457764,-2.42837,0.055681,-0.0741475,0.0532125,0.0688341,-0.0937568,0.144708,-0.126377,-0.0847066,0.00576019,0.0295258,0.018425,0.0139236,0.0632095,-0.00221252,0.0239944,0.0506592,-9.97986,0.093956,0.0194931,0.0131607,0.0319672,0.114708,-0.0123596,-0.0864792,-0.0685883
16,8,10.0097,-0.000610352,0.000152588,-2.42684,0.0547655,-0.0738423,0.0535176,0.0688341,-0.0934516,0.146234,-0.126072,-0.0840963,-0.038681,0.0267792,0.0155258,0.0169754,0.0697327,-0.010376,0.0245285,0.0505829,-9.97986,0.0877762,0.019722,0.0114822,0.0289536,0.120888,-0.0231934,-0.0717926,-0.0624466
16,9,10.0097,0.00152588,-0.000305176,-2.42531,0.0559862,-0.075063,0.0553487,0.0712755,-0.0919257,0.14837,-0.125156,-0.0825704,-0.0477219,0.0360107,0.0190353,0.0165558,0.0796127,-0.0157166,0.0259018,0.0487137,-9.97986,0.0611115,0.0160599,0.00598907,0.0233078,0.124588,-0.0285339,-0.0660706,-0.0617981
17,0,10.0097,0.000305176,-0.000305176,-2.42562,0.0553758,-0.0735371,0.054128,0.0700548,-0.0910102,0.145929,-0.124546,-0.0816549,-0.0374222,0.0399399,0.0223541,0.0183868,0.0833893,-0.0206375,0.0252914,0.0445938,-9.97986,0.0283432,0.0200653,0.00839233,0.0155258,0.127411,-0.0292587,-0.0677109,-0.0559616
17,1,10.0097,0.000305176,-0.000915527,-2.4247,0.0559862,-0.0735371,0.0544332,0.0709703,-0.0910102,0.146539,-0.124241,-0.0813497,-0.0124359,0.0360107,0.0186539,0.0179291,0.0886917,-0.0288773,0.0315475,0.0520325,-9.97986,-0.00934601,0.0117874,-0.00377655,-0.0030899,0.12825,-0.0381088,-0.0637817,-0.050087
17,2,10.0097,0.00152588,-0.00137329,-2.42348,0.0565965,-0.0744527,0.0574849,0.0691393,-0.0913154,0.148065,-0.12241,-0.0819601,-0.0268173,0.0412369,0.0203705,0.0221634,0.0969696,-0.0334167,0.0328445,0.0493622,-9.97986,-0.0228119,0.0115585,-0.00846863,-0.0164413,0.13176,-0.0332642,-0.0596237,-0.0414276
17,3,10.0097,0.000305176,-0.000762939,-2.4247,0.0541551,-0.073232,0.0544332,0.0706652,-0.0916206,0.145929,-0.12302,-0.0816549,-0.0301743,0.0415802,0.0188446,0.018692,0.0951767,-0.0403214,0.0289917,0.0554276,-9.97986,-0.0183105,0.00953674,-0.0136948,-0.0340271,0.130806,-0.0294113,-0.0583267,-0.038681
17,4,10.0097,0.000915527,-0.00167847,-2.42592,0.0562914,-0.0744527,0.0535176,0.0441149,-0.0931465,0.146234,-0.127598,-0.0831808,-0.00198364,0.039978,0.0211716,0.0197601,0.0938797,-0.0447464,0.0269699,0.0666428,-9.97986,-0.0245285,0.0183105,-0.014534,-0.0338745,0.134621,-0.0362015,-0.0522614,-0.0354767
17,5,8.77706,0.00213623,-0.00183105,-2.42562,0.0550706,-0.0741475,0.0553487,0.0453356,-0.0922309,0.145929,-0.125766,-0.0825704,0.0130844,0.0346756,0.0200272,0.0179672,0.105476,-0.0469971,0.0330353,0.0730515,-9.97986,-0.0495911,0.0260925,-0.0192261,-0.042305,0.12886,-0.0415039,-0.0518799,-0.02491
17,6,7.62319,0,-0.00137329,-2.42562,0.0541551,-0.0738423,0.0538228,0.0569322,-0.0913154,0.146539,-0.125766,-0.0831808,0.0259399,0.0403595,0.0193405,0.0163269,0.113449,-0.0522614,0.034523,0.069313,-9.97986,-0.0756454,0.0200272,-0.0228882,-0.0519943,0.12989,-0.0432968,-0.0531006,-0.0226593
17,7,7.55818,0.000610352,-0.00152588,-2.42592,0.0562914,-0.075063,0.0550435,0.0654772,-0.0897895,0.144403,-0.125766,-0.0828756,0.0123596,0.0445175,0.0193787,0.0204468,0.115776,-0.0561905,0.0360489,0.0634003,-9.97986,-0.0828552,0.0133896,-0.0352478,-0.0630569,0.129738,-0.0453949,-0.0510406,-0.0170517
17,8,7.88777,-0.000305176,-0.000762939,-2.42714,0.0550706,-0.0753682,0.0587056,0.075548,-0.0910102,0.145318,-0.125766,-0.0834859,0.0308609,0.0392914,0.0174713,0.0200272,0.114098,-0.0549698,0.0386047,0.0611496,-9.97986,-0.0543976,0.014267,-0.0543976,-0.0737381,0.127907,-0.0567627,-0.0592804,-0.0112152
17,9,9.9294,0,-0.000457764,-2.42837,0.0547655,-0.0756734,0.0535176,0.103014,-0.0885688,0.145318,-0.12363,-0.0847066,0.0742722,0.0326157,0.0149155,0.017128,0.119514,-0.0570679,0.0391388,0.0587082,-9.97986,0.00972748,0.0137711,-0.0741196,-0.0912094,0.125046,-0.0607681,-0.0524139,-0.0105667
18,0,10.0097,0.000915527,0.000152588,-2.42959,0.0535448,-0.0759786,0.0519917,0.0889757,-0.094062,0.142877,-0.126072,-0.0871481,0.0692749,0.0363541,0.0173569,0.022316,0.125351,-0.0585938,0.0418472,0.056076,-9.97986,0.0474167,0.0157166,-0.0843048,-0.10437,0.125122,-0.0492859,-0.0442505,-0.0113297
18,1,10.0097,-0.000915527,-0.00152588,-2.4305,0.0532396,-0.0759786,0.0498555,0.0764635,-0.0955879,0.144098,-0.126987,-0.0871481,0.0274658,0.0366974,0.0180817,0.018425,0.123291,-0.0542831,0.0432587,0.0624466,-9.97986,0.0511551,0.0167465,-0.097084,-0.113869,0.118103,-0.0443268,-0.0423813,-0.00858307
18,2,10.0097,0,-0.00106812,-2.42867,0.0532396,-0.0756734,0.0526021,0.0712755,-0.0968086,0.144098,-0.126987,-0.0868429,-0.0043869,0.034256,0.0172806,0.0195694,0.124817,-0.0603867,0.044632,0.0648117,-9.97986,0.0349426,0.0185394,-0.104408,-0.125923,0.121078,-0.0397491,-0.0283813,0.00682831
18,3,10.0097,0.0012207,-0.00137329,-2.42867,0.0535448,-0.0756734,0.0526021,0.0700548,-0.0937568,0.143182,-0.126987,-0.0862325,-0.0118637,0.0375748,0.0216675,0.0209045,0.13073,-0.0577164,0.0518036,0.0691223,-9.97986,0.0386429,0.0219345,-0.117989,-0.133362,0.116882,-0.0403595,-0.0038147,0.0190735
18,4,10.0097,0.00152588,-0.00167847,-2.42867,0.0532396,-0.0753682,0.0483296,0.0694445,-0.0952827,0.143487,-0.127598,-0.0868429,-0.0333405,0.0384521,0.0218964,0.0162888,0.134926,-0.0610733,0.0520325,0.0747299,-9.97986,0.0601578,0.0214386,-0.134506,-0.13958,0.111237,-0.0433731,0.00968933,0.0251389
18,5,10.0097,-0.000305176,-0.0012207,-2.42806,0.0535448,-0.0756734,0.0522969,0.0688341,-0.0943672,0.145013,-0.127598,-0.0859274,-0.0405121,0.0381088,0.0177383,0.0169373,0.131912,-0.0606537,0.0536728,0.0699234,-9.97986,0.080452,0.0168991,-0.156288,-0.152512,0.101509,-0.0439072,0.0204086,0.0271225
18,6,10.0097,0.0012207,-0.00167847,-2.42806,0.0553758,-0.0756734,0.0522969,0.0715807,-0.0916206,0.144708,-0.126987,-0.0850118,0.0283051,0.0349045,0.0206757,0.0175476,0.132179,-0.0625229,0.0535965,0.0580215,-9.97986,0.100594,0.0197983,-0.16922,-0.166817,0.0955963,-0.044632,0.0299835,0.0259781
18,7,10.0097,0.0012207,-0.00152588,-2.42684,0.0553758,-0.075063,0.0522969,0.0715807,-0.0931465,0.145318,-0.127598,-0.0850118,0.134926,0.0402451,0.0212097,0.0206757,0.129585,-0.0634384,0.0590515,0.0513458,-9.97986,0.103188,0.0183868,-0.180893,-0.187912,0.0934601,-0.0495911,0.0338745,0.0251389
18,8,10.0097,-0.000305176,-0.00167847,-2.42714,0.0541551,-0.0738423,0.0529073,0.0706652,-0.0937568,0.144403,-0.125766,-0.0840963,0.145187,0.0424194,0.0204849,0.0234985,0.13176,-0.0553131,0.0592041,0.0453186,-9.97986,0.099144,0.0215149,-0.193024,-0.201149,0.0840759,-0.0522232,0.0405502,0.0221252
18,9,10.0097,-0.00183105,-0.00167847,-2.42531,0.0553758,-0.0729268,0.0538228,0.0694445,-0.0922309,0.145929,-0.125156,-0.0822652,0.0712585,0.0416565,0.0199127,0.0252914,0.131111,-0.0598145,0.0666046,0.032959,-9.97986,0.0723648,0.0185394,-0.199547,-0.218086,0.0773621,-0.0537491,0.0514221,0.0176239
19,0,10.0097,-0.00152588,-0.00198364,-2.42592,0.0565965,-0.0738423,0.0544332,0.0673082,-0.094062,0.145318,-0.124851,-0.0825704,-0.0256729,0.0400162,0.0211334,0.0231552,0.12558,-0.0568008,0.0673676,0.027504,-9.97986,0.0301743,0.0142288,-0.206032,-0.240593,0.0701141,-0.055275,0.0542831,0.0102234
19,1,10.0097,0.000610352,-0.00213623,-2.42531,0.0565965,-0.0744527,0.0550435,0.0694445,-0.0910102,0.146844,-0.12363,-0.0819601,-0.0730896,0.0333405,0.0169373,0.0217438,0.121727,-0.0569916,0.0638199,0.0259018,-9.97986,-0.0183868,0.0152969,-0.208054,-0.263786,0.0634766,-0.0665665,0.056839,0.00411987
19,2,10.0097,0.000915527,-0.00137329,-2.4247,0.0559862,-0.0744527,0.0547383,0.07036,-0.0922309,0.147149,-0.124546,-0.0819601,-0.0551605,0.0278854,0.0169754,0.0174332,0.121193,-0.0530624,0.0694656,0.0308228,-9.97986,-0.0561142,0.0144196,-0.20153,-0.275383,0.0605774,-0.0757599,0.0617981,0.00148773
19,3,10.0097,0.000610352,0,-2.4247,0.0565965,-0.0729268,0.0556539,0.0691393,-0.0910102,0.145929,-0.124241,-0.0807394,-0.0123596,0.0252151,0.0166702,0.0190735,0.116692,-0.0538635,0.0684357,0.0360107,-9.97986,-0.092659,0.015831,-0.201454,-0.259056,0.0554276,-0.0796127,0.0589752,-0.00671387
19,4,10.0097,0.000915527,0.00106812,-2.42592,0.0565965,-0.0744527,0.0538228,0.0441149,-0.0949775,0.145318,-0.126072,-0.0813497,0.0257111,0.0181198,0.00839233,0.0156403,0.111809,-0.0458145,0.0673676,0.046463,-9.97986,-0.118904,0.0196075,-0.195389,-0.212593,0.04673,-0.0740814,0.0493622,-0.0166702
19,5,8.87441,0.000610352,0.00198364,-2.42684,0.0559862,-0.073232,0.0556539,0.0462511,-0.0946723,0.146234,-0.126072,-0.0813497,0.0271988,0.0153732,0.00358582,0.0118256,0.112152,-0.0430298,0.0626755,0.0437546,-9.97986,-0.134621,0.0178909,-0.187759,-0.178337,0.0400162,-0.067482,0.0424957,-0.0194168
19,6,7.76601,0.000610352,0.00137329,-2.42531,0.0544603,-0.0738423,0.0538228,0.0566271,-0.0928413,0.145318,-0.125156,-0.0813497,-0.00869751,0.0138474,0.0107574,0.0118256,0.104485,-0.0419235,0.061264,0.0374985,-9.97986,-0.118065,0.0149155,-0.184975,-0.159569,0.0328445,-0.0565338,0.0380325,-0.0277328
19,7,7.71138,-0.000610352,-0.000305176,-2.42714,0.0575121,-0.0747579,0.054128,0.0648668,-0.0937568,0.144098,-0.126377,-0.0831808,-0.0573349,0.0170135,0.00389099,0.0127792,0.103264,-0.0365448,0.0610733,0.0299835,-9.97986,-0.0978851,0.0141525,-0.178452,-0.183029,0.0230789,-0.0483322,0.0297928,-0.0343323
19,8,8.02358,0.000305176,-0.00137329,-2.42714,0.0553758,-0.0747579,0.054128,0.0737169,-0.0925361,0.144403,-0.125766,-0.0831808,-0.0858307,0.0164413,0.00659943,0.0167465,0.0978851,-0.0313568,0.0588226,0.028038,-9.97986,-0.0646973,0.0171661,-0.169601,-0.195961,0.0118256,-0.0293732,0.0259399,-0.0419998
19,9,10.0097,0.000915527,-0.00106812,-2.42684,0.0550706,-0.075063,0.055959,0.101183,-0.0900947,0.144098,-0.123935,-0.0844015,-0.0913239,0.0130844,0.0038147,0.0113297,0.0925064,-0.0302505,0.0613403,0.0242233,-9.97986,-0.0324249,0.0180817,-0.16819,-0.221405,0.00312805,-0.0151825,0.0209427,-0.0433731
20,0,10.0097,0.000305176,-0.00198364,-2.42867,0.0529344,-0.0768941,0.0519917,0.0901964,-0.0952827,0.142572,-0.126377,-0.0871481,-0.0389099,0.0138092,0.00675201,0.0114059,0.0894165,-0.0286865,0.0563812,0.0174332,-9.97986,0.00328064,0.0190735,-0.153618,-0.260124,-0.00904083,-0.0197601,0.0094986,-0.045929
20,1,10.0097,0.00183105,-0.00289917,-2.42989,0.0535448,-0.0759786,0.0522969,0.0782946,-0.0949775,0.143487,-0.126682,-0.0877584,0.028801,0.0183868,0.0094223,0.0127792,0.080452,-0.0277328,0.0551605,0.017128,-9.97986,0.0608063,0.0193024,-0.145111,-0.295868,-0.0235748,-0.0331116,0.00789642,-0.0484467
20,2,10.0097,0.000305176,-0.00335693,-2.4305,0.0541551,-0.0765889,0.0516866,0.0731066,-0.0943672,0.144098,-0.126377,-0.0877584,0.0512314,0.015564,0.0050354,0.0150299,0.0744247,-0.0244141,0.0556946,0.0167465,-9.97986,0.0937653,0.0216293,-0.125046,-0.333633,-0.0179291,-0.0471878,0.00915527,-0.0488281
20,3,10.0097,0.000610352,-0.00411987,-2.42959,0.0529344,-0.0756734,0.0532125,0.0700548,-0.0949775,0.144098,-0.126987,-0.0880636,0.0804138,0.0160217,0.00629425,0.0109863,0.0704193,-0.0264359,0.0533676,0.016861,-9.97986,0.092659,0.0163269,-0.113144,-0.372505,0.00492096,-0.0556183,0.00522614,-0.043869
20,4,10.0097,0.00244141,-0.00350952,-2.42928,0.0532396,-0.0756734,0.0526021,0.0679186,-0.0955879,0.143182,-0.127598,-0.0889791,0.0684357,0.0125885,0.0102997,0.0101852,0.0704575,-0.0333405,0.0525665,0.0164032,-9.97986,0.0718307,0.0148773,-0.0930023,-0.404549,0.0256348,-0.0574875,0.00289917,-0.0407791
20,5,10.0097,0,-0.00335693,-2.42898,0.0550706,-0.0753682,0.0516866,0.0682238,-0.094062,0.144098,-0.127292,-0.0865377,0.00938416,0.0179291,0.0121307,0.0164032,0.0613022,-0.0307846,0.0451279,0.016861,-9.97986,0.0391388,0.0147247,-0.0813293,-0.434189,0.0373459,-0.0592422,-0.00228882,-0.0369263
20,6,10.0097,0.00152588,-0.00244141,-2.42745,0.0535448,-0.0744527,0.054128,0.0676134,-0.094062,0.144098,-0.126377,-0.085317,-0.0296021,0.015564,0.0115585,0.0138092,0.0556564,-0.0234985,0.0388718,0.0117493,-9.97986,0.00862122,0.0174713,-0.0664139,-0.453911,0.036087,-0.0626755,-0.0149536,-0.0331879
20,7,10.0097,0.00152588,-0.00228882,-2.42592,0.0541551,-0.0756734,0.0538228,0.0694445,-0.0937568,0.145318,-0.126377,-0.0856222,-0.0152588,0.0196075,0.012207,0.0117493,0.0485229,-0.0248337,0.0304794,0.0172043,-9.97986,-0.0157547,0.0164413,-0.0463104,-0.480309,0.0375748,-0.0551605,-0.032692,-0.0382233
20,8,10.0097,-0.000305176,-0.00244141,-2.42653,0.0559862,-0.0741475,0.0535176,0.0700548,-0.0928413,0.145013,-0.125766,-0.0844015,0.0112915,0.0216675,0.0199127,0.0139999,0.0494766,-0.0247192,0.0308609,0.0166321,-9.97986,-0.00156403,0.0169754,-0.0269699,-0.507736,0.0260544,-0.0528336,-0.0572586,-0.0415421
20,9,10.0097,-0.000305176,-0.00259399,-2.42562,0.0562914,-0.075063,0.0544332,0.0706652,-0.0919257,0.146539,-0.124241,-0.0831808,0.0025177,0.0205612,0.0125122,0.0120544,0.0483704,-0.0282288,0.0246811,0.0114059,-9.97986,0.0432205,0.0156403,-0.00736237,-0.543327,0.0144196,-0.0429153,-0.078392,-0.0537109
21,0,10.0097,0.00152588,-0.00411987,-2.4247,0.0559862,-0.0741475,0.0556539,0.0718859,-0.0925361,0.146844,-0.124546,-0.0822652,-0.0172043,0.0220108,0.0111008,0.00804901,0.0421143,-0.0261307,0.018158,0.00736237,-9.97986,0.0857544,0.0163651,0.00370026,-0.573425,-0.00991821,-0.0264359,-0.086441,-0.0733566
21,1,10.0097,-0.0012207,-0.00289917,-2.42379,0.0565965,-0.0744527,0.0553487,0.072191,-0.0919257,0.145013,-0.123935,-0.0810445,-0.00473022,0.0170898,0.0137329,0.00873566,0.0440979,-0.0276947,0.018158,0.0113297,-9.97986,0.104485,0.00675201,0.0127029,-0.594139,-0.037384,-0.0201416,-0.0720596,-0.0857544
21,2,10.0097,0.000305176,-0.00228882,-2.42531,0.0569017,-0.0744527,0.0553487,0.0709703,-0.0919257,0.146234,-0.123935,-0.0810445,-0.0069046,0.0146103,0.0137329,0.0104141,0.0431061,-0.0280762,0.0069046,0.0158691,-9.97986,0.0963593,0.00343323,0.0273895,-0.608635,-0.0588989,-0.0110626,-0.0543976,-0.0979233
21,3,10.0097,0.000915527,-0.000610352,-2.42531,0.0572069,-0.0738423,0.0547383,0.0709703,-0.0931465,0.146234,-0.124546,-0.0819601,0.00198364,0.0211334,0.012207,0.0139236,0.0423431,-0.028038,0.00465393,0.0126648,-9.97986,0.071907,0.00286102,0.0470352,-0.612144,-0.0827026,-0.00720978,-0.0483704,-0.108719
21,4,10.0097,0.000610352,-0.00106812,-2.42592,0.0562914,-0.0741475,0.0532125,0.04442,-0.0952827,0.145013,-0.126377,-0.0822652,0.0201797,0.0247955,0.0208282,0.0153732,0.0427628,-0.0207138,7.62939e-005,0.00843048,-9.97986,0.0524521,0.00892639,0.0656128,-0.606499,-0.106087,-0.00133514,-0.0442886,-0.110779
21,5,8.71511,-0.00152588,-0.000915527,-2.42653,0.0559862,-0.0729268,0.054128,0.0450304,-0.0946723,0.146844,-0.126987,-0.0819601,0.0311279,0.0240707,0.0208282,0.0131226,0.0406647,-0.0317001,-0.00587463,-0.0088501,-9.97986,0.0421524,0.00534058,0.0852966,-0.590935,-0.121574,-0.000457764,-0.0414658,-0.115776
21,6,7.59236,-0.000610352,0.00106812,-2.42592,0.0569017,-0.0747579,0.0550435,0.0578478,-0.090705,0.146234,-0.125156,-0.0807394,0.0524521,0.0254822,0.0242996,0.0152206,0.0386047,-0.0320053,-0.00419617,-0.0250244,-9.97986,0.0471497,0.00339508,0.101662,-0.55706,-0.139427,0.000419617,-0.0365448,-0.113602
21,7,7.54476,0.000915527,0.00289917,-2.42623,0.0553758,-0.0744527,0.0553487,0.0676134,-0.0919257,0.145318,-0.126072,-0.0822652,0.0748062,0.0312042,0.0303268,0.0197601,0.0363922,-0.0344849,-0.0127411,-0.0368118,-9.97986,0.0431442,0.00217438,0.113144,-0.512657,-0.149002,0.0038147,-0.0209427,-0.106697
21,8,7.87648,0.0012207,0.00442505,-2.42623,0.0547655,-0.0747579,0.0547383,0.0734117,-0.0931465,0.145318,-0.124851,-0.0819601,0.0735855,0.0286484,0.0274658,0.0165939,0.029068,-0.0328445,-0.0157547,-0.0430679,-9.97986,0.0231171,0.00423431,0.120277,-0.467224,-0.164642,0.0102997,-0.0231552,-0.101891
21,9,9.90987,0.000305176,0.00564575,-2.42592,0.0550706,-0.0756734,0.0547383,0.0996569,-0.090705,0.144403,-0.124851,-0.0828756,0.0360107,0.0272369,0.0268173,0.0170135,0.0290298,-0.0325775,-0.0125885,-0.0340652,-9.97986,-0.00488281,0.00289917,0.122757,-0.41317,-0.176735,0.0162125,-0.0198364,-0.0925446
22,0,10.0097,0.00183105,0.00701904,-2.42928,0.0547655,-0.0759786,0.0513814,0.0865343,-0.095893,0.144708,-0.126072,-0.0850118,-0.0162125,0.0232697,0.0278854,0.0166702,0.0314331,-0.0346375,-0.0178909,-0.0196457,-9.97986,-0.0387573,0.00404358,0.115318,-0.357895,-0.186462,0.0201797,-0.0302887,-0.0840378
22,1,10.0097,0.000610352,0.00549316,-2.42837,0.0532396,-0.0759786,0.0516866,0.0746324,-0.0968086,0.141961,-0.127598,-0.0859274,-0.0627518,0.0178146,0.0221252,0.0130844,0.0313187,-0.0308228,-0.0169373,-0.0144196,-9.97986,-0.0612259,0.0044632,0.112343,-0.297127,-0.19516,0.0259399,-0.053978,-0.0772476
22,2,10.0097,0.0012207,0.00610352,-2.42898,0.0541551,-0.0759786,0.0519917,0.0709703,-0.0955879,0.143487,-0.126682,-0.0847066,-0.0551605,0.0191116,0.0229645,0.0104523,0.0239563,-0.0299072,-0.0230408,-0.00701904,-9.97986,-0.0630188,0.00408173,0.10498,-0.225105,-0.198669,0.0301743,-0.0646973,-0.0702667
22,3,10.0097,0.000305176,0.00534058,-2.42928,0.0541551,-0.0765889,0.0516866,0.0697496,-0.0946723,0.144098,-0.127292,-0.0847066,-0.0493622,0.017128,0.0185013,0.00595093,0.0259781,-0.0323486,-0.0210953,-0.00366211,-9.97986,-0.0536346,0.00808716,0.0984955,-0.163383,-0.19722,0.0382233,-0.0784302,-0.0633621
22,4,10.0097,0.000305176,0.00595093,-2.4302,0.0550706,-0.0762837,0.0526021,0.0688341,-0.0937568,0.143487,-0.127292,-0.0850118,-0.0444031,0.0136185,0.0196075,0.00480652,0.0279999,-0.0276566,-0.0190735,0.00900269,-9.97986,-0.0728226,0.00740051,0.0974274,-0.0944138,-0.200577,0.044136,-0.0930023,-0.0554276
22,5,10.0097,-0.000610352,0.00564575,-2.42837,0.0547655,-0.0756734,0.0532125,0.0688341,-0.0943672,0.144098,-0.126682,-0.0844015,-0.0332642,0.0144958,0.0198746,0.00850677,0.0265884,-0.0379181,-0.0207138,0.0141525,-9.97986,-0.117683,0.00865936,0.094223,-0.0304413,-0.198441,0.0447464,-0.0917053,-0.0544739
22,6,10.0097,-0.0012207,0.00534058,-2.42806,0.0562914,-0.0756734,0.0526021,0.0688341,-0.094062,0.145624,-0.126072,-0.0834859,0.00526428,0.0114441,0.0228882,0.00797272,0.0245667,-0.0371552,-0.0178146,0.0140381,-9.97986,-0.136452,0.00724792,0.096817,0.0199127,-0.198708,0.0453949,-0.108147,-0.0486374
22,7,10.0097,-0.000305176,0.00534058,-2.42653,0.0553758,-0.0741475,0.054128,0.0724962,-0.0928413,0.145318,-0.126377,-0.0831808,0.0470734,0.0147629,0.0219727,0.00919342,0.0231552,-0.039978,-0.0207901,0.0187302,-9.97986,-0.093689,0.00843048,0.096817,0.0810242,-0.197678,0.0430679,-0.10334,-0.0462723
22,8,10.0097,-0.000610352,0.00579834,-2.42776,0.0538499,-0.0744527,0.0535176,0.0715807,-0.0943672,0.145624,-0.125766,-0.0819601,0.0372314,0.0127029,0.0201416,0.0113678,0.0205231,-0.0423813,-0.00972748,0.00957489,-9.97986,-0.00507355,-0.00473022,0.095787,0.12867,-0.193367,0.0426483,-0.106201,-0.038681
22,9,10.0097,-0.000610352,0.00518799,-2.42531,0.0553758,-0.075063,0.0550435,0.0718859,-0.0925361,0.146234,-0.125461,-0.0810445,0.0156784,0.0150299,0.0198746,0.00732422,0.014267,-0.0391769,-0.00728607,0.00614166,-9.97986,0.0664139,-0.00385284,0.102577,0.179253,-0.181274,0.0462723,-0.112076,-0.0328064
23,0,10.0097,-0.000305176,0.0050354,-2.42501,0.0559862,-0.0738423,0.054128,0.0706652,-0.0922309,0.146234,-0.124851,-0.0804342,0.0474548,0.0133514,0.0204086,0.0118256,0.0135422,-0.0419235,-0.00476837,-0.00358582,-9.97986,0.0844193,-0.000457764,0.102921,0.22583,-0.172729,0.0361633,-0.113754,-0.0279236
23,1,10.0097,0.000610352,0.00350952,-2.42623,0.0559862,-0.0744527,0.0550435,0.0715807,-0.0910102,0.14837,-0.124241,-0.0798238,0.0515747,0.01297,0.0196457,0.00953674,0.014801,-0.0423431,-0.00370026,-0.00217438,-9.97986,0.0790787,-0.0082016,0.113754,0.245972,-0.164528,0.0413895,-0.117035,-0.0210571
23,2,10.0097,0.000305176,0.00228882,-2.42562,0.0550706,-0.0729268,0.0562642,0.0712755,-0.090705,0.148065,-0.124546,-0.080129,0.0403976,0.0163651,0.0193787,0.00865936,0.0149918,-0.0391388,0.000953674,0.00267029,-9.97986,0.0671387,-0.00732422,0.111008,0.270119,-0.151443,0.0418854,-0.113297,-0.0156784
23,3,10.0097,0.0012207,0.00228882,-2.42562,0.0553758,-0.0735371,0.054128,0.0706652,-0.0925361,0.146234,-0.124851,-0.0810445,0.0428009,0.0130844,0.0175095,0.00843048,0.0114822,-0.0389862,-0.00106812,0.00255585,-9.97986,0.0519562,-0.0063324,0.111694,0.288467,-0.143852,0.0413513,-0.107994,-0.0128174
23,4,10.0097,0.00152588,0.000610352,-2.42592,0.0550706,-0.0738423,0.0538228,0.04442,-0.0952827,0.147455,-0.126377,-0.0813497,0.0331497,0.00923157,0.0148392,0.00843048,0.0108337,-0.0290298,0.0056076,0.0101471,-9.97986,0.0479126,-0.000762939,0.116844,0.305061,-0.128479,0.0462341,-0.115509,-0.0112152
23,5,8.61867,-0.000305176,0,-2.42592,0.0562914,-0.075063,0.0526021,0.0435045,-0.0946723,0.146539,-0.126072,-0.0816549,0.016098,0.00953674,0.0120544,0.0094223,0.0094223,-0.0238037,-0.00133514,0.00991821,-9.97986,0.0424576,-0.00236511,0.116196,0.31826,-0.118637,0.0497818,-0.120926,-0.00999451
23,6,7.52065,-0.000305176,0.000305176,-2.42562,0.0553758,-0.0747579,0.0547383,0.0563219,-0.0928413,0.145624,-0.125461,-0.0822652,0.00160217,0.0141144,0.0177002,0.00629425,0.00732422,-0.000534058,0.00473022,0.0166321,-9.97986,0.0352097,-0.00179291,0.118942,0.323524,-0.101242,0.0419617,-0.104141,-0.00808716
23,7,7.459,0,0.000305176,-2.42867,0.0544603,-0.0747579,0.0556539,0.0648668,-0.0910102,0.146844,-0.125156,-0.0822652,-0.0234604,0.0111389,0.0134277,0.00171661,0.00549316,0.0105667,0.00278473,0.0234604,-9.97986,0.022583,-0.0043869,0.118637,0.321236,-0.0908661,0.031395,-0.0986862,-0.00713348
23,8,7.79225,0.000915527,0.000457764,-2.42592,0.0553758,-0.075063,0.0547383,0.0743273,-0.0916206,0.145929,-0.125461,-0.0831808,-0.0445175,0.0130081,0.0113297,0.00606537,0.00289917,0.026474,-0.00289917,0.0257492,-9.97986,0.0208664,-0.00526428,0.119476,0.32608,-0.0840759,0.0333405,-0.101738,-0.00724792
23,9,9.86989,0.0012207,0.000762939,-2.42623,0.0559862,-0.0756734,0.0535176,0.100267,-0.0900947,0.143792,-0.123935,-0.0850118,-0.0383759,0.0144196,0.0172806,0.00888824,0.00141144,0.0431442,-0.000953674,0.0247192,-9.97986,0.0179672,0.000534058,0.119514,0.323906,-0.0720596,0.0320435,-0.0932312,-0.00888824
24,0,10.0097,-0.000305176,0.0012207,-2.43111,0.0544603,-0.075063,0.0516866,0.0892809,-0.0946723,0.143487,-0.125156,-0.0871481,-0.0133896,0.0173187,0.0160217,0.0050354,-0.00213623,0.0551224,-0.00228882,0.0236893,-9.97986,0.0207901,0.00141144,0.121956,0.318298,-0.0655746,0.0342941,-0.0895309,-0.0109863
24,1,10.0097,0.000610352,-0.00137329,-2.42867,0.0538499,-0.0762837,0.0526021,0.077379,-0.0946723,0.143487,-0.127292,-0.0874532,0.00225067,0.0185013,0.0197601,0.00705719,0.00137329,0.0643158,0.00236511,0.0249481,-9.97986,0.0115204,-0.00282288,0.116272,0.299721,-0.0632858,0.0395203,-0.0844574,-0.0126266
24,2,10.0097,0.000305176,-0.000915527,-2.42959,0.0544603,-0.0759786,0.0516866,0.0728014,-0.0943672,0.144403,-0.126682,-0.0859274,0.0159836,0.0138855,0.0208664,0.0131607,-3.8147e-005,0.0740814,-0.00335693,0.0257111,-9.97986,0.00511169,0.00102997,0.118141,0.288048,-0.0507736,0.0466537,-0.0747299,-0.0136948
24,3,10.0097,0.000610352,-0.000915527,-2.4305,0.0529344,-0.0762837,0.0532125,0.0712755,-0.0943672,0.144098,-0.127598,-0.0871481,0.0114441,0.0187683,0.0181961,0.0118637,-0.00198364,0.0834656,-0.00392914,0.0259399,-9.97986,0.0165558,0.00156403,0.117874,0.280609,-0.0428391,0.0445938,-0.0682831,-0.0168991
24,4,10.0097,0.000915527,-0.000457764,-2.42898,0.0541551,-0.0765889,0.0519917,0.0666979,-0.0946723,0.144403,-0.127598,-0.0868429,-0.00682831,0.0158691,0.0180817,0.01091,-0.00270844,0.0793457,0.00259399,0.0291824,-9.97986,0.0273132,-0.00595093,0.122147,0.285873,-0.0386047,0.0458908,-0.0628662,-0.0159073
24,5,10.0097,0.000610352,-0.000762939,-2.42928,0.0541551,-0.0753682,0.0519917,0.0697496,-0.0937568,0.144708,-0.126682,-0.0880636,-0.00423431,0.0209045,0.0214386,0.0138855,-0.00244141,0.079422,-0.00133514,0.0347137,-9.97986,0.0342178,0.000724792,0.124207,0.286751,-0.0292587,0.0402069,-0.0639725,-0.0130081
24,6,10.0097,-0.000610352,0,-2.42562,0.0541551,-0.0741475,0.0550435,0.0712755,-0.0946723,0.145624,-0.126072,-0.0850118,-0.00427246,0.0201797,0.0187683,0.0149155,-0.00537872,0.0814438,-0.00110626,0.0381088,-9.97986,0.0432968,-0.000457764,0.125542,0.288239,-0.0256348,0.0310135,-0.0666809,-0.0105286
24,7,10.0097,0.000610352,0.000305176,-2.42745,0.055681,-0.0756734,0.0532125,0.0666979,-0.0928413,0.146539,-0.125766,-0.0844015,0.00167847,0.0217438,0.0177002,0.0120544,-0.0101471,0.0867081,0.000839233,0.0363541,-9.97986,0.0423813,0.001297,0.128288,0.286179,-0.0193024,0.030098,-0.0613022,-0.00991821
24,8,10.0097,0.000305176,-0.000457764,-2.42684,0.0547655,-0.0747579,0.054128,0.07036,-0.0925361,0.145624,-0.125766,-0.0850118,0.00534058,0.021553,0.0215149,0.0154495,-0.00839233,0.0867081,-0.00144958,0.0347519,-9.97986,0.037117,-0.00282288,0.131454,0.282478,-0.0107574,0.0321198,-0.0547028,-0.0056839
24,9,10.0097,-0.000915527,0.000457764,-2.4247,0.0562914,-0.0744527,0.054128,0.0712755,-0.0922309,0.146234,-0.125156,-0.0819601,0.00854492,0.0224686,0.017662,0.0125122,-0.0153732,0.091095,0.000419617,0.0348663,-9.97986,0.032959,-0.00228882,0.139084,0.274277,-0.0031662,0.0325775,-0.048027,-0.00209808
25,0,10.0097,-0.000305176,-0.000457764,-2.42531,0.0572069,-0.0735371,0.054128,0.0764635,-0.0913154,0.145929,-0.125156,-0.0825704,0.0234222,0.0217438,0.0193787,0.0141144,-0.0165558,0.0896072,0.00087738,0.038414,-9.97986,0.033989,0.00209808,0.134888,0.273933,0.00507355,0.0286484,-0.0435257,-0.000572205
25,1,10.0097,-0.000915527,-0.0012207,-2.42653,0.0565965,-0.0747579,0.0544332,0.0715807,-0.0916206,0.146844,-0.124851,-0.0816549,0.0344849,0.0204849,0.0270081,0.00835419,-0.0234604,0.0878143,0.00282288,0.0385666,-9.97986,0.0416946,0.00141144,0.134583,0.257721,0.0130844,0.0257874,-0.0431442,0.00205994
25,2,10.0097,0.0012207,-0.000610352,-2.42409,0.0569017,-0.0738423,0.0550435,0.0731066,-0.0913154,0.147149,-0.124241,-0.0819601,0.0445175,0.0252533,0.0228882,0.0106049,-0.0283432,0.0890732,0.00328064,0.0428009,-9.97986,0.0391006,-0.00766754,0.1371,0.243874,0.0144958,0.0269699,-0.0419617,0.0063324
25,3,10.0097,-0.000915527,-0.000915527,-2.42531,0.0562914,-0.0738423,0.054128,0.0685289,-0.0913154,0.146234,-0.12363,-0.0816549,0.0508499,0.0246811,0.0231171,0.0122452,-0.0385284,0.0889206,0.00526428,0.0503159,-9.97986,0.0395584,-0.0106812,0.140076,0.242996,0.0243378,0.0343704,-0.0337982,0.00640869
25,4,10.0097,-0.000305176,-0.00198364,-2.42653,0.0565965,-0.0747579,0.054128,0.0450304,-0.0946723,0.147455,-0.126072,-0.0810445,0.0335312,0.0206375,0.0265503,0.0123215,-0.0442123,0.0872421,0.00694275,0.0559616,-9.97986,0.0263214,-0.00679016,0.133743,0.235519,0.0311279,0.0268936,-0.0284195,0.0111008
25,5,8.78621,-0.000305176,-0.00137329,-2.42562,0.055681,-0.075063,0.0538228,0.0438097,-0.0928413,0.146234,-0.127598,-0.0825704,-0.0100327,0.0232697,0.0259399,0.0118637,-0.0398636,0.083046,0.00553131,0.0530243,-9.97986,0.0117111,-0.00644684,0.137901,0.2314,0.0342178,0.0193405,-0.0147247,0.0127792
25,6,7.69216,-0.000305176,-0.000610352,-2.42653,0.0559862,-0.0744527,0.0544332,0.0535753,-0.0925361,0.146234,-0.125461,-0.0828756,-0.0547409,0.0324249,0.0357819,0.0157928,-0.0403595,0.0814438,0.00995636,0.0475311,-9.97986,0.00614166,-0.0104904,0.141487,0.233879,0.0366974,0.0172424,-0.00923157,0.019989
25,7,7.60152,0.000610352,0.000305176,-2.42592,0.055681,-0.0756734,0.0544332,0.0642565,-0.0931465,0.145624,-0.125461,-0.0831808,-0.0842667,0.0258636,0.032692,0.0143814,-0.0445557,0.0790024,0.00724792,0.0450134,-9.97986,-0.00911713,-0.00526428,0.12867,0.237541,0.0437164,0.0102997,-0.00732422,0.0226212
25,8,7.90608,0.000915527,0.000762939,-2.42623,0.0547655,-0.0738423,0.0550435,0.0737169,-0.0922309,0.145318,-0.125461,-0.0834859,-0.0767136,0.0310898,0.0317001,0.0134659,-0.039978,0.0756454,0.0106049,0.0453186,-9.97986,-0.026741,-0.0123596,0.125961,0.245476,0.0453568,0.00793457,-0.0105286,0.0251007
25,9,9.959,0.00183105,0.00183105,-2.42684,0.0550706,-0.075063,0.0550435,0.0959947,-0.0897895,0.144403,-0.124546,-0.0834859,-0.0754166,0.0331879,0.038681,0.0157928,-0.0318527,0.0800323,0.0189972,0.0369263,-9.97986,-0.0304794,-0.00267029,0.127983,0.257263,0.0455475,0.0117493,0.00106812,0.0296402
26,0,10.0097,-0.00183105,0.00228882,-2.42928,0.0529344,-0.0756734,0.0526021,0.0892809,-0.0937568,0.143487,-0.126377,-0.0865377,-0.0723648,0.0340271,0.0357056,0.0141907,-0.02388,0.0703812,0.0152206,0.0273132,-9.97986,-0.0283051,-0.00228882,0.112457,0.262146,0.0460052,0.00919342,0.00217438,0.0304794
26,1,10.0097,0,0.00137329,-2.42898,0.0532396,-0.0756734,0.0522969,0.0776842,-0.0952827,0.144403,-0.127598,-0.0862325,-0.0189972,0.0379944,0.0415802,0.0178528,-0.0185776,0.0674057,0.0173187,0.01297,-9.97986,-0.0225449,0.000305176,0.11158,0.281334,0.0520706,0.00888824,0.00988007,0.0387573
26,2,10.0097,-0.000610352,0.000915527,-2.42867,0.0547655,-0.0759786,0.0513814,0.0688341,-0.0952827,0.144098,-0.127598,-0.0865377,0.030365,0.0377274,0.037117,0.0185776,-0.00835419,0.071106,0.0162125,0.00904083,-9.97986,-0.02491,-0.00205994,0.0950241,0.288162,0.0498199,0.00362396,0.00953674,0.0393295
26,3,10.0097,0.0012207,-0.000152588,-2.42928,0.0532396,-0.0768941,0.0516866,0.0688341,-0.095893,0.143792,-0.126682,-0.0862325,0.00797272,0.0299072,0.0337601,0.0185776,-0.00236511,0.0655365,0.0194168,0.0154495,-9.97986,-0.0394821,-0.00358582,0.0905228,0.29232,0.0489044,0.00888824,0.0209427,0.0406265
26,4,10.0097,0.000610352,-0.000152588,-2.42928,0.0526292,-0.0762837,0.0519917,0.0679186,-0.0949775,0.142877,-0.127292,-0.0871481,-0.0222778,0.0289154,0.0341797,0.0149918,0.00579834,0.0652313,0.0168228,0.0112534,-9.97986,-0.0753784,-0.00358582,0.0827789,0.289612,0.0444031,0.0104141,0.0245285,0.0421906
26,5,10.0097,0.000915527,0.000915527,-2.42837,0.0544603,-0.075063,0.0544332,0.0697496,-0.0931465,0.145013,-0.127292,-0.0862325,-0.00148773,0.0259018,0.0294876,0.0157928,0.0107574,0.056572,0.0214386,0.014534,-9.97986,-0.092392,-0.00259399,0.0777435,0.308609,0.0458527,0.00759125,0.0370789,0.0433731
26,6,10.0097,0.00152588,0.0012207,-2.42745,0.0547655,-0.0756734,0.0538228,0.0728014,-0.0928413,0.145013,-0.126377,-0.0850118,0.0597763,0.0194168,0.0267029,0.0165939,0.0126266,0.0572968,0.0230789,0.0161743,-9.97986,-0.0522232,-0.00804901,0.0690079,0.335426,0.049324,0.00564575,0.0462723,0.0463104
26,7,10.0097,0.000610352,0.00274658,-2.42745,0.0544603,-0.0747579,0.0526021,0.0715807,-0.0922309,0.144403,-0.127292,-0.0840963,0.113029,0.0217438,0.02491,0.0132751,0.0191116,0.0529861,0.0241852,0.0174332,-9.97986,-0.0165176,-0.00709534,0.0597763,0.355606,0.0464249,0.00736237,0.0598526,0.0498199
26,8,10.0097,-0.000915527,0.00244141,-2.42714,0.0550706,-0.0738423,0.0526021,0.0728014,-0.0919257,0.144708,-0.125156,-0.0834859,0.142059,0.0200272,0.0213623,0.0115585,0.021286,0.0484085,0.0221252,0.0127411,-9.97986,0.021286,-0.0062561,0.0550079,0.377502,0.0426102,0.00919342,0.0674438,0.0506973
26,9,10.0097,0,0.00183105,-2.42653,0.055681,-0.073232,0.0544332,0.0709703,-0.0934516,0.145624,-0.124851,-0.0816549,0.121727,0.0187683,0.0168228,0.0125122,0.0297165,0.0475693,0.0268936,0.0168228,-9.97986,0.0479126,-0.00236511,0.0501633,0.394974,0.044899,0.0114059,0.0691986,0.0508881
27,0,10.0097,-0.000305176,0.00183105,-2.42501,0.0565965,-0.0735371,0.054128,0.07036,-0.0925361,0.146539,-0.124546,-0.0819601,0.0749969,0.0138855,0.0136566,0.0112915,0.0356293,0.0485611,0.0256348,0.0196457,-9.97986,0.0460815,-0.00293732,0.0455093,0.405388,0.0415802,0.00778198,0.0678253,0.0494766
27,1,10.0097,0.000305176,0.000762939,-2.4244,0.0553758,-0.0738423,0.0532125,0.0679186,-0.0931465,0.146234,-0.124241,-0.0810445,0.0308609,0.00873566,0.0111389,0.0102997,0.0410843,0.0549698,0.0269318,0.00694275,-9.97986,0.0421906,-0.00236511,0.042572,0.407181,0.0400543,0.00904083,0.0687408,0.0563431
27,2,10.0097,0.000915527,0.000915527,-2.42531,0.0562914,-0.0744527,0.0556539,0.0691393,-0.0913154,0.147149,-0.124851,-0.0810445,0.00236511,0.0112152,0.0133133,0.0151825,0.0378036,0.0551224,0.0266647,-0.0178528,-9.97986,0.0300598,-0.00232697,0.042038,0.414925,0.0376892,0.00541687,0.0608063,0.0589371
27,3,10.0097,0.000915527,0.000915527,-2.42562,0.0562914,-0.0735371,0.0550435,0.0697496,-0.0919257,0.146539,-0.12363,-0.0810445,0.0108337,0.0102615,0.0173569,0.0133896,0.0467682,0.0564194,0.0250626,-0.0169754,-9.97986,-0.00476837,-0.00431061,0.0350571,0.413399,0.0381851,0.00617981,0.0500488,0.0587845
27,4,10.0097,0.000305176,-0.00259399,-2.42592,0.055681,-0.073232,0.0526021,0.042589,-0.0949775,0.145624,-0.125766,-0.0834859,0.0104141,0.00816345,0.0120544,0.0135803,0.0497437,0.0559235,0.0308228,-0.0112534,-9.97986,-0.0387573,-0.00366211,0.0348663,0.411835,0.0396347,0.00629425,0.0436783,0.0595856
27,5,8.59914,0.0012207,-0.00274658,-2.42562,0.0565965,-0.0738423,0.0544332,0.0450304,-0.0934516,0.146234,-0.125461,-0.0825704,0.00598907,0.00766754,0.00839233,0.0122833,0.0539017,0.052948,0.0302124,-0.000534058,-9.97986,-0.0130844,-0.00667572,0.0339508,0.398483,0.0425339,0.00812531,0.0437164,0.0630569
27,6,7.50325,-0.000610352,-0.00244141,-2.42562,0.0550706,-0.0744527,0.054128,0.0563219,-0.0925361,0.145929,-0.125766,-0.0822652,0.00038147,0.0044632,0.00556946,0.00762939,0.0509262,0.0561905,0.0243378,0.00663757,-9.97986,0.0530243,-0.00377655,0.0324249,0.382004,0.0401688,0.00629425,0.0330734,0.0647736
27,7,7.39522,-0.000915527,-0.00198364,-2.42623,0.0559862,-0.073232,0.0544332,0.0676134,-0.0925361,0.145318,-0.126377,-0.0828756,0.00926971,0.00545502,0.00171661,0.00743866,0.051918,0.0472641,0.0304413,0.00198364,-9.97986,0.0799942,-0.00087738,0.0327301,0.354843,0.0390625,0.00682831,0.0287628,0.0666809
27,8,7.72847,-0.000610352,-0.00244141,-2.42592,0.0541551,-0.0759786,0.0544332,0.0752428,-0.0913154,0.145624,-0.125461,-0.0834859,0.0413895,0.00415802,0.00469208,0.00419617,0.0478363,0.0458908,0.0312424,0.0149918,-9.97986,0.0931931,-0.00431061,0.0327682,0.328178,0.0418472,0.00267029,0.0296783,0.0697708
27,9,9.78658,0.000915527,-0.00152588,-2.42714,0.0547655,-0.0747579,0.0544332,0.100572,-0.0897895,0.144098,-0.12363,-0.0844015,0.0424194,0.000305176,-0.0018692,0.00621796,0.0414276,0.0386047,0.0315857,0.0157166,-9.97986,0.0774002,0.00137329,0.0262451,0.300026,0.0368118,0.000190735,0.0398254,0.0690079
28,0,10.0097,-0.000305176,-0.0012207,-2.42928,0.0547655,-0.0768941,0.0516866,0.0905016,-0.094062,0.143792,-0.126072,-0.0868429,0.0297546,0.00247955,0.00411987,0.0025177,0.0435257,0.0323105,0.0302887,0.0183105,-9.97986,0.038147,0.00392914,0.025444,0.267754,0.0358582,-0.0030899,0.0484467,0.0703049
28,1,10.0097,-0.00183105,-0.00183105,-2.42928,0.0547655,-0.0747579,0.0516866,0.0752428,-0.0949775,0.143487,-0.126377,-0.0877584,0.00392914,0.00167847,0.00415802,0.00347137,0.0372696,0.0280762,0.0258255,0.0150299,-9.97986,-0.00595093,-3.8147e-005,0.0166321,0.245667,0.0262833,-0.00900269,0.0472641,0.0706863
28,2,10.0097,-0.000610352,-0.00305176,-2.42898,0.0526292,-0.0762837,0.0504659,0.07036,-0.0949775,0.143487,-0.126377,-0.0874532,-0.0263596,0.0117493,0.0167465,0.00980377,0.0436401,0.0231934,0.0354767,0.018959,-9.97986,-0.0220108,7.62939e-005,0.0155258,0.213737,0.0270081,-0.0111389,0.0548553,0.069809
28,3,10.0097,-0.000305176,-0.00320435,-2.42837,0.0535448,-0.0765889,0.0522969,0.0697496,-0.0937568,0.145013,-0.127903,-0.0877584,-0.0433731,0.00907898,0.00801086,0.0044632,0.0291061,0.0152969,0.0298691,0.0113297,-9.97986,-0.00541687,-0.00152588,0.0131607,0.177994,0.0246811,-0.0146484,0.0526428,0.0675964
28,4,10.0097,0.000610352,-0.00274658,-2.42989,0.0544603,-0.0759786,0.0522969,0.0700548,-0.0952827,0.142572,-0.127292,-0.0883688,-0.0338364,0.015831,0.0156403,0.00713348,0.0344467,0.0170898,0.0330734,0.0180054,-9.97986,0.0466919,-0.00648499,0.0127411,0.156746,0.0244141,-0.0118256,0.056839,0.0665665
28,5,10.0097,-0.000305176,-0.00274658,-2.42745,0.0544603,-0.0759786,0.0522969,0.07036,-0.0952827,0.142267,-0.127903,-0.0871481,-0.0291824,0.0208664,0.0176239,0.0116348,0.0461578,0.0160217,0.0297928,0.0133133,-9.97986,0.087204,-0.000419617,0.0132751,0.131149,0.0234985,-0.0176239,0.0668716,0.0701141
28,6,10.0097,0.000610352,-0.00274658,-2.42745,0.0541551,-0.0744527,0.0532125,0.0700548,-0.0925361,0.145013,-0.126682,-0.0850118,-0.0316238,0.0168228,0.018959,0.0168228,0.0381851,0.00579834,0.0302505,0.0170898,-9.97986,0.100861,-0.000839233,0.019722,0.10952,0.018959,-0.019455,0.064888,0.0689697
28,7,10.0097,0.000915527,-0.00244141,-2.42684,0.0550706,-0.075063,0.0535176,0.0697496,-0.0937568,0.145318,-0.126377,-0.0850118,-0.00556946,0.0192642,0.0180054,0.014267,0.0344849,-0.00293732,0.0293732,0.0230026,-9.97986,0.0803375,-0.00244141,0.0162506,0.0808716,0.0129318,-0.0228882,0.0722122,0.0635529
28,8,10.0097,0.000610352,-0.00289917,-2.42684,0.0562914,-0.0756734,0.0538228,0.0694445,-0.0922309,0.145624,-0.126072,-0.0840963,0.0381851,0.0225067,0.020256,0.0105286,0.032692,-0.00343323,0.0281525,0.0299454,-9.97986,0.0421143,0.000572205,0.0176239,0.0542068,0.0112152,-0.0268936,0.0735474,0.0655365
28,9,10.0097,0,-0.00228882,-2.42714,0.0562914,-0.0747579,0.0550435,0.0709703,-0.0913154,0.146234,-0.124241,-0.0825704,0.0626755,0.0243759,0.0189209,0.0126648,0.0351715,-0.000419617,0.0286865,0.0383759,-9.97986,0.01194,-0.00686646,0.0154877,0.0291824,0.0113678,-0.026474,0.0811768,0.0657272
29,0,10.0097,0.0012207,-0.00335693,-2.42501,0.0562914,-0.0738423,0.0544332,0.0706652,-0.0916206,0.147149,-0.124851,-0.0828756,0.0479507,0.0214386,0.0198364,0.00770569,0.0391769,-0.00549316,0.0255585,0.0386047,-9.97986,0.00637054,-0.00724792,0.0193024,-0.00286102,0.00534058,-0.0305939,0.0837708,0.0606918
29,1,10.0097,-0.000305176,-0.00244141,-2.4247,0.0559862,-0.0741475,0.0550435,0.0706652,-0.0922309,0.145624,-0.124546,-0.0816549,0.026474,0.0229263,0.0255966,0.0139999,0.0423813,-0.00205994,0.0276566,0.0310898,-9.97986,0.0170898,-0.0119019,0.0200653,-0.0289917,0.00823975,-0.0276566,0.084877,0.0629425
29,2,10.0097,0.00152588,-0.00244141,-2.4247,0.0562914,-0.0741475,0.0544332,0.0715807,-0.0916206,0.146844,-0.125766,-0.0813497,0.0101471,0.0278854,0.0245667,0.00743866,0.0436401,-0.00358582,0.0256729,0.0309372,-9.97986,0.0299072,-0.014801,0.0141907,-0.0524521,-0.00297546,-0.0292969,0.0848007,0.0568008
29,3,10.0097,0,-0.00198364,-2.42623,0.0569017,-0.0738423,0.0553487,0.07036,-0.0925361,0.146234,-0.124241,-0.080129,-0.00797272,0.0267029,0.02491,0.00904083,0.0508881,-0.00591278,0.0252914,0.031929,-9.97986,0.0359344,-0.0158691,0.018425,-0.0646591,-0.00205994,-0.0197601,0.0862503,0.0561142
29,4,10.0097,-0.000915527,-0.00289917,-2.42501,0.055681,-0.073232,0.054128,0.04442,-0.0952827,0.146234,-0.126377,-0.0828756,-0.0162506,0.0288391,0.0228882,0.00907898,0.0432968,-0.00896454,0.0276566,0.039444,-9.97986,0.0549316,-0.0175858,0.0178528,-0.0823975,-0.00694275,-0.0226593,0.0813675,0.0542068
29,5,8.76119,0.0701904,-0.00320435,-2.42409,0.0572069,-0.0738423,0.0544332,0.0459459,-0.0919257,0.16607,-0.125156,-0.0822652,-0.0123215,0.0304413,0.0213623,0.00556946,0.0452805,-0.0110245,0.0295258,0.0353241,-9.97986,0.0759888,-0.0226974,0.0149536,-0.0957108,-0.00957489,-0.0204086,0.0846863,0.0538254
29,6,7.62502,0.00427246,-0.00183105,-2.42653,0.0544603,-0.075063,0.0538228,0.0554064,-0.0919257,0.152643,-0.126377,-0.0831808,-0.00240326,0.0276184,0.0231552,0.0063324,0.0476456,-0.0123978,0.0336075,0.0299454,-9.97986,0.059166,-0.0213242,0.0134277,-0.112267,-0.01091,-0.0245667,0.0811386,0.0509644
29,7,7.5826,0.00305176,-0.00213623,-2.42592,0.0553758,-0.0756734,0.0538228,0.065172,-0.0928413,0.147455,-0.126072,-0.0834859,0.0396347,0.0281906,0.0258255,0.00980377,0.0500488,-0.0146103,0.0284195,0.033989,-9.97986,0.0157547,-0.0194931,0.0133514,-0.122452,-0.0146484,-0.0253677,0.0800323,0.0502777
29,8,7.93477,0.000305176,-0.000305176,-2.42623,0.0553758,-0.0753682,0.054128,0.072191,-0.0919257,0.146539,-0.126072,-0.0825704,0.0654984,0.0304031,0.0206375,0.0115585,0.0458908,-0.0160599,0.0235367,0.0368118,-9.97986,-0.0188446,-0.0156784,0.00957489,-0.125542,-0.0163651,-0.0243378,0.0753403,0.0458527
29,9,10.0097,0.00213623,0.000762939,-2.42623,0.0547655,-0.0747579,0.0553487,0.0987413,-0.0903999,0.145624,-0.124851,-0.0840963,0.0226593,0.0324249,0.0270081,0.0115204,0.0448608,-0.0181198,0.0263214,0.0415802,-9.97986,-0.0321198,-0.0163269,0.0154877,-0.127106,-0.0180054,-0.0222778,0.0708008,0.0452423
30,0,10.0097,0.000915527,0.000152588,-2.42959,0.0538499,-0.0768941,0.0526021,0.0871447,-0.0943672,0.143792,-0.126377,-0.0868429,-0.0123596,0.0356674,0.0226974,0.0106049,0.0407791,-0.0208664,0.0266266,0.0464249,-9.97986,-0.0355148,-0.0130463,0.0160599,-0.130005,-0.0177383,-0.0204086,0.0691223,0.0442123
30,1,10.0097,-0.000610352,-0.00167847,-2.42898,0.0532396,-0.0759786,0.0513814,0.0758531,-0.0955879,0.144098,-0.126072,-0.0868429,-0.019722,0.0334167,0.0281525,0.0120544,0.037384,-0.0234985,0.0256348,0.0434113,-9.97986,-0.0105286,-0.0112915,0.016098,-0.128479,-0.0136566,-0.0174332,0.0696945,0.0467682
30,2,10.0097,-0.000610352,-0.000457764,-2.42898,0.0526292,-0.0753682,0.0519917,0.0715807,-0.0955879,0.143792,-0.126682,-0.0874532,-0.0854874,0.0323486,0.0299454,0.00724792,0.0436783,-0.0233841,0.0261307,0.0340271,-9.97986,0.0133514,-0.0124741,0.0094986,-0.124664,-0.0214005,-0.0166702,0.0715637,0.0425339
30,3,10.0097,0.00183105,-0.000610352,-2.42959,0.0535448,-0.0753682,0.0519917,0.0688341,-0.0971137,0.144708,-0.127903,-0.0868429,-0.167618,0.0373459,0.033989,0.016861,0.0328064,-0.02285,0.0233078,0.00747681,-9.97986,0.0347519,-0.0119019,0.00881195,-0.120163,-0.0229645,-0.0202179,0.0676346,0.0337601
30,4,10.0097,-0.00183105,-0.000610352,-2.42837,0.0532396,-0.0759786,0.0532125,0.0700548,-0.0943672,0.141961,-0.127598,-0.0877584,-0.169334,0.0433731,0.0378036,0.0208664,0.0269699,-0.0202942,0.0186539,-0.00667572,-9.97986,0.0540161,-0.00858307,0.00522614,-0.113487,-0.0252533,-0.0209808,0.0645065,0.036087
30,5,10.0097,0,-0.000457764,-2.42806,0.0553758,-0.0756734,0.0522969,0.0724962,-0.094062,0.144098,-0.127292,-0.0859274,-0.0495529,0.0416183,0.0400925,0.0211334,0.0217438,-0.0215149,0.0257492,0.00705719,-9.97986,0.0574112,-0.00213623,0.00572205,-0.109673,-0.026474,-0.0163269,0.062561,0.0305939
30,6,10.0097,0.000610352,0.000152588,-2.42867,0.0541551,-0.0756734,0.0529073,0.0731066,-0.0916206,0.145929,-0.126682,-0.0844015,0.14164,0.0371933,0.0375366,0.0157928,0.021019,-0.0246429,0.0242233,0.0277328,-9.97986,0.0525665,-0.00259399,0.00213623,-0.0963974,-0.0321579,-0.0114059,0.0548172,0.0284958
30,7,10.0097,0.00244141,0.000152588,-2.42714,0.0550706,-0.0753682,0.0522969,0.07036,-0.0931465,0.145013,-0.126072,-0.0840963,0.227203,0.0376892,0.0336075,0.0140381,0.025444,-0.0243759,0.0231934,0.0404739,-9.97986,0.0260925,-0.00247955,0.00236511,-0.0858688,-0.0294113,0.00259399,0.0438309,0.0292587
30,8,10.0097,0.000610352,0.000915527,-2.42745,0.0541551,-0.0790303,0.0538228,0.0694445,-0.0937568,0.145318,-0.126072,-0.0834859,0.177155,0.0315475,0.0334549,0.0107574,0.0215912,-0.0235748,0.0262451,0.0492859,-9.97986,-0.00747681,0,-0.00480652,-0.087738,-0.0141907,0.0121307,0.0298691,0.0239182
30,9,10.0097,0.00152588,0.000305176,-2.42592,0.055681,-0.0738423,0.054128,0.07036,-0.0925361,0.145624,-0.125156,-0.0831808,0.0794983,0.0243378,0.0278091,0.00968933,0.0204849,-0.0201416,0.025444,0.0415039,-9.97986,-0.0250244,-0.00488281,-0.00972748,-0.0777435,0.00915527,0.0209045,0.0165558,0.0216293
31,0,10.0097,-0.000915527,0.000610352,-2.42501,0.0565965,-0.0735371,0.0547383,0.0706652,-0.0919257,0.146539,-0.123935,-0.0822652,0.0347519,0.0283432,0.0342178,0.0131607,0.0238419,-0.0211716,0.0263977,0.0279999,-9.97986,-0.0337982,-0.00236511,-0.00457764,-0.0743484,0.0409698,0.0204849,0.00865936,0.016861
31,1,10.0097,0,0.000305176,-2.42592,0.0562914,-0.0756734,0.0553487,0.0712755,-0.0910102,0.14776,-0.124851,-0.0810445,0.00915527,0.0279999,0.0339508,0.0126648,0.0243759,-0.0240326,0.0303268,0.000610352,-9.97986,-0.034523,-0.00362396,-0.00629425,-0.0680542,0.0737,0.0205994,0.000190735,0.0133514
31,2,10.0097,-0.0012207,0.000457764,-2.4244,0.0562914,-0.0735371,0.0547383,0.0709703,-0.090705,0.145318,-0.124241,-0.0810445,-0.0132751,0.0263214,0.0326538,0.0144577,0.0253677,-0.0168991,0.0240707,-0.0215149,-9.97986,-0.0218201,-0.00789642,-0.0121689,-0.0616837,0.111542,0.0181961,-0.00972748,0.00961304
31,3,10.0097,0.000610352,0.000762939,-2.42562,0.0565965,-0.0741475,0.0547383,0.0715807,-0.090705,0.14837,-0.124546,-0.0798238,-0.018158,0.028801,0.0216293,0.0130081,0.0238037,-0.0191116,0.0279236,-0.0119781,-9.97986,0.00694275,-0.00144958,-0.0115204,-0.0453568,0.143356,0.0211716,-0.0205612,0.0128555
31,4,10.0097,-0.0012207,0.000762939,-2.42714,0.0559862,-0.0771993,0.0532125,0.0450304,-0.0931465,0.146234,-0.127292,-0.0819601,0.00324249,0.0170135,0.0157547,0.0104523,0.022316,-0.0157547,0.0276184,-0.00259399,-9.97986,0.0298691,0.000305176,-0.0149536,-0.025444,0.172348,0.0219727,-0.030632,0.0120926
31,5,8.73097,0.0012207,0.000305176,-2.42501,0.0529344,-0.0741475,0.0544332,0.0462511,-0.0922309,0.147149,-0.126377,-0.0822652,0.0547791,0.0162506,0.0156403,0.00865936,0.0254822,-0.0113297,0.0229645,0.0149536,-9.97986,0.0318146,0.000457764,-0.016861,-0.00125885,0.191269,0.0279617,-0.0336456,0.0137329
31,6,7.55055,-0.000305176,0.000152588,-2.42684,0.055681,-0.0735371,0.0544332,0.0572374,-0.0928413,0.145929,-0.125461,-0.0816549,0.0500107,0.0183487,0.0159073,0.00705719,0.0243759,-0.0143051,0.0250626,0.0175858,-9.97986,0.0323486,-0.00637054,-0.0152206,0.0123596,0.210114,0.0282669,-0.0499725,0.0140381
31,7,7.43794,-0.000915527,0.000915527,-2.42653,0.0544603,-0.07842,0.054128,0.0630358,-0.0928413,0.145318,-0.125156,-0.0825704,-0.00331879,0.0125504,0.0170898,0.00705719,0.0259781,-0.0109482,0.0231171,0.0179672,-9.97986,0.00160217,-0.00617981,-0.0175476,0.022316,0.224915,0.0287628,-0.0576401,0.0160217
31,8,7.79927,0.000305176,0.00137329,-2.42653,0.0627,-0.0747579,0.054128,0.0734117,-0.0910102,0.146539,-0.125461,-0.0825704,-0.0289917,0.0135422,0.00747681,0.000610352,0.0259781,-0.0164413,0.0153351,0.0179672,-9.97986,-0.0495911,-0.00274658,-0.0150299,0.0469208,0.248451,0.036087,-0.059433,0.0170135
31,9,9.88271,0,0.00320435,-2.42806,0.0550706,-0.0756734,0.0550435,0.0993517,-0.0876533,0.144403,-0.123935,-0.0825704,0.0131226,0.00720978,0.00358582,0.00198364,0.0254822,-0.0106049,0.0186157,0.00953674,-9.97986,-0.0735092,-0.00797272,-0.0172424,0.0528336,0.279465,0.0297928,-0.0613022,0.0210953
32,0,10.0097,0.000915527,0.00213623,-2.42959,0.0541551,-0.0753682,0.0516866,0.0914171,-0.0931465,0.143487,-0.125766,-0.0868429,0.0589371,0.00465393,0.000801086,0.00377655,0.0212097,-0.00751495,0.0117493,0.014267,-9.97986,-0.0748825,-0.00995636,-0.0147247,0.059166,0.300865,0.0279999,-0.0625229,0.0219345
32,1,10.0097,0.000610352,-0.000152588,-2.4302,0.0529344,-0.0762837,0.0510762,0.0767687,-0.0965034,0.138604,-0.126377,-0.0880636,0.075798,0.00366211,-0.000419617,0.0050354,0.0231171,-0.0140762,0.0106812,0.0175858,-9.97986,-0.0744629,-0.0109482,-0.0113678,0.0600052,0.312462,0.0340271,-0.0642395,0.0215912
32,2,10.0097,-0.000915527,0.000457764,-2.42928,0.0544603,-0.0759786,0.0513814,0.0715807,-0.0998603,0.143792,-0.126682,-0.0862325,0.0696564,0.00328064,0.00282288,0.00370026,0.0168991,-0.00988007,0.0108337,0.0112915,-9.97986,-0.057373,-0.00450134,-0.0146866,0.0593185,0.316887,0.0324631,-0.0606918,0.0193787
32,3,10.0097,0.000305176,-0.000610352,-2.42959,0.0535448,-0.0738423,0.0513814,0.0709703,-0.0952827,0.144403,-0.127292,-0.0871481,0.0368881,0.00415802,-0.000457764,0.00423431,0.0140762,-0.00766754,0.0139618,0.016861,-9.97986,0.000991821,-0.000457764,-0.0130844,0.0528336,0.338631,0.0323486,-0.0564957,0.0183487
32,4,10.0097,0.00213623,-0.00137329,-2.4302,0.0550706,-0.0762837,0.0535176,0.0691393,-0.095893,0.141046,-0.126682,-0.0871481,0.0151443,0.00404358,0.00137329,0.00862122,0.00999451,-0.0117111,0.0177765,0.0149918,-9.97986,0.035553,0.00930786,-0.00980377,0.0374603,0.33802,0.0335693,-0.0519943,0.016098
32,5,10.0097,0,-0.00198364,-2.42776,0.0532396,-0.0753682,0.0519917,0.0685289,-0.0900947,0.143487,-0.126377,-0.0874532,0.00434875,0.00675201,-0.00202179,0.00705719,0.00770569,-0.0133896,0.0220871,0.0210953,-9.97986,0.050621,0.0178909,-0.00469208,0.0136566,0.342674,0.030899,-0.049324,0.0174332
32,6,10.0097,0.000915527,-0.00228882,-2.42806,0.0553758,-0.069875,0.0538228,0.0700548,-0.0952827,0.144403,-0.126682,-0.0850118,-0.0100327,0.00522614,0,0.00526428,0.0044632,-0.0146484,0.0232315,0.0192642,-9.97986,0.0672913,0.0183487,-0.00125885,-0.0109863,0.344315,0.0309372,-0.0473785,0.018425
32,7,10.0097,0,-0.00167847,-2.42745,0.0547655,-0.0753682,0.0538228,0.0697496,-0.0922309,0.140436,-0.126987,-0.085317,-0.00465393,0.0069046,0.00385284,0.00778198,0.00175476,-0.0200653,0.0242615,0.0190353,-9.97986,0.0870895,0.0174713,-0.00366211,-0.0322342,0.342293,0.0370407,-0.0426102,0.0159073
32,8,10.0097,0.00244141,-0.00259399,-2.42531,0.0559862,-0.0744527,0.054128,0.0706652,-0.0885688,0.145013,-0.125766,-0.0850118,0.0107574,0.0115204,0.00671387,0.00946045,0.00854492,-0.0182724,0.026207,0.0195694,-9.97986,0.107994,0.0127411,-0.00339508,-0.0625992,0.34256,0.0335693,-0.0418091,0.0123978
32,9,10.0097,-0.000610352,-0.00289917,-2.42562,0.0559862,-0.0726216,0.0547383,0.0724962,-0.0925361,0.146234,-0.125156,-0.0837911,0.0302124,0.0118637,0.0134659,0.00801086,0.00347137,-0.00976563,0.0282669,0.0168228,-9.97986,0.110855,0.00816345,0.00312805,-0.0926208,0.328445,0.0333786,-0.0453568,0.0120926
33,0,10.0097,0.00213623,-0.00335693,-2.42501,0.0572069,-0.0741475,0.0535176,0.0718859,-0.0903999,0.143792,-0.12363,-0.0819601,0.0476074,0.0133514,0.0144958,0.010376,0.00587463,-0.015564,0.0205994,0.0275803,-9.97986,0.104866,0.00289917,0.00614166,-0.127831,0.327301,0.0313187,-0.041275,0.00762939
33,1,10.0097,-0.000305176,-0.00366211,-2.42562,0.0569017,-0.0741475,0.0547383,0.07036,-0.0961982,0.147149,-0.124546,-0.0825704,0.0568008,0.0181961,0.0144958,0.0110626,0.00778198,-0.0150681,0.0202179,0.0288391,-9.97986,0.108757,0.00286102,0.00793457,-0.15625,0.312233,0.0254059,-0.0439453,0.0019455
33,2,10.0097,0.000610352,-0.00289917,-2.4244,0.0569017,-0.0768941,0.0550435,0.0700548,-0.0910102,0.145624,-0.124851,-0.0813497,0.0484467,0.0234222,0.018425,0.00659943,0.00976563,-0.00911713,0.0237274,0.0325012,-9.97986,0.102348,0.00701904,0.010376,-0.16613,0.297928,0.0246048,-0.0405502,0.00205994
33,3,10.0097,0,-0.00106812,-2.4247,0.0581224,-0.0741475,0.0550435,0.07036,-0.0925361,0.149896,-0.124851,-0.0807394,0.011673,0.0195313,0.0218582,0.00968933,0.0120163,-0.0133896,0.0224686,0.0328445,-9.97986,0.0848389,0.00511169,0.00816345,-0.175819,0.283203,0.0229263,-0.0366592,-0.0012207
33,4,10.0097,0.000915527,-0.00259399,-2.42562,0.0553758,-0.0738423,0.0535176,0.0419786,-0.090705,0.146234,-0.126377,-0.0822652,0.0219345,0.0237274,0.0233459,0.0104523,0.00766754,-0.00835419,0.0239944,0.0354767,-9.97986,0.0639725,0.00797272,0.00759125,-0.181885,0.273018,0.0217056,-0.0375748,-0.00324249
33,5,8.62203,0.0012207,-0.00198364,-2.42562,0.0553758,-0.0683492,0.0547383,0.04442,-0.0934516,0.146844,-0.126072,-0.0828756,0.00705719,0.0249863,0.0278854,0.0102615,0.00976563,-0.00679016,0.0218964,0.0236511,-9.97986,0.0561523,0.0113678,0.00801086,-0.189629,0.26577,0.022049,-0.0304413,-0.00244141
33,6,7.49288,0.00183105,-0.00213623,-2.42653,0.0553758,-0.0753682,0.0544332,0.0563219,-0.0931465,0.151422,-0.125766,-0.0819601,-0.0501251,0.0349808,0.0291061,0.0135422,0.0122833,-0.000114441,0.0239944,0.0159454,-9.97986,0.058403,0.00576019,0.00766754,-0.20874,0.249214,0.0243759,-0.0343704,-0.00694275
33,7,7.42391,0,-0.00167847,-2.42653,0.0553758,-0.0735371,0.054128,0.0648668,-0.0910102,0.145013,-0.125156,-0.0828756,-0.0730133,0.0372314,0.0333405,0.0201416,0.0133133,-0.00179291,0.0182343,0.00843048,-9.97986,0.0418854,0.00217438,0.00553131,-0.231133,0.240097,0.0220871,-0.0270081,-0.00652313
33,8,7.77394,-0.000610352,-0.00106812,-2.42653,0.0538499,-0.073232,0.0538228,0.0746324,-0.0922309,0.145624,-0.125156,-0.0837911,-0.0632858,0.0419998,0.0377274,0.0201797,0.0177002,-0.00514984,0.0130081,0.0131989,-9.97986,0.0472641,0.00225067,0.00419617,-0.235252,0.228767,0.0160599,-0.0279236,-0.0109863
33,9,9.87233,-0.000305176,0,-2.42745,0.055681,-0.0759786,0.0553487,0.101793,-0.090705,0.142267,-0.123935,-0.0831808,0.0108337,0.0457001,0.0378036,0.017662,0.0114822,-0.00587463,0.0147629,0.0195694,-9.97986,0.0590897,0.00247955,0.00370026,-0.243797,0.211678,0.00846863,-0.0284195,-0.00957489
34,0,10.0097,0.0012207,0,-2.42928,0.0535448,-0.0765889,0.0519917,0.0905016,-0.094062,0.142572,-0.126377,-0.0871481,0.0717163,0.0447845,0.0394821,0.018692,0.00797272,-0.00213623,0.0167465,0.0337219,-9.97986,0.0615311,0.00228882,0.00137329,-0.249329,0.191154,0.00907898,-0.0210571,-0.00782013
34,1,10.0097,0.0012207,-0.000610352,-2.42898,0.0547655,-0.0689595,0.0516866,0.075548,-0.0965034,0.142572,-0.125766,-0.0874532,0.020256,0.040741,0.033493,0.0141525,0.0122833,-0.000915527,0.0162506,0.0527954,-9.97986,0.0430679,0.00247955,0.00442505,-0.254135,0.160599,0.00259399,-0.0238037,-0.00881195
34,2,10.0097,0.00152588,-0.000915527,-2.42867,0.0544603,-0.0753682,0.0519917,0.0691393,-0.0961982,0.139215,-0.126377,-0.0868429,-0.0414658,0.0399017,0.0284576,0.00965118,0.0124741,-0.000305176,0.0110626,0.0550842,-9.97986,0.0237656,0.00160217,0.0088501,-0.257988,0.128136,0.000190735,-0.031662,-0.0133514
34,3,10.0097,-0.0012207,-0.000610352,-2.42898,0.0541551,-0.075063,0.0526021,0.0688341,-0.0952827,0.142572,-0.127903,-0.0865377,-0.0814438,0.0391769,0.0289917,0.0135803,0.0146103,-0.00427246,0.00537872,0.0424957,-9.97986,-0.00263214,0.0043869,0.0063324,-0.262184,0.0958633,-0.00663757,-0.0283051,-0.0141525
34,4,10.0097,-0.00213623,-0.00152588,-2.4302,0.0550706,-0.0775044,0.0529073,0.0685289,-0.0968086,0.142572,-0.126682,-0.0874532,-0.12104,0.0385666,0.0352478,0.0162125,0.0225067,-0.00671387,0.00717163,0.0157928,-9.97986,-0.0152588,0.00301361,0.00869751,-0.268593,0.0670242,-0.0115204,-0.0188446,-0.0143051
34,5,10.0097,0.0012207,-0.000762939,-2.42776,0.0535448,-0.0753682,0.0522969,0.0694445,-0.0946723,0.146844,-0.126377,-0.0856222,-0.114403,0.0456238,0.0402451,0.0234604,0.0318527,-0.000724792,0.0030899,-0.0135422,-9.97986,-0.025177,-0.000457764,0.0139999,-0.269432,0.0421143,-0.0165939,-0.0194168,-0.0122452
34,6,10.0097,0.00274658,-0.000305176,-2.42776,0.0550706,-0.0756734,0.0532125,0.0697496,-0.0922309,0.145318,-0.126072,-0.085317,-0.0493622,0.0419235,0.033989,0.0190735,0.0269699,0.00614166,0.001297,-0.00656128,-9.97986,-0.00953674,-0.0062561,0.0167465,-0.262604,0.0162506,-0.0133896,-0.019455,-0.0143814
34,7,10.0097,0,0.000152588,-2.42776,0.0562914,-0.0790303,0.054128,0.07036,-0.0925361,0.144098,-0.126377,-0.0837911,0.037384,0.036087,0.0253677,0.016098,0.0231934,0.0112915,-0.00617981,0.00976563,-9.97986,0.00797272,-0.0050354,0.0189209,-0.25383,-0.00995636,-0.0127792,-0.0247192,-0.0115585
34,8,10.0097,0.000610352,0.0012207,-2.42684,0.0550706,-0.0741475,0.0532125,0.0697496,-0.0934516,0.142877,-0.125461,-0.0840963,0.0707245,0.0364685,0.0271988,0.0205231,0.027504,0.0218964,-0.00671387,0.0111008,-9.97986,0.00831604,-0.00297546,0.0257492,-0.237999,-0.0304413,-0.01091,-0.0335312,-0.0114822
34,9,10.0097,0.0012207,0.000762939,-2.42684,0.0562914,-0.0741475,0.054128,0.07036,-0.0952827,0.146234,-0.125156,-0.0825704,0.0187683,0.0293732,0.025444,0.0141907,0.021553,0.0253677,-0.00518799,0.0037384,-9.97986,0.00171661,-0.00717163,0.0247955,-0.226326,-0.0462723,-0.0120163,-0.0334549,-0.0123215
35,0,10.0097,0.0012207,0.000305176,-2.42531,0.0562914,-0.0729268,0.0538228,0.0691393,-0.0916206,0.145013,-0.124241,-0.0816549,-0.00804901,0.0311661,0.0164413,0.0152206,0.0207901,0.0207901,-0.0175476,0.00518799,-9.97986,-0.0266266,-0.00907898,0.0263977,-0.218506,-0.0596237,-0.013237,-0.0319672,-0.0128555
35,1,10.0097,0.000305176,0.00152588,-2.4247,0.0562914,-0.0741475,0.0535176,0.0718859,-0.0916206,0.148675,-0.124546,-0.0819601,0.0525665,0.0265503,0.0197601,0.0122452,0.0220871,0.0259399,-0.0174713,0.00640869,-9.97986,-0.0841522,-0.00888824,0.0259399,-0.194168,-0.0703049,-0.0119019,-0.0336456,-0.0102615
35,2,10.0097,-0.000915527,0.00289917,-2.42623,0.0565965,-0.0738423,0.0538228,0.0709703,-0.0922309,0.146234,-0.124241,-0.080129,0.127792,0.0238037,0.0183105,0.0150681,0.0220871,0.0265503,-0.0222015,0.0130081,-9.97986,-0.138931,-0.0100327,0.0354385,-0.175095,-0.0805664,-0.00843048,-0.0289917,-0.0069046
35,3,10.0097,0.00183105,0.00137329,-2.4247,0.055681,-0.0701802,0.0550435,0.07036,-0.0922309,0.145929,-0.125156,-0.0804342,0.102959,0.0187302,0.0163269,0.0105286,0.0206757,0.0227737,-0.0296402,0.0133514,-9.97986,-0.16304,-0.00492096,0.0309753,-0.161209,-0.0975418,-0.0134277,-0.0287247,-0.00823975
35,4,10.0097,0.00183105,-0.000305176,-2.42623,0.0565965,-0.0738423,0.0532125,0.0428942,-0.0961982,0.147455,-0.126987,-0.0819601,0.0229263,0.0187683,0.0125885,0.00965118,0.019989,0.0260162,-0.0321198,0.00873566,-9.97986,-0.141563,-0.00183105,0.0283051,-0.151176,-0.106735,-0.011673,-0.0284576,-0.00667572
35,5,8.71511,0.000610352,0.000457764,-2.42592,0.0578172,-0.075063,0.0544332,0.0462511,-0.0934516,0.145929,-0.126377,-0.0816549,0.00598907,0.011673,0.00335693,0.00747681,0.0242996,0.0217438,-0.0319672,0.00640869,-9.97986,-0.114746,0.00602722,0.0275421,-0.135765,-0.118217,-0.0147247,-0.0256729,-0.00637054
35,6,7.5533,0.00244141,0.000305176,-2.42592,0.055681,-0.0710957,0.0532125,0.058153,-0.090705,0.145929,-0.125156,-0.0822652,0.0240707,0.00896454,0.00286102,0.00598907,0.0249481,0.0244904,-0.0346756,0.00919342,-9.97986,-0.0817871,0.00480652,0.0191116,-0.116158,-0.122948,-0.00957489,-0.0219345,-0.00480652
35,7,7.459,0.000610352,0.00152588,-2.42653,0.055681,-0.0738423,0.054128,0.0679186,-0.0925361,0.142572,-0.125461,-0.0822652,0.0387955,0.00537872,-0.00267029,0.00988007,0.0266647,0.0286484,-0.034523,0.00682831,-9.97986,-0.029335,0.00110626,0.0183487,-0.0922394,-0.124588,-0.0088501,-0.0108337,-0.00366211
35,8,7.80446,0.000305176,0.00289917,-2.42592,0.0538499,-0.0759786,0.054128,0.0746324,-0.0910102,0.145318,-0.125461,-0.0819601,0.0577164,0.0056076,-0.0038147,0.0030899,0.0282288,0.0260544,-0.0328827,0.0088501,-9.97986,0.0265121,0.00259399,0.0149918,-0.0678253,-0.133171,-0.0110626,-0.00778198,-0.00747681
35,9,9.89369,0.00183105,0.00228882,-2.42837,0.0553758,-0.0765889,0.054128,0.102098,-0.090705,0.144708,-0.123935,-0.0834859,0.0470352,0.00278473,-0.00644684,0.00408173,0.021553,0.0251389,-0.0223541,0.0146484,-9.97986,0.079422,0.000228882,0.014534,-0.0503922,-0.137711,-0.0100327,-0.00507355,-0.00461578
36,0,10.0097,0.000915527,0.00289917,-2.42898,0.0532396,-0.0765889,0.0519917,0.0911119,-0.094062,0.145624,-0.126072,-0.0868429,0.0353241,0.00656128,-0.00476837,0.00606537,0.0188446,0.0235748,-0.0248718,0.0141907,-9.97986,0.111427,-0.00267029,0.00961304,-0.0321579,-0.140305,-0.00995636,0.00202179,-0.00358582
36,1,10.0097,0,0.000610352,-2.42928,0.0541551,-0.0753682,0.0516866,0.0761583,-0.0955879,0.142877,-0.127598,-0.0874532,0.0278473,0.00774384,0.000495911,0.00343323,0.0230408,0.018158,-0.0244141,0.0174332,-9.97986,0.12558,-7.62939e-005,0.00766754,-0.0336456,-0.147324,-0.0109863,0.00522614,-0.0087738
36,2,10.0097,0.00213623,-0.00167847,-2.42959,0.0541551,-0.0753682,0.0516866,0.0728014,-0.0968086,0.143487,-0.126682,-0.0871481,0.0215149,0.00911713,-0.00312805,0.00587463,0.0178146,0.0247574,-0.0246811,0.0167847,-9.97986,0.10952,0.000534058,0.00686646,-0.0510025,-0.145035,-0.011673,0.0120926,-0.00881195
36,3,10.0097,-0.000305176,0.00106812,-2.42898,0.0544603,-0.0765889,0.0516866,0.0691393,-0.0952827,0.141656,-0.126377,-0.0865377,0.0245285,0.00362396,0.00335693,0.0075531,0.0233841,0.0217819,-0.0219727,0.0154877,-9.97986,0.0840759,0.00274658,0.00659943,-0.0159836,-0.147095,-0.0104141,0.0194931,-0.00850677
36,4,10.0097,-0.000610352,0.000915527,-2.42959,0.0544603,-0.075063,0.050771,0.0685289,-0.0946723,0.142572,-0.127292,-0.0874532,0.0252533,0.0177002,0.00396729,0.00782013,0.023613,0.022316,-0.0273895,0.0174332,-9.97986,0.0653839,-0.00125885,0.00434875,-0.00423431,-0.151024,-0.0173187,0.0255966,-0.00675201
36,5,10.0097,0.00152588,0.000152588,-2.42806,0.0541551,-0.0775044,0.0522969,0.0694445,-0.0937568,0.145013,-0.126682,-0.0859274,0.0257111,0.0172806,0.00766754,0.0101089,0.0197601,0.0210953,-0.0253296,0.0152969,-9.97986,0.0634003,-0.00114441,0.00621796,-0.00652313,-0.151825,-0.0142288,0.0287628,-0.00953674
36,6,10.0097,0.0012207,0.0012207,-2.42714,0.0553758,-0.0759786,0.0538228,0.0694445,-0.0931465,0.143792,-0.126377,-0.0847066,0.0229645,0.0152588,0.00946045,0.0120544,0.0207901,0.0199509,-0.0262833,0.0175476,-9.97986,0.0674057,0.00507355,0.00671387,0.0172806,-0.148354,-0.00579834,0.0305176,-0.00682831
36,7,10.0097,0,0.00152588,-2.42837,0.0550706,-0.075063,0.0538228,0.0694445,-0.0931465,0.144403,-0.126377,-0.0834859,0.0189972,0.0173569,0.0114441,0.0149155,0.021553,0.0273132,-0.0214005,0.0166321,-9.97986,0.0632477,0.000267029,0.001297,0.0390244,-0.150299,-0.00488281,0.0374603,-0.00617981
36,8,10.0097,0,0.000762939,-2.42653,0.0544603,-0.0744527,0.0535176,0.0694445,-0.0928413,0.145624,-0.126377,-0.0834859,0.0171661,0.0195694,0.0138092,0.0142288,0.0230026,0.0294876,-0.0252533,0.0233459,-9.97986,0.049324,-0.000228882,0.0019455,0.0334549,-0.153198,0.000801086,0.0378418,-0.00507355
36,9,10.0097,0.000610352,0,-2.42562,0.0550706,-0.0729268,0.0532125,0.0694445,-0.0925361,0.146844,-0.125766,-0.0819601,0.0144577,0.0240326,0.0149918,0.0126266,0.0226974,0.0252151,-0.031395,0.0179291,-9.97986,0.0380325,0.000648499,0.00293732,0.042305,-0.148964,-0.00087738,0.0416946,-0.00499725
37,0,10.0097,-0.0012207,0.000762939,-2.42501,0.0569017,-0.0738423,0.0547383,0.0715807,-0.0925361,0.146234,-0.124851,-0.0819601,0.0147247,0.023613,0.0200653,0.0157547,0.0207138,0.0214005,-0.0273895,0.0202942,-9.97986,0.0209808,-0.00156403,0.0038147,0.0523376,-0.146141,-0.0019455,0.0523758,-0.00114441
37,1,10.0097,0.00183105,0,-2.42592,0.0578172,-0.0717061,0.0538228,0.0694445,-0.0910102,0.146234,-0.124241,-0.0810445,0.00751495,0.0270844,0.019989,0.0152969,0.0212097,0.018959,-0.0323868,0.018158,-9.97986,0.00583649,-0.000762939,0.000991821,0.0516891,-0.143509,0.00160217,0.0532532,-0.00236511
37,2,10.0097,0,-0.000152588,-2.42623,0.0553758,-0.073232,0.0544332,0.0706652,-0.0916206,0.145013,-0.124241,-0.0807394,-0.00461578,0.0258255,0.0205994,0.0131226,0.0128174,0.019989,-0.0349045,0.0198746,-9.97986,-0.00843048,-0.000686646,0.00396729,0.0508499,-0.142021,0.00225067,0.0554657,0.00232697
37,3,10.0097,-0.000305176,0.00106812,-2.42501,0.0562914,-0.0744527,0.0544332,0.0685289,-0.0922309,0.146539,-0.123935,-0.080129,-0.0154114,0.0244904,0.0225449,0.0139236,0.0153732,0.0133133,-0.0373077,0.0246429,-9.97986,-0.00682831,0.00389099,0.00198364,0.0598526,-0.135078,0.0025177,0.0691605,0.00236511
37,4,10.0097,0.000305176,-0.00106812,-2.42562,0.0562914,-0.0747579,0.0535176,0.0447252,-0.0949775,0.145624,-0.126987,-0.0825704,-0.0154877,0.0253677,0.0209427,0.0127029,0.0132751,0.0195313,-0.0331497,0.0237274,-9.97986,-0.00267029,0.00225067,0.00751495,0.0618362,-0.128975,0.0120926,0.070343,0.00534058
37,5,8.74715,0.000915527,-0.000915527,-2.42592,0.0559862,-0.0738423,0.0544332,0.0453356,-0.0937568,0.146234,-0.126682,-0.0816549,-0.00301361,0.0319672,0.02388,0.00675201,0.0177002,0.0167847,-0.0233459,0.0279999,-9.97986,-0.00591278,0.00202179,0.0056076,0.0598526,-0.121651,0.00728607,0.0688171,0.00465393
37,6,7.57131,0.000610352,-0.000610352,-2.42501,0.0559862,-0.0738423,0.054128,0.0560167,-0.0928413,0.145318,-0.124851,-0.0831808,-0.00270844,0.0296021,0.0254059,0.0144196,0.0156784,0.017128,0.000267029,0.0311279,-9.97986,-0.000572205,0.000991821,0.00488281,0.0542068,-0.115662,0.0131607,0.0653458,0.00530243
37,7,7.48281,0.000915527,-0.00167847,-2.42623,0.0559862,-0.0756734,0.054128,0.065172,-0.0925361,0.145318,-0.125461,-0.0831808,-0.0289917,0.0308609,0.0266647,0.0138474,0.0192261,0.0179291,0.0331879,0.0318527,-9.97986,0.0094986,0.00343323,0.00534058,0.0456619,-0.110931,0.0211716,0.0601196,0.000610352
37,8,7.82674,0.000915527,-0.000152588,-2.42623,0.0562914,-0.0756734,0.0544332,0.0740221,-0.0916206,0.145013,-0.125461,-0.0844015,-0.0267792,0.0333023,0.0288773,0.0102615,0.0185776,0.0163269,0.0599289,0.0364685,-9.97986,0.0255585,-0.000305176,0.00694275,0.0422668,-0.104752,0.0218964,0.0653076,0.00305176
37,9,9.92299,0.000915527,-0.000610352,-2.42684,0.0538499,-0.0756734,0.0556539,0.100267,-0.0879585,0.144403,-0.124241,-0.0837911,-0.0218582,0.0363159,0.0328064,0.0105667,0.0131989,0.0165176,0.0791931,0.0403214,-9.97986,0.0418472,-0.000572205,0.00198364,0.0317764,-0.101776,0.02285,0.0600433,0.00267029
38,0,10.0097,0.00152588,0.000305176,-2.42837,0.0535448,-0.0775044,0.0532125,0.0898912,-0.0955879,0.142572,-0.126682,-0.0865377,-0.0537109,0.0431061,0.0364685,0.0128555,0.0197983,0.0146484,0.0989914,0.0298309,-9.97986,0.0490952,-0.000839233,0.00869751,0.0271606,-0.0959015,0.0302505,0.0552368,0.00347137
38,1,10.0097,0,-0.000915527,-2.42959,0.0538499,-0.0768941,0.0510762,0.0767687,-0.094062,0.141046,-0.126682,-0.0871481,-0.032196,0.046196,0.0395966,0.0218582,0.01297,0.0163651,0.115967,0.00751495,-9.97986,0.0553131,-0.00125885,0.00614166,0.0151443,-0.0989151,0.0218201,0.04879,0.00198364
38,2,10.0097,-0.000610352,-0.00198364,-2.4305,0.0532396,-0.0765889,0.0516866,0.0718859,-0.0946723,0.143792,-0.126987,-0.0871481,-0.0247955,0.0517654,0.0434875,0.0288391,0.00209808,0.0181961,0.125999,-0.0136948,-9.97986,0.0569534,-0.000267029,0.00465393,-0.0019455,-0.0941467,0.0205994,0.044136,0.000495911
38,3,10.0097,0.00213623,-0.00198364,-2.42898,0.0529344,-0.0765889,0.0526021,0.0700548,-0.0934516,0.144403,-0.127292,-0.0883688,0.001297,0.0523758,0.0509262,0.0276184,0.00679016,0.0134277,0.134697,-0.025444,-9.97986,0.0428391,-0.000457764,0.00408173,-0.021286,-0.0868225,0.0231171,0.0498199,0.00171661
38,4,10.0097,-0.0012207,-0.00244141,-2.42928,0.0532396,-0.0771993,0.0504659,0.07036,-0.0937568,0.144098,-0.127292,-0.0871481,0.0850677,0.0498962,0.0424194,0.0275421,0.0138092,0.0144958,0.131721,-0.0104523,-9.97986,0.0299072,-0.00152588,0.010376,-0.045433,-0.0798798,0.0239563,0.0484085,0.00659943
38,5,10.0097,0.00244141,-0.00167847,-2.42837,0.0547655,-0.0753682,0.0529073,0.0700548,-0.0943672,0.144403,-0.128208,-0.0874532,0.119705,0.043602,0.0366211,0.0207138,0.0117874,0.0094986,0.132217,0.00457764,-9.97986,0.0239944,0.00137329,0.00797272,-0.0414276,-0.0771332,0.0254059,0.0489807,0.00244141
38,6,10.0097,0.00152588,-0.000762939,-2.42806,0.0550706,-0.0744527,0.0532125,0.0688341,-0.0925361,0.145013,-0.126987,-0.0847066,0.116653,0.0363159,0.0325775,0.0159073,0.0088501,0.0136566,0.139694,0.0162506,-9.97986,0.0163651,0.00675201,0.00347137,-0.0370026,-0.0723267,0.029335,0.053978,0.00404358
38,7,10.0097,0.000305176,-0.000457764,-2.42745,0.0538499,-0.0747579,0.0532125,0.0679186,-0.0934516,0.146844,-0.126072,-0.0847066,0.0497818,0.0326538,0.0278473,0.0167084,0.00759125,0.00572205,0.135384,0.0215912,-9.97986,0.00492096,0.00335693,0.00282288,-0.0355911,-0.0674057,0.031929,0.0540161,0.00469208
38,8,10.0097,0.000610352,0.0012207,-2.42684,0.0559862,-0.0741475,0.0529073,0.0685289,-0.0952827,0.145624,-0.125766,-0.0828756,-0.00946045,0.0277328,0.0242233,0.00938416,0.00965118,0.00679016,0.135155,0.0211716,-9.97986,-0.018425,0.000190735,0.00801086,-0.00854492,-0.0582886,0.0258255,0.0601578,0.0050354
38,9,10.0097,0.00152588,0.00228882,-2.4244,0.0569017,-0.0729268,0.0544332,0.0691393,-0.0910102,0.145929,-0.125156,-0.0822652,0.00923157,0.0211716,0.0180435,0.0152588,0.00782013,0.00602722,0.13195,0.0245285,-9.97986,-0.0434875,0.000228882,0.00713348,0.00312805,-0.0557327,0.0238419,0.0600052,0.00900269
39,0,10.0097,0.000305176,0.000457764,-2.42501,0.0565965,-0.0741475,0.0544332,0.0700548,-0.0928413,0.145929,-0.123935,-0.0804342,0.0104523,0.0175858,0.0107574,0.0114059,0.00995636,0.00679016,0.128517,0.0184631,-9.97986,-0.0623703,-0.000190735,0.00858307,0.0120544,-0.0509644,0.0258255,0.0537872,0.00705719
39,1,10.0097,-0.0012207,0.00106812,-2.42531,0.0553758,-0.0744527,0.0562642,0.07036,-0.0913154,0.147149,-0.124546,-0.0813497,-0.0152206,0.017128,0.00694275,0.0037384,0.00793457,0.00228882,0.125465,0.0196838,-9.97986,-0.0529861,-0.00328064,0.0105667,0.0277328,-0.0411987,0.0428391,0.0525665,0.0087738
39,2,10.0097,0.0012207,-0.000305176,-2.42531,0.0565965,-0.073232,0.0550435,0.0709703,-0.0922309,0.146844,-0.124241,-0.0798238,-0.0536346,0.0138092,0.00484467,0.0094223,0.00743866,0.00732422,0.120888,0.00915527,-9.97986,-0.0528717,-0.00240326,0.0117111,0.0308609,-0.039711,0.0408173,0.0498962,0.00904083
39,3,10.0097,-0.0012207,0.0012207,-2.42592,0.0569017,-0.0759786,0.054128,0.0715807,-0.0913154,0.145318,-0.124546,-0.0807394,-0.0571823,0.00915527,0.0025177,0.00717163,0.00831604,0.00465393,0.115128,0.0019455,-9.97986,-0.0443649,-0.000343323,0.0136185,0.0360489,-0.0340271,0.0330353,0.0482178,0.00537872
39,4,10.0097,0.000610352,-0.000915527,-2.42653,0.0559862,-0.0744527,0.0538228,0.0438097,-0.0949775,0.145929,-0.126072,-0.0825704,-0.0186539,0.00988007,-0.00328064,0.00526428,0.00808716,0.00392914,0.110931,-0.00663757,-9.97986,-0.0462341,0.00038147,0.00988007,0.0432968,-0.034256,0.0230789,0.043335,0.00793457
39,5,8.71114,-0.000915527,-0.00213623,-2.42653,0.0559862,-0.0744527,0.0544332,0.0465563,-0.0928413,0.146539,-0.127292,-0.0816549,0.0259399,0.00476837,-0.00587463,0.00423431,0.00514984,0.00297546,0.106583,-0.000953674,-9.97986,-0.0551605,0.000801086,0.0135803,0.043335,-0.031929,0.0180435,0.0362778,0.00614166
39,6,7.5533,0.0012207,-0.000152588,-2.42562,0.0550706,-0.0677388,0.0544332,0.0584581,-0.0919257,0.145318,-0.125156,-0.0816549,0.0514984,0.00705719,0.000762939,0.00427246,0.00740051,-0.000991821,0.107269,0.00232697,-9.97986,-0.020752,0.0018692,0.0123596,0.0451279,-0.0284576,0.00621796,0.0337601,0.00919342
39,7,7.50508,0.000610352,-0.000457764,-2.42745,0.055681,-0.0744527,0.0544332,0.0657823,-0.0922309,0.146234,-0.126072,-0.0828756,0.0437164,0.00553131,0.00671387,0.0044632,0.00900269,0.00289917,0.0924683,0.00862122,-9.97986,0.030098,0.000190735,0.0156403,0.0468063,-0.0235367,0.00156403,0.0362015,0.01091
39,8,7.86183,0.000610352,0.000915527,-2.42745,0.0562914,-0.0768941,0.054128,0.0758531,-0.0922309,0.145318,-0.124851,-0.0837911,0.017128,0.00869751,0.00167847,0.0110245,0.00694275,0.00335693,0.0952911,0.00606537,-9.97986,0.0458145,0.00190735,0.0131989,0.049324,-0.018959,-0.0102615,0.0406265,0.00858307
39,9,9.98067,0,0.00213623,-2.42623,0.0544603,-0.0726216,0.0553487,0.099962,-0.0882636,0.145624,-0.124241,-0.0831808,0.00160217,0.00938416,0.00450134,0.00751495,0.0111771,-0.00110626,0.0968552,0.0128555,-9.97986,0.0383759,0.00160217,0.0131607,0.0574875,-0.0165939,-0.0146484,0.0405884,0.0105667
40,0,10.0097,0.00244141,0.0012207,-2.4302,0.0538499,-0.0765889,0.0519917,0.0880602,-0.0961982,0.140436,-0.126377,-0.085317,-0.0160599,0.0143814,0.00312805,0.00339508,0.00591278,-0.0030899,0.0819397,0.00816345,-9.97986,0.0260544,0.00156403,0.0114059,0.0629044,-0.0149918,-0.0165558,0.0401688,0.0117111
40,1,10.0097,-0.000305176,0.00137329,-2.42989,0.0529344,-0.075063,0.0504659,0.075548,-0.095893,0.143792,-0.125766,-0.0865377,-0.0115967,0.0149536,0.0102997,0.0124359,0.00434875,0.00255585,0.0798798,0.00778198,-9.97986,0.0236893,0.00343323,0.0152969,0.0841141,-0.0131226,-0.019455,0.0390244,0.00900269
40,2,10.0097,0.000305176,0.00106812,-2.4302,0.0538499,-0.0775044,0.0519917,0.07036,-0.0955879,0.143792,-0.126377,-0.0859274,0.0234985,0.0172424,0.0110626,0.00789642,0.00339508,-0.000801086,0.0771713,0.00911713,-9.97986,0.0229645,0.00492096,0.0150681,0.101662,-0.0135803,-0.0191879,0.0399399,0.00831604
40,3,10.0097,0.000915527,0,-2.42867,0.0529344,-0.0759786,0.0519917,0.0709703,-0.0949775,0.142877,-0.127292,-0.0868429,0.0437546,0.01297,0.0111008,0.0107193,0.00370026,0.000534058,0.0680923,0.00938416,-9.97986,0.0355911,-0.00198364,0.0164795,0.103531,-0.00946045,-0.0248337,0.0355911,0.0101471
40,4,10.0097,0,0.000305176,-2.42898,0.0541551,-0.0765889,0.050771,0.0682238,-0.0961982,0.143487,-0.127598,-0.0859274,0.0392151,0.0204849,0.0153732,0.00617981,0.00141144,0.00255585,0.0602341,0.0150299,-9.97986,0.044632,-0.00469208,0.0112534,0.113907,-0.0150299,-0.0352097,0.0326157,0.00400543
40,5,10.0097,0.000915527,0.000457764,-2.42837,0.0535448,-0.075063,0.0519917,0.0682238,-0.0934516,0.143487,-0.126987,-0.0862325,0.0245667,0.018959,0.01091,0.00679016,-0.00995636,-0.00255585,0.0556564,0.0110626,-9.97986,0.0344849,0.000495911,0.0128555,0.118141,-0.0123215,-0.0300598,0.0368881,0.00652313
