
Devices
1200
,,BP Load cell - Voltage,String Length - Voltage,Clutch Active - Voltage,#7 iPecs - Voltage,,,,,,,,,EMG 1-8 Left - Voltage,,,,,,,,Pylon Force - Voltage,EMG 9-16 Right - Voltage,,,,,,,,
Frame,Sub Frame,BP Load Cell,String Length,From Arduino Logic,A45,A135,A225,A315,S0,S90,S180,S270,ZSum,EMG 1 Glut Max,EMG 2 Glut Med,EMG 3 Biceps Femoris Long,EMG 4 Rectus Femoris,EMG 5 Vastus Medialis,EMG 6 Tib Ant,EMG 7 Med Gas,EMG 8 Soleus,Pylon volts,EMG 9 Glut Max,EMG 10 Glut Med,EMG 11 Biceps Femoris Long,EMG 12 Rectus Femoris,EMG 13 Vastus Medialis,EMG 14 Tib Ant,EMG 15 Med Gas,EMG 16 Soleus
,,V,V,V,V,V,V,V,V,V,V,V,V,V,V,V,V,V,V,V,V,V,V,V,V,V,V,V,V,V
1,0,10.0097,0.000610352,0.00137329,-2.43081,0.0507982,-0.0762837,0.0513814,0.135362,-0.095893,0.144403,-0.123935,-0.0883688,0.011673,-0.000686646,0.00461578,-0.0574493,0.0939178,0.0196075,0.0131607,-0.00541687,-9.97986,0.0230408,0.023613,0.139503,0.647659,0.0216293,-0.0195313,0.0148773,-0.000534058
1,1,10.0097,0.00152588,-0.0012207,-2.43081,0.0529344,-0.0762837,0.050771,0.0914171,-0.0986396,0.142572,-0.125461,-0.0886739,0.00968933,0.0116348,0.0118256,-0.0653076,0.0954437,0.010376,0.0153351,-0.001297,-9.97986,0.021019,0.0915909,0.14576,0.627632,0.00488281,-0.0126266,0.0177383,0.00408173
1,2,10.0097,-0.000610352,-0.00259399,-2.42928,0.0538499,-0.0771993,0.0519917,0.0789049,-0.0971137,0.143182,-0.126987,-0.0883688,0.017395,0.00686646,0.0179291,-0.0553513,0.0986862,0.00740051,0.0105286,-0.000762939,-9.97986,0.0252151,0.144844,0.149002,0.599213,0.00621796,-0.0174332,0.017662,-0.00480652
1,3,10.0097,0.00274658,-0.00274658,-2.4302,0.0514085,-0.0744527,0.0516866,0.0743273,-0.095893,0.144403,-0.126682,-0.0868429,0.0125504,0.00705719,0.0251007,-0.0481033,0.106277,-0.00114441,0.00530243,0.0056076,-9.97986,0.0208664,0.143814,0.157547,0.577126,-0.0031662,-0.0106812,0.0209808,-0.00728607
1,4,10.0097,0.000915527,-0.00213623,-2.42684,0.0541551,-0.0744527,0.0538228,0.0718859,-0.0949775,0.144098,-0.126987,-0.0865377,0.0112534,0.0140381,0.0342178,-0.0598145,0.111275,-0.00801086,0.00644684,0.0147629,-9.97986,0.0193787,0.0505829,0.169487,0.553093,-0.0144577,-0.0116348,0.0187683,0.00179291
1,5,10.0097,0.00152588,-0.00259399,-2.42745,0.0550706,-0.0747579,0.0538228,0.0709703,-0.0937568,0.145624,-0.126377,-0.085317,0.00759125,0.0199127,0.0388336,-0.0714874,0.113983,-0.016861,0.000991821,0.0225067,-9.97986,0.0186539,-0.0418854,0.178299,0.537224,-0.0173569,-0.0101852,0.0190353,0.00896454
1,6,10.0097,0.000915527,-0.00152588,-2.42714,0.0553758,-0.0738423,0.0535176,0.0715807,-0.0931465,0.146234,-0.126072,-0.0847066,0.01297,0.0179291,0.0372314,-0.0130081,0.114479,-0.0218582,0.010376,0.0220871,-9.97986,0.0150299,-0.0527573,0.182953,0.518303,-0.0226974,-0.0126648,0.0164413,0.0185776
1,7,10.0097,0.000610352,-0.00213623,-2.42501,0.0562914,-0.073232,0.0553487,0.0718859,-0.0931465,0.147455,-0.12363,-0.0813497,0.0116348,0.0196838,0.0414658,0.0265884,0.116272,-0.0271988,0.00720978,0.0189209,-9.97986,0.0127029,-0.0413513,0.18528,0.496254,-0.0334167,-0.0149536,0.0196838,0.0297165
1,8,10.0097,0.000610352,-0.00152588,-2.4247,0.0553758,-0.0744527,0.0544332,0.0724962,-0.0919257,0.146234,-0.123325,-0.0816549,0.0111389,0.0341797,0.0482559,-0.0108337,0.110779,-0.0365067,0.00843048,0.0195313,-9.97986,0.00968933,-0.0434113,0.189667,0.487595,-0.0376511,-0.0137329,0.0224304,0.039711
1,9,10.0097,-0.0012207,-0.000457764,-2.42653,0.0544603,-0.0738423,0.0547383,0.0624254,-0.0934516,0.145929,-0.125461,-0.0816549,0.014801,0.0444031,0.0422287,-0.00495911,0.107346,-0.0458527,0.0125885,0.0160217,-9.97986,0.0147629,-0.0326157,0.194664,0.486832,-0.0407791,-0.0141525,0.026474,0.047493
2,0,9.0096,-0.0012207,-0.00274658,-2.42684,0.0550706,-0.0744527,0.0526021,0.0102404,-0.0995551,0.146539,-0.128818,-0.0831808,0.0166321,0.0438309,0.043869,0.032196,0.0890732,-0.0530624,0.0115204,0.0107574,-9.97986,0.0104904,-0.0205994,0.189705,0.485764,-0.0463104,-0.015564,0.0291443,0.0501633
2,1,-0.393171,0.0012207,-0.00457764,-2.42592,0.0587328,-0.0723164,0.0529073,-0.00654431,-0.0971137,0.147149,-0.128208,-0.0813497,0.0151062,0.0426102,0.0524139,0.0765991,0.0800705,-0.0549316,0.017395,0.0124741,-9.97986,0.0174713,-0.0187302,0.196686,0.481262,-0.0421906,-0.0101089,0.0421143,0.0527954
2,2,-7.73082,0.000305176,-0.0050354,-2.4247,0.0569017,-0.0735371,0.0553487,-0.0178358,-0.0961982,0.14776,-0.130344,-0.0810445,0.0125885,0.0482941,0.055809,0.0952148,0.0666809,-0.0679016,0.0147629,0.0153351,-9.97986,0.0143051,-0.0269699,0.207939,0.477028,-0.039444,-0.0145721,0.0532532,0.045433
2,3,-9.99003,0.00152588,-0.00335693,-2.42562,0.0559862,-0.0744527,0.0577901,0.0135973,-0.0910102,0.146844,-0.128208,-0.0813497,0.0132751,0.0470352,0.0621414,0.0579834,0.0570679,-0.0734711,0.0172806,0.0157166,-9.97986,0.0171661,-0.0331879,0.230827,0.469475,-0.0592041,-0.0198746,0.0570679,0.0437164
2,4,-9.99003,0.00183105,-0.00183105,-2.4247,0.0553758,-0.0747579,0.0571797,0.0465563,-0.0903999,0.145929,-0.126682,-0.0807394,0.00965118,0.0477982,0.0654984,0.051918,0.046196,-0.0737381,0.0165176,0.0309753,-9.97986,0.0184631,-0.0278091,0.237312,0.456314,-0.0743484,-0.0170517,0.0578308,0.0452042
2,5,-9.99003,-0.000610352,-0.0012207,-2.42379,0.0529344,-0.075063,0.0544332,0.0596788,-0.0922309,0.146234,-0.126072,-0.0828756,0.0127411,0.0434875,0.0747681,0.0548553,0.0437546,-0.0836945,0.0201416,0.0352097,-9.97986,0.0219727,-0.0191498,0.234756,0.446663,-0.0764465,-0.00896454,0.0492096,0.0424957
2,6,-9.99003,0.000610352,-0.00183105,-2.42562,0.0547655,-0.075063,0.054128,0.0700548,-0.0891792,0.145929,-0.126072,-0.0837911,0.00946045,0.0447083,0.0732422,0.039978,0.050621,-0.0953674,0.0267029,0.0399399,-9.97986,0.0207901,-0.0328064,0.229568,0.426826,-0.0723648,-0.00606537,0.0377655,0.0221252
2,7,-9.95494,0.00183105,0.000915527,-2.4244,0.0547655,-0.075063,0.0577901,0.134142,-0.0846015,0.145318,-0.121799,-0.0834859,0.00751495,0.0469208,0.063591,0.0387192,0.0666428,-0.0994492,0.0268936,0.0413895,-9.97986,0.0193024,-0.0386047,0.229301,0.413818,-0.0463867,-0.0075531,0.0351715,0.0160599
2,8,-1.77043,0.00152588,0.00183105,-2.42684,0.0541551,-0.0747579,0.0544332,0.147264,-0.0876533,0.145013,-0.12241,-0.0840963,0.00995636,0.0656509,0.057106,0.0431824,0.0717163,-0.101051,0.026474,0.0406647,-9.97986,0.0153732,-0.0298309,0.219269,0.398712,-0.0524139,-0.0108719,0.0343704,0.00835419
2,9,6.31093,-0.000305176,0.00305176,-2.42837,0.0538499,-0.0744527,0.0532125,0.153368,-0.0900947,0.144708,-0.121799,-0.085317,0.0127029,0.0949097,0.0567245,0.0452423,0.0728226,-0.096817,0.0277328,0.0428009,-9.97986,0.0155258,-0.017662,0.200424,0.387535,-0.043869,-0.0101852,0.0401688,0.00858307
3,0,10.0097,0.000915527,0.00320435,-2.4305,0.0529344,-0.0765889,0.050771,0.13109,-0.0949775,0.144403,-0.124241,-0.0880636,0.00881195,0.114098,0.0497818,0.0354767,0.0771713,-0.101814,0.0228882,0.0370789,-9.97986,0.0197983,-0.0128937,0.191498,0.384102,-0.0489807,-0.00873566,0.0417709,-0.00480652
3,1,10.0097,-0.000915527,0.000305176,-2.4305,0.0526292,-0.0771993,0.0498555,0.0926378,-0.0986396,0.141351,-0.126072,-0.0892843,0.00553131,0.0946426,0.0370407,0.0251007,0.0730896,-0.113335,0.0266266,0.0291443,-9.97986,0.0152588,-0.0170898,0.189209,0.382805,-0.0461197,-0.0115967,0.0469971,-0.00427246
3,2,10.0097,0.0012207,-0.000305176,-2.42959,0.0544603,-0.0753682,0.0519917,0.0798204,-0.0949775,0.142267,-0.126987,-0.0886739,0.00976563,0.0384521,0.0101852,0.0119781,0.0587082,-0.116539,0.0275803,0.034256,-9.97986,0.0133514,-0.0105667,0.19001,0.377274,-0.0420761,-0.0135803,0.0606918,0.00659943
3,3,10.0097,-0.000305176,-0.00137329,-2.42714,0.0541551,-0.0753682,0.0519917,0.0746324,-0.094062,0.143792,-0.126377,-0.0868429,0.00938416,0.0119781,-0.0140762,-0.001297,0.0377274,-0.120926,0.0276566,0.0392151,-9.97986,0.0206757,-0.0204086,0.18856,0.361671,-0.0495529,-0.00923157,0.0521088,0.00991821
3,4,10.0097,0.00152588,-0.00106812,-2.42745,0.055681,-0.075063,0.0526021,0.0715807,-0.0937568,0.144098,-0.126377,-0.0862325,0.0088501,0.0160217,-0.0299072,-0.0331497,0.0217819,-0.118942,0.018425,0.0548172,-9.97986,0.0174332,-0.0169373,0.188789,0.343437,-0.0453186,-0.000534058,0.0460434,0.0188446
3,5,10.0097,-0.000610352,-0.00198364,-2.42745,0.0550706,-0.075063,0.0532125,0.0709703,-0.0928413,0.145013,-0.126682,-0.0847066,0.00946045,0.0063324,-0.0453949,-0.0320435,0.0038147,-0.119553,0.0198364,0.0574493,-9.97986,0.019455,-0.0164795,0.178032,0.313797,-0.0450516,0.000991821,0.0427628,0.0318146
3,6,10.0097,-0.000305176,-0.00488281,-2.42623,0.0553758,-0.0753682,0.0538228,0.0712755,-0.0931465,0.145318,-0.125156,-0.0856222,0.00991821,0.00236511,-0.0460052,-0.00419617,-0.00606537,-0.121307,0.0252914,0.0496674,-9.97986,0.0233459,-0.0186157,0.184135,0.244026,-0.0452423,0.000152588,0.0402069,0.0396729
3,7,10.0097,0.000915527,-0.00793457,-2.4244,0.0559862,-0.0735371,0.0544332,0.0715807,-0.0916206,0.145318,-0.124851,-0.0844015,0.0131607,-0.0117493,-0.0398254,0.00457764,-0.017128,-0.122757,0.0220108,0.0505066,-9.97986,0.021286,-0.0114441,0.187302,0.132751,-0.037384,0.000839233,0.0353241,0.0566101
3,8,10.0097,-0.000610352,-0.0111389,-2.42379,0.0559862,-0.0738423,0.0538228,0.072191,-0.0913154,0.145929,-0.125156,-0.085317,0.0110245,-0.0313568,-0.0276566,0.00144958,-0.00617981,-0.120087,0.0217438,0.0553131,-9.97986,0.0225067,-0.0122452,0.184135,0.00484467,-0.034523,0.000572205,0.032196,0.0645828
3,9,10.0097,0.000915527,-0.0115967,-2.42653,0.0559862,-0.0747579,0.0535176,0.0633409,-0.0919257,0.14776,-0.124851,-0.0850118,0.0104141,-0.0167847,-0.0215149,-0.0111008,0.0025177,-0.126114,0.0187683,0.0602341,-9.97986,0.0226974,-0.0138092,0.175056,-0.132713,-0.029068,0.00484467,0.0276947,0.0608063
4,0,9.04866,-0.000915527,-0.0140381,-2.42684,0.0569017,-0.0747579,0.0513814,0.00810412,-0.100471,0.147149,-0.129123,-0.0871481,0.0125504,0.00274658,-0.0156784,-0.0210953,0.0115585,-0.129318,0.0203705,0.0614166,-9.97986,0.0201416,-0.015831,0.162735,-0.260849,-0.0219727,0.00217438,0.0294876,0.0603485
4,1,-0.355634,0.00152588,-0.015564,-2.42592,0.0559862,-0.073232,0.0532125,-0.00410291,-0.0968086,0.146234,-0.129734,-0.0840963,0.00961304,0.0205231,0.00175476,-0.0170135,0.0185394,-0.132446,0.0156403,0.0475693,-9.97986,0.0134659,-0.0120926,0.142479,-0.374527,-0.0278091,0.00228882,0.0282669,0.0672531
4,2,-7.78636,0.000305176,-0.0140381,-2.42562,0.0572069,-0.0738423,0.0532125,-0.0172255,-0.0961982,0.146539,-0.130649,-0.0856222,0.0102997,0.0605774,0.0180435,0.0201797,0.0296021,-0.130577,0.0171661,0.0392532,-9.97986,0.0144196,-0.0144196,0.133667,-0.464935,-0.0255966,0.00507355,0.0295258,0.0675583
4,3,-9.99003,-0.000915527,-0.0114441,-2.42379,0.0562914,-0.0744527,0.0550435,0.0120714,-0.0937568,0.145318,-0.128818,-0.0831808,0.0164032,0.0720978,0.0131989,0.055809,0.0407028,-0.12085,0.0123978,0.0294495,-9.97986,0.0148773,-0.0082016,0.125313,-0.533562,-0.0358582,0.000724792,0.0212479,0.0675964
4,4,-9.99003,0.000610352,-0.00808716,-2.42531,0.0559862,-0.0744527,0.055959,0.0511339,-0.0903999,0.143792,-0.125766,-0.0825704,0.0109863,0.0509644,-0.000495911,0.0699615,0.0392532,-0.119514,0.0120163,0.0212479,-9.97986,0.00797272,-0.00514984,0.115166,-0.594406,-0.0538254,0.00148773,0.00526428,0.0630569
4,5,-9.99003,-0.000915527,-0.0050354,-2.42562,0.0550706,-0.0753682,0.0538228,0.0593737,-0.090705,0.145624,-0.126682,-0.0828756,0.0156021,0.0336075,0.00221252,0.0606537,0.0362778,-0.108376,0.0137711,0.0148773,-9.97986,0.0180435,-0.010376,0.113106,-0.626526,-0.0488281,0.00232697,0.00736237,0.0693512
4,6,-9.99003,0.000610352,-0.00305176,-2.42714,0.0553758,-0.0753682,0.0535176,0.0697496,-0.0913154,0.144403,-0.125461,-0.0837911,0.0108719,0.0412369,0.00389099,0.0358963,0.0310135,-0.102196,0.00915527,0.00793457,-9.97986,0.0155258,-0.00816345,0.101662,-0.650406,-0.0514221,-0.00164032,0.00358582,0.0634003
4,7,-9.99003,0.000610352,0.000305176,-2.42531,0.0547655,-0.0741475,0.0571797,0.131395,-0.0842964,0.146844,-0.121189,-0.0831808,0.00991821,0.0481033,0.00267029,0.030632,0.0217438,-0.0935745,0.00831604,0.00411987,-9.97986,0.0175476,-0.00675201,0.0908279,-0.667992,-0.0287628,-0.000495911,-0.00358582,0.0609589
4,8,-1.96666,-0.000305176,0.000762939,-2.42714,0.0529344,-0.0747579,0.054128,0.147569,-0.0870429,0.143182,-0.121494,-0.0850118,0.0134277,0.0295639,0.00419617,0.0304031,0.0138474,-0.0860596,0.00743866,0.00656128,-9.97986,0.0206757,-0.01297,0.0844955,-0.685921,-0.0236511,-0.00232697,-0.00617981,0.0576782
4,9,6.07076,0.000305176,0.00259399,-2.42867,0.0535448,-0.0762837,0.0532125,0.155199,-0.0900947,0.142877,-0.121494,-0.0856222,0.0154877,0.0043869,0.00881195,0.0249863,0.01194,-0.0762558,0.0102615,0.0127792,-9.97986,0.0202179,-0.00881195,0.074501,-0.699577,-0.0203705,0.00396729,-0.000648499,0.0522232
5,0,10.0097,-0.000610352,0.00274658,-2.43142,0.0532396,-0.0762837,0.0513814,0.133226,-0.0946723,0.142267,-0.124851,-0.0874532,0.0138092,0.00667572,0.00411987,0.0154495,0.01194,-0.0699997,0.00862122,0.0211334,-9.97986,0.0196075,-0.00583649,0.0646591,-0.703773,-0.0219727,0.00759125,-0.00236511,0.0409317
5,1,10.0097,0.00305176,0.000152588,-2.43172,0.0538499,-0.0765889,0.0501607,0.0935533,-0.0968086,0.143792,-0.125156,-0.0889791,0.0167084,-0.00156403,0.00545502,-0.000762939,0.0157547,-0.0756836,0.00793457,0.0341797,-9.97986,0.0191498,-0.00598907,0.0570679,-0.713387,-0.0174713,0.00350952,-0.0100327,0.0370789
5,2,10.0097,0.000305176,-0.000457764,-2.43142,0.0535448,-0.0753682,0.0510762,0.077379,-0.0961982,0.143487,-0.126987,-0.0880636,0.0149536,-0.0087738,0.01194,-0.0157928,0.0148773,-0.0723267,0.0102615,0.0455093,-9.97986,0.0193787,-0.00926971,0.0533676,-0.714035,-0.0157928,-0.00545502,-0.00984192,0.0343323
5,3,10.0097,-0.00152588,-0.000457764,-2.42837,0.0544603,-0.0756734,0.0516866,0.0718859,-0.0952827,0.145013,-0.126377,-0.0850118,0.0139618,-0.00495911,0.00782013,-0.0137329,0.0162506,-0.0702286,0.00869751,0.0482559,-9.97986,0.0169373,-0.00526428,0.043335,-0.707169,-0.01194,-0.00343323,-0.00926971,0.0351715
5,4,10.0097,0,0.000152588,-2.42806,0.0544603,-0.0759786,0.0532125,0.0737169,-0.0946723,0.145013,-0.126682,-0.0850118,0.0141525,0.0267029,0.0138855,-0.0188065,0.00564575,-0.0641632,0.00782013,0.0519562,-9.97986,0.0110626,-0.0012207,0.0354004,-0.703049,-0.015564,-0.00595093,-0.0133133,0.0371933
5,5,10.0097,-0.000610352,0.000610352,-2.42684,0.0541551,-0.0735371,0.0529073,0.0715807,-0.0943672,0.144098,-0.125461,-0.0847066,0.0154114,-0.00278473,0.00900269,-0.014534,0.00331879,-0.0582123,0.00602722,0.0470352,-9.97986,0.0149155,-0.00431061,0.028801,-0.688057,-0.0169754,-0.00576019,-0.0163651,0.0368881
5,6,10.0097,0,0.00167847,-2.42714,0.0559862,-0.075063,0.0538228,0.0718859,-0.0931465,0.143182,-0.126072,-0.0840963,0.00946045,-0.0519562,0.0069809,0.00415802,0.00686646,-0.0514221,0.00743866,0.0310135,-9.97986,0.0168228,-0.00545502,0.0308609,-0.668945,-0.0197601,-0.00595093,-0.0144958,0.0411606
5,7,10.0097,0,0.000610352,-2.42501,0.0572069,-0.0738423,0.0547383,0.0712755,-0.0922309,0.145929,-0.124851,-0.0810445,0.0149918,-0.0416946,0.00797272,-0.00190735,0.00740051,-0.0481796,0.00614166,0.0158691,-9.97986,0.0115585,-0.00511169,0.0291061,-0.657845,-0.0196838,-0.00545502,-0.0185394,0.0394058
5,8,10.0097,0.0012207,0.00167847,-2.4247,0.0562914,-0.0738423,0.0550435,0.072191,-0.0913154,0.147455,-0.124241,-0.0807394,0.016861,-0.0050354,0.0217056,0.00827789,0.00801086,-0.0434494,0.00400543,-0.00114441,-9.97986,0.0113297,-0.00263214,0.022049,-0.643921,-0.0225449,-0.00591278,-0.0205231,0.0392151
5,9,10.0097,0,0.00167847,-2.42592,0.0565965,-0.0747579,0.054128,0.0648668,-0.0925361,0.145013,-0.125156,-0.0810445,0.0114059,0.0164795,0.0242996,0.018959,0.0104523,-0.0374603,0.00511169,0.000801086,-9.97986,0.0115585,-0.00221252,0.0172043,-0.636635,-0.0215912,-0.00228882,-0.0251007,0.0386429
6,0,9.17531,0.000915527,-0.00137329,-2.42684,0.0559862,-0.075063,0.0513814,0.00901965,-0.0998603,0.148065,-0.128818,-0.0837911,0.00892639,0.0299454,0.0270844,0.0195313,0.0088501,-0.0312424,0.00705719,0.00648499,-9.97986,0.0030899,-0.00736237,0.00759125,-0.632744,-0.0253677,-0.0100327,-0.0242233,0.037384
6,1,-0.270796,0.000610352,-0.00320435,-2.4247,0.0575121,-0.0738423,0.0526021,-0.00684949,-0.0955879,0.146539,-0.129734,-0.0822652,0.0157547,0.0387192,0.0345612,0.0245285,0.00686646,-0.0246429,0.00701904,0.0239563,-9.97986,0.00751495,-0.00789642,0.00423431,-0.628014,-0.0241852,-0.00450134,-0.0214386,0.0358963
6,2,-7.57487,0.0012207,-0.00442505,-2.42592,0.0581224,-0.073232,0.0535176,-0.0178358,-0.095893,0.146539,-0.130039,-0.0816549,0.0118256,0.033493,0.0325394,-7.62939e-005,0.00156403,-0.0243378,0.00411987,0.0310135,-9.97986,0.0135803,-0.00720978,-0.00118256,-0.634804,-0.0258636,-0.00400543,-0.0219345,0.0359726
6,3,-9.99003,0.000915527,-0.00366211,-2.42531,0.0559862,-0.0744527,0.0550435,0.0129869,-0.0922309,0.145624,-0.127598,-0.0822652,0.0144196,0.0154114,0.0307846,-0.0335693,0.00259399,-0.0194168,0.00366211,0.0325012,-9.97986,0.0107574,-0.00724792,-0.00865936,-0.638199,-0.037117,-0.0038147,-0.0164413,0.039978
6,4,-9.99003,0.000305176,-0.00183105,-2.42562,0.0565965,-0.0726216,0.0556539,0.0462511,-0.0894843,0.146234,-0.126377,-0.0819601,0.0100708,-0.00709534,0.0341415,-0.0388336,0.000991821,-0.00816345,0.00244141,0.0315857,-9.97986,0.00736237,-0.0101089,-0.0175476,-0.640259,-0.0439072,-0.00453949,-0.0144196,0.0357819
6,5,-9.99003,-0.00213623,-0.000152588,-2.42623,0.0559862,-0.0744527,0.0550435,0.0587633,-0.090705,0.146539,-0.126072,-0.0825704,0.0117111,-0.0188828,0.0379181,-0.0159836,0.00144958,-0.00247955,0.00274658,0.0194168,-9.97986,0.0115967,-0.0075531,-0.0210571,-0.636177,-0.0421143,-0.00587463,-0.0158691,0.0346756
6,6,-9.99003,0.0012207,0.000457764,-2.42592,0.0559862,-0.0744527,0.0538228,0.0706652,-0.0910102,0.145624,-0.125461,-0.0834859,0.00785828,0.00858307,0.0491333,-0.0183868,-7.62939e-005,0,0.00190735,0.00492096,-9.97986,0.0123596,-0.00900269,-0.0274658,-0.632019,-0.0400162,-0.0030899,-0.0116348,0.03479
6,7,-9.90855,0,0.00350952,-2.4247,0.0544603,-0.0738423,0.0565694,0.132311,-0.0830757,0.147149,-0.122104,-0.0816549,0.0130081,0.0503159,0.0485229,-0.0687408,-0.00495911,0.00595093,0.00198364,0.00118256,-9.97986,0.0135422,-0.00984192,-0.0324631,-0.615616,-0.00873566,-0.00160217,-0.00720978,0.0348663
6,8,-1.8333,0.000305176,0.00396729,-2.42714,0.0526292,-0.0747579,0.0556539,0.147569,-0.0870429,0.143792,-0.121799,-0.0834859,0.0182343,0.0745773,0.0482941,-0.0559235,-0.00782013,0.00995636,0.00282288,-0.00167847,-9.97986,0.0135803,-0.0121689,-0.0387573,-0.606537,-0.00469208,-0.0044632,-0.0110626,0.033226
6,9,6.26515,0.00183105,0.00473022,-2.42837,0.0520189,-0.0753682,0.0538228,0.154894,-0.0900947,0.142877,-0.121494,-0.0859274,0.0229645,0.0259018,0.0325012,0.0191498,-0.00720978,0.0117111,0.00343323,-0.00492096,-9.97986,0.0185013,-0.01194,-0.0424957,-0.598679,-0.00476837,-0.00305176,-0.00743866,0.0304031
7,0,10.0097,-0.000305176,0.00518799,-2.43142,0.0532396,-0.0762837,0.0495503,0.13109,-0.0928413,0.141961,-0.123935,-0.0880636,0.0162888,-0.0349808,0.0173187,0.0735092,-0.00789642,0.0120163,0.00144958,-0.00961304,-9.97986,0.0156021,-0.0167847,-0.0514221,-0.596428,-0.00137329,-0.00434875,-0.0056839,0.0297165
7,1,10.0097,-0.000305176,0.00152588,-2.43142,0.0532396,-0.0765889,0.0501607,0.0926378,-0.0974189,0.141351,-0.125766,-0.0883688,0.0150299,-0.0301361,0.0272369,0.108147,-0.010643,0.0205612,0.00144958,-0.00160217,-9.97986,0.022049,-0.0123596,-0.0520706,-0.581627,0.00740051,-0.00255585,-0.00400543,0.0299072
7,2,10.0097,0.000305176,0.00228882,-2.43081,0.0535448,-0.0768941,0.0513814,0.0789049,-0.0961982,0.145013,-0.127903,-0.0874532,0.0165558,-0.0102997,0.0351715,0.0995636,-0.0112534,0.0222015,-0.00530243,0.00205994,-9.97986,0.0247192,-0.0104904,-0.0547791,-0.560989,0.0115585,-0.00225067,-0.00167847,0.026741
7,3,10.0097,0.000915527,0.00167847,-2.42776,0.0529344,-0.0756734,0.0529073,0.0737169,-0.0946723,0.144098,-0.126072,-0.0862325,0.0123978,0.00408173,0.0373077,0.0709534,-0.016861,0.0270081,-0.00297546,0.0112534,-9.97986,0.018692,-0.0180817,-0.0615692,-0.544586,0.0117493,-0.00720978,-0.00270844,0.0228882
7,4,10.0097,-0.000305176,0.00228882,-2.42837,0.0544603,-0.0747579,0.0516866,0.0731066,-0.0949775,0.144098,-0.126682,-0.085317,0.0131226,0.00827789,0.030899,0.0514221,-0.0177383,0.0285721,-0.00396729,0.0170135,-9.97986,0.0137329,-0.0181961,-0.0666046,-0.519524,0.01297,-0.00488281,0.00541687,0.025444
7,5,10.0097,-0.000915527,0.00274658,-2.42684,0.0547655,-0.0747579,0.0538228,0.0712755,-0.094062,0.145318,-0.125766,-0.0825704,0.0154495,0.00576019,0.0172043,0.0178528,-0.0153351,0.0307465,-0.00774384,0.0275421,-9.97986,0.016861,-0.0211334,-0.0698853,-0.48996,0.0182724,-0.00732422,0.0104141,0.0226593
7,6,10.0097,0.00152588,0.00335693,-2.42592,0.0559862,-0.0738423,0.0535176,0.0712755,-0.0934516,0.145013,-0.126072,-0.0831808,0.00957489,0.0113297,0.00225067,-0.00183105,-0.0185394,0.031395,-0.0133514,0.039444,-9.97986,0.0143051,-0.0154114,-0.065918,-0.456543,0.0212479,-0.00793457,0.00896454,0.0217438
7,7,10.0097,-0.000610352,0.00274658,-2.42562,0.0565965,-0.0741475,0.0535176,0.0724962,-0.0922309,0.145624,-0.124851,-0.0810445,0.00656128,0.013237,-0.00736237,-0.0245285,-0.0172043,0.031929,-0.0152206,0.0525284,-9.97986,0.0107574,-0.0143051,-0.074234,-0.420494,0.0250244,-0.00301361,0.0156403,0.018959
7,8,10.0097,0.000610352,0.00350952,-2.4244,0.0562914,-0.0741475,0.0556539,0.07036,-0.090705,0.145013,-0.124851,-0.0807394,0.00495911,0.013504,-0.0113678,-0.0600052,-0.0247192,0.0374603,-0.0141907,0.0608063,-9.97986,0.00980377,-0.00598907,-0.0696182,-0.390091,0.0276184,0.00247955,0.0158691,0.0188828
7,9,10.0097,0.000305176,0.00289917,-2.42653,0.055681,-0.0741475,0.0526021,0.065172,-0.0928413,0.145929,-0.123935,-0.0810445,0.00541687,0.0254059,-0.00869751,-0.0899506,-0.0251007,0.0366592,-0.0197601,0.0540161,-9.97986,-0.000762939,-0.0119019,-0.071373,-0.36293,0.029068,0.00469208,0.0154495,0.018692
8,0,9.2278,0.000915527,0.000610352,-2.42776,0.0553758,-0.0753682,0.0519917,0.0105455,-0.100165,0.145318,-0.128818,-0.0831808,0.0056839,0.0442886,-0.00541687,-0.0904083,-0.0151443,0.0406647,-0.0233459,0.0431824,-9.97986,-0.00362396,-0.00778198,-0.0705719,-0.343094,0.0299454,-0.000419617,0.0142288,0.0151825
8,1,-0.125227,-0.000305176,-0.00183105,-2.42684,0.0562914,-0.0735371,0.0538228,-0.00684949,-0.0961982,0.146539,-0.130344,-0.0819601,0.0044632,0.0393677,-0.00644684,-0.0631332,-0.0242615,0.0421143,-0.024147,0.0320816,-9.97986,-0.00480652,-0.001297,-0.0656891,-0.325661,0.0334167,0.00118256,0.014267,0.0175476
8,2,-7.44639,-0.00152588,-0.00320435,-2.42531,0.0578172,-0.0738423,0.0544332,-0.0160048,-0.0974189,0.14776,-0.130649,-0.0816549,0.0019455,0.0299072,-0.0119781,-0.0535202,-0.0260925,0.0435638,-0.0269699,0.0244904,-9.97986,-0.00274658,-0.00740051,-0.0717926,-0.308037,0.0264359,0.00240326,0.0130081,0.0136566
8,3,-9.99003,0,-0.00183105,-2.4244,0.055681,-0.073232,0.0550435,0.0129869,-0.0931465,0.146234,-0.128818,-0.080129,0.0119781,0.0370026,-0.00305176,-0.0349045,-0.0262833,0.0496674,-0.0313187,0.0200653,-9.97986,0.00469208,-0.0101089,-0.0683594,-0.292282,0.0192642,-0.00110626,0.0138474,0.0149536
8,4,-9.99003,-0.000610352,0.000915527,-2.4247,0.0565965,-0.0744527,0.0556539,0.0462511,-0.0894843,0.146539,-0.126682,-0.0804342,0.0143433,0.0430679,0.0131607,0.0289154,-0.0267792,0.0458527,-0.0333023,0.0136948,-9.97986,0.0115967,-0.0137711,-0.0669479,-0.257645,0.0150299,0.000190735,0.0158691,0.0154495
8,5,-9.99003,-0.000305176,0.00320435,-2.42684,0.0553758,-0.0738423,0.055959,0.059984,-0.0922309,0.146844,-0.125766,-0.0813497,0.0104904,0.0423431,0.0215912,0.0702667,-0.0285339,0.0492859,-0.0349426,0.012207,-9.97986,0.0265121,-0.0247574,-0.0692749,-0.218086,0.0170517,-0.00137329,0.012207,0.0125504
8,6,-9.99003,-0.000305176,0.00366211,-2.42623,0.0547655,-0.0735371,0.0553487,0.0740221,-0.0891792,0.145318,-0.125461,-0.0816549,0.0111771,0.0435257,0.0279617,0.0504684,-0.030365,0.053978,-0.0388336,0.01194,-9.97986,0.0349045,-0.0251007,-0.063858,-0.172729,0.0185013,-0.00366211,0.0112915,0.0102997
8,7,-9.67265,0.00152588,0.0062561,-2.42592,0.0553758,-0.0744527,0.055959,0.133531,-0.0849067,0.145318,-0.121799,-0.0807394,0.0136185,0.0364685,0.0329971,0.0341415,-0.0244904,0.0511169,-0.0429535,0.00530243,-9.97986,0.0302505,-0.0227737,-0.0655365,-0.130539,0.0409317,-0.00106812,0.0141907,0.00999451
8,8,-1.5739,0.0012207,0.00640869,-2.42837,0.0532396,-0.0759786,0.054128,0.146959,-0.0873481,0.144098,-0.121799,-0.0831808,0.0165176,0.0289154,0.0302887,0.0305939,-0.0260162,0.0509644,-0.0486374,-0.00823975,-9.97986,0.0211716,-0.0191116,-0.063591,-0.111198,0.0419617,-0.000610352,0.0115585,0.00934601
8,9,6.49282,0.000305176,0.00656128,-2.42837,0.0535448,-0.0753682,0.0535176,0.155809,-0.0882636,0.144098,-0.120884,-0.085317,0.017662,0.0324631,0.0458145,0.016098,-0.0232697,0.053215,-0.0509262,0.000419617,-9.97986,0.0203323,-0.00419617,-0.0561142,-0.0940323,0.0442505,-0.00350952,0.0111008,0.0128174
9,0,10.0097,0.000610352,0.00595093,-2.43172,0.0523241,-0.0768941,0.0513814,0.128954,-0.0955879,0.143182,-0.125156,-0.0883688,0.0162506,0.0382614,0.0524902,0.00679016,-0.0243378,0.053978,-0.061264,0.00656128,-9.97986,0.0176239,0.00797272,-0.0524139,-0.0753784,0.0416946,-0.00701904,0.0110245,0.00293732
9,1,10.0097,0.00244141,0.00320435,-2.4305,0.0529344,-0.0756734,0.0495503,0.0914171,-0.0974189,0.142267,-0.126377,-0.0877584,0.0151443,0.0280762,0.0482941,0.0308228,-0.0211716,0.0576019,-0.0602341,0.0128174,-9.97986,0.0137711,0.0129318,-0.0521469,-0.0666428,0.0426483,-0.00274658,0.0107193,0.00984192
9,2,10.0097,-0.000305176,0.000457764,-2.42989,0.0538499,-0.0765889,0.0495503,0.0798204,-0.0968086,0.143487,-0.126987,-0.0880636,0.017128,0.0164032,0.0545883,0.0720596,-0.0271225,0.05867,-0.0699615,0.0174713,-9.97986,0.0171661,0.00396729,-0.0510788,-0.0597,0.0406265,-0.000190735,0.0132751,0.00705719
9,3,10.0097,0.000305176,0.000305176,-2.42867,0.0541551,-0.0759786,0.0516866,0.0749376,-0.0946723,0.142877,-0.126682,-0.0865377,0.014534,0.0151825,0.0536728,0.0806808,-0.0220108,0.0566101,-0.0740814,0.0241852,-9.97986,0.0196075,0.00110626,-0.049324,-0.0616837,0.0432968,-0.00217438,0.0186539,0.00724792
9,4,10.0097,0.00213623,0,-2.42806,0.0553758,-0.0765889,0.0529073,0.0712755,-0.0949775,0.142877,-0.126072,-0.0850118,0.0167465,0.00595093,0.0580597,0.00831604,-0.0182724,0.0510788,-0.0780106,0.0236893,-9.97986,0.0159454,-0.013237,-0.046463,-0.0661087,0.0487137,0.000839233,0.0201035,0.0075531
9,5,10.0097,0.0012207,0.000762939,-2.42837,0.0550706,-0.0744527,0.0529073,0.0697496,-0.0937568,0.144708,-0.126377,-0.0844015,0.0143051,-0.0152588,0.0614929,-0.0622177,-0.0175095,0.0550079,-0.0865173,0.022049,-9.97986,0.0182343,-0.00991821,-0.0493622,-0.0585938,0.0481033,0.000343323,0.0218582,0.00450134
9,6,10.0097,0.000915527,-0.000457764,-2.42501,0.0547655,-0.0756734,0.054128,0.0706652,-0.0916206,0.146234,-0.124546,-0.0844015,0.0128555,0.00102997,0.0608826,-0.0753403,-0.0169373,0.0549316,-0.0933075,0.0166702,-9.97986,0.0185394,-0.00156403,-0.0376511,-0.0533295,0.0509262,0.00858307,0.0312042,0.00621796
9,7,10.0097,0,0.000610352,-2.42653,0.0562914,-0.0741475,0.0529073,0.0712755,-0.0919257,0.146234,-0.124241,-0.0807394,0.0148773,0.0295258,0.0640106,-0.0366211,-0.0143814,0.0546265,-0.0988388,0.015831,-9.97986,0.0171661,0.00255585,-0.0397873,-0.0510025,0.0455475,0.00415802,0.030365,0.00247955
9,8,10.0097,0,0.00183105,-2.42562,0.0565965,-0.0738423,0.0550435,0.0731066,-0.0925361,0.146234,-0.125156,-0.0810445,0.0108719,0.059967,0.0704193,0.0413895,-0.010643,0.051384,-0.106659,0.0126266,-9.97986,0.0177765,0.0157166,-0.0384903,-0.0261688,0.0477219,0.00495911,0.0296402,0.00404358
9,9,10.0097,0.00183105,0.000762939,-2.42562,0.0547655,-0.0747579,0.054128,0.0633409,-0.0928413,0.146234,-0.125766,-0.0819601,0.0120544,0.088768,0.0639343,0.0794601,-0.0138092,0.0517273,-0.102615,0.0205231,-9.97986,0.0174713,0.0284576,-0.0360107,-0.0281525,0.0495529,0.00144958,0.0319672,0.00167847
10,0,9.00716,0,-0.00152588,-2.42745,0.0572069,-0.0738423,0.0516866,0.00963,-0.100165,0.145318,-0.129429,-0.0837911,0.0151062,0.0795746,0.0307846,0.0842667,-0.0127792,0.0544357,-0.0915527,0.0243378,-9.97986,0.0185013,0.0300598,-0.0277328,-0.0219345,0.0496674,-0.00293732,0.0383377,0.00331879
10,1,-0.438642,-0.000305176,-0.00305176,-2.42592,0.0562914,-0.0735371,0.0538228,-0.00684949,-0.0989448,0.146539,-0.129429,-0.0825704,0.0152969,0.040741,-0.0111389,0.0947952,-0.0141144,0.047226,-0.083046,0.0162888,-9.97986,0.0192642,0.0127029,-0.0301361,-0.0117111,0.0453949,-0.0019455,0.0367355,0.000839233
10,2,-7.73784,-0.000610352,-0.00579834,-2.42562,0.0559862,-0.0726216,0.054128,-0.0187513,-0.0968086,0.145624,-0.130039,-0.0825704,0.0120926,0.0191116,-0.0276566,0.0970078,-0.00701904,0.0503922,-0.0603104,0.0122833,-9.97986,0.0191879,-0.00793457,-0.0233459,-0.0327682,0.0482178,0.00331879,0.0408936,0.00247955
10,3,-9.99003,0.000610352,-0.00427246,-2.42501,0.0559862,-0.0729268,0.055959,0.0139025,-0.0934516,0.147149,-0.127292,-0.080129,0.0175858,0.0119019,-0.0320053,0.064888,-0.0107574,0.0453186,-0.0389481,-0.00705719,-9.97986,0.0189209,-0.0145721,-0.0240707,-0.0461578,0.0308609,0.00392914,0.042572,0.00362396
10,4,-9.99003,0.000610352,-0.00106812,-2.42409,0.0553758,-0.075063,0.0562642,0.0465563,-0.090705,0.145013,-0.126072,-0.0807394,0.0151443,-0.000915527,-0.0299454,0.0230026,-0.00637054,0.0473785,-0.018425,-0.0100708,-9.97986,0.0230026,-0.00507355,-0.0194168,-0.0407028,0.0238419,0.00518799,0.0428772,0.00114441
10,5,-9.99003,0.00244141,-0.000762939,-2.42684,0.0550706,-0.0744527,0.0547383,0.0590685,-0.0919257,0.145929,-0.125461,-0.0822652,0.0151062,-0.0102997,-0.0141525,0.0151825,-0.00576019,0.0456619,0.00488281,-0.00087738,-9.97986,0.0213623,-0.0056076,-0.0212479,-0.0477982,0.0273514,0.00656128,0.0453186,0.00106812
10,6,-9.99003,0.00152588,-0.000152588,-2.42684,0.0547655,-0.0747579,0.0544332,0.07036,-0.0910102,0.145624,-0.125766,-0.0840963,0.00984192,0.000610352,0.0209427,0.0289917,-0.00709534,0.0450134,0.0292206,0.0120163,-9.97986,0.0179291,-0.00617981,-0.0184631,-0.0637436,0.0210571,0.00331879,0.0457001,0.000801086
10,7,-9.94487,0.00274658,0.00152588,-2.4247,0.0544603,-0.075063,0.0568746,0.132005,-0.0846015,0.145318,-0.121189,-0.0828756,0.0134659,0.0195694,0.0485992,0.0454712,-0.00564575,0.0437927,0.0582504,0.015831,-9.97986,0.0244141,0.00217438,-0.016098,-0.075264,0.0399017,0.00431061,0.0448608,-0.000648499
10,8,-1.88731,0.00183105,0.00198364,-2.42745,0.0553758,-0.0747579,0.0553487,0.147264,-0.0882636,0.144403,-0.121189,-0.0844015,0.00873566,0.0206757,0.0515747,0.0349426,-0.000228882,0.0511169,0.0830078,0.0192642,-9.97986,0.0209427,0.00614166,-0.0120544,-0.0975037,0.0422287,0.00247955,0.0474167,-0.00137329
10,9,6.13942,-0.000915527,0.00167847,-2.42806,0.0572069,-0.0768941,0.0544332,0.154588,-0.0897895,0.142572,-0.122104,-0.0865377,0.0109863,0.01091,0.0340652,-0.00652313,-0.00480652,0.0473785,0.110054,0.0186157,-9.97986,0.0181198,0.00717163,-0.00774384,-0.142975,0.0379181,-0.00343323,0.0469971,-0.000762939
11,0,10.0097,-0.000915527,0.000915527,-2.42959,0.0535448,-0.0765889,0.0501607,0.132616,-0.0934516,0.142572,-0.123935,-0.0883688,0.0115204,0.00152588,0.0087738,-0.0467682,-0.00301361,0.0481415,0.135078,0.0142288,-9.97986,0.0190735,0.00869751,-0.00629425,-0.172691,0.0268173,-0.00293732,0.0489426,-0.00343323
11,1,10.0097,0.000305176,-0.000915527,-2.43111,0.0523241,-0.0756734,0.0495503,0.0932482,-0.0971137,0.143487,-0.126072,-0.0898946,0.0106049,-0.00450134,-0.0273895,-0.0820923,-0.001297,0.0452423,0.155411,0.00686646,-9.97986,0.0198746,0.00534058,-0.0117111,-0.189552,0.0264359,-0.00553131,0.0450516,-0.0031662
11,2,10.0097,0,-0.00152588,-2.42959,0.0535448,-0.0778096,0.0519917,0.0801256,-0.0974189,0.143792,-0.126072,-0.0886739,0.0101852,0.0283813,-0.0600433,-0.0588226,0.000953674,0.0532913,0.173492,0.00762939,-9.97986,0.0161743,0.0075531,-0.00740051,-0.202751,0.0236511,-0.00499725,0.0459671,-0.00236511
11,3,10.0097,0.000610352,-0.00137329,-2.42959,0.0550706,-0.0753682,0.0516866,0.0740221,-0.094062,0.144098,-0.126682,-0.0865377,0.0094223,0.0445557,-0.0749207,0.0613403,0.00431061,0.0488281,0.190582,0.0112534,-9.97986,0.0190735,0.00469208,-0.00427246,-0.202141,0.0207138,-0.00480652,0.0448227,-0.00274658
11,4,10.0097,0.000915527,-0.000305176,-2.42684,0.0544603,-0.0759786,0.0516866,0.0718859,-0.0952827,0.143792,-0.125766,-0.0859274,0.0108337,0.040741,-0.0809479,0.131111,0.00354767,0.0469208,0.205879,0.00427246,-9.97986,0.0141907,0.0025177,-0.001297,-0.214615,0.0148392,-0.00408173,0.0418472,-0.00205994
11,5,10.0097,-0.000305176,-0.0012207,-2.42806,0.0547655,-0.0744527,0.0522969,0.0712755,-0.0931465,0.144708,-0.125766,-0.0844015,0.0102615,0.0373459,-0.0617599,0.141716,0.00144958,0.0536728,0.214806,0.00934601,-9.97986,0.0135422,0.00324249,7.62939e-005,-0.22068,0.0190353,-0.00400543,0.0408173,-0.000648499
11,6,10.0097,0.00183105,0.000915527,-2.42745,0.0550706,-0.0741475,0.054128,0.0712755,-0.0919257,0.146234,-0.125461,-0.0834859,0.00492096,0.0383377,-0.0358582,0.133858,0.00331879,0.0541306,0.223999,0.0147247,-9.97986,0.0152969,0.00293732,0.000572205,-0.207977,0.0164032,-0.00480652,0.0379944,-0.00144958
11,7,10.0097,0.00274658,0.000305176,-2.42501,0.055681,-0.0741475,0.0544332,0.0709703,-0.0900947,0.145929,-0.124851,-0.0816549,0.00747681,0.0388718,-0.0133514,0.119095,0.00190735,0.0556946,0.225563,0.0248718,-9.97986,0.0162506,0.00640869,0.00320435,-0.208015,0.0131989,-0.0115204,0.0363922,-0.00133514
11,8,10.0097,0.000915527,0,-2.42531,0.0565965,-0.0729268,0.0547383,0.0731066,-0.0928413,0.147149,-0.125156,-0.0810445,0.00953674,0.0415802,0.000686646,0.127602,0.00110626,0.0540161,0.2248,0.0296021,-9.97986,0.0103378,0.00682831,-0.000572205,-0.209122,0.0147247,-0.00606537,0.030098,0.000457764
11,9,10.0097,0.000305176,0.000457764,-2.42592,0.0550706,-0.0747579,0.054128,0.0608995,-0.0934516,0.147455,-0.125766,-0.0813497,0.00938416,0.0348663,0.00965118,0.120964,0.00289917,0.0543213,0.227623,0.0335312,-9.97986,0.0170898,0.00175476,0.00602722,-0.207024,0.0183487,-0.00450134,0.0287247,-0.000190735
12,0,8.97756,0,-0.000915527,-2.42745,0.0544603,-0.0741475,0.0522969,0.00932483,-0.0995551,0.146539,-0.129429,-0.0834859,0.0105667,0.0431061,0.0205612,0.0741577,0.00984192,0.0548935,0.227051,0.0416183,-9.97986,0.0122452,-0.000457764,0.0124359,-0.191956,0.0201416,-0.00488281,0.0287247,-0.0019455
12,1,-0.314131,0.00152588,-0.00335693,-2.42531,0.0562914,-0.0729268,0.0544332,-0.00684949,-0.0968086,0.147149,-0.128513,-0.0819601,0.0124359,0.0445557,0.0204849,0.0153732,0.0123978,0.0514221,0.223846,0.0457764,-9.97986,0.011673,-0.00652313,0.0141907,-0.177498,0.0212479,0.000305176,0.0279999,-0.00141144
12,2,-7.73417,0.0012207,-0.0038147,-2.42531,0.0562914,-0.0738423,0.054128,-0.0178358,-0.0961982,0.147149,-0.129429,-0.0816549,0.00946045,0.0359726,0.00946045,-0.0867081,0.0150299,0.0530243,0.213013,0.0469971,-9.97986,0.00679016,-0.0177765,0.0111771,-0.179443,0.016861,-0.00133514,0.0241089,-0.0043869
12,3,-9.99003,0.000915527,-0.00335693,-2.4247,0.0581224,-0.0726216,0.0547383,0.0108507,-0.0919257,0.146539,-0.128513,-0.0810445,0.0128174,0.028038,0.0209808,-0.119019,0.0151825,0.0521088,0.202751,0.0477982,-9.97986,0.00808716,-0.0140762,0.0101471,-0.186348,0.00518799,0.00350952,0.025177,0.00217438
12,4,-9.99003,0.000915527,-0.00152588,-2.42348,0.0553758,-0.0738423,0.054128,0.0456407,-0.0910102,0.145929,-0.126682,-0.0819601,0.00743866,0.0151825,0.0274658,-0.0948715,0.0204086,0.050621,0.19062,0.0477219,-9.97986,0.00476837,-0.0075531,0.0179291,-0.191231,-0.00354767,-0.0044632,0.0234985,-0.00289917
12,5,-9.99003,0.000915527,-0.000305176,-2.42592,0.0547655,-0.0735371,0.055959,0.0593737,-0.0900947,0.144708,-0.126072,-0.0819601,0.0100708,0.00904083,0.0398254,-0.0841522,0.0203705,0.0566101,0.187187,0.0405502,-9.97986,0.0117874,0.000686646,0.0156784,-0.187073,-0.00396729,-0.00843048,0.019989,0.000419617
12,6,-9.99003,-0.000610352,0.00106812,-2.42623,0.0547655,-0.0747579,0.0550435,0.0697496,-0.0916206,0.145318,-0.126072,-0.0831808,0.010376,0.0134277,0.0584793,-0.101128,0.0259018,0.0575638,0.182648,0.0382614,-9.97986,0.00705719,0.00778198,0.0158691,-0.178909,-0.00583649,-0.0128937,0.0139236,0.000267029
12,7,-9.99003,-0.00152588,0.00442505,-2.4247,0.0544603,-0.0753682,0.0574849,0.130174,-0.0855171,0.145318,-0.12241,-0.0813497,0.00854492,0.0231171,0.0743484,-0.125008,0.0241852,0.0621414,0.17849,0.032959,-9.97986,0.00602722,0.00518799,0.0203323,-0.158539,0.0178909,-0.0110245,0.0134277,-0.000572205
12,8,-1.90684,0.000305176,0.00534058,-2.42592,0.0529344,-0.0756734,0.0535176,0.145738,-0.0882636,0.143792,-0.120578,-0.0837911,0.0115585,0.0376129,0.0904083,-0.135612,0.0260925,0.0626373,0.169411,0.0239944,-9.97986,0.00694275,0.00579834,0.0249863,-0.123596,0.0228119,-0.0130463,0.00873566,-0.000228882
12,9,6.05886,0,0.00656128,-2.42989,0.0535448,-0.0756734,0.0544332,0.153673,-0.0894843,0.144098,-0.121189,-0.085317,0.00988007,0.043602,0.0955582,-0.120735,0.0250244,0.0583649,0.155334,0.0196838,-9.97986,0.00263214,-0.00324249,0.0231552,-0.100365,0.0209045,-0.0131226,0.00732422,0.000572205
13,0,10.0097,-0.000610352,0.00640869,-2.43111,0.0520189,-0.0771993,0.0498555,0.132921,-0.0943672,0.141656,-0.124241,-0.0865377,0.0176239,0.0476837,0.0902939,-0.0557709,0.0291443,0.0600052,0.147209,0.0170517,-9.97986,0.0012207,-0.00778198,0.0234222,-0.0734711,0.022049,-0.00415802,0.0106049,-7.62939e-005
13,1,10.0097,-0.000305176,0.00396729,-2.4305,0.0532396,-0.0768941,0.0510762,0.094774,-0.0983344,0.143792,-0.125766,-0.0874532,0.0179672,0.0457001,0.0790405,0.0183105,0.0318527,0.0623703,0.13298,0.0135803,-9.97986,0.00411987,-0.00350952,0.0264359,-0.043869,0.022049,-0.00183105,0.0116348,0.00263214
13,2,10.0097,0,0.00259399,-2.43081,0.0541551,-0.0762837,0.0516866,0.0798204,-0.0974189,0.142267,-0.127598,-0.0871481,0.013237,0.0209808,0.0555801,0.109634,0.0295639,0.0639343,0.116959,0.00793457,-9.97986,0.00202179,0.00396729,0.0236511,-0.0326157,0.0207901,0.00617981,0.0094986,3.8147e-005
13,3,10.0097,0.000305176,0.00152588,-2.42928,0.0526292,-0.0762837,0.050771,0.0737169,-0.0952827,0.143487,-0.126987,-0.0865377,0.0160217,0.02491,0.0434494,0.185089,0.032959,0.0654221,0.101471,0.0037384,-9.97986,0.0120544,0.0094223,0.0294113,-0.0180435,0.0295258,0.00961304,0.0113678,0.00324249
13,4,10.0097,0.000610352,0.00274658,-2.42776,0.0541551,-0.0747579,0.0544332,0.0706652,-0.0946723,0.146234,-0.123935,-0.0844015,0.0122833,0.0763321,0.0394058,0.154991,0.0304031,0.0644302,0.0852966,-0.00537872,-9.97986,0.0127792,0.0176239,0.0323105,0.0259018,0.0324249,0.0114059,0.00789642,0.00232697
13,5,10.0097,-0.000915527,0.00442505,-2.42684,0.0550706,-0.0741475,0.0535176,0.0728014,-0.0937568,0.144403,-0.125766,-0.0837911,0.0143814,0.0709534,0.0125885,0.0930786,0.0352097,0.066452,0.0569153,-0.0107574,-9.97986,0.0142288,0.00904083,0.0269318,0.0780487,0.0322723,0.0114441,0.00816345,0.00518799
13,6,10.0097,-0.000610352,0.00320435,-2.42592,0.0562914,-0.0747579,0.054128,0.072191,-0.094062,0.144708,-0.125461,-0.0837911,0.0110626,0.022316,-0.00961304,0.0563049,0.03685,0.0688553,0.0421143,-0.00854492,-9.97986,0.0193787,0.00564575,0.0301361,0.0997543,0.030365,0.00682831,0.01091,0.00339508
13,7,10.0097,0,0.00244141,-2.42623,0.0559862,-0.0741475,0.0547383,0.0712755,-0.0916206,0.145318,-0.123935,-0.0819601,0.0146103,0.0319672,-0.0178909,0.0279236,0.0404358,0.0738907,0.0251007,0.00514984,-9.97986,0.0163269,0.00137329,0.032196,0.105629,0.0387955,0.00782013,0.0150299,0.00602722
13,8,10.0097,0.000915527,-0.000610352,-2.4247,0.0559862,-0.0735371,0.0556539,0.0718859,-0.0913154,0.147149,-0.12363,-0.0822652,0.0126266,0.0326157,-0.0405884,-0.00453949,0.0338364,0.0674057,-0.00850677,0.011673,-9.97986,0.0222778,0.00713348,0.0337601,0.0773621,0.0355911,0.00259399,0.0111389,0.00492096
13,9,10.0097,0.000305176,-0.00305176,-2.42653,0.055681,-0.0735371,0.0550435,0.0636461,-0.0937568,0.145624,-0.124241,-0.0828756,0.0113678,0.0133133,-0.0472641,-0.0229645,0.0442123,0.0722504,-0.0418854,0.017395,-9.97986,0.0252533,0.00526428,0.0319672,0.0338745,0.036087,0.000305176,0.0119019,0.00514984
14,0,8.90065,-0.000610352,-0.00457764,-2.42745,0.0562914,-0.0756734,0.0513814,0.0102404,-0.0995551,0.145318,-0.128818,-0.0840963,0.0105667,-0.00244141,-0.0497818,-0.027504,0.0414276,0.0682068,-0.0799942,0.0156403,-9.97986,0.0211334,0.00629425,0.0339127,0.00999451,0.0429153,-0.00976563,0.00782013,0.00728607
14,1,-0.477705,-0.0012207,-0.00534058,-2.42562,0.0575121,-0.0738423,0.0535176,-0.00654431,-0.095893,0.145318,-0.129429,-0.0819601,0.00946045,-0.0191879,-0.0338364,-0.0590134,0.0357819,0.0662613,-0.111542,0.0128174,-9.97986,0.0222778,0.00610352,0.032959,0.0147247,0.0382614,-0.0088501,0.00976563,0.00839233
14,2,-7.79918,0.000915527,-0.0038147,-2.42623,0.0565965,-0.0744527,0.055959,-0.0178358,-0.095893,0.146234,-0.130344,-0.0810445,0.00999451,-0.0127411,0.00301361,-0.0743866,0.0400162,0.0672913,-0.1437,0.0138092,-9.97986,0.0207901,0.00312805,0.0397873,0.0286865,0.042572,-0.00839233,0.00759125,0.00385284
14,3,-9.99003,0.00152588,-0.00350952,-2.42653,0.0562914,-0.0738423,0.055959,0.0114611,-0.0922309,0.147455,-0.128818,-0.0810445,0.0104904,-0.00774384,0.0219727,-0.0661087,0.0418854,0.067749,-0.170174,0.0136566,-9.97986,0.0240326,0.00278473,0.0398254,0.0134659,0.0260925,-0.00461578,0.00930786,0.00450134
14,4,-9.99003,0.0012207,-0.00244141,-2.42623,0.0562914,-0.0741475,0.055959,0.0474718,-0.0891792,0.147455,-0.127598,-0.0810445,0.00835419,-0.00713348,0.0400162,-0.0417709,0.0428391,0.0697708,-0.190506,0.010643,-9.97986,0.0227356,0.0012207,0.0436783,-0.00564575,0.0210571,0.00404358,0.0105286,0.00720978
14,5,-9.99003,-0.000915527,-0.000915527,-2.42562,0.0547655,-0.0747579,0.0553487,0.0596788,-0.0910102,0.145624,-0.126072,-0.0822652,0.0105286,-0.0114059,0.0455856,0.00209808,0.0343323,0.0640106,-0.222549,0.0102234,-9.97986,0.0211334,-0.00217438,0.0367355,-0.0128555,0.0147247,0.00427246,0.0062561,0.00862122
14,6,-9.99003,0,0.000305176,-2.42684,0.0544603,-0.0741475,0.054128,0.0666979,-0.0910102,0.145318,-0.124851,-0.0828756,0.0118256,-0.00854492,0.0370026,0.0400543,0.0409317,0.0626755,-0.248795,0.00133514,-9.97986,0.0242615,0.00343323,0.0391006,0.00865936,0.0166702,0.00862122,0.0118637,0.00904083
14,7,-9.99003,0.000305176,0.00564575,-2.42501,0.0550706,-0.0747579,0.0574849,0.130785,-0.0846015,0.146539,-0.12241,-0.0804342,0.0121689,-0.00556946,0.0259399,0.0467682,0.0462341,0.06073,-0.265121,-0.00736237,-9.97986,0.0211716,0.00572205,0.0434494,0.0594711,0.0409698,0.00988007,0.0140381,0.00934601
14,8,-2.18455,0.0012207,0.00900269,-2.42714,0.0544603,-0.0768941,0.0565694,0.147264,-0.0867378,0.143792,-0.121189,-0.0816549,0.0154495,0.0108719,0.0139236,0.0582504,0.0461197,0.0541306,-0.226631,-0.0107574,-9.97986,0.0220108,0.00980377,0.0416183,0.130501,0.0376511,0.00823975,0.014801,0.0102997
14,9,5.88002,0.00335693,0.012207,-2.42806,0.0538499,-0.0759786,0.054128,0.153978,-0.0897895,0.144403,-0.121189,-0.0834859,0.0150299,0.0244141,0.00602722,0.0773621,0.0453949,0.0531006,-0.12661,-0.00816345,-9.97986,0.0183487,0.0123978,0.042572,0.223579,0.0403595,0.0063324,0.0163269,0.00915527
15,0,10.0097,0.0012207,0.0131226,-2.42959,0.0523241,-0.0771993,0.050771,0.136583,-0.0928413,0.144098,-0.123935,-0.085317,0.0100708,0.0327682,-0.00495911,0.0819397,0.0429916,0.0513077,-0.0405121,-0.00221252,-9.97986,0.0201797,0.00793457,0.0430679,0.334663,0.0325012,0.0019455,0.0139236,0.0116348
15,1,10.0097,0.000915527,0.010376,-2.4305,0.0538499,-0.0765889,0.0501607,0.0938585,-0.0980293,0.142267,-0.125461,-0.0859274,0.00919342,0.0445557,-0.000991821,0.07061,0.0454712,0.04673,0.0214767,0.00976563,-9.97986,0.0210571,0.00511169,0.0457764,0.427666,0.0292969,0.00644684,0.0133514,0.0108719
15,2,10.0097,0.00274658,0.00961304,-2.43081,0.0538499,-0.0759786,0.0516866,0.0785997,-0.0965034,0.144098,-0.126682,-0.085317,0.00488281,0.0382614,-0.00175476,0.0258255,0.0453568,0.043335,0.0741196,0.014534,-9.97986,0.0172806,0.00499725,0.0440979,0.52845,0.0295639,-0.0019455,0.0143433,0.0126266
15,3,10.0097,0.0012207,0.0105286,-2.42928,0.0550706,-0.075063,0.0529073,0.0740221,-0.0943672,0.143487,-0.125766,-0.0831808,0.00556946,0.0296021,-0.00358582,-0.000343323,0.0407791,0.0413513,0.11982,0.0195694,-9.97986,0.0204086,0.000762939,0.0463104,0.649529,0.0299072,-0.00408173,0.0119781,0.01194
15,4,10.0097,0.000915527,0.0112915,-2.42714,0.0550706,-0.0735371,0.0526021,0.0731066,-0.0949775,0.144403,-0.126072,-0.0813497,-0.00106812,0.0194168,0.00694275,-0.00343323,0.0473404,0.0389481,0.169182,0.0270462,-9.97986,0.0193405,0.00118256,0.0479507,0.775261,0.0376892,-0.0019455,0.0199127,0.0125504
15,5,10.0097,0.000610352,0.0134277,-2.42653,0.0550706,-0.075063,0.0538228,0.0712755,-0.0943672,0.142877,-0.124851,-0.0804342,0.00362396,0.0235367,0.0243378,-0.00984192,0.0435257,0.0344467,0.206032,0.0322342,-9.97986,0.0188065,0.000534058,0.0428009,0.928688,0.0404739,-0.00270844,0.0227737,0.0134659
15,6,10.0097,0.00274658,0.0157166,-2.42653,0.0569017,-0.0744527,0.054128,0.0715807,-0.0925361,0.145929,-0.125156,-0.0792135,0.0104141,0.0311279,0.0405884,-0.0118256,0.0464249,0.0377655,0.222549,0.0397491,-9.97986,0.0164413,0.00411987,0.0518036,1.10306,0.0447845,0.00270844,0.0270081,0.0162888
15,7,10.0097,0.00152588,0.0158691,-2.42592,0.0569017,-0.0710957,0.054128,0.0712755,-0.090705,0.146539,-0.124241,-0.0773824,-0.000114441,0.0289154,0.033989,-0.0140381,0.0354767,0.0257111,0.241623,0.0263977,-9.97986,0.00751495,-0.00488281,0.0403214,1.24996,0.0369263,0.000648499,0.0175095,0.00988007
15,8,10.0097,0,0.0149536,-2.4247,0.0562914,-0.0738423,0.0547383,0.072191,-0.0900947,0.147149,-0.124546,-0.0773824,0.010376,0.0349426,0.0322342,-0.0346756,0.0458527,0.0312805,0.251846,0.0315857,-9.97986,0.017395,-0.000724792,0.0461197,1.24996,0.0415039,-0.000495911,0.0230408,0.011673
15,9,10.0097,-0.000915527,0.0125122,-2.42684,0.0572069,-0.0744527,0.0535176,0.0666979,-0.0934516,0.147455,-0.124546,-0.078298,0.00751495,0.0361633,0.0278091,-0.0886154,0.0431061,0.0252914,0.260315,0.0256729,-9.97986,0.0114441,-0.00667572,0.0484467,1.24996,0.0424576,0.00328064,0.0241852,0.0114822
16,0,9.23512,-0.0012207,0.00869751,-2.42745,0.0569017,-0.0747579,0.0510762,0.0105455,-0.0986396,0.145624,-0.130344,-0.0810445,0.0105286,0.0547791,0.0279617,-0.0500107,0.0429535,0.0177383,0.253983,0.0117111,-9.97986,0.00816345,-0.00610352,0.041008,1.24996,0.0422668,-0.00137329,0.022316,0.00892639
16,1,-0.152387,0,0.00305176,-2.42562,0.0553758,-0.0735371,0.0538228,-0.00623914,-0.0974189,0.146539,-0.129429,-0.0798238,0.013504,0.0463486,0.0243378,0.0168228,0.0437927,0.0111008,0.251083,0.0101852,-9.97986,0.00720978,-0.0105286,0.045166,1.24996,0.040741,-0.00507355,0.0243759,0.0131607
16,2,-7.5175,0.000305176,-0.000152588,-2.42501,0.0562914,-0.0735371,0.0547383,-0.0184462,-0.0980293,0.14776,-0.130039,-0.0804342,0.00751495,0.0521851,0.0304413,0.0457001,0.0447464,0.00545502,0.244331,0.00495911,-9.97986,0.00595093,-0.0155258,0.0416946,1.24996,0.0411987,-0.0056076,0.0243759,0.0121689
16,3,-9.99003,0.0012207,0.00152588,-2.4247,0.0581224,-0.0735371,0.055959,0.0108507,-0.0919257,0.147149,-0.128818,-0.0795187,0.011673,0.075264,0.0299454,0.0744629,0.0404739,0.00228882,0.241356,0.0146103,-9.97986,0.00385284,-0.0233459,0.0430298,1.24996,0.0308228,-0.00209808,0.02285,0.0109482
16,4,-9.99003,0.000610352,0.00244141,-2.4244,0.0553758,-0.0747579,0.0547383,0.0462511,-0.0897895,0.144098,-0.126682,-0.0798238,0.0088501,0.063591,0.0346756,0.0614166,0.0424957,-0.00198364,0.240097,0.018692,-9.97986,0.00846863,-0.022583,0.0361633,1.24996,0.0183868,-0.00621796,0.0227356,0.0130844
16,5,-9.99003,0,0.00259399,-2.42592,0.0553758,-0.0741475,0.0544332,0.0590685,-0.0919257,0.144403,-0.125461,-0.0813497,0.0109863,0.0398254,0.0334549,0.045929,0.0468826,-0.0111389,0.232162,0.0134277,-9.97986,0.00869751,-0.0246048,0.0370407,1.24996,0.0240326,-0.00179291,0.0259781,0.0125885
16,6,-9.99003,0,0.00350952,-2.42562,0.0544603,-0.0729268,0.0547383,0.0694445,-0.0913154,0.144098,-0.124546,-0.0816549,0.0102615,0.0318527,0.0233841,0.0318146,0.045929,-0.010643,0.227661,0.0167084,-9.97986,0.0124741,-0.0252914,0.0327682,1.24996,0.019722,-0.00236511,0.0259018,0.0112534
16,7,-9.99003,-0.000610352,0.00473022,-2.42501,0.0553758,-0.0747579,0.0568746,0.132616,-0.0849067,0.145624,-0.120884,-0.0810445,0.0104523,0.0216675,0.0214767,0.00762939,0.0487518,-0.010643,0.22419,0.0160599,-9.97986,0.0174713,-0.0165939,0.0289536,1.24996,0.0409317,-0.00564575,0.0296021,0.00663757
16,8,-1.89769,0.000305176,0.00534058,-2.42837,0.0535448,-0.0747579,0.0544332,0.146654,-0.088874,0.143792,-0.121189,-0.0834859,0.0125885,0.0265503,0.0171661,0.00774384,0.0438309,-0.0148773,0.20874,0.015831,-9.97986,0.0188446,-0.0115204,0.0232315,1.24996,0.039444,-0.00453949,0.0288391,0.00385284
16,9,6.1321,0.000305176,0.00534058,-2.42806,0.0523241,-0.0747579,0.054128,0.152757,-0.0894843,0.142877,-0.12241,-0.0850118,0.012207,0.054245,0.0228119,0.0234604,0.0452423,-0.0117874,0.201607,0.0205994,-9.97986,0.0226974,-0.0183105,0.022583,1.24996,0.0360489,-0.00465393,0.029335,0.0116348
17,0,10.0097,0.000915527,0.00488281,-2.4305,0.0535448,-0.0765889,0.0513814,0.133531,-0.0937568,0.142572,-0.124241,-0.0880636,0.0125122,0.0494766,0.0294876,0.0294113,0.0426865,-0.018425,0.186768,0.0272369,-9.97986,0.0273895,-0.0155258,0.0165176,1.24996,0.0342178,-0.0018692,0.0295639,0.0132751
17,1,10.0097,0.000610352,0.00213623,-2.43111,0.0538499,-0.0756734,0.0495503,0.0932482,-0.0974189,0.142267,-0.125766,-0.0883688,0.00896454,0.0442123,0.0421143,0.0129318,0.0446701,-0.0160217,0.181313,0.0312805,-9.97986,0.0268173,-0.0200653,0.0157928,1.24996,0.0320435,-0.00396729,0.0256348,0.0120544
17,2,10.0097,-0.00244141,-0.000915527,-2.42928,0.0541551,-0.0771993,0.0526021,0.0804308,-0.0968086,0.145013,-0.126682,-0.0883688,0.00728607,0.0341797,0.0372696,-0.00572205,0.0508499,-0.0195313,0.170059,0.0253677,-9.97986,0.0242233,-0.0165939,0.0168991,1.24996,0.0301361,-0.0044632,0.0244141,0.0133896
17,3,10.0097,0.000305176,-0.00213623,-2.42867,0.0538499,-0.0756734,0.0501607,0.0740221,-0.0949775,0.145318,-0.126987,-0.0871481,0.00957489,0.0166321,0.0166321,-0.0100708,0.0408173,-0.0161743,0.162544,0.0197601,-9.97986,0.021553,-0.0120163,0.0157547,1.24996,0.0271606,-0.00404358,0.0227737,0.0176239
17,4,10.0097,0.000305176,-0.00289917,-2.42776,0.0547655,-0.0759786,0.0529073,0.0724962,-0.0943672,0.143792,-0.126682,-0.0859274,0.0136185,0.0169373,7.62939e-005,0.000610352,0.0408173,-0.0141144,0.155182,0.0220108,-9.97986,0.0217438,-0.00343323,0.0152969,1.24996,0.0236511,-0.00450134,0.0233078,0.0192642
17,5,10.0097,0.000305176,-0.00366211,-2.42776,0.0547655,-0.0744527,0.0522969,0.0709703,-0.0928413,0.145318,-0.125766,-0.0856222,0.012207,0.0217056,-0.00984192,0.0344849,0.0371933,-0.0115967,0.14389,0.0201797,-9.97986,0.0242233,0.000457764,0.00988007,1.24996,0.0185013,-0.00469208,0.018959,0.019989
17,6,10.0097,0.000610352,-0.00518799,-2.42806,0.0569017,-0.0735371,0.054128,0.0715807,-0.0928413,0.147455,-0.124851,-0.0856222,0.0134277,0.0296402,-0.00869751,0.0634003,0.041275,-0.00816345,0.135918,0.0196075,-9.97986,0.0204086,0.00888824,0.012207,1.24996,0.0230789,-0.00183105,0.0204086,0.0202942
17,7,10.0097,-0.000305176,-0.0088501,-2.42501,0.0569017,-0.0741475,0.0535176,0.0728014,-0.0922309,0.145318,-0.124546,-0.0850118,0.0123596,0.0416183,-0.0199127,0.0537109,0.0378418,-0.0135803,0.125885,0.0226593,-9.97986,0.0177765,0.00965118,0.0145721,1.24996,0.0188065,0.00087738,0.021286,0.0183868
17,8,10.0097,0.000305176,-0.0106812,-2.42501,0.0565965,-0.0753682,0.0544332,0.0715807,-0.0900947,0.146234,-0.123935,-0.0847066,0.0140381,0.0371933,-0.0229263,0.0271988,0.0404739,-0.0138474,0.117226,0.0257874,-9.97986,0.0204468,0.00499725,0.0226212,1.24996,0.0167465,-0.00339508,0.0237656,0.0201416
17,9,10.0097,0,-0.0126648,-2.42623,0.0550706,-0.0744527,0.0532125,0.065172,-0.0934516,0.148065,-0.124546,-0.0859274,0.0110626,0.0393295,-0.0161362,0.0115967,0.0335693,-0.0152206,0.111389,0.0222397,-9.97986,0.0168991,-0.00213623,0.0405884,1.2365,0.0161743,-0.00495911,0.0239563,0.0193405
18,0,9.22841,-0.0012207,-0.0157166,-2.42714,0.0565965,-0.0753682,0.0510762,0.0114611,-0.0986396,0.145318,-0.129734,-0.0883688,0.0087738,0.0297928,-0.00328064,-0.00713348,0.0382614,-0.00984192,0.104332,0.0285721,-9.97986,0.014801,0.00900269,0.0500107,1.09955,0.0139236,0.00144958,0.0246429,0.019722
18,1,-0.144148,0.00152588,-0.0167847,-2.42562,0.0565965,-0.0729268,0.0532125,-0.00562879,-0.0955879,0.146844,-0.129123,-0.085317,0.0129318,0.0140381,-0.000953674,-0.0182343,0.0371552,-0.00659943,0.0988007,0.0275421,-9.97986,0.0170135,-0.0106812,0.0366974,0.965385,0.0111008,0.00804901,0.0263977,0.0154877
18,2,-7.39085,0.00152588,-0.018158,-2.42501,0.0559862,-0.0738423,0.0526021,-0.0184462,-0.095893,0.146844,-0.129734,-0.085317,0.0128937,0.00255585,0.00686646,-0.00629425,0.0390244,-0.00442505,0.0892258,0.0297165,-9.97986,0.0149918,-0.0244522,0.0284958,0.819168,0.0044632,0.00751495,0.0271606,0.0164413
18,3,-9.99003,0.000610352,-0.0167847,-2.42562,0.0562914,-0.0744527,0.055959,0.0114611,-0.0934516,0.146844,-0.128513,-0.0847066,0.0105667,-0.01091,0.00694275,-0.00297546,0.0354767,-0.00888824,0.0819016,0.0306702,-9.97986,0.0148392,-0.0289154,0.024147,0.675049,-0.00656128,0.00854492,0.0299835,0.0123596
18,4,-9.99003,0.0012207,-0.0157166,-2.4244,0.055681,-0.0747579,0.0565694,0.0435045,-0.0903999,0.143792,-0.126377,-0.0850118,0.012207,-0.0421906,0.00202179,0.02285,0.0346375,0.00312805,0.0774765,0.0336456,-9.97986,0.0139999,-0.0269318,0.0114822,0.513916,-0.0219345,0.0100708,0.0237656,0.015831
18,5,-9.99003,0.0012207,-0.0160217,-2.42592,0.0553758,-0.0738423,0.0550435,0.0584581,-0.0897895,0.144708,-0.126072,-0.0871481,0.00980377,-0.0416183,-0.00255585,0.0368881,0.0316238,-0.000686646,0.0720978,0.0279617,-9.97986,0.0128937,-0.0195313,0.0112534,0.351257,-0.019455,0.00770569,0.02285,0.0173187
18,6,-9.99003,0.000305176,-0.0149536,-2.42684,0.055681,-0.0744527,0.0547383,0.0712755,-0.090705,0.145013,-0.126072,-0.0874532,0.0130463,-0.0209808,0.000839233,0.0212479,0.0355911,-0.000534058,0.0640488,0.0295639,-9.97986,0.0153351,-0.000953674,0.0109863,0.191116,-0.0225449,0.00450134,0.0208664,0.0147629
18,7,-9.86308,0.000610352,-0.01297,-2.42562,0.0547655,-0.073232,0.0565694,0.131395,-0.0846015,0.145624,-0.122715,-0.0859274,0.00831604,-0.0152206,0.001297,0.00728607,0.03582,-0.001297,0.0555801,0.0272369,-9.97986,0.0151443,0.00598907,0.0122833,0.0464249,-0.000343323,0.00114441,0.0209427,0.0157547
18,8,-1.73991,0.00183105,-0.010376,-2.42837,0.0532396,-0.0759786,0.0547383,0.147264,-0.0879585,0.142877,-0.12241,-0.0877584,0.0075531,-0.000534058,0.0103378,0.00507355,0.0396729,-0.0037384,0.0516129,0.0249863,-9.97986,0.014534,-0.00205994,0.00774384,-0.0858688,-0.00293732,0.00110626,0.0167847,0.019722
18,9,6.33046,0.000305176,-0.00930786,-2.42714,0.0535448,-0.0759786,0.0544332,0.153978,-0.0882636,0.144403,-0.121494,-0.0889791,0.00995636,0.0112915,0.0130081,0.00114441,0.0377274,-0.00530243,0.0421524,0.0240326,-9.97986,0.0108719,-3.8147e-005,0.0063324,-0.22583,-0.00171661,0.000686646,0.0164032,0.0183105
19,0,10.0097,0.00305176,-0.00946045,-2.4302,0.0532396,-0.0771993,0.0513814,0.129564,-0.0955879,0.142572,-0.124851,-0.0929464,0.0102997,0.0172424,0.0249481,0.00415802,0.0380325,-0.00713348,0.0299072,0.019722,-9.97986,0.00926971,0.000839233,0.00602722,-0.363884,-0.00499725,-0.00175476,0.0157928,0.0167465
19,1,10.0097,-0.000305176,-0.01297,-2.43172,0.0526292,-0.0781148,0.0492452,0.0923326,-0.0986396,0.146539,-0.126072,-0.092336,0.0118256,0.0247955,0.0337601,-0.00366211,0.0381851,-0.00549316,0.0235367,0.0194931,-9.97986,0.0128937,0.00827789,0.00759125,-0.500259,-0.00518799,-0.0056076,0.0183487,0.0144196
19,2,10.0097,0.000305176,-0.0123596,-2.42989,0.0538499,-0.0756734,0.0504659,0.0776842,-0.0952827,0.142572,-0.127903,-0.092336,0.0104904,0.024147,0.0315094,-0.00366211,0.0415802,-0.0109863,0.0146103,0.0230026,-9.97986,0.014534,0.0112534,0.00377655,-0.62748,-0.00453949,-0.0187302,0.0141144,0.0180817
19,3,10.0097,0.0012207,-0.012207,-2.42867,0.0547655,-0.0756734,0.0519917,0.075548,-0.095893,0.144098,-0.126682,-0.0895895,0.00644684,0.0108337,0.033493,-0.00839233,0.0421906,-0.0115585,0.00408173,0.0134659,-9.97986,0.00907898,0.00404358,0.0050354,-0.746574,-0.00766754,-0.0172043,0.022049,0.0164032
19,4,10.0097,0.00152588,-0.0111389,-2.42776,0.0547655,-0.0756734,0.0529073,0.0712755,-0.094062,0.143182,-0.126987,-0.0898946,0.00579834,0.00270844,0.0310898,-0.0105667,0.0382233,-0.0146103,-0.00976563,0.0158691,-9.97986,0.00984192,0.00392914,0.00118256,-0.843124,-0.00991821,-0.0126648,0.0167084,0.0169373
19,5,10.0097,0.0012207,-0.00930786,-2.42653,0.055681,-0.0741475,0.0532125,0.0728014,-0.0925361,0.144403,-0.125461,-0.0871481,0.00991821,0.00865936,0.0339127,-0.00892639,0.0413513,-0.0141525,-0.0134277,0.0244904,-9.97986,0.0112915,0.00740051,0.00152588,-0.927887,-0.00526428,-0.0101471,0.0205994,0.0164795
19,6,10.0097,0.00183105,-0.00747681,-2.42745,0.0550706,-0.0741475,0.0522969,0.0706652,-0.0922309,0.145929,-0.124851,-0.0865377,0.00888824,0.0056839,0.0295258,-0.00705719,0.0387573,-0.0191498,-0.0204468,0.0272751,-9.97986,0.0100708,0.0075531,-0.00404358,-0.989647,-0.0087738,-0.00545502,0.0163651,0.0164032
19,7,10.0097,0.0012207,-0.00656128,-2.42592,0.0565965,-0.0738423,0.0538228,0.07036,-0.0916206,0.14898,-0.124851,-0.0837911,0.0113297,0.00522614,0.0340271,-0.00457764,0.0391769,-0.019455,-0.0245285,0.0335312,-9.97986,0.0101471,0.00423431,0.00591278,-1.0545,-0.00514984,0.000801086,0.0181961,0.0162506
19,8,10.0097,-0.000305176,-0.00427246,-2.42501,0.0569017,-0.0726216,0.0550435,0.0718859,-0.0919257,0.147149,-0.125461,-0.0825704,0.0105286,0.0105667,0.0315857,-0.00110626,0.0403214,-0.0203705,-0.0292969,0.025444,-9.97986,0.00957489,0.00263214,0.00385284,-1.08276,0.00343323,-0.00694275,0.0202942,0.0121307
19,9,10.0097,-0.000915527,-0.00305176,-2.42623,0.055681,-0.0741475,0.054128,0.0596788,-0.0928413,0.145929,-0.125156,-0.0825704,0.00511169,0.00701904,0.0242996,-0.000610352,0.0410843,-0.0171661,-0.0366211,0.0210571,-9.97986,0.00801086,-0.00312805,0.00404358,-1.1113,-3.8147e-005,-0.0170517,0.0138855,0.0160217
20,0,9.1747,0,-0.00518799,-2.42684,0.0550706,-0.0744527,0.0516866,0.0117662,-0.0986396,0.143182,-0.130039,-0.0844015,0.0125504,0.00377655,0.0230408,-0.00282288,0.0386429,-0.0207901,-0.0423813,0.0154877,-9.97986,0.00865936,-0.00728607,0.000610352,-1.12968,0.00324249,-0.0198746,0.0123978,0.0153732
20,1,-0.229292,0.000915527,-0.00656128,-2.42592,0.0565965,-0.0717061,0.0538228,-0.00654431,-0.0971137,0.148675,-0.129734,-0.0825704,0.00804901,0.00789642,0.0152588,-0.0285339,0.0382233,-0.0220108,-0.0424957,0.0237656,-9.97986,0.013504,-0.0138474,0.00190735,-1.13323,0.00640869,-0.01297,0.0102997,0.0110626
20,2,-7.55748,0.000610352,-0.0062561,-2.42562,0.0553758,-0.0753682,0.0538228,-0.0211928,-0.0961982,0.147455,-0.129429,-0.0819601,0.00595093,0.01194,0.011673,-0.0341034,0.0434113,-0.0236893,-0.0473022,0.0503159,-9.97986,0.0130844,-0.0144577,0.00549316,-1.14384,-0.00141144,-0.0102615,0.00873566,0.0159073
20,3,-9.99003,0.0012207,-0.00427246,-2.42501,0.0569017,-0.0741475,0.0547383,0.0102404,-0.0934516,0.143792,-0.128208,-0.0813497,0.0111008,0.0131989,0.0154877,-0.018692,0.0396729,-0.0201416,-0.052948,0.072937,-9.97986,0.00946045,-0.0175095,0.00431061,-1.15646,-0.0143814,-0.001297,0.00724792,0.0126266
20,4,-9.99003,0,-0.00198364,-2.4247,0.0553758,-0.0747579,0.0568746,0.0462511,-0.0910102,0.145929,-0.126072,-0.0810445,0.0163269,0.0185013,0.0191879,-0.0111771,0.0339508,-0.0272369,-0.0606918,0.0843811,-9.97986,0.01194,-0.0168228,0.00404358,-1.1525,-0.0384521,-0.001297,0.00701904,0.0102234
20,5,-9.99003,0.00244141,0.000152588,-2.42531,0.0541551,-0.0753682,0.055959,0.0618151,-0.0897895,0.145929,-0.126072,-0.0819601,0.0185394,0.0164032,0.0345993,-0.0214767,0.0421524,-0.0304413,-0.0653458,0.118904,-9.97986,0.00629425,-0.0156784,0.00289917,-1.14494,-0.0398636,0.00682831,0.00930786,0.0123596
20,6,-9.99003,-0.000610352,0.000915527,-2.42653,0.055681,-0.0741475,0.0538228,0.0682238,-0.0922309,0.145318,-0.126682,-0.0825704,0.0177383,0.0186157,0.0417328,-0.0378799,0.0309753,-0.0234222,-0.0681686,0.12146,-9.97986,0.00518799,-0.0157166,0.00617981,-1.12099,-0.0428391,0.0104523,0.00606537,0.0127792
20,7,-9.99003,0.000610352,0.00396729,-2.42562,0.055681,-0.0759786,0.0568746,0.131395,-0.0833808,0.145624,-0.121799,-0.0822652,0.0187683,0.0301743,0.0499344,-0.0321198,0.0284195,-0.0252151,-0.0757599,0.0922775,-9.97986,0.00247955,-0.00980377,0.00576019,-1.1026,-0.0177002,0.0088501,0.00728607,0.0128555
20,8,-1.96574,0.0012207,0.00473022,-2.42745,0.0523241,-0.0762837,0.0550435,0.146349,-0.0861274,0.144098,-0.121494,-0.0844015,0.016861,0.0305557,0.0566483,-0.0395584,0.0288773,-0.0288391,-0.0774384,0.0665665,-9.97986,0.00247955,-0.0127792,0.00579834,-1.0828,-0.0177383,0.00801086,0.0114441,0.0139618
20,9,6.07534,0,0.00564575,-2.42867,0.0535448,-0.0762837,0.0544332,0.153978,-0.088874,0.145013,-0.121799,-0.085317,0.0201797,0.0347519,0.0533295,-0.0398254,0.0259018,-0.0232697,-0.0778198,0.0531006,-9.97986,0.00286102,-0.0112152,0.00663757,-1.06754,-0.0176239,0,0.0114059,0.0133896
21,0,10.0097,-0.00274658,0.00488281,-2.42684,0.0520189,-0.0768941,0.0504659,0.134142,-0.094062,0.144098,-0.12363,-0.0880636,0.0177002,0.0328064,0.0505066,-0.00156403,0.02388,-0.0241089,-0.079689,0.00896454,-9.97986,-0.00202179,-0.0094986,0.00713348,-1.05873,-0.0195694,-0.00106812,0.00644684,0.0111389
21,1,10.0097,-0.000915527,0.00213623,-2.43111,0.0541551,-0.0747579,0.050771,0.0892809,-0.0977241,0.143487,-0.126072,-0.0883688,0.0164032,0.0347137,0.0374222,0.044899,0.0243759,-0.0222397,-0.0699615,-0.0610352,-9.97986,0.00133514,-0.0118256,0.00839233,-1.03909,-0.0141525,-0.000610352,0.0082016,0.00839233
21,2,10.0097,0.000915527,0.00213623,-2.42959,0.0535448,-0.075063,0.0519917,0.0782946,-0.0961982,0.143182,-0.127292,-0.0874532,0.00492096,0.0344086,0.0335312,0.0384521,0.0235367,-0.018425,-0.0735855,-0.0649643,-9.97986,0.00961304,-0.0101471,0.00606537,-1.02005,-0.0179291,0.000801086,0.00293732,0.0125504
21,3,10.0097,0.000915527,0.00167847,-2.42959,0.0535448,-0.0759786,0.0513814,0.0752428,-0.0952827,0.144403,-0.126682,-0.0859274,-0.00564575,0.0462723,0.0389862,0.0214386,0.0161362,-0.0225449,-0.0692368,-0.0733566,-9.97986,0.00652313,-0.0130844,0.00629425,-0.997391,-0.0167847,-0.00118256,0.00652313,0.0124359
21,4,10.0097,0.000610352,0.00244141,-2.42623,0.0550706,-0.0744527,0.0538228,0.0706652,-0.0949775,0.144098,-0.126377,-0.0844015,-0.00759125,0.0468445,0.0406647,0.00534058,0.0172043,-0.0215912,-0.0667191,-0.0714493,-9.97986,0.00537872,-0.0138474,0.00865936,-0.96714,-0.0194168,0.00339508,0.00289917,0.0117111
21,5,10.0097,0.00183105,0.00335693,-2.42806,0.0547655,-0.075063,0.0532125,0.07036,-0.0934516,0.144098,-0.126072,-0.0837911,-0.0038147,0.039978,0.0495529,0.0106049,0.0162888,-0.0180435,-0.0718689,-0.0669861,-9.97986,0.00827789,-0.0150299,0.00751495,-0.93132,-0.0162125,0.00663757,-0.000686646,0.0110626
21,6,10.0097,0.000305176,0.00335693,-2.42592,0.0559862,-0.0747579,0.0532125,0.0697496,-0.0919257,0.144403,-0.125766,-0.0825704,0.00198364,0.0394821,0.0480652,0.0105667,0.0192261,-0.00919342,-0.0725555,-0.0617599,-9.97986,0.00595093,-0.0149155,0.00804901,-0.889778,-0.0115967,0.00358582,0.000534058,0.00812531
21,7,10.0097,0.00213623,0.00442505,-2.42562,0.055681,-0.0738423,0.0550435,0.0731066,-0.0916206,0.146234,-0.125156,-0.0804342,0.0117874,0.0393295,0.0571823,0.014534,0.0157928,-0.00213623,-0.0645828,-0.0121689,-9.97986,0.00804901,-0.0102997,0.00747681,-0.835876,-0.00228882,-0.00221252,0.00160217,0.0124359
21,8,10.0097,0.000610352,0.00488281,-2.42409,0.0569017,-0.0738423,0.0544332,0.0715807,-0.0916206,0.147149,-0.124851,-0.078298,0.0140381,0.0325012,0.0574112,0.00900269,0.0120163,-0.00167847,-0.0684738,0.0156403,-9.97986,0.012207,-0.0124741,0.0104904,-0.776482,0.0179672,0.000228882,-0.000190735,0.0101089
21,9,10.0097,-0.000305176,0.00457764,-2.42837,0.0565965,-0.0738423,0.0547383,0.0648668,-0.0913154,0.145624,-0.125156,-0.0798238,0.0123596,0.0204086,0.0432587,0.018959,0.0120926,0.00850677,-0.0682068,0.000495911,-9.97986,0.0114441,-0.0112152,0.0113678,-0.715408,0.0427246,-0.00354767,-0.00125885,0.0088501
22,0,9.15944,0,0.00305176,-2.42684,0.0553758,-0.0738423,0.0513814,0.0120714,-0.0998603,0.145318,-0.129123,-0.0828756,0.0174713,0.0154114,0.0119781,0.047493,0.0110245,0.00648499,-0.0652313,-0.0243759,-9.97986,0.0111389,-0.00770569,0.0146103,-0.664444,0.0578308,-0.00751495,0.00148773,0.00743866
22,1,-0.249128,-0.0012207,0.000457764,-2.42501,0.0575121,-0.0738423,0.0529073,-0.00684949,-0.0961982,0.147149,-0.129429,-0.0816549,0.0196838,0.0202179,0.000495911,0.0502396,0.00957489,0.00827789,-0.0663757,-0.0336838,-9.97986,0.0171661,-0.01297,0.0102615,-0.61821,0.0732803,-0.00598907,0.0030899,0.0100327
22,2,-7.49705,-0.000610352,-0.000762939,-2.42592,0.0559862,-0.0738423,0.054128,-0.0163099,-0.095893,0.14776,-0.130039,-0.0804342,0.0129318,0.0117111,-0.0164413,0.0150681,0.00835419,0.0115204,-0.0643539,-0.0227356,-9.97986,0.0273132,-0.0050354,0.0126648,-0.583534,0.0624084,-0.00900269,0.00904083,0.01091
22,3,-9.99003,0.0012207,0.000305176,-2.42409,0.0559862,-0.0741475,0.0565694,0.0123766,-0.0934516,0.144403,-0.128208,-0.0795187,0.01091,0.00553131,-0.0297165,-0.000495911,0.00972748,0.0133896,-0.0628662,-0.0153351,-9.97986,0.0356293,-0.00740051,0.0207138,-0.554085,0.0301361,-0.00999451,0.00526428,0.00793457
22,4,-9.99003,0.00152588,0.000305176,-2.42592,0.0559862,-0.0741475,0.0547383,0.0459459,-0.0910102,0.146539,-0.126377,-0.0810445,0.00782013,0.0130081,-0.029068,0.0179291,0.0114059,0.0170135,-0.0569916,0.00514984,-9.97986,0.0415421,-0.00659943,0.0133896,-0.534897,-0.0135422,-0.0114441,0.00389099,0.00785828
22,5,-9.99003,0.0012207,0.0012207,-2.4247,0.0538499,-0.0747579,0.0562642,0.0596788,-0.0916206,0.145318,-0.125461,-0.0816549,0.00434875,0.0149536,-0.0255585,0.0204849,0.00595093,0.0251389,-0.0559998,0.0219345,-9.97986,0.0432968,-0.00324249,0.0137329,-0.517273,-0.041275,-0.019455,0.00534058,0.00694275
22,6,-9.99003,0.000610352,0.00167847,-2.42623,0.0562914,-0.0747579,0.054128,0.0682238,-0.0919257,0.144708,-0.126072,-0.0828756,0.00953674,0.0185776,-0.0191116,0.00999451,-0.00427246,0.0330353,-0.0576401,0.0189209,-9.97986,0.0377274,-0.00701904,0.015564,-0.508842,-0.0666046,-0.0172043,0.0030899,0.00621796
22,7,-9.99003,0.00152588,0.00350952,-2.42592,0.0562914,-0.073232,0.0571797,0.13109,-0.0849067,0.150201,-0.121799,-0.0816549,0.00850677,0.0214386,-0.0149918,0.0114059,-0.00450134,0.0325012,-0.0529861,0.0082016,-9.97986,0.0362015,-0.00572205,0.0152969,-0.503654,-0.0543976,-0.0106812,0.00297546,0.00759125
22,8,-2.00053,0.00274658,0.00442505,-2.42684,0.0541551,-0.0756734,0.0544332,0.146654,-0.0873481,0.143182,-0.122715,-0.0850118,0.00434875,0.0209808,-0.0025177,0.0149918,-0.00865936,0.0364685,-0.0463104,-0.00385284,-9.97986,0.0317764,-0.0094223,0.0121689,-0.498886,-0.0606155,-0.00610352,0.00648499,0.00766754
22,9,6.15529,0.000610352,0.00473022,-2.42776,0.0535448,-0.0765889,0.0544332,0.153673,-0.0891792,0.145013,-0.120884,-0.0844015,0.0127411,0.0338745,0.000267029,0.0146103,-0.0136185,0.0323486,-0.0394821,-0.0030899,-9.97986,0.0277328,-0.00225067,0.0144958,-0.494881,-0.054245,0.000343323,0.0056076,0.00530243
23,0,10.0097,0,0.00442505,-2.4305,0.0535448,-0.0771993,0.0498555,0.134447,-0.0922309,0.143487,-0.124546,-0.0874532,0.0139999,0.0404358,0.0088501,0.00278473,-0.0144577,0.031395,-0.0367737,-0.00968933,-9.97986,0.0285721,-0.00221252,0.0170898,-0.501862,-0.0477982,-0.000114441,0.00751495,0.00396729
23,1,10.0097,-0.000915527,0.000610352,-2.4302,0.0541551,-0.0762837,0.0501607,0.0923326,-0.0974189,0.142877,-0.124546,-0.0886739,0.0100327,0.0369644,0.0143433,-0.00576019,-0.020256,0.0246048,-0.0331497,-0.02388,-9.97986,0.0247955,-0.00175476,0.0172806,-0.503693,-0.0355148,-0.000610352,0.00637054,0.00160217
23,2,10.0097,0.00152588,0.000610352,-2.42928,0.0544603,-0.0765889,0.0513814,0.0776842,-0.0949775,0.143487,-0.126682,-0.0877584,0.0114822,0.0382996,0.0191116,-0.00659943,-0.0245285,0.0252151,-0.0275803,-0.0230026,-9.97986,0.0216675,-0.00370026,0.0154495,-0.500183,-0.0200272,-0.00110626,0.00759125,0.00343323
23,3,10.0097,0.000610352,0.000305176,-2.42928,0.0541551,-0.0756734,0.0513814,0.0740221,-0.0937568,0.145013,-0.126682,-0.0868429,0.0107574,0.0317383,0.026741,-0.00686646,-0.0233078,0.0286484,-0.0268555,-0.00724792,-9.97986,0.0177002,-0.00846863,0.0196838,-0.48687,-0.00198364,0.0038147,0.00862122,0.00263214
23,4,10.0097,0.00152588,0.00106812,-2.42745,0.0547655,-0.0744527,0.0535176,0.0718859,-0.0943672,0.145624,-0.126072,-0.085317,0.00778198,0.0242233,0.0273895,-0.0128937,-0.0294495,0.028801,-0.0283051,-0.00274658,-9.97986,0.0146103,-0.00141144,0.0224686,-0.470695,0.0128937,0.00171661,0.00904083,0.00247955
23,5,10.0097,0.0012207,0.00137329,-2.42714,0.0553758,-0.0747579,0.0532125,0.0706652,-0.0931465,0.144403,-0.126072,-0.0831808,0.00988007,0.0153732,0.0326157,-0.0566101,-0.0364304,0.0266647,-0.0270081,0.00305176,-9.97986,0.014801,-0.00785828,0.0199127,-0.451012,0.0206757,0.000495911,0.0063324,0.0043869
23,6,10.0097,0.000915527,0.00244141,-2.42776,0.0547655,-0.0738423,0.0532125,0.0709703,-0.0937568,0.145318,-0.125766,-0.0831808,0.0104141,0.00736237,0.039711,-0.0695801,-0.0345612,0.0247192,-0.0188446,0.00911713,-9.97986,0.0115967,-0.000686646,0.0199509,-0.427704,0.0256348,0.0038147,0.00629425,0.00518799
23,7,10.0097,0.0012207,0.00350952,-2.42531,0.0569017,-0.0726216,0.0547383,0.0724962,-0.0925361,0.146844,-0.12363,-0.0807394,0.00789642,0.00682831,0.0455475,-0.021286,-0.0333786,0.0272369,-0.0145721,0.018425,-9.97986,0.0145721,0,0.0218964,-0.391922,0.0213242,0.0087738,0.00785828,0.00259399
23,8,10.0097,0.00183105,0.00198364,-2.42531,0.0562914,-0.0738423,0.0547383,0.0712755,-0.0916206,0.145929,-0.125156,-0.0813497,0.00850677,0.0115585,0.0483322,0.0409317,-0.0367355,0.0267029,-0.00988007,0.0247574,-9.97986,0.0130844,0.00198364,0.0225067,-0.37117,0.0125504,0.00656128,0.00724792,0.00389099
23,9,10.0097,0,0.00228882,-2.42714,0.0572069,-0.0747579,0.0526021,0.0657823,-0.0934516,0.145624,-0.125766,-0.0813497,0.00724792,0.0233841,0.0535202,0.0771332,-0.0291824,0.0236511,-0.0121307,0.0268555,-9.97986,0.0108719,0.00038147,0.0203705,-0.351639,0.00144958,0.00213623,0.0094223,0.00331879
24,0,9.17745,0.000305176,0.000152588,-2.42776,0.0575121,-0.075063,0.0522969,0.0117662,-0.0989448,0.145929,-0.129123,-0.0834859,0.0105667,0.0262451,0.050354,0.0827408,-0.0314713,0.0246811,-0.00839233,0.0280762,-9.97986,0.0172043,-0.000686646,0.02388,-0.323982,-0.013237,-0.00320435,0.00968933,0.0044632
24,1,-0.16551,0.00152588,-0.00213623,-2.42592,0.0550706,-0.0729268,0.0538228,-0.00593396,-0.0961982,0.147455,-0.129429,-0.0813497,0.0157547,0.0307465,0.0439072,0.0597382,-0.0260544,0.0299454,-0.0140381,0.0508881,-9.97986,0.019989,0.0069046,0.0219345,-0.309219,-0.018158,-0.00392914,0.00831604,0.00167847
24,2,-7.47081,0.000610352,-0.00274658,-2.42592,0.0559862,-0.0723164,0.0535176,-0.0175306,-0.0980293,0.146844,-0.129429,-0.0810445,0.0128555,0.0264359,0.0418472,0.0232315,-0.0237656,0.0233841,-0.0063324,0.0699997,-9.97986,0.0139999,0.00331879,0.0185394,-0.294571,-0.0283432,-0.0069046,0.00911713,-0.000495911
24,3,-9.99003,0,-0.000610352,-2.42318,0.0559862,-0.0735371,0.055959,0.0114611,-0.0916206,0.145318,-0.127903,-0.080129,0.0106049,0.017662,0.0310135,-0.00419617,-0.0254822,0.0199127,-0.00774384,0.0710297,-9.97986,0.0172806,0.00209808,0.0188828,-0.266533,-0.039978,-0.00576019,0.0115585,-0.000343323
24,4,-9.99003,-0.000610352,0.00106812,-2.42531,0.0562914,-0.0741475,0.0571797,0.0447252,-0.0897895,0.145624,-0.126682,-0.0807394,0.0122452,0.0139236,0.0166702,-0.0159073,-0.0193024,0.0218964,-0.00358582,0.0603485,-9.97986,0.0088501,-0.00217438,0.0198364,-0.243454,-0.045166,-0.00675201,0.0144577,-0.00385284
24,5,-9.99003,0.0012207,0.00213623,-2.42531,0.0559862,-0.0738423,0.055959,0.0602892,-0.0910102,0.145624,-0.126987,-0.0819601,0.0143814,0.00637054,0.018959,-0.0271225,-0.00785828,0.0168228,0.00320435,0.0615311,-9.97986,0.0158691,0.00759125,0.0261307,-0.215874,-0.0386047,-0.00141144,0.0182343,0.00282288
24,6,-9.99003,0.00213623,0.00289917,-2.42653,0.0553758,-0.0753682,0.0556539,0.0679186,-0.0919257,0.145318,-0.124546,-0.0831808,0.0120163,-0.000610352,0.0168228,-0.0822449,-0.0105667,0.00862122,0.00591278,0.0673294,-9.97986,0.0166321,0.00469208,0.0212479,-0.200882,-0.0302505,-0.00411987,0.0167465,-0.0012207
24,7,-9.99003,-0.000305176,0.0038147,-2.42501,0.0547655,-0.075063,0.0565694,0.13109,-0.0849067,0.146234,-0.121799,-0.0816549,0.00801086,0.00766754,0.0257492,-0.151024,-0.00743866,0.0176239,0.0075531,0.0627136,-9.97986,0.0105667,0.00179291,0.0223541,-0.189743,0.00389099,-0.00118256,0.0149536,-0.00408173
24,8,-2.07286,0,0.0050354,-2.42745,0.0541551,-0.0762837,0.0553487,0.146349,-0.0867378,0.143182,-0.121189,-0.0844015,0.00934601,0.0120926,0.0262451,-0.18322,-0.00286102,0.0169754,0.0087738,0.0492859,-9.97986,0.00816345,0.00556946,0.021553,-0.181847,0.0136185,-0.00499725,0.018158,-0.00255585
24,9,5.95815,0.000610352,0.0050354,-2.42928,0.0538499,-0.0759786,0.054128,0.154588,-0.0894843,0.143792,-0.121189,-0.085317,0.0151443,-0.00488281,0.0265884,-0.144958,0.00205994,0.0112915,0.0160599,0.0280762,-9.97986,0.0101471,0.00469208,0.0233459,-0.184669,0.0238419,-0.00389099,0.0193024,0.00125885
25,0,10.0097,-0.000915527,0.00366211,-2.43081,0.0526292,-0.0762837,0.0504659,0.134142,-0.0931465,0.142572,-0.12302,-0.0877584,0.0106812,-0.0111771,0.0220871,-0.108299,0.00553131,-0.00614166,0.0111008,0.0147247,-9.97986,0.00366211,-0.00087738,0.0193787,-0.189781,0.0279999,-0.0133133,0.0197601,-0.0025177
25,1,10.0097,0.000610352,0.00152588,-2.43142,0.0529344,-0.0768941,0.0495503,0.0944689,-0.0986396,0.142877,-0.126987,-0.0880636,0.0161743,-0.00469208,0.0181961,-0.117569,0.00514984,-0.0164413,0.0142288,0.00743866,-9.97986,0.00576019,-0.00312805,0.0211716,-0.184631,0.0271225,-0.0146103,0.0196457,0.001297
25,2,10.0097,-0.000305176,0.000152588,-2.42959,0.0547655,-0.0759786,0.0504659,0.0798204,-0.0974189,0.143182,-0.126682,-0.0883688,0.0174713,0.000801086,0.0189972,-0.0260925,0.0135803,-0.0177383,0.0146103,0.00785828,-9.97986,0.00484467,0.000419617,0.0237274,-0.183029,0.0244522,-0.0103378,0.0177002,-0.00164032
25,3,10.0097,0.000915527,0.0012207,-2.42867,0.0547655,-0.0756734,0.0547383,0.0740221,-0.0943672,0.143792,-0.126377,-0.0862325,0.0188065,0.0181198,0.0362015,0.103302,0.0114441,-0.0137329,0.00614166,0.00953674,-9.97986,0.0107956,0.0087738,0.0234985,-0.174179,0.0214767,-0.0144577,0.0230026,-0.00175476
25,4,10.0097,0.000915527,0.000915527,-2.42776,0.0541551,-0.0744527,0.0526021,0.0718859,-0.0949775,0.144098,-0.125461,-0.0840963,0.0114441,0.0371552,0.0539398,0.131493,0.0127029,-0.00701904,-0.00038147,0.000953674,-9.97986,0.0113297,0.00778198,0.0207138,-0.154533,0.0123596,-0.0117493,0.0259399,-0.000915527
25,5,10.0097,0.000610352,0.00152588,-2.42837,0.0538499,-0.075063,0.0535176,0.0718859,-0.0931465,0.145929,-0.125766,-0.0837911,0.0107956,0.0751877,0.0744247,0.138588,0.0181198,0.000343323,-0.00366211,-0.00686646,-9.97986,0.021553,0.00274658,0.0214005,-0.140915,0.00526428,-0.0107193,0.0252914,-0.000152588
25,6,10.0097,-0.000610352,0.00167847,-2.42714,0.0553758,-0.0756734,0.0550435,0.07036,-0.0925361,0.144708,-0.125766,-0.0837911,0.0123978,0.0987244,0.086937,0.156403,0.0157928,-0.00102997,-0.00659943,-0.0192642,-9.97986,0.0242615,0.0037384,0.0191116,-0.132866,0.00793457,-0.0044632,0.0304794,0.00507355
25,7,10.0097,-0.0012207,0.00137329,-2.42592,0.055681,-0.0729268,0.0538228,0.0731066,-0.0943672,0.145929,-0.124546,-0.0810445,0.00770569,0.0837326,0.0737762,0.176773,0.0139999,-0.00926971,-0.0136185,-0.0307465,-9.97986,0.0278854,-0.000839233,0.0203705,-0.11795,-0.00171661,-0.0025177,0.0268173,-0.0012207
25,8,10.0097,0,0.00152588,-2.4244,0.0559862,-0.073232,0.0556539,0.0709703,-0.0913154,0.145929,-0.124851,-0.0804342,0.00648499,0.0669861,0.0484085,0.216751,0.0175095,-0.0115585,-0.0208664,-0.0207138,-9.97986,0.0307846,-0.00968933,0.0207138,-0.103798,0.00305176,0.0063324,0.0290298,0.000610352
25,9,10.0097,-0.000915527,0.00198364,-2.42623,0.0550706,-0.0744527,0.0510762,0.0636461,-0.0931465,0.146539,-0.124241,-0.0816549,0.00354767,0.0497055,0.0349045,0.21019,0.020256,-0.00473022,-0.0252914,-0.0101089,-9.97986,0.0304413,-0.0151062,0.0165558,-0.0845718,0.00778198,0.00499725,0.0255966,0.00469208
26,0,9.04958,0.000305176,0.000305176,-2.42745,0.0553758,-0.0747579,0.0519917,0.0114611,-0.0980293,0.145929,-0.130649,-0.0831808,0.0030899,0.0362396,0.0288391,0.149841,0.0188828,-0.000991821,-0.0239563,0.00148773,-9.97986,0.0305557,0.00553131,0.0191498,-0.0600433,0.0122833,0.00431061,0.0274277,0.000801086
26,1,-0.360517,-0.000915527,-0.00228882,-2.42501,0.0569017,-0.0744527,0.0535176,-0.00654431,-0.095893,0.145929,-0.127903,-0.0810445,0.0012207,0.0246429,0.0225067,0.107574,0.0141525,-0.00331879,-0.0286484,0.00770569,-9.97986,0.0252914,0.018425,0.0208664,-0.041008,0.0209045,0.00770569,0.0301743,0.00457764
26,2,-7.60997,-0.000610352,-0.00350952,-2.4244,0.0569017,-0.0738423,0.0529073,-0.0184462,-0.0961982,0.145929,-0.130649,-0.0807394,0.00278473,0.0348282,0.0100327,0.112839,0.0127029,-0.00335693,-0.0274277,0.00766754,-9.97986,0.0233841,0.0119019,0.0177765,-0.0259018,0.02388,0.0031662,0.030098,0.000495911
26,3,-9.99003,-0.000305176,-0.00137329,-2.42409,0.0572069,-0.0738423,0.0556539,0.0102404,-0.0913154,0.146234,-0.128208,-0.0804342,0.00362396,0.0428772,-0.0069809,0.107269,0.0111389,0.000915527,-0.0266647,0.0127029,-9.97986,0.0260162,0.000648499,0.0157547,-0.0164032,0.014534,0.00534058,0.0308609,0.00343323
26,4,-9.99003,-0.000915527,-0.000457764,-2.42531,0.0559862,-0.0747579,0.0562642,0.0465563,-0.0903999,0.145318,-0.126072,-0.0804342,0.0043869,0.018158,-0.0300217,0.083847,0.0114441,0.00579834,-0.0271225,0.0213623,-9.97986,0.0252914,-0.0104904,0.0161743,-0.00923157,0.00209808,0.00656128,0.0260162,0.00114441
26,5,-9.99003,-0.00152588,0.000457764,-2.42653,0.0553758,-0.0756734,0.0587056,0.0587633,-0.0913154,0.145929,-0.125766,-0.0822652,0.00556946,0.00286102,-0.0569534,0.0671387,0.0088501,0.00320435,-0.0244904,0.0183868,-9.97986,0.0230789,-0.0162506,0.0179672,-0.00801086,0.00827789,0.00152588,0.0241852,0.000839233
26,6,-9.99003,0.00183105,0.000610352,-2.42653,0.0553758,-0.0756734,0.054128,0.0642565,-0.0910102,0.144708,-0.126072,-0.0828756,0.00736237,0.010376,-0.0682068,0.0543594,0.00762939,0.0101089,-0.0160599,0.0191879,-9.97986,0.0258255,-0.016861,0.0159836,-0.00686646,0.00484467,0.00549316,0.0313187,0.00473022
26,7,-9.99003,0.000915527,0.00228882,-2.42531,0.0550706,-0.0747579,0.0565694,0.129259,-0.0846015,0.145318,-0.121494,-0.0825704,0.00919342,0.014534,-0.0567245,0.0546265,0.00587463,0.0182724,-0.0119019,0.0140381,-9.97986,0.0188065,-0.020752,0.0165939,-0.00514984,0.0256729,0.00492096,0.0295639,0.00396729
26,8,-2.27916,0.0012207,0.00350952,-2.42684,0.0541551,-0.0747579,0.0562642,0.147264,-0.0876533,0.144098,-0.121189,-0.0847066,0.01194,0.0100708,-0.0427246,0.0521469,0.00228882,0.0185013,-0.00415802,0.0212479,-9.97986,0.0205994,-0.0115585,0.0117111,-0.0120163,0.022049,-0.00125885,0.0284958,0.00350952
26,9,5.72804,0.0012207,0.00396729,-2.42898,0.0538499,-0.0756734,0.054128,0.153063,-0.0897895,0.145013,-0.121189,-0.0850118,0.00713348,0.00324249,-0.0315094,0.0318909,0.00038147,0.0201797,-0.00988007,0.031929,-9.97986,0.0229645,0.00293732,0.0173569,-0.0139999,0.018158,-0.000457764,0.0287628,0.00354767
27,0,10.0097,0.00183105,0.00411987,-2.42959,0.0544603,-0.075063,0.0513814,0.136888,-0.0934516,0.142572,-0.123325,-0.0871481,0.0128555,0.0123978,-0.0170898,0.0191498,-0.000534058,0.0310516,0.000686646,0.0419235,-9.97986,0.0165939,0.00343323,0.0198364,-0.0173569,0.0140381,-0.0062561,0.0274658,0.00461578
27,1,10.0097,0.000305176,0.00152588,-2.42928,0.0544603,-0.0762837,0.0501607,0.0941637,-0.0974189,0.142877,-0.125461,-0.0880636,0.00621796,0.0383377,-0.010376,0.00202179,-0.000419617,0.0292587,0.000610352,0.0437927,-9.97986,0.0167465,0.0069046,0.0146103,-0.020752,0.0138474,-0.00167847,0.0278854,0.0050354
27,2,10.0097,0,-0.000457764,-2.42867,0.0532396,-0.0765889,0.0516866,0.0798204,-0.0965034,0.143792,-0.125766,-0.0874532,0.00915527,0.0627518,-0.00713348,-0.0188828,7.62939e-005,0.0329208,0.00919342,0.0499725,-9.97986,0.0114822,0.000457764,0.0163651,-0.0281143,0.013504,-0.00679016,0.0270844,0.00221252
27,3,10.0097,-0.000305176,0,-2.42837,0.0544603,-0.075063,0.0513814,0.0737169,-0.0965034,0.144098,-0.126072,-0.0871481,0.00858307,0.0654221,0.0094223,-0.0424576,-0.00148773,0.0311279,0.0115967,0.050354,-9.97986,0.0112152,-0.000534058,0.0168228,-0.0336075,0.0203323,-0.00934601,0.0284195,0.00179291
27,4,10.0097,0.000305176,0,-2.42745,0.0547655,-0.0753682,0.0532125,0.0724962,-0.0946723,0.145013,-0.125766,-0.0844015,0.00919342,0.0656891,0.0143433,-0.041275,-0.00125885,0.0342178,0.0104523,0.0533295,-9.97986,0.00946045,-0.00892639,0.0131226,-0.0378036,0.0235748,-0.0135422,0.0276566,0.00553131
27,5,10.0097,0.000915527,0.000305176,-2.42684,0.0547655,-0.0744527,0.054128,0.0715807,-0.0937568,0.144403,-0.125461,-0.0844015,0.0122452,0.0572968,0.00801086,-0.0301361,-0.00831604,0.0326157,0.00740051,0.0531387,-9.97986,0.00865936,-0.00801086,0.0149918,-0.0354004,0.027504,-0.0106049,0.0240326,0.00659943
27,6,10.0097,-0.000305176,-0.000457764,-2.42623,0.0562914,-0.075063,0.0535176,0.0715807,-0.0919257,0.145929,-0.124851,-0.0844015,0.00915527,0.0406647,0.00328064,-0.0231171,-0.00736237,0.0333786,0.00453949,0.0452042,-9.97986,0.00495911,0.0012207,0.0119019,-0.042305,0.0274277,-0.00789642,0.0220871,0.00461578
27,7,10.0097,-0.000610352,0.000915527,-2.42531,0.0575121,-0.0744527,0.0538228,0.0715807,-0.0910102,0.146539,-0.124851,-0.0816549,0.0159454,0.03582,0.0138092,-0.0255585,-0.00526428,0.0455856,0.0151062,0.0413895,-9.97986,0.0115967,0.00164032,0.0127029,-0.0299072,0.034523,-0.00640869,0.0241852,0.00530243
27,8,10.0097,0.00244141,0,-2.42409,0.0562914,-0.0741475,0.0544332,0.0724962,-0.0919257,0.146234,-0.125461,-0.0807394,0.00389099,0.0390625,0.0133896,-0.0392532,-0.0111771,0.0361252,0.00225067,0.0238037,-9.97986,0.00377655,0.00217438,0.00835419,-0.0320053,0.0287628,-0.0082016,0.0191498,0.00354767
27,9,10.0097,0.0012207,0.000610352,-2.42684,0.0559862,-0.0735371,0.0547383,0.0673082,-0.0922309,0.147455,-0.125156,-0.0819601,0.0145721,0.0379562,0.032196,-0.00656128,-0.00621796,0.0431061,0.0102997,0.0165176,-9.97986,0.00743866,0.0163269,0.0120163,-0.0209045,0.0328445,-0.00244141,0.0212097,0.00389099
28,0,9.20979,-0.000915527,-0.0012207,-2.42714,0.0572069,-0.0738423,0.0516866,0.0129869,-0.0989448,0.145929,-0.128513,-0.0828756,0.0109863,0.0315857,0.0240326,0.0535202,-0.0108719,0.0389481,0.0145721,-0.00312805,-9.97986,0.00385284,0.013237,0.0123215,-0.0173569,0.0315857,-0.00106812,0.0191879,0.00419617
28,1,-0.102339,0.0012207,-0.00350952,-2.42592,0.0565965,-0.0735371,0.054128,-0.00745984,-0.0971137,0.147149,-0.129734,-0.0813497,0.0137329,0.0663376,0.0305557,0.0734711,-0.00541687,0.037117,0.0138474,-0.00526428,-9.97986,0.00156403,0.0201797,0.0105286,-0.0116348,0.032692,-0.00221252,0.0190735,0.0056076
28,2,-7.40275,0.000915527,-0.00427246,-2.42531,0.0562914,-0.0738423,0.0538228,-0.0163099,-0.0955879,0.147455,-0.129734,-0.0810445,0.0125885,0.0927353,0.0296783,0.0658798,-0.0038147,0.0318909,0.0163651,0.00709534,-9.97986,0.00919342,0.0190735,0.0111389,-0.000686646,0.0325012,0.00305176,0.0177765,0.00587463
28,3,-9.99003,0.000305176,-0.00183105,-2.42379,0.0541551,-0.0729268,0.0550435,0.0114611,-0.0968086,0.145624,-0.128208,-0.0810445,0.0138092,0.0715637,0.0304794,0.0540161,-0.00629425,0.0317001,0.0173187,0.00728607,-9.97986,0.0121689,0.0131607,0.0114822,0.0177383,0.0136948,0.00289917,0.0151825,0.00549316
28,4,-9.99003,0,-0.000152588,-2.42409,0.0559862,-0.0738423,0.0562642,0.0453356,-0.090705,0.145013,-0.126682,-0.0795187,0.0069809,0.025444,0.0231171,0.0385284,-0.00640869,0.0302124,0.0208664,0.00427246,-9.97986,0.0102997,0.000801086,0.01091,0.0286102,0.000991821,0.00350952,0.0123978,0.00556946
28,5,-9.99003,0.00152588,0.00152588,-2.42806,0.0550706,-0.0735371,0.0553487,0.0602892,-0.0910102,0.144403,-0.126987,-0.0816549,0.0107193,-0.00320435,0.0225067,0.0320816,-0.00556946,0.0358963,0.0224686,-0.00434875,-9.97986,0.0160599,0.000915527,0.00911713,0.0479126,0.00343323,0.0056839,0.0151443,0.00686646
28,6,-9.99003,0.00183105,0.00167847,-2.42531,0.0559862,-0.0741475,0.0550435,0.0700548,-0.0943672,0.145318,-0.126072,-0.0819601,0.00995636,-0.022316,0.0125122,0.0182724,-0.00476837,0.0305176,0.0270844,-0.00846863,-9.97986,0.0244904,0.00980377,0.00789642,0.0646591,0.000419617,0.00701904,0.0120163,0.00408173
28,7,-9.99003,0,0.0038147,-2.42653,0.0547655,-0.0744527,0.0571797,0.130174,-0.0849067,0.143487,-0.121189,-0.0831808,0.0114059,-0.0117493,0,0.0142288,-0.00320435,0.0258255,0.0238419,-0.00930786,-9.97986,0.0281525,0.016861,0.00614166,0.0772858,0.02388,0.00370026,0.00774384,0.00244141
28,8,-1.91417,0.00152588,0.00488281,-2.42776,0.0529344,-0.0756734,0.0547383,0.146959,-0.0879585,0.144098,-0.122715,-0.0847066,0.0103378,0.00263214,-0.000801086,0.0129318,0.00106812,0.0263596,0.0264359,0.00350952,-9.97986,0.0225449,0.0233841,0.00637054,0.094986,0.0310516,0.00236511,0.00934601,0.00640869
28,9,6.12966,0.000915527,0.00549316,-2.42806,0.0535448,-0.0781148,0.0526021,0.153368,-0.0894843,0.144403,-0.121799,-0.0847066,0.00766754,-0.00038147,-0.00785828,0.00751495,-0.00232697,0.0193787,0.0225067,0.00469208,-9.97986,0.022049,0.0205994,0.00968933,0.108109,0.0299835,0.00087738,0.00385284,0.00408173
29,0,10.0097,0.000610352,0.00534058,-2.4302,0.0532396,-0.0771993,0.0513814,0.132616,-0.0946723,0.142267,-0.123935,-0.0874532,0.00881195,-0.0144958,-0.0260162,0.00366211,-0.000190735,0.0191498,0.0239563,0.00789642,-9.97986,0.022583,0.0160599,0.0107956,0.124474,0.0306702,0.00740051,0.0012207,0.00102997
29,1,10.0097,0.000915527,0.00259399,-2.43081,0.0538499,-0.0768941,0.0498555,0.092943,-0.0974189,0.141656,-0.126072,-0.0886739,0.0102234,-0.0199127,-0.0371933,-0.000915527,0.00736237,0.0178909,0.0239944,0.00274658,-9.97986,0.0269318,0.0185394,0.0100327,0.143051,0.0331497,0.00896454,0.000152588,0.00335693
29,2,10.0097,0,0.0012207,-2.42867,0.0532396,-0.0762837,0.0526021,0.0785997,-0.095893,0.141961,-0.125766,-0.0877584,0.0122833,-0.00305176,-0.0389099,-0.00293732,0.00324249,0.0128937,0.0257492,0.00396729,-9.97986,0.0196457,0.0025177,0.00854492,0.154037,0.0367737,0.0101089,-0.000343323,0.00926971
29,3,10.0097,0.00244141,0.00106812,-2.42867,0.0547655,-0.0759786,0.0529073,0.0740221,-0.0955879,0.144403,-0.127292,-0.0865377,0.0104141,0.00125885,-0.0402069,-0.00782013,0.000991821,0.00679016,0.0276184,0.0043869,-9.97986,0.0207138,-0.00343323,0.00583649,0.165977,0.034523,0.0119781,0.000228882,0.00537872
29,4,10.0097,0.00183105,0.0012207,-2.42959,0.0544603,-0.0759786,0.0522969,0.0718859,-0.0934516,0.144403,-0.126377,-0.0859274,0.0094223,0.0019455,-0.0220871,-0.0109482,-0.00389099,0.00812531,0.0267792,0.0150299,-9.97986,0.0228119,-0.00930786,0.00476837,0.175209,0.0353241,0.00778198,-0.00431061,0.00213623
29,5,10.0097,0.000610352,0.000762939,-2.42745,0.0547655,-0.0744527,0.0526021,0.0718859,-0.0931465,0.144708,-0.126377,-0.0837911,0.00938416,0.0111771,-0.00457764,-0.0127792,-0.00732422,0.00514984,0.026741,0.0193787,-9.97986,0.0201035,-0.0143814,0.00286102,0.185661,0.0384521,0.00759125,-0.00236511,0.00366211
29,6,10.0097,0.00152588,0.00137329,-2.42776,0.0535448,-0.0735371,0.0529073,0.0712755,-0.0934516,0.146539,-0.124851,-0.0831808,0.0136185,0.0393295,0.0101471,-0.0137329,-0.00785828,-3.8147e-005,0.0222778,0.0268173,-9.97986,0.0148392,-0.019455,0.00946045,0.195656,0.032196,0.00911713,-0.00179291,0.00396729
29,7,10.0097,-0.0012207,0.00106812,-2.42531,0.0584276,-0.073232,0.0565694,0.072191,-0.0910102,0.147149,-0.123325,-0.0810445,0.0131226,0.0353622,0.00843048,-0.0131607,-0.0123596,-0.00541687,0.0229645,0.030098,-9.97986,0.0195313,-0.0109482,0.0106049,0.201187,0.0302124,0.00602722,-0.00656128,0.00282288
29,8,10.0097,0.00244141,0.000305176,-2.42562,0.055681,-0.0747579,0.0544332,0.0718859,-0.0910102,0.144708,-0.124241,-0.0804342,0.0141907,0.0200653,0.00423431,-0.00839233,-0.0121689,-0.000801086,0.0262451,0.0269318,-9.97986,0.0215912,0.00724792,0.00774384,0.211678,0.0279617,0.00488281,-0.00587463,0.00133514
29,9,10.0097,-0.000610352,0.00152588,-2.42592,0.0562914,-0.0738423,0.0544332,0.065172,-0.0937568,0.145318,-0.125156,-0.0813497,0.0134659,-0.0254059,-0.00244141,-0.016861,-0.0144196,-0.0062561,0.0228882,0.0263596,-9.97986,0.0174332,0.00930786,0.00518799,0.214462,0.0274277,-0.00335693,-0.0121307,0.00102997
30,0,9.11794,0.000610352,-0.00228882,-2.42776,0.0541551,-0.0747579,0.0513814,0.0129869,-0.0980293,0.145624,-0.128513,-0.0834859,0.00839233,-0.0522232,-0.00854492,-0.0164032,-0.0175095,0.000305176,0.0253677,0.02491,-9.97986,0.0244904,0.0101471,0.00663757,0.21843,0.0241852,-0.00904083,-0.0104141,0.00537872
30,1,-0.238752,0.00366211,-0.00457764,-2.42653,0.0559862,-0.0735371,0.0535176,-0.00562879,-0.0961982,0.148065,-0.129123,-0.0816549,0.0120163,-0.0380707,-0.00396729,-0.0148392,-0.023613,-0.00968933,0.0237656,0.0254822,-9.97986,0.0191879,0.021286,0.00862122,0.208626,0.0265121,-0.0100708,-0.00656128,0.00274658
30,2,-7.49827,-0.000305176,-0.0050354,-2.42653,0.0565965,-0.0735371,0.0532125,-0.0184462,-0.0968086,0.145624,-0.130344,-0.0822652,0.0121689,-0.0149536,0.0131607,-0.0123215,-0.0217819,-0.0082016,0.0273514,0.0151443,-9.97986,0.0200272,0.0288391,0.00827789,0.210953,0.0254059,-0.00335693,-0.0123596,0.00629425
30,3,-9.99003,-0.000305176,-0.00274658,-2.42562,0.0572069,-0.073232,0.0556539,0.0105455,-0.0931465,0.146539,-0.127903,-0.0807394,0.0139618,0.000953674,0.0169754,-0.0125504,-0.0261688,-0.00869751,0.0233459,0.0103378,-9.97986,0.0180435,0.0352478,0.0100327,0.201988,0.0157928,-0.00339508,-0.010376,0.00530243
30,4,-9.99003,0.000915527,-0.00152588,-2.4247,0.0565965,-0.0735371,0.0571797,0.0465563,-0.088874,0.146844,-0.125461,-0.0813497,0.0114441,0.00812531,0.0257111,-0.00926971,-0.0310135,-0.0109863,0.0274277,0.0138474,-9.97986,0.0157547,0.0255203,0.0101471,0.19577,0.00720978,-0.00694275,-0.0119781,0.00289917
30,5,-9.99003,-0.000610352,-0.000610352,-2.42592,0.0547655,-0.0744527,0.0550435,0.0590685,-0.0910102,0.145624,-0.126377,-0.0822652,0.0107956,0.00797272,0.0244141,-0.0149918,-0.0294113,-0.0139236,0.0198364,0.0180435,-9.97986,0.0166702,0.0266647,0.0114059,0.192184,0.0069046,-0.00530243,-0.0156403,0.00366211
30,6,-9.99003,-0.000305176,-0.000152588,-2.42623,0.0553758,-0.0747579,0.0550435,0.0660875,-0.0916206,0.145318,-0.125156,-0.0834859,0.0102234,0.0122452,0.0315475,-0.0146103,-0.0302124,-0.0126648,0.014534,0.0182343,-9.97986,0.0104523,0.026741,0.0115585,0.185585,0.00240326,0.00175476,-0.0143433,0.00415802
30,7,-9.99003,0.000915527,0.00167847,-2.42653,0.0553758,-0.0753682,0.055959,0.128343,-0.0855171,0.146234,-0.120884,-0.0810445,0.00846863,0.0114441,0.0302124,-0.0102615,-0.0382996,-0.0168991,0.018959,0.0198746,-9.97986,0.0125122,0.0194931,0.0121307,0.179596,0.0282669,0.00385284,-0.0160599,0.00350952
30,8,-2.17387,0.00213623,0.00350952,-2.42684,0.0532396,-0.0744527,0.0553487,0.147569,-0.0870429,0.143792,-0.121494,-0.0844015,0.0120163,0.0118256,0.0379181,-0.00957489,-0.0338745,-0.0158691,0.020752,0.0237656,-9.97986,0.0127029,0.0165176,0.0142288,0.177307,0.0275421,0.000915527,-0.0163651,0.00305176
30,9,5.92153,-0.000305176,0.00457764,-2.42837,0.0535448,-0.0759786,0.0532125,0.154283,-0.0900947,0.144098,-0.121799,-0.0850118,0.0108337,0.0144577,0.032692,-0.0107956,-0.030365,-0.0163269,0.0162506,0.0233841,-9.97986,0.0120163,0.0191498,0.00911713,0.17437,0.02388,-0.00297546,-0.0175095,0.00522614
31,0,10.0097,-0.000610352,0.0038147,-2.43142,0.0529344,-0.0768941,0.050771,0.134752,-0.0931465,0.143182,-0.123325,-0.0883688,0.0109863,0.0168991,0.0338745,-0.00831604,-0.0305939,-0.0205994,0.0158691,0.0210571,-9.97986,0.0131989,0.0164795,0.00976563,0.168686,0.0236893,-0.00411987,-0.0173187,0.00198364
31,1,10.0097,0.00213623,0.000610352,-2.42959,0.0532396,-0.0762837,0.0501607,0.0932482,-0.0971137,0.142572,-0.125156,-0.0886739,0.0139618,0.0151825,0.0318527,-0.00804901,-0.0315094,-0.0194931,0.014267,0.020752,-9.97986,0.0156021,0.0125504,0.0149155,0.166245,0.0217056,0.000610352,-0.0155258,0.00480652
31,2,10.0097,-0.000610352,-0.000152588,-2.42867,0.0535448,-0.0771993,0.0526021,0.0792101,-0.0968086,0.142572,-0.127598,-0.0877584,0.00686646,0.0209427,0.0375748,-0.0168228,-0.0257874,-0.0209808,0.0132751,0.0266647,-9.97986,0.00839233,0.0101471,0.0125122,0.159035,0.0227356,-0.00389099,-0.0179672,0.000152588
31,3,10.0097,-0.000305176,-0.000457764,-2.42837,0.0544603,-0.0747579,0.0526021,0.0743273,-0.0949775,0.143487,-0.126072,-0.0859274,0.0122452,0.0181961,0.0378418,-0.0242996,-0.0233841,-0.0227356,0.00926971,0.0312424,-9.97986,0.0101471,0.00827789,0.0142288,0.156555,0.0253677,-0.00164032,-0.0146484,0.00442505
31,4,10.0097,0.000305176,0,-2.42776,0.0553758,-0.0747579,0.0522969,0.0718859,-0.0946723,0.145624,-0.126377,-0.0856222,0.0141144,0.0202942,0.0396347,-0.0242996,-0.0201416,-0.0251389,0.00675201,0.0288773,-9.97986,0.00888824,0.00617981,0.0149918,0.154305,0.0225449,-0.00823975,-0.0197601,0.00297546
31,5,10.0097,0.000915527,0.000152588,-2.42837,0.0541551,-0.0762837,0.0535176,0.0715807,-0.0946723,0.143792,-0.125766,-0.085317,0.0157166,0.0276184,0.0432205,-0.0187302,-0.0162506,-0.0232697,0.0108337,0.0316238,-9.97986,0.00938416,0.00473022,0.0148773,0.154305,0.0264359,-0.00305176,-0.0209808,0.00301361
31,6,10.0097,-0.000610352,0.000305176,-2.42653,0.055681,-0.0747579,0.0535176,0.0724962,-0.0925361,0.145318,-0.126377,-0.0837911,0.00827789,0.0288773,0.037384,-0.0120544,-0.0196457,-0.028038,0.00976563,0.0305176,-9.97986,0.00507355,0.00865936,0.0145721,0.15583,0.0232697,-0.00366211,-0.0181961,0.00518799
31,7,10.0097,-0.000915527,0.000915527,-2.42562,0.0565965,-0.0747579,0.054128,0.0718859,-0.0928413,0.146844,-0.124851,-0.0822652,0.0106049,0.0373077,0.0417709,-0.00148773,-0.0139618,-0.0301743,0.00492096,0.0398636,-9.97986,0.00499725,0.00473022,0.0163651,0.162849,0.0256348,-0.00408173,-0.0200653,0.00556946
31,8,10.0097,-0.000610352,0.000610352,-2.42562,0.0559862,-0.0744527,0.0547383,0.0724962,-0.0919257,0.146844,-0.124546,-0.0810445,0.0121307,0.0415421,0.0415421,0.00423431,-0.0115967,-0.0284576,0.00411987,0.0374985,-9.97986,0.00671387,0.0069809,0.0151825,0.165634,0.0282288,-0.00171661,-0.015564,0.00293732
31,9,10.0097,0.000610352,0.000457764,-2.42562,0.0572069,-0.0744527,0.0532125,0.0657823,-0.0919257,0.146539,-0.124546,-0.0819601,0.00808716,0.0404739,0.0405121,0.0115585,-0.00923157,-0.0305557,0.00400543,0.0362778,-9.97986,0.00736237,-0.00156403,0.0151443,0.165176,0.0203705,-0.00270844,-0.016861,7.62939e-005
32,0,9.2928,-0.000610352,-0.00213623,-2.42714,0.0550706,-0.0744527,0.0519917,0.0145128,-0.0995551,0.145318,-0.128208,-0.0828756,0.0127411,0.0320053,0.0436783,0.0100708,-0.00854492,-0.0241852,0.00423431,0.0323486,-9.97986,0.00804901,0.00282288,0.0128174,0.160904,0.0238037,-0.00431061,-0.0142288,0.00469208
32,1,-0.121565,0.000610352,-0.00473022,-2.42501,0.0565965,-0.0729268,0.0538228,-0.00532361,-0.095893,0.146234,-0.127903,-0.0813497,0.00705719,0.0188065,0.0458908,0.00377655,-0.00675201,-0.0262833,0.00297546,0.0220108,-9.97986,0.0106812,0.00087738,0.0153732,0.162544,0.0256729,-0.0043869,-0.0172043,0.00614166
32,2,-7.4055,0,-0.00427246,-2.42501,0.0562914,-0.0735371,0.0535176,-0.0187513,-0.0961982,0.146539,-0.128818,-0.0810445,0.0139618,0.0309753,0.0506973,0.0044632,0.000457764,-0.0283432,-0.00350952,0.0165939,-9.97986,0.00610352,3.8147e-005,0.0130463,0.16983,0.0213623,-0.00835419,-0.0157928,0.00282288
32,3,-9.99003,0.000305176,-0.00289917,-2.4247,0.0559862,-0.073232,0.0550435,0.00901965,-0.0931465,0.146234,-0.129123,-0.0807394,0.0100708,0.0279236,0.0531387,0.00488281,0.00286102,-0.0268936,0.000343323,0.0131989,-9.97986,0.00415802,-0.000648499,0.0149918,0.167389,0.010376,-0.0102234,-0.0125122,0.0050354
32,4,-9.99003,0.000610352,-0.00137329,-2.4244,0.0544603,-0.0738423,0.0556539,0.0456407,-0.090705,0.146844,-0.125766,-0.0825704,0.0110626,0.0331497,0.0515366,0.00629425,0.00518799,-0.0291824,0.0043869,0.0044632,-9.97986,0.00926971,-0.00488281,0.0125885,0.167503,-0.000267029,-0.0104141,-0.013237,0.00469208
32,5,-9.99003,0.000610352,-0.000305176,-2.42531,0.0541551,-0.0759786,0.0553487,0.0587633,-0.0916206,0.144708,-0.126682,-0.0825704,0.00904083,0.0357056,0.0541306,0.018959,0.00701904,-0.0259018,-0.00324249,0.00465393,-9.97986,0.00797272,-0.00236511,0.0128937,0.164452,-0.00179291,-0.0111389,-0.0094986,0.0069046
32,6,-9.99003,0.0012207,0.000305176,-2.42776,0.0547655,-0.075063,0.0544332,0.0682238,-0.0910102,0.145318,-0.125766,-0.0825704,0.00995636,0.0397491,0.0500488,0.0087738,0.0143814,-0.017395,-0.00301361,0.0124741,-9.97986,0.0109482,-0.00637054,0.0151062,0.168419,-0.00621796,-0.00595093,-0.0062561,0.00530243
32,7,-9.99003,0.00244141,0.00213623,-2.42623,0.0547655,-0.0741475,0.0568746,0.129564,-0.0846015,0.145929,-0.12241,-0.0822652,0.0122833,0.0448227,0.0489807,-0.00907898,0.0165939,-0.0229645,0.00247955,0.0226212,-9.97986,0.00526428,-0.0107574,0.0150681,0.170021,0.0196457,-0.00488281,-0.00732422,0.00476837
32,8,-1.97673,0.000610352,0.00335693,-2.42623,0.0538499,-0.0747579,0.0547383,0.146959,-0.088874,0.144098,-0.121799,-0.0837911,0.0141907,0.0505066,0.0402451,-0.019455,0.0156784,-0.0200272,0.000305176,0.0340271,-9.97986,0.00679016,-0.00957489,0.0174332,0.165215,0.019722,-0.00423431,-0.0062561,0.00602722
32,9,6.07259,-0.000305176,0.00427246,-2.42959,0.0538499,-0.0759786,0.0532125,0.155199,-0.0891792,0.142572,-0.121494,-0.0859274,0.00991821,0.0521469,0.0357437,-0.0242615,0.0230789,-0.020256,0.000343323,0.0481415,-9.97986,0.00518799,-0.00904083,0.0139999,0.159035,0.0157166,-0.000915527,-0.00576019,0.00221252
33,0,10.0097,0.000610352,0.00396729,-2.42989,0.0541551,-0.0762837,0.0510762,0.133837,-0.0946723,0.141656,-0.124241,-0.0877584,0.0104523,0.0405121,0.0297928,-0.0111389,0.030365,-0.0180817,-0.00087738,0.0448227,-9.97986,0.00881195,-0.0107193,0.0129318,0.158234,0.0154495,0.000915527,-0.00640869,0.000686646
33,1,10.0097,-0.000305176,0.000610352,-2.4302,0.0535448,-0.0765889,0.0495503,0.0932482,-0.0961982,0.142267,-0.126072,-0.0883688,0.00988007,0.0178909,0.0270844,0.00144958,0.0336075,-0.0191879,-0.0115585,0.0467682,-9.97986,0.0156403,-0.00747681,0.0185776,0.150719,0.0130463,0.00160217,-0.00396729,0.00148773
33,2,10.0097,0.000915527,-0.000610352,-2.42989,0.055681,-0.0756734,0.0504659,0.0792101,-0.0971137,0.143792,-0.126682,-0.0889791,0.010376,0.0247192,0.0118637,-0.00572205,0.0315094,-0.0170898,-0.01297,0.0450516,-9.97986,0.0105286,-0.0138092,0.0113678,0.14679,0.0144196,0.00110626,-0.000534058,0.000686646
33,3,10.0097,-0.000305176,-0.000305176,-2.42776,0.0532396,-0.0762837,0.0519917,0.0734117,-0.0952827,0.143792,-0.126682,-0.0865377,0.00686646,0.0350952,0.00152588,-0.00133514,0.0315094,-0.0131226,-0.00915527,0.0292206,-9.97986,0.0149155,-0.0146866,0.0151825,0.140228,0.0167465,0.00171661,0.00167847,0.00255585
33,4,10.0097,0.000610352,-0.000305176,-2.42867,0.0547655,-0.0753682,0.0519917,0.0728014,-0.0949775,0.143792,-0.126682,-0.0862325,0.0106049,0.014801,0.00171661,-0.00888824,0.0376892,-0.0125122,-0.0120544,0.00183105,-9.97986,0.017662,-0.019455,0.0144958,0.133438,0.0133133,0.00511169,0.000534058,0.00347137
33,5,10.0097,0.000305176,-0.000305176,-2.42684,0.0550706,-0.0753682,0.0532125,0.0718859,-0.094062,0.146234,-0.126072,-0.085317,0.0143433,0.00480652,0.0133133,0.0111008,0.0407028,-0.00911713,-0.00732422,-0.0181961,-9.97986,0.0157928,-0.0158691,0.0146484,0.132065,0.0149155,0.00518799,0.000724792,0.0030899
33,6,10.0097,0.000305176,-0.000610352,-2.42623,0.0547655,-0.0747579,0.0535176,0.0724962,-0.0928413,0.144403,-0.125156,-0.0837911,0.0114822,-0.00213623,0.0174332,0.0478363,0.0413513,-0.00835419,-0.00595093,-0.022583,-9.97986,0.0159454,-0.0160599,0.0138092,0.124931,0.00976563,0.0056076,0.00114441,0.00400543
33,7,10.0097,0.00152588,0.000305176,-2.42562,0.0562914,-0.0735371,0.0538228,0.072191,-0.0922309,0.146234,-0.124546,-0.0822652,0.00988007,0.0062561,0.0246048,0.0618744,0.0434113,-0.00495911,-0.00999451,-0.0218201,-9.97986,0.0181961,-0.019455,0.0163651,0.116997,0.0109482,0.00389099,0.00286102,0.000762939
33,8,10.0097,0.00244141,-0.00167847,-2.42531,0.0559862,-0.0741475,0.0553487,0.0712755,-0.0919257,0.145929,-0.124851,-0.0816549,0.0056839,0.0189972,0.0325394,0.0437164,0.0435257,-0.00209808,-0.00350952,-0.0121689,-9.97986,0.0172043,-0.00415802,0.0148392,0.112915,0.013504,0.0056076,0.00469208,0.00495911
33,9,10.0097,0.000610352,-0.000610352,-2.42409,0.0562914,-0.0735371,0.054128,0.067003,-0.0931465,0.146234,-0.123935,-0.0819601,0.00995636,0.0296021,0.033226,0.033989,0.0465393,-0.000305176,-0.0075531,0.0044632,-9.97986,0.0204849,0.00167847,0.0158691,0.106087,0.010643,0.00415802,0.00499725,0.000610352
34,0,9.31325,-0.000305176,-0.00228882,-2.42806,0.0562914,-0.0729268,0.0504659,0.0108507,-0.0986396,0.146844,-0.129123,-0.0837911,0.0107956,0.0504684,0.0233841,0.0293732,0.0496674,0.00911713,-0.00579834,0.00995636,-9.97986,0.0224304,0.0194931,0.0149918,0.104599,0.00988007,-0.000305176,0.00835419,0.00118256
34,1,-0.0879953,0.0012207,-0.00457764,-2.42714,0.055681,-0.0738423,0.0532125,-0.00684949,-0.0955879,0.146539,-0.128818,-0.0822652,0.00953674,0.0494766,0.020752,0.0213242,0.0434113,0.00179291,-0.0056076,0.00720978,-9.97986,0.0193787,0.0362015,0.0140381,0.0993347,0.0129318,-0.00587463,0.0124741,0.00183105
34,2,-7.30327,0.000610352,-0.00534058,-2.42501,0.0565965,-0.0735371,0.0544332,-0.0169203,-0.0968086,0.146539,-0.130344,-0.0822652,0.0111771,0.0358963,0.0250626,0.0187683,0.0487518,0.00915527,-0.00831604,0.00518799,-9.97986,0.0184631,0.0471115,0.0154877,0.0941849,0.0115585,-0.00774384,0.0141144,0.00320435
34,3,-9.99003,0,-0.0038147,-2.4247,0.0569017,-0.0738423,0.0532125,0.0114611,-0.0922309,0.145929,-0.128513,-0.080129,0.00644684,0.0275803,0.0178909,0.0104141,0.0418091,0.00888824,-0.00610352,0.00389099,-9.97986,0.0166702,0.0318909,0.0134277,0.0948334,-7.62939e-005,-0.0131607,0.0111771,0.00247955
34,4,-9.99003,0.000610352,-0.00183105,-2.42562,0.055681,-0.0744527,0.0553487,0.0450304,-0.090705,0.146234,-0.126377,-0.0807394,0.0138092,0.031662,0.0133896,0.00888824,0.0445557,0.0125885,-0.00499725,0.00419617,-9.97986,0.0108337,0.0120544,0.0128937,0.0901031,-0.014534,-0.014267,0.0139618,0.00297546
34,5,-9.99003,0.00274658,0,-2.42501,0.0553758,-0.075063,0.0553487,0.0596788,-0.0919257,0.144708,-0.126072,-0.0825704,0.0128555,0.0307465,0.00400543,0.000991821,0.0442123,0.0112152,-0.0082016,-0.00102997,-9.97986,0.0131607,0.0105667,0.0114441,0.0923157,-0.0114822,-0.0201797,0.0164032,0.00102997
34,6,-9.99003,0,-0.000457764,-2.42623,0.0553758,-0.0741475,0.0550435,0.0694445,-0.0913154,0.144708,-0.124851,-0.0831808,0.0138855,0.0331116,0.00324249,-0.00846863,0.0453186,0.0169373,-0.00576019,0.00259399,-9.97986,0.0157928,-0.0031662,0.0148392,0.0988007,-0.0105667,-0.0174332,0.0192642,0.00255585
34,7,-9.99003,0.0012207,0.00289917,-2.42501,0.0553758,-0.075063,0.0556539,0.129259,-0.0855171,0.145013,-0.122104,-0.0816549,0.0142288,0.0314713,-0.000648499,-0.0075531,0.0416183,0.0149536,-0.00965118,0.0118256,-9.97986,0.010643,-0.00114441,0.0127411,0.1054,0.0114441,-0.0133133,0.0185776,0.000648499
34,8,-1.90379,0.00152588,0.00427246,-2.42684,0.0538499,-0.0753682,0.0544332,0.14818,-0.0879585,0.144403,-0.122104,-0.0840963,0.0133133,0.0264359,-0.000534058,-0.00526428,0.043335,0.0241852,-0.000724792,0.0124741,-9.97986,0.017128,0.0218964,0.0146103,0.113716,0.00900269,-0.0123978,0.019455,0.0038147
34,9,6.12783,0.0012207,0.00518799,-2.42776,0.0544603,-0.0753682,0.0544332,0.153673,-0.0885688,0.143182,-0.121189,-0.0859274,0.0141907,0.0207901,0.00656128,-0.0214386,0.0384521,0.0239563,-0.00141144,0.0196457,-9.97986,0.00988007,0.0261307,0.0149918,0.120163,0.01297,-0.00675201,0.0206757,0.00377655
35,0,10.0097,0.000915527,0.00427246,-2.43111,0.0535448,-0.0771993,0.0519917,0.132616,-0.0928413,0.144403,-0.12363,-0.0877584,0.0108719,0.0253677,0.0111771,-0.0261688,0.0404739,0.0212479,-0.00205994,0.016861,-9.97986,0.0154114,0.0224304,0.0161362,0.124054,0.0110245,-0.00114441,0.0231171,0.000228882
35,1,10.0097,0.0012207,0.00213623,-2.4305,0.0544603,-0.0762837,0.0501607,0.092943,-0.0971137,0.143182,-0.127292,-0.0886739,0.0141525,0.0241852,0.021019,0.0233459,0.0465012,0.0312042,0.00152588,0.0234604,-9.97986,0.0133133,0.0368118,0.013237,0.123863,0.0146484,0.00392914,0.0230789,0.00350952
35,2,10.0097,0.000305176,0.000305176,-2.42959,0.0541551,-0.0762837,0.0513814,0.0801256,-0.0965034,0.142877,-0.126072,-0.0877584,0.0134277,0.0131607,0.0258636,0.0818634,0.0442886,0.0344086,0.00656128,0.0211334,-9.97986,0.0146866,0.0347137,0.0148773,0.126877,0.0149536,0.00415802,0.0246811,-0.000915527
35,3,10.0097,0.000610352,0.000152588,-2.42776,0.0559862,-0.0747579,0.0529073,0.0740221,-0.0943672,0.143487,-0.126072,-0.0862325,0.0135422,0.0251007,0.0221252,0.07061,0.0456619,0.0307846,0.00850677,0.0307846,-9.97986,0.0113678,0.0238037,0.0152206,0.127831,0.0161743,0.00411987,0.0234604,0.000839233
35,4,10.0097,0,0.000457764,-2.42684,0.0532396,-0.0747579,0.0522969,0.0734117,-0.0931465,0.144403,-0.126072,-0.0850118,0.0134659,0.0190353,0.0260162,0.0183105,0.0440216,0.0308228,0.00988007,0.0402451,-9.97986,0.0119781,0.00461578,0.0154495,0.124435,0.0111389,0.00396729,0.0256729,0.00114441
35,5,10.0097,0.00213623,-0.000305176,-2.42776,0.0565965,-0.0768941,0.0522969,0.0712755,-0.0946723,0.145013,-0.126072,-0.0844015,0.0117493,0.022316,0.0307465,-0.0050354,0.0424957,0.0377655,0.0148773,0.0515747,-9.97986,0.0123596,0.0030899,0.0148392,0.128975,0.0160217,-0.00247955,0.0288773,0.00419617
35,6,10.0097,0.000610352,-0.000457764,-2.42653,0.0550706,-0.0744527,0.054128,0.0709703,-0.0934516,0.144403,-0.125156,-0.0834859,0.00976563,0.021553,0.0359344,0.00835419,0.0428772,0.0299835,0.0111771,0.0581741,-9.97986,0.00808716,0.014267,0.0153732,0.119286,0.0164795,-0.0150299,0.0275803,0.00457764
35,7,10.0097,0.000610352,0,-2.42653,0.0553758,-0.0738423,0.0544332,0.0712755,-0.0919257,0.146844,-0.125156,-0.0825704,0.0149536,0.0152969,0.0446701,-0.0012207,0.042305,0.0365067,0.013504,0.0608826,-9.97986,0.0140381,0.0215912,0.0140381,0.115356,0.0190353,-0.016098,0.0276566,0.00545502
35,8,10.0097,0.000610352,-0.000762939,-2.42562,0.0559862,-0.0744527,0.0550435,0.0724962,-0.0913154,0.148675,-0.125156,-0.0813497,0.0129318,0.030899,0.0432205,-0.0350189,0.0415802,0.0315475,0.0156021,0.0532913,-9.97986,0.00900269,0.0303268,0.0137329,0.112457,0.0197983,-0.00652313,0.0281906,0.00514984
35,9,10.0097,0.000915527,-0.000457764,-2.42623,0.0559862,-0.0738423,0.0532125,0.0663927,-0.0928413,0.146844,-0.125156,-0.0816549,0.0191116,0.0479889,0.0464249,-0.062027,0.0444412,0.0351334,0.0202179,0.0520325,-9.97986,0.00961304,0.0349045,0.0101089,0.104942,0.0159073,-0.000343323,0.0295639,0.00778198
36,0,9.33522,0.000610352,-0.00274658,-2.42898,0.055681,-0.0741475,0.0519917,0.0157335,-0.0977241,0.145624,-0.127903,-0.0840963,0.0115585,0.0458527,0.0518036,-0.0969696,0.042305,0.0331116,0.0208282,0.0465393,-9.97986,0.00972748,0.035553,0.0141525,0.0955582,0.0260925,0.00602722,0.030098,0.0056076
36,1,-0.0666329,0.00244141,-0.00518799,-2.42592,0.0569017,-0.0729268,0.0529073,-0.00562879,-0.095893,0.143182,-0.129123,-0.0819601,0.0138092,0.0356293,0.0518036,-0.100327,0.0402451,0.0359726,0.0154114,0.0507355,-9.97986,0.0126648,0.0364304,0.0141525,0.0904083,0.0219727,0.00789642,0.0297546,0.00537872
36,2,-7.28251,0.0012207,-0.00457764,-2.42592,0.0565965,-0.0741475,0.0535176,-0.0184462,-0.0961982,0.146234,-0.129734,-0.0825704,0.0129318,0.0193405,0.0573349,-0.11158,0.0424194,0.0359344,0.0202942,0.0353622,-9.97986,0.0102615,0.0245667,0.0131989,0.0836563,0.0259399,0.00980377,0.0331497,0.00190735
36,3,-9.99003,-0.000305176,-0.00396729,-2.42501,0.0575121,-0.0723164,0.0556539,0.0111559,-0.094062,0.145929,-0.127598,-0.0810445,0.00629425,0.00537872,0.0461578,-0.144424,0.0413513,0.0297928,0.0197601,0.00926971,-9.97986,0.00247955,0.00404358,0.0123978,0.0816345,0.0119019,0.00305176,0.0268936,0.00415802
36,4,-9.99003,0.000610352,-0.00152588,-2.42501,0.0559862,-0.0729268,0.0577901,0.0462511,-0.0894843,0.145318,-0.125461,-0.080129,0.0165176,0.0252533,0.0405502,-0.0691986,0.0392151,0.0323486,0.0260162,0.00160217,-9.97986,0.0043869,-0.000152588,0.00991821,0.0772095,0.000152588,-0.000991821,0.0310135,0.0062561
36,5,-9.99003,0.00152588,-0.00137329,-2.42531,0.0559862,-0.0738423,0.0553487,0.0584581,-0.0925361,0.144403,-0.126377,-0.0822652,0.00991821,0.0312424,0.0281906,0.0717163,0.0367737,0.0307083,0.0245667,0.00606537,-9.97986,0.00263214,0.00526428,0.0139618,0.0754166,0.00339508,-0.015831,0.033989,0.00259399
36,6,-9.99003,0.00152588,-0.000610352,-2.42592,0.0547655,-0.0747579,0.0550435,0.067003,-0.0916206,0.146539,-0.125766,-0.0828756,0.0152969,0.0444794,0.0339127,0.136032,0.0374603,0.031929,0.0246048,0.00968933,-9.97986,0.00141144,-0.0112152,0.0177383,0.0685501,0.000686646,-0.0255966,0.031662,0.00572205
36,7,-9.99003,0,0.00213623,-2.42562,0.0550706,-0.0747579,0.0574849,0.130174,-0.0849067,0.145624,-0.121189,-0.0825704,0.00980377,0.0449753,0.0431824,0.104828,0.0361633,0.0334549,0.0264359,-0.00514984,-9.97986,0.00419617,-0.0427628,0.0122833,0.0607681,0.0235748,-0.0227356,0.0312805,0.00659943
36,8,-2.03624,0.000610352,0.00289917,-2.42623,0.0541551,-0.0753682,0.054128,0.146654,-0.0879585,0.145318,-0.121494,-0.0850118,0.00865936,0.0426483,0.0574112,0.0714111,0.0336075,0.0325394,0.026741,-0.0366211,-9.97986,0.00938416,-0.0456238,0.0175858,0.0587082,0.0294113,-0.0135422,0.0347137,0.00865936
36,9,5.98867,0.00274658,0.00427246,-2.42745,0.0535448,-0.0756734,0.0532125,0.153978,-0.088874,0.143182,-0.121494,-0.0856222,0.0114441,0.0433731,0.079422,0.0848389,0.0337601,0.031662,0.0262451,-0.0587463,-9.97986,0.0131989,-0.045166,0.0152969,0.0521088,0.0246429,-0.00480652,0.0368881,0.00911713
37,0,10.0097,0.000305176,0.00366211,-2.42959,0.0529344,-0.0771993,0.0504659,0.136278,-0.0946723,0.140741,-0.12363,-0.0874532,0.00724792,0.051384,0.0914383,0.13649,0.0307846,0.0279617,0.0270462,-0.0532532,-9.97986,0.0151825,-0.0459671,0.0139618,0.0484085,0.0239944,-0.00312805,0.0350189,0.00801086
37,1,10.0097,0.00183105,-0.000152588,-2.42989,0.0541551,-0.075063,0.050771,0.094774,-0.0961982,0.142572,-0.124851,-0.0880636,0.00980377,0.0524902,0.101776,0.108871,0.0287628,0.033226,0.0326157,-0.022049,-9.97986,0.0242615,-0.0492096,0.0131607,0.0400925,0.0226212,0.00167847,0.0350571,0.00816345
37,2,10.0097,-0.000610352,0,-2.42989,0.0538499,-0.0762837,0.0510762,0.0795153,-0.0965034,0.142877,-0.126987,-0.0886739,0.00724792,0.0284195,0.0832367,0.0304794,0.0296783,0.0336838,0.0314331,-0.00663757,-9.97986,0.0292969,-0.0412369,0.0151443,0.0324631,0.0204468,0.00659943,0.0370407,0.00675201
37,3,10.0097,0.000915527,-0.000762939,-2.42837,0.0535448,-0.0753682,0.054128,0.0737169,-0.0952827,0.144098,-0.126987,-0.0865377,0.0102997,0.0257874,0.0548172,0.0265121,0.0289154,0.0334549,0.0304413,0.026207,-9.97986,0.0279236,-0.0392532,0.0130463,0.0307846,0.0263977,0.0094223,0.0398254,0.00812531
37,4,10.0097,-0.000610352,-0.000457764,-2.42837,0.0547655,-0.0765889,0.0529073,0.072191,-0.0937568,0.145013,-0.125156,-0.0856222,0.0102615,0.0354767,0.0221634,0.0688553,0.0276947,0.0321579,0.0312042,0.0476837,-9.97986,0.0214767,-0.0273132,0.0136566,0.0230408,0.0209427,0.00171661,0.0358963,0.00717163
37,5,10.0097,0,-0.000915527,-2.42776,0.0544603,-0.0756734,0.0532125,0.0706652,-0.0934516,0.144708,-0.126072,-0.0844015,0.011673,0.0172806,-0.029068,0.103378,0.0255203,0.0271606,0.0340271,0.0508881,-9.97986,0.0223541,-0.0154877,0.014801,0.0194168,0.0233459,-0.000152588,0.0381088,0.00957489
37,6,10.0097,-0.000305176,-0.000457764,-2.42684,0.0544603,-0.0741475,0.0547383,0.0712755,-0.094062,0.143792,-0.125766,-0.0837911,0.00598907,0.00213623,-0.0642776,0.130234,0.0226212,0.0338364,0.0333786,0.0598526,-9.97986,0.0234604,-0.0031662,0.0180817,0.0173187,0.0245667,-0.0030899,0.0348663,0.00980377
37,7,10.0097,0.0012207,0.000152588,-2.42409,0.0553758,-0.075063,0.0544332,0.0718859,-0.0922309,0.146844,-0.125156,-0.0819601,0.00427246,-0.00858307,-0.0944901,0.131187,0.0202179,0.0341797,0.034256,0.0862503,-9.97986,0.0255966,0.0156784,0.0112915,0.00434875,0.0245285,0.00484467,0.0388336,0.00995636
37,8,10.0097,0.00366211,-0.000610352,-2.42531,0.0569017,-0.0723164,0.0556539,0.0731066,-0.0922309,0.146844,-0.12363,-0.0813497,0.00644684,-0.0157166,-0.115929,0.109901,0.0217056,0.0336075,0.0389099,0.113144,-9.97986,0.0312424,0.0117111,0.0107574,0.00205994,0.0246048,0.00629425,0.0350571,0.0056076
37,9,10.0097,0.000915527,-0.000610352,-2.42592,0.0550706,-0.0741475,0.0550435,0.0645616,-0.0931465,0.145624,-0.125461,-0.0816549,0.00656128,-0.0253296,-0.106544,0.0912476,0.0207901,0.035553,0.0395966,0.106964,-9.97986,0.0328827,0.0105286,0.0164413,-0.00198364,0.0252533,0.010643,0.0376892,0.00766754
38,0,9.11092,0.00244141,-0.00274658,-2.42745,0.055681,-0.0747579,0.0522969,0.014818,-0.0989448,0.145318,-0.128513,-0.0834859,0.00354767,-0.0382996,-0.0935364,0.0737,0.0168991,0.0300598,0.0376511,0.0744629,-9.97986,0.0406265,0.00968933,0.0159073,-0.00450134,0.022049,0.00831604,0.0357437,0.00736237
38,1,-0.337629,0.00213623,-0.00473022,-2.42409,0.0581224,-0.0735371,0.0547383,-0.00593396,-0.0971137,0.14776,-0.128513,-0.0822652,0.00286102,-0.0247955,-0.0804901,0.0638199,0.023613,0.0299454,0.0402832,0.0354004,-9.97986,0.0376129,-0.000228882,0.0135422,-0.016098,0.021286,0.00709534,0.0367737,0.00904083
38,2,-7.49827,-0.000915527,-0.00488281,-2.42623,0.0569017,-0.0744527,0.0538228,-0.0175306,-0.095893,0.148065,-0.130039,-0.0819601,0.00793457,-0.0180435,-0.0605011,0.0556564,0.0236511,0.0321198,0.0409698,0.00228882,-9.97986,0.0309753,0.00148773,0.0133133,-0.022583,0.0238037,0.00289917,0.0344086,0.0111389
38,3,-9.99003,0.000915527,-0.0038147,-2.4244,0.0565965,-0.0735371,0.0562642,0.00993518,-0.0931465,0.145318,-0.129123,-0.0813497,0.0121307,-0.00946045,-0.0507355,0.0415421,0.0239563,0.0304794,0.0384521,0.00289917,-9.97986,0.0232697,0.0176239,0.0159073,-0.024147,0.00968933,0.00648499,0.0335693,0.00801086
38,4,-9.99003,0,-0.00198364,-2.42348,0.0562914,-0.0744527,0.055959,0.0459459,-0.0900947,0.146234,-0.126682,-0.0810445,0.0191498,-0.00148773,-0.0384903,0.034523,0.0217819,0.0276947,0.0435257,0.0349808,-9.97986,0.0152588,0.0127029,0.0164413,-0.0327682,-0.0031662,0.00411987,0.03479,0.00621796
38,5,-9.99003,0.000915527,-0.000305176,-2.42562,0.0553758,-0.0756734,0.0556539,0.0590685,-0.0916206,0.145624,-0.126072,-0.0822652,0.0148392,0.00312805,-0.0228882,0.0321198,0.0204468,0.0287628,0.0431061,0.0499344,-9.97986,0.0120926,0.010376,0.0192642,-0.030632,-0.00301361,-0.0025177,0.0367737,0.0104904
38,6,-9.99003,-0.000305176,-0.000152588,-2.42684,0.0544603,-0.0747579,0.0547383,0.0654772,-0.0931465,0.144708,-0.124241,-0.0831808,0.0101471,0.00495911,-0.00930786,0.0223541,0.0213242,0.0231552,0.0450134,0.0394821,-9.97986,0.00350952,0.0101852,0.0174332,-0.0271225,-0.00297546,-0.0087738,0.0330734,0.0106812
38,7,-9.99003,0.000305176,0.00198364,-2.42592,0.0544603,-0.0741475,0.0568746,0.128038,-0.0846015,0.146539,-0.121799,-0.0813497,0.00762939,0.0131989,0.00453949,0.0209045,0.0204086,0.0217438,0.0415802,0.0287247,-9.97986,-0.000572205,-0.00152588,0.0182724,-0.0327301,0.0236893,-0.00911713,0.0408554,0.0101852
38,8,-2.35637,0.00152588,0.0038147,-2.42684,0.0544603,-0.0753682,0.0577901,0.146654,-0.0867378,0.144403,-0.121189,-0.0844015,0.0082016,0.0109863,0.0173187,0.0195313,0.0215912,0.0224304,0.0437546,0.0474548,-9.97986,0.00293732,-0.00904083,0.0157547,-0.026207,0.0218964,-0.00602722,0.0388718,0.0101471
38,9,5.76467,0,0.00427246,-2.42928,0.0541551,-0.0753682,0.0544332,0.153978,-0.0894843,0.143182,-0.120273,-0.085317,0.00282288,0.00511169,0.0266647,0.0175858,0.0169373,0.0219345,0.0431442,0.0527573,-9.97986,0.00286102,0.00293732,0.0166702,-0.0199509,0.0215149,-0.00766754,0.0382614,0.0056839
39,0,10.0097,-0.00274658,0.00427246,-2.43142,0.0529344,-0.0762837,0.0501607,0.134447,-0.0931465,0.142572,-0.12302,-0.0880636,0.00263214,0.0199509,0.0391388,0.017662,0.0218582,0.0224304,0.0395203,0.032692,-9.97986,0.00659943,0.0198746,0.0169754,-0.0144577,0.0212097,-0.00652313,0.0370407,0.00965118
39,1,10.0097,0.00335693,0.00137329,-2.42959,0.0535448,-0.0768941,0.0513814,0.0944689,-0.0983344,0.143182,-0.126072,-0.0883688,0.0069809,0.0245285,0.0407791,0.0151443,0.0138855,0.0144577,0.0403595,0.00793457,-9.97986,-0.00320435,0.0150681,0.0124359,-0.0162888,0.0190353,-0.00728607,0.041275,0.00766754
39,2,10.0097,0,0.000915527,-2.4305,0.0541551,-0.0762837,0.0501607,0.0798204,-0.0971137,0.141961,-0.128208,-0.0883688,0.00770569,0.0416183,0.048027,0.0157547,0.0185013,0.0175476,0.0455856,-0.0127029,-9.97986,0.000457764,0.00953674,0.017395,-0.0218582,0.0267029,-0.00705719,0.0392532,0.0101089
39,3,10.0097,-0.0012207,-0.000305176,-2.42867,0.0541551,-0.07842,0.0519917,0.0737169,-0.0965034,0.144403,-0.126377,-0.0868429,0.00858307,0.0491714,0.0511551,0.0158691,0.018158,0.014801,0.0423813,-0.0453186,-9.97986,0.0062561,-0.000305176,0.0151443,-0.0167847,0.0180435,-0.00648499,0.0380707,0.0136185
39,4,10.0097,-0.000305176,-0.000152588,-2.42867,0.0544603,-0.075063,0.0532125,0.0731066,-0.0961982,0.144708,-0.126682,-0.0850118,0.017662,0.0389481,0.0522995,0.0113297,0.0205231,0.0113297,0.0458908,-0.0451279,-9.97986,0.0149536,-0.00114441,0.0165176,-0.0218964,0.0165558,-0.00808716,0.0375748,0.00904083
39,5,10.0097,-0.00183105,-0.000152588,-2.42684,0.0547655,-0.0741475,0.0538228,0.0712755,-0.0928413,0.147149,-0.125156,-0.0840963,0.0144958,0.0296402,0.0389862,0.00118256,0.0207138,0.00694275,0.045433,-0.0427628,-9.97986,0.0155258,-0.00160217,0.0116348,-0.0263977,0.0152206,-0.0249481,0.0333405,0.0094986
39,6,10.0097,-0.000915527,-0.000762939,-2.42684,0.0550706,-0.0756734,0.0522969,0.0712755,-0.0925361,0.145013,-0.126377,-0.0834859,0.0210953,0.0299072,0.0314713,-0.00797272,0.0217438,0.00328064,0.0476456,-0.0667572,-9.97986,0.0214005,-0.000991821,0.0134277,-0.0270462,0.0202942,-0.0351715,0.0338745,0.0112915
39,7,10.0097,-0.000610352,0.000152588,-2.42562,0.0575121,-0.0741475,0.0538228,0.0700548,-0.0931465,0.146234,-0.125156,-0.0816549,0.0160217,0.0148392,0.0256348,-0.0169754,0.0198364,0.00545502,0.0447464,-0.0825119,-9.97986,0.0242233,-0.0114059,0.0151825,-0.030632,0.0156784,-0.0309753,0.0370026,0.0101089
39,8,10.0097,0.000305176,0.000152588,-2.4247,0.0562914,-0.0738423,0.0544332,0.0715807,-0.0919257,0.147149,-0.12241,-0.0816549,0.0210571,0.0170135,0.0153732,-0.033226,0.0245285,0.00202179,0.0506592,-0.0770569,-9.97986,0.0175476,-0.00545502,0.0146484,-0.0298691,0.0149918,-0.0277328,0.0372696,0.0112915
39,9,10.0097,0.000915527,0.000762939,-2.42592,0.0553758,-0.0741475,0.054128,0.0666979,-0.0922309,0.147149,-0.124241,-0.0810445,0.017128,0.0392151,0.0116348,-0.051384,0.0207901,-0.00324249,0.0431061,-0.0471115,-9.97986,0.0206375,-0.0056076,0.0141525,-0.0307846,0.0153732,-0.0165176,0.0346756,0.0094986
40,0,9.32515,0,-0.00137329,-2.42745,0.0569017,-0.0744527,0.0522969,0.0139025,-0.0986396,0.145318,-0.128818,-0.0837911,0.0175095,0.0341797,0.0182724,-0.062294,0.0262833,-0.00247955,0.0453949,-0.0139999,-9.97986,0.0172424,-0.00644684,0.0186539,-0.0242233,0.0156784,-0.00545502,0.0318527,0.0094986
40,1,-0.0577829,0.00335693,-0.00427246,-2.4247,0.0569017,-0.0744527,0.0526021,-0.00593396,-0.0971137,0.145929,-0.126682,-0.0822652,0.0153732,0.0105286,0.0320435,-0.072937,0.0226593,-0.00705719,0.0372696,0.00556946,-9.97986,0.0158691,-0.00606537,0.0159454,-0.0211716,0.0131989,-0.00278473,0.0346375,0.00972748
40,2,-7.31273,0.0012207,-0.00534058,-2.42531,0.0565965,-0.073232,0.0526021,-0.0175306,-0.0961982,0.145318,-0.129734,-0.0816549,0.00751495,0.0231552,0.0295639,-0.0719452,0.0218201,-0.0114059,0.0396729,0.0333405,-9.97986,0.021286,-0.00499725,0.0126648,-0.026207,0.00873566,-0.00312805,0.0315475,0.00705719
40,3,-9.99003,0.000610352,-0.00289917,-2.4247,0.0562914,-0.0741475,0.0556539,0.00871447,-0.0928413,0.146844,-0.128818,-0.0804342,0.00995636,0.0921631,0.0395966,-0.0679779,0.030632,-0.0111008,0.0424576,0.0385284,-9.97986,0.0244904,-0.00385284,0.0186539,-0.0244522,-0.00228882,0.01091,0.0349045,0.00904083
40,4,-9.99003,0.000610352,-0.00213623,-2.42562,0.0553758,-0.0735371,0.055959,0.04442,-0.0900947,0.146539,-0.126987,-0.0807394,0.0116348,0.116158,0.0637054,-0.0334549,0.0309753,-0.0126648,0.0395203,0.0156021,-9.97986,0.0198746,-0.00999451,0.0185394,-0.034256,-0.0139999,0.0117111,0.0416183,0.00892639
