
Devices
1200
,,BP Load cell - Voltage,String Length - Voltage,Clutch Active - Voltage,#7 iPecs - Voltage,,,,,,,,,EMG 1-8 Left - Voltage,,,,,,,,Pylon Force - Voltage,EMG 9-16 Right - Voltage,,,,,,,,
Frame,Sub Frame,BP Load Cell,String Length,From Arduino Logic,A45,A135,A225,A315,S0,S90,S180,S270,ZSum,EMG 1 Glut Max,EMG 2 Glut Med,EMG 3 Biceps Femoris Long,EMG 4 Rectus Femoris,EMG 5 Vastus Medialis,EMG 6 Tib Ant,EMG 7 Med Gas,EMG 8 Soleus,Pylon volts,EMG 9 Glut Max,EMG 10 Glut Med,EMG 11 Biceps Femoris Long,EMG 12 Rectus Femoris,EMG 13 Vastus Medialis,EMG 14 Tib Ant,EMG 15 Med Gas,EMG 16 Soleus
,,V,V,V,V,V,V,V,V,V,V,V,V,V,V,V,V,V,V,V,V,V,V,V,V,V,V,V,V,V
1,0,-9.99003,-0.000610352,0.000305176,-2.42684,0.0553758,-0.0735371,0.0547383,0.0648668,-0.0925361,0.145624,-0.126072,-0.0831808,0.00968933,0.0158691,0.00984192,0.0244904,0.0180435,0.00934601,0.0196838,0.0171661,-9.97986,0.0162506,0.00236511,0.0123215,0.00904083,-0.00808716,-0.0025177,0.0170135,0.00621796
1,1,-9.99003,-0.000915527,-0.000457764,-2.42592,0.0553758,-0.0753682,0.0562642,0.0923326,-0.0879585,0.147149,-0.123935,-0.0831808,0.0109863,0.0196457,0.00934601,0.0169754,0.014801,0.0082016,0.0222778,0.0156784,-9.97986,0.013504,0.000801086,0.0165176,0.00736237,0.00591278,-0.00850677,0.0191116,0.0062561
1,2,-5.61534,-0.000305176,0.00396729,-2.42592,0.0538499,-0.075063,0.0550435,0.13109,-0.0873481,0.145013,-0.12302,-0.0847066,0.00953674,0.0175476,0.00926971,0.0110626,0.0173569,0.0101852,0.0241852,0.0180435,-9.97986,0.0141525,-0.00534058,0.0128937,0.00812531,0.0168991,-0.00701904,0.0150299,0.00415802
1,3,1.60756,0.00152588,0.00411987,-2.42745,0.0544603,-0.0756734,0.0538228,0.149706,-0.0879585,0.143792,-0.121799,-0.0847066,0.0130081,0.0170898,0.0118637,0.0115585,0.0167465,0.00938416,0.0248718,0.0181198,-9.97986,0.0150299,0.00156403,0.010643,0.0104523,0.0165558,0.00102997,0.0175476,0.00694275
1,4,8.89729,0.000305176,0.00396729,-2.42837,0.0541551,-0.0765889,0.0526021,0.146349,-0.0922309,0.143792,-0.122715,-0.0859274,0.0122833,0.0138855,0.013504,0.00854492,0.016861,0.00709534,0.0219727,0.0158691,-9.97986,0.0161743,0.00179291,0.0182343,0.00854492,0.0176239,-0.000915527,0.0190353,0.00736237
1,5,10.0097,0.00244141,0.00259399,-2.42989,0.0529344,-0.0768941,0.0501607,0.112169,-0.0968086,0.141656,-0.125461,-0.0892843,0.0111389,0.017662,0.0112534,0.00724792,0.0159836,0.00850677,0.0203323,0.0165176,-9.97986,0.0165558,-0.00209808,0.0135422,0.00793457,0.0160599,-0.000190735,0.0141525,0.00434875
1,6,10.0097,-0.000305176,0.000915527,-2.42989,0.0535448,-0.0756734,0.0513814,0.0853136,-0.0971137,0.143487,-0.126682,-0.0883688,0.0130081,0.0184631,0.0159454,0.00389099,0.0185013,0.00549316,0.0289917,0.0207138,-9.97986,0.0165558,-0.0025177,0.0165176,0.0119781,0.0174332,0.00419617,0.0168991,0.0044632
1,7,10.0097,-0.000915527,-0.000152588,-2.42959,0.0535448,-0.0768941,0.0516866,0.0761583,-0.0943672,0.143182,-0.126377,-0.0874532,0.0108337,0.0173569,0.0126266,-0.0115585,0.0166702,0.00522614,0.0221634,0.0139999,-9.97986,0.0139618,-0.00328064,0.0159454,0.00267029,0.0180054,0.00167847,0.0188446,0.0056076
1,8,10.0097,0.000915527,0.000610352,-2.42837,0.0553758,-0.075063,0.0516866,0.0731066,-0.0946723,0.143792,-0.126377,-0.0859274,0.0113678,0.0172043,0.0147629,-0.0104904,0.0183487,0.00946045,0.019455,0.0166321,-9.97986,0.0156403,-0.00808716,0.00957489,0.0113678,0.0143814,0.0062561,0.0165939,0.00617981
1,9,10.0097,0.00305176,0.000457764,-2.42745,0.0550706,-0.0762837,0.0529073,0.072191,-0.0934516,0.143487,-0.125766,-0.0850118,0.0117874,0.0216293,0.016861,-0.0160217,0.0195694,0.0104523,0.0211334,0.018692,-9.97986,0.0189209,-0.00946045,0.0149918,0.0100327,0.0166321,0.00782013,0.0198364,0.00804901
2,0,10.0097,-0.000915527,0.000457764,-2.42745,0.0559862,-0.0744527,0.0532125,0.0715807,-0.0934516,0.145929,-0.124851,-0.0831808,0.0147247,0.0201035,0.0150681,-0.0128174,0.0147629,0.00782013,0.0202942,0.0162125,-9.97986,0.0128174,-0.00591278,0.0177765,0.00823975,0.0151443,0.00602722,0.0185013,0.00751495
2,1,10.0097,0.000915527,-0.000305176,-2.42562,0.0565965,-0.0735371,0.0556539,0.0718859,-0.0931465,0.146844,-0.125766,-0.0834859,0.00938416,0.022316,0.0128174,0.0152206,0.0146484,0.00923157,0.0226212,0.0164032,-9.97986,0.0134277,-0.00259399,0.0186157,0.00835419,0.014267,0.00854492,0.0162506,0.00541687
2,2,10.0097,0.000915527,-0.000305176,-2.42592,0.0572069,-0.0744527,0.0544332,0.072191,-0.0913154,0.146234,-0.124851,-0.0819601,0.01091,0.0239182,0.0159073,0.0376129,0.0129318,0.00671387,0.0174332,0.0159836,-9.97986,0.0147247,-0.0069046,0.0162125,0.00434875,0.0160217,0.0063324,0.0175476,0.00705719
2,3,10.0097,0.00152588,0,-2.42653,0.0544603,-0.0744527,0.0529073,0.0557115,-0.0946723,0.145624,-0.126072,-0.0825704,0.0105667,0.0239563,0.0169754,0.0224686,0.0144196,0.00812531,0.019989,0.017662,-9.97986,0.0141525,-0.00144958,0.0142288,0.0120163,0.0182724,0.00358582,0.0147629,0.00911713
2,4,7.92714,0.000305176,-0.00305176,-2.42592,0.0559862,-0.075063,0.0535176,0.0221422,-0.0977241,0.147455,-0.128208,-0.0819601,0.00923157,0.0238037,0.0178909,0.0130081,0.016098,0.00587463,0.0212097,0.0190735,-9.97986,0.0133133,-0.0043869,0.0149536,0.0109482,0.0171661,0.00198364,0.0135803,0.00434875
2,5,-0.375471,0.000915527,-0.00442505,-2.4247,0.0572069,-0.0744527,0.0529073,-0.0147841,-0.0977241,0.145318,-0.130649,-0.0831808,0.00968933,0.0245667,0.0178146,0.00484467,0.0172806,0.00907898,0.0198746,0.014534,-9.97986,0.0130081,-0.00640869,0.0139236,0.00686646,0.0191498,-0.000267029,0.0157928,0.00827789
2,6,-7.62645,0.00244141,-0.00473022,-2.42623,0.0565965,-0.0741475,0.0538228,-0.0169203,-0.0977241,0.145624,-0.129429,-0.0819601,0.0088501,0.0266266,0.0136948,0.0043869,0.0160599,0.00888824,0.025177,0.0177002,-9.97986,0.0143814,-0.00522614,0.0149536,0.00934601,0.0182343,-0.00106812,0.0153351,0.00427246
2,7,-9.99003,0.0012207,-0.0038147,-2.42348,0.0565965,-0.0723164,0.0562642,0.0154283,-0.0903999,0.147149,-0.128208,-0.0798238,0.0102997,0.026474,0.0201416,0.00804901,0.0164032,0.00881195,0.021019,0.0160599,-9.97986,0.0154877,-0.00320435,0.00759125,0.00995636,-0.00862122,-0.000724792,0.0173569,0.0069809
2,8,-9.99003,0.0012207,-0.00106812,-2.4247,0.0553758,-0.0735371,0.0568746,0.0493029,-0.0897895,0.147455,-0.127292,-0.0804342,0.0128937,0.0268555,0.0215912,0.0148392,0.0196457,0.0126266,0.0231934,0.0173569,-9.97986,0.0171661,-0.00450134,0.0129318,0.00934601,-0.00732422,-0.000915527,0.0182724,0.00804901
2,9,-9.99003,0.0012207,0,-2.42623,0.0559862,-0.075063,0.0553487,0.0621202,-0.0916206,0.146234,-0.125461,-0.0822652,0.0110245,0.0271606,0.021019,0.00865936,0.0163269,0.00743866,0.0230026,0.0160217,-9.97986,0.0130081,-7.62939e-005,0.0153732,0.0113678,-0.00545502,-0.00118256,0.0197601,0.0075531
3,0,-9.99003,-0.000305176,0,-2.42684,0.0547655,-0.0741475,0.0535176,0.0633409,-0.0922309,0.144708,-0.125156,-0.0831808,0.00701904,0.025177,0.0225449,0.011673,0.0156784,0.00663757,0.0222015,0.0177383,-9.97986,0.010376,-0.0107193,0.013237,0.00457764,-0.0122833,-0.00171661,0.0127029,0.00339508
3,1,-9.99003,0.0012207,0.000152588,-2.42623,0.055681,-0.075063,0.0556539,0.0917223,-0.0882636,0.146539,-0.123935,-0.0822652,0.0136185,0.0286484,0.0268936,0.0270462,0.0170898,0.0115967,0.0210953,0.0163269,-9.97986,0.0166321,-0.00427246,0.0164413,0.0094986,0.0075531,0.00106812,0.0183105,0.00835419
3,2,-5.63884,0.00183105,0.00350952,-2.42806,0.0541551,-0.0747579,0.0553487,0.132311,-0.0882636,0.143182,-0.12302,-0.0847066,0.00831604,0.0266647,0.0289917,0.0149536,0.0152206,0.00709534,0.016098,0.0174713,-9.97986,0.0161362,-0.00770569,0.0125504,0.00682831,0.0130844,-0.00507355,0.0139999,0.00656128
3,3,1.55293,0.0012207,0.00411987,-2.42684,0.0541551,-0.0753682,0.0547383,0.150621,-0.088874,0.142877,-0.120273,-0.0850118,0.010376,0.0234985,0.0373459,0.0122452,0.0185776,0.00907898,0.0220108,0.016098,-9.97986,0.0117874,-0.00469208,0.0103378,0.00701904,0.0128937,-0.00518799,0.0148773,0.00720978
3,4,8.84755,0.000610352,0.00366211,-2.42959,0.0541551,-0.0762837,0.0529073,0.147264,-0.0910102,0.144098,-0.122104,-0.0868429,0.0108337,0.0256729,0.033493,0.0122452,0.0218201,0.00686646,0.0203705,0.0214386,-9.97986,0.0170135,-0.0063324,0.0165176,0.00923157,0.0151062,-0.00610352,0.0141144,0.00823975
3,5,10.0097,0.00152588,0.00259399,-2.43142,0.0523241,-0.0778096,0.0501607,0.111559,-0.0965034,0.141656,-0.125461,-0.0889791,0.0115204,0.0198746,0.0348663,0.00865936,0.0177002,0.00583649,0.0185013,0.0157547,-9.97986,0.0180435,-0.00415802,0.0138855,0.0105286,0.0170898,-0.00476837,0.0152206,0.0094986
3,6,10.0097,0,0.000915527,-2.42928,0.0535448,-0.0759786,0.0498555,0.0865343,-0.0977241,0.142877,-0.125766,-0.0892843,0.00743866,0.019989,0.0272369,0.00892639,0.016098,0.00873566,0.0229645,0.014534,-9.97986,0.0170135,-0.00656128,0.0125885,0.00637054,0.0156403,-0.0126266,0.0143433,0.0062561
3,7,10.0097,-0.000915527,0,-2.42928,0.0550706,-0.0762837,0.0516866,0.077379,-0.0955879,0.145013,-0.126072,-0.0874532,0.00816345,0.014267,0.0202179,-0.00934601,0.0162125,0.0111771,0.0222397,0.0234604,-9.97986,0.0159454,-0.00225067,0.01091,0.00724792,0.0156403,-0.0197983,0.0154114,0.00644684
3,8,10.0097,-0.000610352,0.000152588,-2.42806,0.0553758,-0.0747579,0.0522969,0.0728014,-0.0931465,0.144403,-0.126072,-0.085317,0.0144958,0.0173187,0.0165939,-0.00656128,0.017128,0.00984192,0.022316,0.0252533,-9.97986,0.0188446,-0.00167847,0.0158691,0.00587463,0.0163269,-0.0138474,0.0151825,0.00930786
3,9,10.0097,-0.000305176,0.000457764,-2.42714,0.0550706,-0.075063,0.0522969,0.072191,-0.0937568,0.144403,-0.126377,-0.0847066,0.0094223,0.0178528,0.00709534,0.0172806,0.0153732,0.010643,0.0206757,0.0247955,-9.97986,0.0153351,-0.000228882,0.0157166,0.00976563,0.0174332,-0.0128174,0.0159073,0.00938416
4,0,10.0097,0.000610352,0.000305176,-2.42776,0.0559862,-0.0753682,0.0538228,0.07036,-0.0934516,0.145318,-0.126377,-0.0834859,0.00778198,0.0198364,0.00526428,0.02388,0.0147247,0.0101471,0.0222015,0.0252151,-9.97986,0.0149918,-0.00366211,0.0112152,0.00656128,0.0139618,-0.00305176,0.0148392,0.00514984
4,1,10.0097,-0.000305176,0.000152588,-2.42592,0.0565965,-0.0744527,0.0544332,0.0728014,-0.0922309,0.146234,-0.125156,-0.0828756,0.0123215,0.0190353,0.00793457,0.0232697,0.0165558,0.00747681,0.0251007,0.0232697,-9.97986,0.0143051,-0.00175476,0.0172043,0.00923157,0.0157928,0.00419617,0.0138855,0.00732422
4,2,10.0097,0,0,-2.4244,0.0572069,-0.0747579,0.0538228,0.0715807,-0.0925361,0.145624,-0.12363,-0.0816549,0.0131607,0.0260925,0.0075531,0.0233459,0.0158691,0.00900269,0.0226593,0.0203705,-9.97986,0.0100708,0.000762939,0.0156784,0.00785828,0.0140381,0.00541687,0.0130844,0.00602722
4,3,10.0097,-0.0012207,0.000762939,-2.42653,0.0565965,-0.0741475,0.0538228,0.0541857,-0.0946723,0.145624,-0.126072,-0.0828756,0.0100327,0.0252914,0.00961304,0.014534,0.0137329,0.0124741,0.0240326,0.0193024,-9.97986,0.0157547,0.00156403,0.0147629,0.0069809,0.0206375,0.00274658,0.016098,0.0069046
4,4,7.87953,0.000610352,-0.00305176,-2.42776,0.0553758,-0.073232,0.0526021,0.0224474,-0.0961982,0.146234,-0.127903,-0.0825704,0.0123215,0.0268936,0.0172424,0.0186539,0.0188446,0.00984192,0.0238419,0.0240707,-9.97986,0.0136566,0.000228882,0.0103378,0.00808716,0.0182724,-0.00102997,0.0191116,0.0063324
4,5,-0.346174,-0.000610352,-0.00518799,-2.4244,0.0569017,-0.0738423,0.0532125,-0.0147841,-0.0986396,0.14776,-0.129734,-0.0819601,0.00988007,0.0392532,0.0149155,0.019989,0.0176239,0.00724792,0.0242233,0.0172424,-9.97986,0.0151825,0.00183105,0.0155258,0.00862122,0.0189972,-0.00240326,0.0160599,0.00549316
4,6,-7.60325,0.000915527,-0.00457764,-2.42531,0.0565965,-0.0747579,0.0538228,-0.0175306,-0.0974189,0.146234,-0.129734,-0.0822652,0.00953674,0.0481033,0.0269318,0.0144196,0.0193024,0.00980377,0.0242233,0.0175095,-9.97986,0.0185394,0.00152588,0.0166702,0.00999451,0.0175095,0.00183105,0.0128937,0.0043869
4,7,-9.99003,0.00213623,-0.00335693,-2.42379,0.0572069,-0.073232,0.0565694,0.016649,-0.0897895,0.147149,-0.127598,-0.080129,0.00900269,0.0403595,0.0256348,0.0107956,0.015831,0.00984192,0.0197601,0.0143051,-9.97986,0.0130463,0.00362396,0.013504,0.00564575,-0.00923157,0.00598907,0.0156021,0.00556946
4,8,-9.99003,-0.000610352,-0.00106812,-2.4244,0.0553758,-0.0723164,0.0565694,0.0489977,-0.0894843,0.145318,-0.126072,-0.0810445,0.0118637,0.021286,0.0253296,0.0094986,0.0160217,0.00988007,0.0222397,0.0122833,-9.97986,0.0154877,0.00133514,0.0127411,0.00545502,-0.00740051,0.00782013,0.0147629,0.00312805
4,9,-9.99003,0.00183105,0.000152588,-2.42592,0.0547655,-0.0738423,0.0556539,0.0602892,-0.0922309,0.145624,-0.126072,-0.0825704,0.0133133,0.0114822,0.0304794,0.00854492,0.016861,0.00919342,0.0243759,0.00812531,-9.97986,0.0159836,0.00232697,0.0123978,0.00923157,-0.00717163,0.0111008,0.0141907,0.00675201
5,0,-9.99003,0.000915527,0.000457764,-2.42745,0.055681,-0.0747579,0.0544332,0.0648668,-0.090705,0.145318,-0.126377,-0.0837911,0.00823975,0.0115967,0.0277328,0.00469208,0.0137329,0.00888824,0.0232697,0.00297546,-9.97986,0.0151062,0.00461578,0.0138474,0.00480652,-0.00648499,0.00892639,0.0151443,0.00358582
5,1,-9.99003,0.00213623,0.000152588,-2.42562,0.0553758,-0.0741475,0.0565694,0.0911119,-0.0879585,0.145318,-0.12302,-0.0828756,0.00873566,0.0206375,0.0297928,0.00595093,0.0168991,0.0127792,0.022316,0.00476837,-9.97986,0.0131607,0.000648499,0.0125122,0.00473022,0.00495911,0.00759125,0.0162125,0.00663757
5,2,-5.56926,0.000915527,0.00350952,-2.42684,0.0538499,-0.0762837,0.0550435,0.1317,-0.0894843,0.144098,-0.12302,-0.0840963,0.0037384,0.0191116,0.0279236,0.0139999,0.0157547,0.0102615,0.0249863,0.00797272,-9.97986,0.0202942,0.00324249,0.0162125,0.00801086,0.0182343,0.00701904,0.0128174,0.00797272
5,3,1.69026,-0.000610352,0.00411987,-2.42776,0.0535448,-0.0756734,0.0535176,0.150011,-0.0894843,0.143792,-0.121799,-0.0850118,0.0103378,0.0215149,0.0276947,0.0105286,0.0212479,0.00751495,0.0214767,0.0110245,-9.97986,0.0180435,3.8147e-005,0.0186539,0.0063324,0.0193787,0.00396729,0.014534,0.00389099
5,4,8.99312,0.000610352,0.00442505,-2.42806,0.0535448,-0.0753682,0.0522969,0.149095,-0.0913154,0.142572,-0.122104,-0.0859274,0.0122833,0.0211334,0.0247574,0.0104523,0.0154877,0.00881195,0.016861,0.0175095,-9.97986,0.0150299,0.00267029,0.0159073,0.00671387,0.0157928,0.0030899,0.0165176,0.0044632
5,5,10.0097,0.00244141,0.00274658,-2.43233,0.0532396,-0.0762837,0.0498555,0.111864,-0.0971137,0.142267,-0.125156,-0.0886739,0.00762939,0.0235367,0.0199509,0.0123596,0.0131226,0.0123215,0.0240707,0.0151825,-9.97986,0.0148392,0.00156403,0.018692,0.00740051,0.017128,0.00457764,0.0167465,0.00614166
5,6,10.0097,-0.000610352,0.000457764,-2.4305,0.0535448,-0.0759786,0.0492452,0.0865343,-0.0971137,0.141656,-0.126682,-0.0880636,0.0105286,0.0187302,0.0165939,0.00953674,0.0171661,0.0111389,0.0220108,0.0177002,-9.97986,0.0119781,0.00110626,0.014534,0.00415802,0.0179672,0.00404358,0.0139618,0.00484467
5,7,10.0097,-0.000305176,-0.000457764,-2.42837,0.0550706,-0.0756734,0.0513814,0.0785997,-0.0961982,0.143182,-0.126682,-0.0868429,0.0104523,0.0178909,0.0144958,0.0105286,0.0199509,0.0134659,0.0224686,0.0175476,-9.97986,0.0128555,0.00640869,0.0143051,0.0044632,0.0170517,-0.00488281,0.0165176,0.00606537
5,8,10.0097,0.000305176,0.000152588,-2.42806,0.055681,-0.0756734,0.0529073,0.0728014,-0.0946723,0.144403,-0.126072,-0.0865377,0.0104523,0.0152206,0.00991821,0.0094986,0.0165558,0.0110245,0.0233841,0.019455,-9.97986,0.0130463,0.00385284,0.0156403,0.00682831,0.0157166,-0.00713348,0.0190353,0.00488281
5,9,10.0097,0.000610352,0.000305176,-2.42745,0.0541551,-0.0744527,0.0526021,0.0715807,-0.0937568,0.144403,-0.125156,-0.0834859,0.00671387,0.0223923,0.0025177,0.0108719,0.0186539,0.00869751,0.0255203,0.0207138,-9.97986,0.0149155,0.0037384,0.0172806,0.00965118,0.0175476,-0.00385284,0.0175095,0.00595093
6,0,10.0097,0.000305176,0.000457764,-2.42745,0.0547655,-0.0747579,0.0519917,0.0715807,-0.0925361,0.145013,-0.125766,-0.0837911,0.00961304,0.0247955,0.00377655,0.00789642,0.017395,0.0139999,0.0249863,0.017395,-9.97986,0.0141144,-0.0012207,0.00923157,0.00469208,0.0149918,-0.00640869,0.0157928,0.00659943
6,1,10.0097,0.000305176,0.000152588,-2.4247,0.055681,-0.0744527,0.0544332,0.0712755,-0.0922309,0.145929,-0.124546,-0.0825704,0.00919342,0.0212479,-0.00137329,0.00804901,0.0183487,0.00911713,0.0248718,0.0165939,-9.97986,0.0136566,0.00183105,0.016861,0.0088501,0.0196457,0.000114441,0.0173569,0.00801086
6,2,10.0097,0.000610352,0.000305176,-2.4244,0.0565965,-0.0729268,0.0553487,0.0715807,-0.0916206,0.146234,-0.12302,-0.0828756,0.011673,0.0202942,0.00125885,0.00640869,0.0155258,0.0130463,0.0205612,0.0219727,-9.97986,0.0123596,-0.00244141,0.016098,0.00244141,0.0167084,0.000228882,0.0170517,0.00637054
6,3,10.0097,0.00152588,0,-2.42684,0.055681,-0.0738423,0.054128,0.0551012,-0.094062,0.145013,-0.125461,-0.0831808,0.0124359,0.0213242,0.00640869,0.00556946,0.016098,0.0094223,0.0180054,0.0188065,-9.97986,0.0118256,-0.00240326,0.0127792,0.00530243,0.0194168,-0.00293732,0.0175858,0.00740051
6,4,7.9363,-0.000915527,-0.00350952,-2.42623,0.0550706,-0.0741475,0.0529073,0.0224474,-0.0965034,0.145624,-0.126987,-0.0825704,0.0137329,0.0188065,0.00793457,0.00751495,0.0190353,0.00991821,0.0213242,0.0177765,-9.97986,0.0143814,-0.000839233,0.014801,0.00591278,0.019722,-0.0025177,0.0138092,0.00667572
6,5,-0.379133,0.0012207,-0.00488281,-2.42531,0.0572069,-0.0741475,0.0544332,-0.0150892,-0.0983344,0.146844,-0.130039,-0.0825704,0.0129318,0.0219345,0.0141144,0.0101471,0.0176239,0.0104904,0.0172806,0.0187302,-9.97986,0.0162125,-0.00228882,0.0138092,0.00602722,0.0136185,-0.00335693,0.0170135,0.00679016
6,6,-7.59715,0.000610352,-0.00488281,-2.42562,0.0578172,-0.0744527,0.0544332,-0.0175306,-0.095893,0.146539,-0.129123,-0.0816549,0.00892639,0.0205231,0.0127411,0.00621796,0.0170898,0.012207,0.0156784,0.0177383,-9.97986,0.0132751,0.000228882,0.0120544,0.00724792,0.0101471,-0.00408173,0.0171661,0.00602722
6,7,-9.99003,-0.000305176,-0.00366211,-2.42348,0.0559862,-0.0741475,0.0556539,0.0157335,-0.0919257,0.145624,-0.127292,-0.080129,0.0143051,0.0216293,0.0146103,0.011673,0.0189209,0.0109482,0.0189972,0.0203323,-9.97986,0.0150681,-0.00232697,0.0165939,0.00709534,-0.00938416,-0.00411987,0.0115204,0.00694275
6,8,-9.99003,0.000305176,-0.00137329,-2.42592,0.0565965,-0.0741475,0.0562642,0.0486925,-0.0894843,0.148065,-0.127598,-0.0807394,0.00915527,0.0201797,0.0188828,0.00995636,0.0212097,0.00907898,0.0154495,0.0138092,-9.97986,0.0165939,-0.00350952,0.0138092,0.00865936,-0.00934601,-0.000343323,0.0143051,0.00896454
6,9,-9.99003,-0.000305176,0,-2.42531,0.0553758,-0.073232,0.0556539,0.0608995,-0.0910102,0.145318,-0.125461,-0.0822652,0.0114059,0.0221634,0.0170517,0.00671387,0.0175858,0.0144196,0.018158,0.0185013,-9.97986,0.0127029,-0.00198364,0.0111389,0.00484467,-0.0069809,-0.00137329,0.0166321,0.00789642
7,0,-9.99003,0,0,-2.42653,0.0553758,-0.075063,0.0550435,0.065172,-0.0916206,0.145624,-0.125766,-0.0831808,0.00873566,0.0276566,0.0141907,0.0104904,0.0129318,0.0137711,0.019455,0.0172043,-9.97986,0.019722,-0.000114441,0.0143814,0.00514984,-0.00896454,0.00396729,0.0159073,0.0087738
7,1,-9.99003,0.00183105,0.000305176,-2.42623,0.055681,-0.0738423,0.055959,0.0941637,-0.0879585,0.145318,-0.123935,-0.0828756,0.0117111,0.0261307,0.0172806,0.0130081,0.0196075,0.0139999,0.0251389,0.0162888,-9.97986,0.0126648,0.00175476,0.0143814,0.00785828,0.00804901,0.00320435,0.0199127,0.00682831
7,2,-5.5009,0.000610352,0.00274658,-2.42562,0.0538499,-0.075063,0.0544332,0.132005,-0.0870429,0.144708,-0.12241,-0.0840963,0.00961304,0.0216293,0.0189972,0.0115204,0.0153351,0.01091,0.0207138,0.0177383,-9.97986,0.0182343,-0.00247955,0.0157166,0.00717163,0.017128,0.00743866,0.01297,0.00827789
7,3,1.75496,0.00183105,0.00411987,-2.42776,0.0544603,-0.0753682,0.0535176,0.150316,-0.0885688,0.145318,-0.121189,-0.0850118,0.010643,0.0227737,0.0231171,0.00926971,0.014534,0.0115204,0.022049,0.0197601,-9.97986,0.00801086,-0.00255585,0.0175095,0.00957489,0.0139236,0.0038147,0.0166321,0.00724792
7,4,9.05232,0.000610352,0.00427246,-2.42928,0.0538499,-0.0756734,0.0529073,0.146959,-0.0919257,0.143487,-0.121494,-0.0856222,0.0122833,0.0255203,0.0158691,0.00961304,0.0132751,0.00648499,0.0189972,0.016861,-9.97986,0.0150681,-0.00293732,0.0136566,0.00720978,0.0169754,0.00411987,0.0167847,0.0056076
7,5,10.0097,0.00152588,0.00213623,-2.43142,0.0520189,-0.0768941,0.0495503,0.111254,-0.0971137,0.142877,-0.126072,-0.0889791,0.0125122,0.031929,0.0156403,0.0140762,0.012207,0.0104904,0.0230026,0.0190353,-9.97986,0.0122833,-0.00396729,0.0110245,0.0069809,0.0165939,0.0025177,0.0175476,0.00541687
7,6,10.0097,0.000610352,0.000915527,-2.42989,0.0538499,-0.0768941,0.050771,0.0856188,-0.0971137,0.143182,-0.125461,-0.0880636,0.0100327,0.0218964,0.0167084,0.0141525,0.0124359,0.00865936,0.0243378,0.0191879,-9.97986,0.0127029,-0.00106812,0.0102234,0.00514984,0.0182343,0.000724792,0.0179672,0.00259399
7,7,10.0097,-0.000610352,0,-2.42928,0.0529344,-0.0744527,0.0516866,0.0761583,-0.0961982,0.142877,-0.126072,-0.0871481,0.0127029,0.0248718,0.0204849,0.0102615,0.0149155,0.0102615,0.0294876,0.0207901,-9.97986,0.011673,0.000228882,0.0157547,0.00297546,0.0196838,-0.00133514,0.0160599,0.0050354
7,8,10.0097,0.000915527,-0.000305176,-2.42776,0.0550706,-0.0744527,0.0522969,0.0743273,-0.0937568,0.143792,-0.126987,-0.0850118,0.00843048,0.0255203,0.0154495,0.00804901,0.0156021,0.0108719,0.0334549,0.0178528,-9.97986,0.014534,-0.00640869,0.0111771,0.00526428,0.0202179,-0.00411987,0.0162125,0.00732422
7,9,10.0097,0.0012207,0,-2.42684,0.0562914,-0.075063,0.0535176,0.0718859,-0.0922309,0.144098,-0.126377,-0.0847066,0.00785828,0.0263214,0.0182724,0.00919342,0.0171661,0.0128937,0.0298309,0.0210571,-9.97986,0.014534,-0.00461578,0.0112534,0.0115204,0.0202179,-0.00442505,0.0183868,0.00370026
8,0,10.0097,0.000610352,0.000305176,-2.42684,0.0538499,-0.0747579,0.0535176,0.0709703,-0.0934516,0.145929,-0.127292,-0.0847066,0.00946045,0.0328064,0.0204468,0.0142288,0.0151062,0.0138092,0.026474,0.0194931,-9.97986,0.0159454,-0.00228882,0.0151443,0.00614166,0.0171661,-0.00389099,0.0183487,0.00782013
8,1,10.0097,0.000610352,0.000305176,-2.42501,0.055681,-0.073232,0.0556539,0.0715807,-0.0922309,0.146234,-0.124851,-0.0831808,0.0105286,0.0259399,0.0170135,0.0119019,0.0124359,0.01194,0.0273132,0.0244141,-9.97986,0.0131226,-0.0063324,0.0115204,0.00717163,0.0201797,-0.00511169,0.0164032,0.00492096
8,2,10.0097,0.00152588,0.000152588,-2.42623,0.055681,-0.0738423,0.0553487,0.0712755,-0.0922309,0.146234,-0.125461,-0.0822652,0.0102615,0.0244141,0.0159073,0.00595093,0.0143051,0.0107193,0.0234985,0.0233841,-9.97986,0.0179291,-0.0056839,0.0151825,0.00675201,0.0167465,-0.00720978,0.0140381,0.00282288
8,3,10.0097,-0.000610352,-0.000152588,-2.42745,0.0559862,-0.0744527,0.0522969,0.052965,-0.0937568,0.147455,-0.126377,-0.0822652,0.01091,0.0297928,0.0167084,0.00232697,0.0152969,0.00804901,0.0191498,0.0188065,-9.97986,0.0143051,-0.00988007,0.0141525,0.00434875,0.0162506,-0.0147629,0.0180817,0.00415802
8,4,7.73244,0.00244141,-0.00289917,-2.42653,0.0565965,-0.0735371,0.0538228,0.021837,-0.0968086,0.145013,-0.127598,-0.0822652,0.00728607,0.0305939,0.0223541,-0.00171661,0.012207,0.00804901,0.0221634,0.0217819,-9.97986,0.014267,-0.00465393,0.0108719,0.00457764,0.0188828,-0.01297,0.0151825,0.00724792
8,5,-0.518293,-0.000610352,-0.00488281,-2.42501,0.0572069,-0.0735371,0.0532125,-0.0126478,-0.0980293,0.146234,-0.130344,-0.0822652,0.0115204,0.0284576,0.0214767,-0.00583649,0.0215149,0.0151825,0.0256348,0.02388,-9.97986,0.0178146,-0.00175476,0.0134277,0.00835419,0.0183105,-0.0122833,0.0161362,0.00671387
8,6,-7.72044,0.000305176,-0.00427246,-2.42623,0.0581224,-0.0747579,0.0535176,-0.0169203,-0.0980293,0.147149,-0.130649,-0.0810445,0.00980377,0.0311661,0.0183487,-0.0063324,0.019722,0.0125122,0.0198746,0.0216293,-9.97986,0.0139999,-0.00537872,0.0159454,0.00450134,0.0156403,-0.0157547,0.018692,0.00694275
8,7,-9.99003,0.00274658,-0.00350952,-2.42379,0.0572069,-0.073232,0.0562642,0.0175646,-0.0919257,0.146844,-0.126682,-0.0798238,0.00747681,0.0227737,0.0167847,-0.00576019,0.0175095,0.0107574,0.0229263,0.0258255,-9.97986,0.0156403,-0.000228882,0.0150299,0.0050354,-0.0103378,-0.0038147,0.0134659,0.00469208
8,8,-9.99003,-0.000915527,-0.00137329,-2.4244,0.0553758,-0.0738423,0.055959,0.0505236,-0.0903999,0.146539,-0.125156,-0.0813497,0.0138092,0.0195313,0.0237274,0.0124741,0.0171661,0.0110245,0.0235748,0.0236893,-9.97986,0.0137711,0.00144958,0.0152969,0.00637054,-0.00976563,-0.00087738,0.0158691,0.00404358
8,9,-9.99003,-0.000915527,-0.000457764,-2.42623,0.0547655,-0.075063,0.0556539,0.0596788,-0.0903999,0.145624,-0.126987,-0.0825704,0.0107956,0.0153732,0.0228882,0.0347137,0.0139999,0.0113678,0.0203705,0.0141144,-9.97986,0.0139236,-0.00301361,0.0107574,0.00392914,-0.0056076,-0.000648499,0.0182724,0.00751495
9,0,-9.99003,-0.0012207,0.000152588,-2.42562,0.0559862,-0.0741475,0.054128,0.0639513,-0.0916206,0.145013,-0.126377,-0.0828756,0.0114059,0.0223541,0.0253677,0.0344086,0.0159073,0.0100708,0.0210953,0.0133514,-9.97986,0.0129318,-0.00499725,0.01297,0.0101089,-0.00904083,0.00499725,0.0149918,0.00518799
9,1,-9.99003,-0.000915527,0.000152588,-2.42531,0.0559862,-0.0744527,0.0565694,0.0941637,-0.0876533,0.14776,-0.12363,-0.0828756,0.00923157,0.031662,0.0295639,0.0294495,0.0227737,0.0117493,0.0263596,0.0172806,-9.97986,0.0123596,0.00114441,0.0121307,0.00518799,0.0138092,0.00644684,0.0186157,0.00514984
9,2,-5.46245,0,0.00350952,-2.42745,0.0541551,-0.0753682,0.054128,0.1317,-0.0879585,0.143182,-0.12302,-0.0844015,0.0114059,0.0259781,0.034256,0.0205231,0.0174332,0.00835419,0.0216675,0.0183487,-9.97986,0.0177383,-0.000305176,0.0141525,0.0069809,0.0153351,0.00442505,0.0161362,0.00354767
9,3,1.80745,0.00213623,0.0038147,-2.42806,0.0544603,-0.0759786,0.0535176,0.150011,-0.088874,0.143792,-0.121799,-0.085317,0.0143433,0.028801,0.0355911,-0.00694275,0.0190353,0.0136566,0.020752,0.0122833,-9.97986,0.0175476,-0.00114441,0.0170898,0.00576019,0.0151443,-0.00102997,0.0147629,0.00400543
9,4,9.13747,0.00213623,0.00457764,-2.42928,0.0541551,-0.0759786,0.0529073,0.146654,-0.0910102,0.144403,-0.122715,-0.0859274,0.0139236,0.0233841,0.0359726,-0.0156021,0.0170135,0.00652313,0.0191879,0.00431061,-9.97986,0.0140762,0.000114441,0.0143433,0.00621796,0.0175095,-0.00499725,0.0140762,0.00583649
9,5,10.0097,-0.000915527,0.00259399,-2.43203,0.0526292,-0.0765889,0.0498555,0.111254,-0.095893,0.141961,-0.125156,-0.0895895,0.0152206,0.0285339,0.0333786,0.00202179,0.0165939,0.0138474,0.0190735,0.0110626,-9.97986,0.0163269,0.00225067,0.0141144,0.0075531,0.0145721,-0.00328064,0.0175858,0.00556946
9,6,10.0097,0.000305176,0.000915527,-2.43081,0.0550706,-0.0768941,0.0495503,0.0862291,-0.0971137,0.142877,-0.126072,-0.0877584,0.0139618,0.0288391,0.0256348,0.00728607,0.019455,0.0122833,0.0192261,0.0142288,-9.97986,0.00991821,0.00286102,0.0133133,0.0082016,0.0200272,-0.00110626,0.0172806,0.00457764
9,7,10.0097,0.000610352,0.000305176,-2.42837,0.0535448,-0.0762837,0.0519917,0.075548,-0.0946723,0.144098,-0.126377,-0.0868429,0.0123215,0.0271225,0.0221252,0.011673,0.0179291,0.0130081,0.0162888,0.0157547,-9.97986,0.0140762,0.000305176,0.0140381,0.0101471,0.0159073,-0.00511169,0.0146866,0.0031662
9,8,10.0097,-0.000305176,-0.000152588,-2.42989,0.0550706,-0.0756734,0.0529073,0.0731066,-0.0937568,0.145013,-0.126072,-0.085317,0.0160599,0.0270081,0.0156021,0.0191879,0.0209045,0.0169373,0.0229645,0.0180435,-9.97986,0.0178909,0.00160217,0.0154114,0.00671387,0.0180817,-0.00267029,0.0185394,0.00694275
9,9,10.0097,0.0012207,-0.000152588,-2.42776,0.0547655,-0.0747579,0.0538228,0.072191,-0.0928413,0.145318,-0.126377,-0.085317,0.0111008,0.0217056,0.0153732,0.0107574,0.0142288,0.00904083,0.0174332,0.0156021,-9.97986,0.0138092,0.00198364,0.0151062,0.00648499,0.0185013,-0.00320435,0.0150681,0.00324249
10,0,10.0097,0.000305176,0,-2.42714,0.0547655,-0.0744527,0.054128,0.0706652,-0.0934516,0.145318,-0.126072,-0.0837911,0.0144196,0.0252151,0.0203705,0.0151062,0.0167465,0.0139618,0.0185394,0.0207901,-9.97986,0.0188065,0.00465393,0.0133514,0.0069046,0.0141525,-0.00183105,0.0144958,0.0069046
10,1,10.0097,0.00213623,0.000305176,-2.42562,0.055681,-0.075063,0.0550435,0.0718859,-0.0916206,0.146234,-0.124546,-0.0819601,0.00923157,0.0265884,0.0216675,0.0121689,0.0165176,0.0110626,0.0180435,0.0180817,-9.97986,0.0183105,0.00366211,0.016861,0.0087738,0.0150299,-0.00213623,0.0167084,0.00614166
10,2,10.0097,-0.000915527,-0.000610352,-2.42653,0.0559862,-0.0747579,0.0550435,0.0706652,-0.0922309,0.146234,-0.124241,-0.0813497,0.00801086,0.0247955,0.0140762,0.0154495,0.0138474,0.00858307,0.0153351,0.0152206,-9.97986,0.0130463,0.00343323,0.0145721,0.00679016,0.0102615,-0.00377655,0.0154877,0.00183105
10,3,10.0097,0.0012207,0,-2.42684,0.0565965,-0.075063,0.0538228,0.0544908,-0.0949775,0.145624,-0.126682,-0.0822652,0.0102615,0.0245667,0.00743866,0.018959,0.0172043,0.0144196,0.021019,0.0164795,-9.97986,0.0167847,0.00152588,0.0134659,0.00576019,0.0179672,-0.00331879,0.0131989,0.00476837
10,4,7.84993,0.00152588,-0.00305176,-2.42562,0.0565965,-0.0741475,0.0535176,0.0221422,-0.0974189,0.147455,-0.127292,-0.0828756,0.00713348,0.0227356,0.00984192,0.0157166,0.0165939,0.00988007,0.0133133,0.0139236,-9.97986,0.0165558,-0.00469208,0.0136566,0.00980377,0.0170517,-0.00392914,0.0141907,0.00595093
10,5,-0.481062,0.000610352,-0.0050354,-2.42531,0.0565965,-0.0738423,0.0532125,-0.0135634,-0.0977241,0.145624,-0.130039,-0.0822652,0.00968933,0.0249863,0.0108719,0.00488281,0.0178909,0.0112534,0.0138092,0.0169754,-9.97986,0.0123978,-0.00247955,0.0160217,0.00862122,0.0133514,-0.00221252,0.0188065,0.00434875
10,6,-7.69053,0.0012207,-0.00350952,-2.42623,0.0559862,-0.0741475,0.0538228,-0.0160048,-0.0971137,0.146234,-0.130039,-0.0810445,0.0129318,0.0276566,0.0164413,0.00408173,0.0185013,0.00934601,0.018158,0.0205994,-9.97986,0.0120544,-0.00255585,0.0141525,0.0118637,0.0167847,-0.00652313,0.0170135,0.00709534
10,7,-9.99003,0.00152588,-0.00335693,-2.4244,0.0559862,-0.0729268,0.0565694,0.0160387,-0.0913154,0.146234,-0.127598,-0.080129,0.0118256,0.021286,0.0193405,0.0205612,0.0199127,0.00518799,0.0171661,0.0239944,-9.97986,0.0180054,0.000839233,0.0117493,0.00831604,-0.010643,-0.00484467,0.015564,0.00537872
10,8,-9.99003,0.000610352,-0.00106812,-2.42623,0.055681,-0.0735371,0.0550435,0.0493029,-0.088874,0.146234,-0.126072,-0.0804342,0.0148773,0.0237274,0.0209045,0.0240326,0.0183105,0.00968933,0.0141907,0.0217819,-9.97986,0.0167465,-0.000762939,0.0108719,0.00415802,-0.00762939,-0.000839233,0.0161743,0.00572205
10,9,-9.99003,0,0.000305176,-2.42592,0.0559862,-0.0747579,0.0550435,0.0596788,-0.0919257,0.144403,-0.126682,-0.0813497,0.0101852,0.024147,0.0203705,0.0236511,0.0144577,0.0128937,0.0167465,0.0150681,-9.97986,0.0151443,-0.00362396,0.0127792,0.00816345,-0.0094986,0.000457764,0.0169754,0.00511169
11,0,-9.99003,0.000610352,-0.000305176,-2.42776,0.0562914,-0.0747579,0.0547383,0.065172,-0.0900947,0.144403,-0.126377,-0.0828756,0.00843048,0.0181961,0.0205612,0.00701904,0.0172806,0.00972748,0.0203705,0.0193024,-9.97986,0.0141525,-0.00576019,0.0167847,0.00572205,-0.00965118,-0.000915527,0.0160217,0.00701904
11,1,-9.99003,-0.000610352,-0.000610352,-2.42531,0.0559862,-0.075063,0.0562642,0.0950792,-0.0885688,0.146539,-0.122715,-0.0831808,0.00659943,0.0246811,0.0216293,-0.0111389,0.0193024,0.0115967,0.0170135,0.0187683,-9.97986,0.0127029,-0.00202179,0.0144958,0.00648499,0.0104904,0.00164032,0.0178146,0.00522614
11,2,-5.49022,0,0.00350952,-2.42623,0.0535448,-0.0768941,0.0556539,0.1317,-0.0882636,0.145013,-0.12241,-0.0828756,0.00843048,0.0258255,0.0186157,-0.0201416,0.0196838,0.00953674,0.0164413,0.0160599,-9.97986,0.00968933,-0.00549316,0.0157166,0.00476837,0.0154495,0.00347137,0.014801,0.00762939
11,3,1.73329,-0.000305176,0.00442505,-2.42837,0.0538499,-0.0756734,0.0535176,0.150316,-0.0882636,0.143182,-0.121494,-0.0862325,0.0106049,0.0284958,0.0188446,-0.0176239,0.0162888,0.0131226,0.0232315,0.0208282,-9.97986,0.0157928,-0.00255585,0.0154114,0.00667572,0.0147629,0.00175476,0.016861,0.00732422
11,4,9.09444,-0.000610352,0.00442505,-2.42867,0.0532396,-0.0756734,0.0526021,0.146654,-0.0916206,0.144403,-0.122104,-0.0856222,0.00961304,0.0168991,0.019722,-0.0130844,0.0170898,0.0141525,0.0245667,0.0180435,-9.97986,0.0133896,-0.00232697,0.0124359,0.00385284,0.0153351,-0.00236511,0.0154495,0.00652313
11,5,10.0097,0.000305176,0.00274658,-2.4305,0.0535448,-0.0775044,0.0492452,0.111864,-0.0961982,0.142877,-0.124851,-0.0874532,0.00881195,0.0156021,0.0196457,-0.00175476,0.0167084,0.00740051,0.0242996,0.0143051,-9.97986,0.0150299,-0.00137329,0.0179291,0.00701904,0.0206375,-0.000152588,0.0167465,0.0087738
11,6,10.0097,0.000915527,0,-2.43111,0.0520189,-0.0771993,0.050771,0.0850084,-0.0977241,0.142877,-0.126072,-0.0880636,0.00995636,0.0269699,0.0210571,0.0249481,0.0240707,0.0115585,0.0283051,0.0193024,-9.97986,0.0150299,-0.00301361,0.0138092,0.00637054,0.0183868,-0.00663757,0.0165558,0.00759125
11,7,10.0097,0.0012207,-0.000457764,-2.42837,0.0544603,-0.0753682,0.050771,0.0764635,-0.0952827,0.142572,-0.126377,-0.0865377,0.0101471,0.0275803,0.0188446,0.0330734,0.017662,0.0082016,0.0286865,0.018158,-9.97986,0.0139999,-3.8147e-005,0.0154495,0.00564575,0.0175476,-0.0050354,0.0139999,0.00747681
11,8,10.0097,-0.000305176,0.000152588,-2.42714,0.0535448,-0.0747579,0.0538228,0.0728014,-0.0937568,0.144098,-0.126072,-0.0868429,0.00984192,0.0235748,0.0173569,0.0306702,0.0162125,0.0087738,0.0284195,0.0247574,-9.97986,0.00934601,-0.00144958,0.0162888,0.00617981,0.0177383,-0.00427246,0.0143051,0.00549316
11,9,10.0097,-0.000305176,0.000762939,-2.42684,0.055681,-0.0744527,0.054128,0.072191,-0.0946723,0.144708,-0.125766,-0.085317,0.0130844,0.0209427,0.00957489,0.0367737,0.0180435,0.0188065,0.029335,0.0228119,-9.97986,0.0162888,0.001297,0.0153351,0.0094223,0.0193787,-0.00534058,0.0159454,0.00663757
12,0,10.0097,0.0012207,0.000915527,-2.42684,0.055681,-0.0747579,0.0529073,0.0709703,-0.0934516,0.145318,-0.126377,-0.0844015,0.00934601,0.0173569,0.0143051,0.031929,0.0124359,0.0115204,0.0232697,0.0254059,-9.97986,0.0152206,0.000991821,0.0183487,0.00507355,0.0169754,-0.00385284,0.0160217,0.00526428
12,1,10.0097,0,-0.000457764,-2.42531,0.0550706,-0.073232,0.0544332,0.0718859,-0.0928413,0.145624,-0.125156,-0.0831808,0.0125122,0.0217056,0.0193024,0.0365829,0.017662,0.0177765,0.022049,0.0237656,-9.97986,0.0160599,-0.001297,0.0153351,0.00816345,0.0151062,-0.000419617,0.0174713,0.00621796
12,2,10.0097,-0.000305176,0,-2.4244,0.0553758,-0.0747579,0.0544332,0.0718859,-0.0903999,0.145929,-0.124241,-0.0813497,0.0111771,0.0232315,0.0143814,0.0376892,0.0147247,0.00801086,0.0205612,0.0169373,-9.97986,0.016098,0.00370026,0.0162125,0.00343323,0.0126648,-0.00549316,0.018959,0.00518799
12,3,10.0097,0.000610352,0.000305176,-2.42623,0.0565965,-0.0735371,0.0532125,0.0541857,-0.0943672,0.145013,-0.126682,-0.0828756,0.00995636,0.0265121,0.0184631,0.042572,0.0189972,0.0113297,0.0233078,0.0201416,-9.97986,0.0209045,0.00759125,0.0185776,0.00507355,0.0170898,-0.0063324,0.0156403,0.00762939
12,4,7.71962,0,-0.00259399,-2.42684,0.0559862,-0.0741475,0.0529073,0.0230577,-0.0955879,0.14776,-0.127598,-0.0831808,0.0120926,0.0247192,0.0173187,0.0350571,0.0175476,0.00869751,0.0218201,0.0143051,-9.97986,0.0140381,0.00595093,0.0161743,0.00232697,0.0171661,-0.00343323,0.0159836,0.00522614
12,5,-0.578718,0.000305176,-0.00411987,-2.42501,0.0572069,-0.0741475,0.054128,-0.0144789,-0.0977241,0.146539,-0.129123,-0.0816549,0.00637054,0.0227356,0.0205231,0.0230026,0.0120163,0.00915527,0.019722,0.0138092,-9.97986,0.0138474,-0.000610352,0.0135803,0.00484467,0.0129318,-0.00434875,0.0148392,0.0069809
12,6,-7.80162,-0.000305176,-0.00442505,-2.42562,0.0562914,-0.0735371,0.0529073,-0.0175306,-0.0961982,0.14776,-0.129734,-0.0822652,0.00812531,0.0341415,0.0207138,0.0118637,0.0186539,0.0130844,0.0236511,0.0142288,-9.97986,0.0185394,-0.00286102,0.0115204,0.0063324,0.0170517,-0.00522614,0.0154114,0.0105286
12,7,-9.99003,0,-0.0038147,-2.4244,0.0559862,-0.0738423,0.055959,0.0175646,-0.0919257,0.147455,-0.126682,-0.0798238,0.00797272,0.0228119,0.0171661,0.00556946,0.0160599,0.00900269,0.0215912,0.0154114,-9.97986,0.0175476,-0.00606537,0.0170135,0.00667572,-0.00816345,-0.00289917,0.0177383,0.00526428
12,8,-9.99003,-0.000305176,-0.00152588,-2.4247,0.0559862,-0.0744527,0.0568746,0.0493029,-0.0900947,0.145929,-0.125766,-0.0813497,0.0102997,0.00278473,0.0108337,-0.000190735,0.0166702,0.0121307,0.0271225,0.01297,-9.97986,0.0186539,-0.000228882,0.0181961,0.0088501,-0.0100327,-0.00434875,0.0130463,0.00656128
12,9,-9.99003,0.000610352,0.000152588,-2.42684,0.0553758,-0.0747579,0.0553487,0.0612047,-0.0919257,0.145929,-0.124851,-0.0822652,0.00747681,0.0156403,0.00919342,0.00717163,0.0196838,0.00976563,0.0243759,0.016098,-9.97986,0.0150681,-0.00278473,0.0156021,0.00709534,-0.0121689,-0.00705719,0.0154114,0.00694275
13,0,-9.99003,0,0,-2.42684,0.0553758,-0.0756734,0.0538228,0.0645616,-0.0913154,0.145318,-0.126682,-0.0828756,0.0110626,0.0158691,0.00579834,0.0178909,0.0190353,0.00675201,0.0258636,0.0193024,-9.97986,0.0141907,0.0019455,0.0143051,0.00766754,-0.0102997,-0.0111389,0.0152969,0.00705719
13,1,-9.99003,-0.000305176,0.000457764,-2.4244,0.0553758,-0.0741475,0.0574849,0.0941637,-0.0870429,0.146234,-0.12363,-0.0825704,0.00919342,0.018425,0.00797272,0.0188828,0.0172806,0.0088501,0.0250626,0.0192642,-9.97986,0.0178909,-0.00297546,0.0137711,0.00545502,0.0063324,-0.00663757,0.0164795,0.0114441
13,2,-5.52745,0.000610352,0.00320435,-2.42714,0.0547655,-0.0762837,0.0538228,0.1317,-0.088874,0.144098,-0.122715,-0.0840963,0.00919342,0.021286,0.0122452,0.00572205,0.0143814,0.0117111,0.0234985,0.0157547,-9.97986,0.0192261,-0.00259399,0.0159454,0.00564575,0.0127411,-0.00808716,0.0138855,0.00595093
13,3,1.75191,0.000305176,0.00442505,-2.42776,0.0547655,-0.0756734,0.0535176,0.151232,-0.0879585,0.143792,-0.121189,-0.085317,0.00930786,0.0174332,0.0159073,-0.00328064,0.0172043,0.0117111,0.02388,0.0179672,-9.97986,0.0143433,-0.00324249,0.0128174,0.00606537,0.0105286,-0.00640869,0.0146484,0.00541687
13,4,9.07155,-0.000610352,0.00366211,-2.42959,0.0529344,-0.0768941,0.0526021,0.146959,-0.0913154,0.144708,-0.122104,-0.0862325,0.0101089,0.0215912,0.0127792,0.0128174,0.0162888,0.0139618,0.0203705,0.0201416,-9.97986,0.0173187,-0.00137329,0.0147629,0.0105667,0.0157547,0.000419617,0.0169754,0.00793457
13,5,10.0097,0.000915527,0.00259399,-2.4302,0.0532396,-0.0765889,0.050771,0.111864,-0.0968086,0.143487,-0.126072,-0.0889791,0.0102234,0.0212097,0.0173187,0.0466537,0.0187683,0.0139999,0.0225067,0.0186157,-9.97986,0.0133133,-0.00423431,0.0111389,0.00591278,0.0161362,0.00514984,0.0165176,0.00751495
13,6,10.0097,-0.000610352,0.000610352,-2.42959,0.0538499,-0.0759786,0.050771,0.0865343,-0.0971137,0.143182,-0.126987,-0.0877584,0.0118256,0.0221252,0.0139236,0.0383759,0.0181961,0.00778198,0.0211334,0.0170517,-9.97986,0.0116348,-0.00141144,0.0170898,0.00858307,0.0186539,0.00732422,0.0151062,0.00488281
13,7,10.0097,0.000610352,0.000305176,-2.42928,0.0550706,-0.0744527,0.0516866,0.0770738,-0.0949775,0.143487,-0.126377,-0.0868429,0.00911713,0.0263596,0.019455,0.0247192,0.015564,0.0063324,0.0198746,0.0181961,-9.97986,0.0149918,-0.00564575,0.0135422,0.010643,0.0138474,0.00793457,0.0141144,0.00598907
13,8,10.0097,0.000305176,-0.000305176,-2.42745,0.0544603,-0.0747579,0.0532125,0.0728014,-0.0946723,0.144098,-0.126682,-0.0859274,0.0130463,0.0248337,0.0215149,0.0163651,0.0142288,0.00995636,0.0247574,0.0178528,-9.97986,0.0138092,-0.00457764,0.00923157,0.0101471,0.0168991,0.00305176,0.0215912,0.00892639
13,9,10.0097,0.000915527,-0.000152588,-2.42776,0.055681,-0.0753682,0.0535176,0.0728014,-0.0934516,0.144403,-0.125461,-0.0847066,0.0178528,0.0273514,0.0202179,0.0113297,0.0175476,0.0105286,0.0191116,0.0223923,-9.97986,0.0151443,-0.00377655,0.0146103,0.00770569,0.0177765,0.00247955,0.018692,0.00480652
14,0,10.0097,0.000610352,0.000152588,-2.42745,0.0569017,-0.0744527,0.0532125,0.0715807,-0.0934516,0.144708,-0.126682,-0.0850118,0.0127411,0.0297928,0.0183105,0.0128174,0.0167847,0.00972748,0.0238037,0.0202942,-9.97986,0.0172424,0.000534058,0.0174332,0.00728607,0.0193787,-0.000572205,0.0202179,0.00892639
14,1,10.0097,-0.000305176,0.000457764,-2.42562,0.0553758,-0.0735371,0.0526021,0.0694445,-0.0913154,0.145624,-0.124851,-0.0828756,0.00846863,0.0230408,0.0204086,0.00522614,0.0159073,0.0102997,0.0190735,0.0144196,-9.97986,0.0179672,-0.00759125,0.01297,0.00686646,0.0128937,-0.00209808,0.0144196,0.00492096
14,2,10.0097,0.000915527,0.000305176,-2.42623,0.0565965,-0.0741475,0.0544332,0.0718859,-0.0916206,0.146234,-0.123935,-0.0810445,0.0125122,0.0271606,0.0238037,0.0136948,0.0194168,0.0122452,0.0167465,0.0167084,-9.97986,0.0147629,-0.00198364,0.0166702,0.00843048,0.0153351,-0.00301361,0.0191879,0.00770569
14,3,10.0097,-0.000305176,-0.000305176,-2.42501,0.0562914,-0.075063,0.0529073,0.0535753,-0.0952827,0.145013,-0.126377,-0.0834859,0.014801,0.0266266,0.0231934,0.016098,0.0192642,0.00751495,0.017395,0.0149536,-9.97986,0.0146866,-0.00118256,0.0149918,0.00587463,0.0193787,-0.00614166,0.0152206,0.00701904
14,4,7.67263,0.000610352,-0.00305176,-2.42623,0.055681,-0.0735371,0.0535176,0.0209215,-0.0955879,0.145624,-0.126987,-0.0822652,0.0146484,0.0282669,0.0208282,0.0131607,0.0189972,0.0104523,0.016098,0.0149155,-9.97986,0.016098,-0.00335693,0.0105286,0.00614166,0.0147629,-0.00591278,0.0128174,0.00732422
14,5,-0.647993,0.000305176,-0.0050354,-2.42623,0.0562914,-0.0726216,0.0532125,-0.0150892,-0.0971137,0.146539,-0.130039,-0.0813497,0.0130081,0.0313187,0.0216293,0.0121689,0.0148392,0.00980377,0.0180435,0.0189209,-9.97986,0.0153351,0.00217438,0.0143051,0.00629425,0.0146484,-0.0101471,0.0161743,0.00686646
14,6,-7.88585,-0.000305176,-0.0050354,-2.42592,0.0575121,-0.0735371,0.0544332,-0.0172255,-0.0949775,0.146844,-0.130344,-0.0816549,0.00984192,0.0284958,0.0203323,0.00816345,0.0204086,0.0141144,0.0185013,0.0165558,-9.97986,0.0120544,-0.0043869,0.0141907,0.00526428,0.0160599,-0.0147247,0.0193787,0.0069809
14,7,-9.99003,0.00183105,-0.00442505,-2.42409,0.0569017,-0.0726216,0.0571797,0.0169542,-0.0913154,0.147455,-0.127292,-0.080129,0.00907898,0.0283813,0.021553,0.00808716,0.0172806,0.0131607,0.0180054,0.0206757,-9.97986,0.011673,0.00164032,0.0162506,0.00278473,-0.0109482,-0.0153732,0.017128,0.00572205
14,8,-9.99003,0.00183105,-0.000915527,-2.4244,0.0569017,-0.0747579,0.0553487,0.0483873,-0.0900947,0.146234,-0.126072,-0.0798238,0.0082016,0.0154495,0.018158,0.00873566,0.0191116,0.0112534,0.0215149,0.0150299,-9.97986,0.0167465,-0.00701904,0.0137711,0.00404358,-0.0124741,-0.0109482,0.0139999,0.0075531
14,9,-9.99003,0,-0.000152588,-2.42562,0.0538499,-0.0747579,0.055959,0.059984,-0.0913154,0.145013,-0.126072,-0.0822652,0.0127411,0.00980377,0.0133514,0.00602722,0.0175476,0.0121689,0.0191879,0.0210953,-9.97986,0.0136948,-0.00267029,0.0148773,0.00835419,-0.00778198,-0.0117874,0.0167847,0.0069809
15,0,-9.99003,0.000305176,-0.000305176,-2.42623,0.0550706,-0.075063,0.0550435,0.0654772,-0.0928413,0.145318,-0.125766,-0.0828756,0.0094986,0.00862122,0.014534,0.00675201,0.0163651,0.0082016,0.0197983,0.0165558,-9.97986,0.0136185,7.62939e-005,0.0125885,0.00347137,-0.00915527,-0.00934601,0.0157166,0.011673
15,1,-9.99003,-0.0012207,0.000152588,-2.4244,0.0550706,-0.0744527,0.055959,0.0950792,-0.0873481,0.146844,-0.124546,-0.0828756,0.0113297,0.0136185,0.0188065,0.00774384,0.0151443,0.0115967,0.0265121,0.0204468,-9.97986,0.0163269,-0.00205994,0.0138092,0.00366211,0.00915527,-0.00335693,0.0175858,0.00759125
15,2,-5.5363,0.000610352,0.00411987,-2.42776,0.0538499,-0.0759786,0.054128,0.132616,-0.0879585,0.144708,-0.12302,-0.085317,0.0152588,0.0201797,0.0222778,0.00793457,0.0200653,0.0132751,0.0290298,0.0186157,-9.97986,0.0236511,0.00549316,0.0173187,0.00865936,0.0208664,0.00038147,0.0250626,0.0094223
15,3,1.76381,-0.000610352,0.00350952,-2.42745,0.0535448,-0.0753682,0.0538228,0.147569,-0.0885688,0.143487,-0.121494,-0.085317,0.00671387,0.0154114,0.0150681,0.001297,0.0144577,0.00610352,0.023613,0.0138092,-9.97986,0.0128555,-0.00652313,0.0102615,0.000572205,0.0100327,-0.00988007,0.0112915,0.000419617
15,4,9.06575,0.000610352,0.00442505,-2.42837,0.0529344,-0.0747579,0.0535176,0.146349,-0.0910102,0.143792,-0.122104,-0.0862325,0.0136566,0.0206757,0.0225067,0.00675201,0.0202942,0.0115585,0.0259399,0.0189209,-9.97986,0.0151825,-0.00160217,0.0201035,0.00827789,0.0214767,-0.00350952,0.0165939,0.00530243
15,5,10.0097,0.000305176,0.00274658,-2.43142,0.0532396,-0.0775044,0.0498555,0.112474,-0.0961982,0.143487,-0.124851,-0.0883688,0.0152206,0.0229645,0.0213623,0.00572205,0.014534,0.0044632,0.0194931,0.0146484,-9.97986,0.0157166,0.000190735,0.0127029,0.00751495,0.0199127,-0.00217438,0.0156021,0.00541687
15,6,10.0097,0.000305176,0.000457764,-2.43081,0.0535448,-0.0756734,0.0498555,0.0871447,-0.0977241,0.142267,-0.126682,-0.0886739,0.0106049,0.0199127,0.0195313,0.00553131,0.0132751,0.00453949,0.021286,0.0170517,-9.97986,0.0159836,-0.00305176,0.011673,0.00907898,0.0147247,-0.00335693,0.0164413,0.00484467
15,7,10.0097,-0.000610352,0.000152588,-2.42806,0.0550706,-0.075063,0.050771,0.0770738,-0.0961982,0.143487,-0.126377,-0.0871481,0.0144577,0.016098,0.0246429,0.00320435,0.0207138,0.00926971,0.0196075,0.0183487,-9.97986,0.013504,-3.8147e-005,0.0101852,0.00835419,0.0162888,-0.000762939,0.0155258,0.00514984
15,8,10.0097,0.00152588,0,-2.42745,0.0544603,-0.0759786,0.0526021,0.0740221,-0.0946723,0.143792,-0.126072,-0.0856222,0.0104904,0.0161743,0.0230408,0.00522614,0.015564,0.0104904,0.0206757,0.0169373,-9.97986,0.0152206,-0.00133514,0.0117874,0.00354767,0.0165176,-0.00583649,0.0162125,0.00457764
15,9,10.0097,-0.000305176,-0.000305176,-2.42684,0.0544603,-0.0753682,0.0526021,0.0712755,-0.0928413,0.145318,-0.125766,-0.0847066,0.00881195,0.0208664,0.021553,-0.000724792,0.0154114,0.00869751,0.0202179,0.0169373,-9.97986,0.0178146,0.00183105,0.0154114,0.00801086,0.016098,0.0025177,0.0147247,0.00537872
16,0,10.0097,0.000610352,0.000152588,-2.42714,0.0559862,-0.0753682,0.0519917,0.072191,-0.0937568,0.144708,-0.125766,-0.0840963,0.0113678,0.021553,0.0222397,-0.00114441,0.0191879,0.0113297,0.0199509,0.0185013,-9.97986,0.0157547,-0.00312805,0.0201416,0.00762939,0.0144577,0.00843048,0.0177383,0.00778198
16,1,10.0097,0.000305176,0.000152588,-2.4247,0.0547655,-0.0738423,0.0547383,0.0706652,-0.0919257,0.145318,-0.123935,-0.0834859,0.00843048,0.0197983,0.0208282,-0.00205994,0.0187683,0.00648499,0.021019,0.0158691,-9.97986,0.0141525,0.00221252,0.0134659,0.00343323,0.0144196,0.00190735,0.0146484,0.00526428
16,2,10.0097,0.000305176,-0.000152588,-2.42562,0.0562914,-0.0744527,0.0544332,0.0715807,-0.0922309,0.14776,-0.124241,-0.0810445,0.0110245,0.0237274,0.0192261,0.000610352,0.018158,0.0101852,0.0205231,0.0164032,-9.97986,0.00801086,0.00171661,0.0143051,0.00480652,0.0170135,0.00270844,0.0169373,0.00392914
16,3,10.0097,0.000305176,-0.000610352,-2.42653,0.055681,-0.0744527,0.054128,0.0554064,-0.0931465,0.146844,-0.125766,-0.0828756,0.00659943,0.0234985,0.0230026,-0.0012207,0.0178528,0.011673,0.0222397,0.0173187,-9.97986,0.0132751,0.00293732,0.0115204,-0.000152588,0.0200653,-0.00614166,0.0110245,0.00743866
16,4,7.88381,-0.000305176,-0.00289917,-2.42714,0.0565965,-0.0735371,0.054128,0.0221422,-0.0961982,0.145318,-0.127598,-0.0831808,0.0111771,0.0254059,0.0221252,0.00038147,0.018158,0.013504,0.0251389,0.0204086,-9.97986,0.0174332,0.000495911,0.0130463,0.00415802,0.0167465,-0.0141907,0.0156021,0.00728607
16,5,-0.418501,0.00183105,-0.00518799,-2.42562,0.0569017,-0.0723164,0.0538228,-0.0135634,-0.09925,0.146844,-0.129429,-0.0825704,0.01091,0.0214386,0.0197601,0.00728607,0.0211334,0.00293732,0.0180817,0.0136566,-9.97986,0.0118637,-0.0019455,0.0101852,0.0044632,0.0125504,-0.0119019,0.0107193,0.00247955
16,6,-7.63225,-0.000610352,-0.00396729,-2.42531,0.0572069,-0.075063,0.0538228,-0.0166151,-0.0965034,0.147149,-0.130039,-0.0813497,0.0110245,0.0226212,0.0247574,0.0212479,0.0221634,0.0100708,0.0149918,0.0238419,-9.97986,0.0186157,-0.00152588,0.0149155,0.00804901,0.0152206,-0.00312805,0.014801,0.00434875
16,7,-9.99003,0.000610352,-0.00457764,-2.42409,0.0569017,-0.0729268,0.0568746,0.016649,-0.090705,0.145929,-0.126682,-0.0795187,0.00923157,0.0227737,0.0213242,0.021019,0.0203323,0.0107193,0.0167847,0.0175095,-9.97986,0.014267,0.00106812,0.0151443,0.0030899,-0.0117874,0.00366211,0.0195313,0.00671387
16,8,-9.99003,0.000915527,-0.0012207,-2.42501,0.0550706,-0.0735371,0.055959,0.0489977,-0.0916206,0.146539,-0.125156,-0.080129,0.0111771,0.0248718,0.0201797,0.0105667,0.0152969,0.00659943,0.015564,0.0162125,-9.97986,0.0121307,-0.000572205,0.0140381,0.00362396,-0.0139999,0.0111389,0.0124359,0.00713348
16,9,-9.99003,-0.000305176,0,-2.42684,0.0550706,-0.0753682,0.055959,0.0605944,-0.0903999,0.145624,-0.125461,-0.0816549,0.0116348,0.0271225,0.019455,0.010643,0.0172424,0.00583649,0.0200653,0.0151443,-9.97986,0.0162888,0.00247955,0.0153732,0.00392914,-0.00461578,0.0124741,0.0149536,0.00965118
17,0,-9.99003,0.00152588,-0.000457764,-2.42623,0.0547655,-0.0756734,0.0550435,0.0660875,-0.0925361,0.144098,-0.124851,-0.0825704,0.0125122,0.0205231,0.0237656,0.00915527,0.016861,0.00995636,0.022583,0.0191498,-9.97986,0.0163269,0.0018692,0.0127411,0.00659943,-0.00572205,0.0133514,0.0148773,0.00473022
17,1,-9.99003,0.00152588,0.000152588,-2.42501,0.0559862,-0.0756734,0.055959,0.0990465,-0.0873481,0.146234,-0.12302,-0.0822652,0.00732422,0.0246811,0.0153732,0.0110626,0.0122452,0.0100327,0.0261688,0.0152206,-9.97986,0.0193024,-0.00511169,0.00900269,0.00793457,0.0156784,0.00564575,0.0186539,0.00606537
17,2,-5.28361,-0.000915527,0.00259399,-2.42684,0.0550706,-0.0753682,0.0547383,0.132921,-0.0879585,0.144098,-0.12241,-0.0847066,0.00541687,0.0217438,0.0144958,0.00835419,0.0149918,0.0145721,0.0222778,0.0173187,-9.97986,0.0174713,-0.00152588,0.0143051,0.00495911,0.0156403,-0.00137329,0.0151062,0.0050354
17,3,2.03939,0.000610352,0.0038147,-2.42745,0.0535448,-0.075063,0.0547383,0.149095,-0.0879585,0.144403,-0.121494,-0.0856222,0.0088501,0.0145721,0.0145721,0.00770569,0.0185013,0.0120926,0.0251389,0.0191879,-9.97986,0.0159454,0.00118256,0.0138855,0.00396729,0.0178146,0.000610352,0.0172043,0.0082016
17,4,9.40816,0.000610352,0.00473022,-2.42989,0.0535448,-0.0762837,0.0519917,0.147569,-0.090705,0.145318,-0.121189,-0.0868429,0.0107574,0.0199127,0.0214767,0.0063324,0.0167465,0.00980377,0.0257111,0.0131989,-9.97986,0.0169754,0.000686646,0.0139618,0.00431061,0.0197601,-0.00087738,0.0149536,0.00587463
17,5,10.0097,-0.000915527,0.00198364,-2.42959,0.0529344,-0.0765889,0.0504659,0.109422,-0.0971137,0.142877,-0.125156,-0.0886739,0.0082016,0.0177383,0.019989,0.00423431,0.0209808,0.0107193,0.0255203,0.0144958,-9.97986,0.0171661,0.000267029,0.0110245,0.00736237,0.0188828,-0.00205994,0.0121307,0.00843048
17,6,10.0097,0.00274658,0.000762939,-2.43081,0.0547655,-0.0759786,0.050771,0.0847032,-0.0983344,0.142877,-0.127292,-0.0886739,0.0141907,0.0214386,0.0222397,0.00675201,0.0189972,0.00999451,0.0236511,0.0139618,-9.97986,0.014801,0.000839233,0.0127792,0.00400543,0.0192642,-0.00408173,0.018959,0.00789642
17,7,10.0097,0.000305176,0.000152588,-2.42867,0.0547655,-0.075063,0.050771,0.0767687,-0.0955879,0.143792,-0.125766,-0.0865377,0.00652313,0.0308228,0.0183487,0.00492096,0.0156403,0.0112915,0.0223541,0.0178909,-9.97986,0.0163651,-0.00263214,0.0123978,0.00350952,0.0169754,-0.0062561,0.015831,0.00793457
17,8,10.0097,0.00213623,-0.000457764,-2.42653,0.0553758,-0.0753682,0.0529073,0.0731066,-0.0949775,0.144708,-0.126072,-0.085317,0.0114822,0.0354767,0.0204468,0.00610352,0.0211334,0.0130844,0.0244522,0.0197601,-9.97986,0.0147247,-0.0038147,0.0156784,0.0082016,0.0179291,-0.00389099,0.0150681,0.00476837
17,9,10.0097,0.000305176,0.000152588,-2.42745,0.0559862,-0.0747579,0.0526021,0.0715807,-0.0919257,0.144708,-0.125766,-0.0844015,0.0101471,0.0322723,0.0194168,0.00961304,0.0207138,0.00854492,0.0233841,0.0187683,-9.97986,0.0156021,-0.000267029,0.0163651,0.00450134,0.0160599,-0.00213623,0.0159073,0.00835419
18,0,10.0097,-0.000915527,0.000457764,-2.42806,0.055681,-0.0747579,0.0526021,0.0715807,-0.0922309,0.144403,-0.126987,-0.0837911,0.0126266,0.027771,0.0207901,0.0110245,0.0168991,0.00801086,0.0231171,0.0173187,-9.97986,0.0164032,-0.000267029,0.0143433,0.00652313,0.0183868,-0.00602722,0.0169373,0.0044632
18,1,10.0097,0.00152588,0.000305176,-2.42592,0.0565965,-0.0738423,0.0547383,0.0709703,-0.0922309,0.146234,-0.125156,-0.0828756,0.0122833,0.0241089,0.016098,0.00762939,0.0162125,0.00972748,0.0219727,0.0189209,-9.97986,0.0131226,-0.00255585,0.0118256,0.00621796,0.0167847,-0.000114441,0.0174332,0.00743866
18,2,10.0097,0.000915527,0.000152588,-2.4244,0.0565965,-0.0738423,0.054128,0.0718859,-0.0922309,0.146539,-0.125156,-0.0816549,0.0136185,0.0250244,0.0179291,0.00404358,0.0177002,0.0124359,0.0238419,0.0165558,-9.97986,0.0188446,0.00087738,0.0104523,0.00415802,0.0208282,-0.00362396,0.0144958,0.00419617
18,3,10.0097,0,0.000610352,-2.42623,0.0550706,-0.0744527,0.054128,0.0551012,-0.0961982,0.146844,-0.126072,-0.0825704,0.00858307,0.0218582,0.0178528,0.0063324,0.0168991,0.00881195,0.0223541,0.0135422,-9.97986,0.0199509,0.00156403,0.0146484,0.0075531,0.0183868,-0.00434875,0.0201416,0.00473022
18,4,7.76692,0.000610352,-0.00274658,-2.42562,0.0562914,-0.0744527,0.0535176,0.0212267,-0.0968086,0.146539,-0.126682,-0.0828756,0.00766754,0.0218964,0.0151825,0.00751495,0.0153351,0.0108337,0.0214005,0.0134659,-9.97986,0.0144196,-0.00785828,0.0130463,0.00663757,0.0173569,-0.00850677,0.0182724,0.00419617
18,5,-0.623274,-0.000915527,-0.00488281,-2.42623,0.0575121,-0.0735371,0.0516866,-0.0135634,-0.0968086,0.147455,-0.129734,-0.0816549,0.011673,0.0248718,0.0159454,0.00541687,0.0176239,0.00938416,0.0201416,0.0173187,-9.97986,0.0148392,0.000228882,0.0123215,0.00724792,0.0200272,-0.00915527,0.0205231,0.00598907
18,6,-7.78148,0.00152588,-0.00457764,-2.42501,0.0578172,-0.0747579,0.054128,-0.0169203,-0.0971137,0.147149,-0.130954,-0.0825704,0.00961304,0.0249481,0.0172806,0.00926971,0.0176239,0.00827789,0.0243378,0.0172043,-9.97986,0.0134659,-0.00167847,0.00873566,0.00896454,0.0214386,-0.0102615,0.0175095,0.00659943
18,7,-9.99003,0.000305176,-0.0038147,-2.42409,0.0569017,-0.0741475,0.0580953,0.0169542,-0.090705,0.146844,-0.126987,-0.0795187,0.013237,0.0282669,0.0177765,0.01091,0.0173569,0.00732422,0.0262451,0.014801,-9.97986,0.010376,-0.00106812,0.0128937,0.00522614,-0.00766754,-0.00797272,0.0190353,0.0044632
18,8,-9.99003,-0.000610352,-0.00137329,-2.4247,0.0553758,-0.0738423,0.055959,0.0493029,-0.0897895,0.145013,-0.125461,-0.0804342,0.0106049,0.0249863,0.0204468,0.0112152,0.0112152,0.0118637,0.0220871,0.0188828,-9.97986,0.0157547,0.00141144,0.0169373,0.00991821,-0.00392914,-0.00537872,0.0138092,0.00617981
18,9,-9.99003,0.0012207,0.000305176,-2.42714,0.0541551,-0.0747579,0.0544332,0.0593737,-0.0913154,0.145624,-0.126072,-0.0819601,0.00946045,0.0229645,0.0163651,0.00774384,0.0130463,0.00812531,0.0228882,0.0178528,-9.97986,0.0183868,-0.00114441,0.00965118,0.00740051,-0.00629425,-0.00106812,0.0164795,0.00350952
19,0,-9.99003,0.0012207,0.000305176,-2.42653,0.0544603,-0.0741475,0.054128,0.0648668,-0.0922309,0.144708,-0.126987,-0.0828756,0.00652313,0.021553,0.0222778,0.0102234,0.01297,0.00869751,0.022583,0.0193787,-9.97986,0.0159454,-0.000724792,0.0133896,0.0069046,-0.0087738,0.00259399,0.0158691,0.00514984
19,1,-9.99003,0.00152588,0.000152588,-2.42562,0.0550706,-0.0747579,0.0565694,0.0969103,-0.0876533,0.145624,-0.12363,-0.0819601,0.00762939,0.025177,0.0197601,0.0147629,0.0146484,0.00988007,0.0236893,0.0140762,-9.97986,0.0138855,-0.00724792,0.0168991,0.00640869,0.0114441,0.00209808,0.015831,0.00576019
19,2,-5.36265,0,0.00320435,-2.42806,0.055681,-0.0756734,0.0550435,0.133226,-0.0885688,0.145929,-0.12302,-0.0844015,0.0117874,0.0257111,0.0218964,0.0146866,0.0167084,0.0105667,0.0268936,0.0285721,-9.97986,0.0159073,-0.000762939,0.0127792,0.0037384,0.0136185,-0.00282288,0.0153732,0.00759125
19,3,1.9811,0.000610352,0.00396729,-2.42745,0.0547655,-0.0759786,0.0532125,0.151232,-0.0882636,0.143792,-0.120884,-0.085317,0.0119781,0.0258255,0.0182724,0.013504,0.0166702,0.01091,0.0239182,0.025444,-9.97986,0.0113678,-0.00240326,0.0131607,0.00621796,0.014801,-0.00434875,0.0180817,0.00762939
19,4,9.31386,0.000610352,0.00473022,-2.42867,0.0544603,-0.0759786,0.0535176,0.146654,-0.0916206,0.143792,-0.12363,-0.0871481,0.0113678,0.0252914,0.0209808,0.0143433,0.0206375,0.0112915,0.0246048,0.0201035,-9.97986,0.0130844,0.000457764,0.0127029,0.00488281,0.0156403,-0.00411987,0.0157928,0.00507355
19,5,10.0097,-0.0012207,0.00213623,-2.4305,0.0535448,-0.0759786,0.0501607,0.110338,-0.0977241,0.141961,-0.126072,-0.0892843,0.0107574,0.0279999,0.0173187,0.0127029,0.0135422,0.00679016,0.0228882,0.0175476,-9.97986,0.0148773,-7.62939e-005,0.0156403,0.00667572,0.0150299,-0.00102997,0.0170517,0.00694275
19,6,10.0097,0.00183105,0.000915527,-2.43081,0.0547655,-0.0756734,0.0504659,0.0856188,-0.0977241,0.142877,-0.125766,-0.0880636,0.0125122,0.0268173,0.0215912,0.0137711,0.0207138,0.0171661,0.018692,0.0196457,-9.97986,0.0177765,-0.000953674,0.0149155,0.0110245,0.0180817,0.00675201,0.0164795,0.00888824
19,7,10.0097,-0.000610352,0,-2.42928,0.0544603,-0.0753682,0.0519917,0.077379,-0.095893,0.143792,-0.125766,-0.0877584,0.00896454,0.0230408,0.0177002,0.0126266,0.0163269,0.0109482,0.0179672,0.0159073,-9.97986,0.0141144,-0.00263214,0.0120163,0.00583649,0.0183487,0.000534058,0.0182343,0.00659943
19,8,10.0097,0.000915527,0,-2.42745,0.0541551,-0.0747579,0.0519917,0.0734117,-0.0934516,0.145013,-0.126682,-0.0856222,0.0108337,0.0252914,0.0186539,0.0166702,0.0172806,0.00709534,0.0191879,0.0147247,-9.97986,0.0124741,-0.00324249,0.0115204,0.00541687,0.0127029,0.00267029,0.0170517,0.00682831
19,9,10.0097,0.000610352,-0.000305176,-2.42745,0.0547655,-0.0747579,0.0529073,0.0715807,-0.0928413,0.145318,-0.126377,-0.0844015,0.0100327,0.0282288,0.0182724,0.0114822,0.0178909,0.0094986,0.0149918,0.014801,-9.97986,0.0138092,-0.00305176,0.0133133,0.00644684,0.0126266,-0.00102997,0.0180054,0.00572205
20,0,10.0097,-0.000305176,-0.000457764,-2.42684,0.0553758,-0.0747579,0.0538228,0.0700548,-0.0925361,0.144403,-0.125766,-0.0834859,0.00743866,0.0248718,0.0164795,0.0069809,0.0188065,0.00797272,0.014267,0.0127411,-9.97986,0.0112534,-0.00709534,0.0111008,0.00354767,0.0112152,-0.00156403,0.0178146,0.00789642
20,1,10.0097,-0.000305176,0.000457764,-2.42745,0.055681,-0.0738423,0.0538228,0.0709703,-0.0925361,0.145624,-0.125766,-0.0828756,0.0105667,0.0241852,0.0152206,0.00675201,0.0191498,0.0111771,0.0229645,0.017395,-9.97986,0.0125504,-0.00087738,0.00793457,0.00640869,0.0200272,-0.00202179,0.0162506,0.00747681
20,2,10.0097,0.0012207,0.000305176,-2.42592,0.055681,-0.0735371,0.0532125,0.0712755,-0.090705,0.146234,-0.12363,-0.0819601,0.0130844,0.0246048,0.0177765,0.00907898,0.0183105,0.00553131,0.0199127,0.0163651,-9.97986,0.0141525,-0.00434875,0.0151825,0.00576019,0.0175858,-0.00110626,0.0154114,0.00713348
20,3,10.0097,-0.00183105,0.000457764,-2.42653,0.0541551,-0.0738423,0.0529073,0.0535753,-0.0943672,0.144708,-0.126377,-0.0822652,0.0111008,0.0236511,0.0198364,0.0062561,0.0147247,0.0106812,0.0242996,0.014801,-9.97986,0.014534,-0.00408173,0.0127792,0.00762939,0.0146103,-0.00324249,0.0153351,0.00408173
20,4,7.79073,-0.000305176,-0.00244141,-2.42592,0.0565965,-0.0741475,0.0522969,0.021837,-0.0968086,0.147455,-0.127292,-0.0825704,0.0141144,0.0241089,0.0206375,0.0102234,0.0154877,0.00324249,0.02491,0.0156784,-9.97986,0.0137329,-0.0043869,0.0149536,0.00606537,0.018425,-0.00541687,0.0112152,0.00823975
20,5,-0.593672,0.00152588,-0.00457764,-2.42562,0.0569017,-0.0747579,0.054128,-0.0126478,-0.0989448,0.147455,-0.129123,-0.0819601,0.00846863,0.0274277,0.0246811,0.00415802,0.0159454,0.0163269,0.0199509,0.0123596,-9.97986,0.0125122,-0.00167847,0.013504,0.00713348,0.0175858,-0.00167847,0.0141525,0.00701904
20,6,-7.78148,0.000305176,-0.00488281,-2.42562,0.0562914,-0.073232,0.0529073,-0.0156996,-0.0955879,0.146844,-0.129734,-0.0819601,0.0094223,0.0294876,0.0233841,0.00610352,0.0177002,0.0114059,0.0252151,0.0167084,-9.97986,0.0157928,-0.00335693,0.0147247,0.0069046,0.0204468,-0.00530243,0.017128,0.00610352
20,7,-9.99003,0,-0.00335693,-2.42379,0.0572069,-0.0726216,0.055959,0.0163439,-0.090705,0.14837,-0.127903,-0.0795187,0.0127029,0.021553,0.0235748,0.0140762,0.0164032,0.0102997,0.0294113,0.0150681,-9.97986,0.015564,0.000152588,0.0171661,0.00888824,-0.00511169,-0.00350952,0.015564,0.0062561
20,8,-9.99003,0.000610352,-0.000915527,-2.42531,0.0547655,-0.075063,0.0556539,0.0489977,-0.0900947,0.147149,-0.126682,-0.0804342,0.0118637,0.0133133,0.0258636,0.0082016,0.0170135,0.0094223,0.0244904,0.0186157,-9.97986,0.0162125,-0.00556946,0.0107956,0.00953674,-0.00637054,-0.00175476,0.0179291,0.0075531
20,9,-9.99003,0.000610352,-0.000457764,-2.42562,0.0547655,-0.0738423,0.0550435,0.0605944,-0.0922309,0.144708,-0.126072,-0.0822652,0.00892639,0.0152969,0.0296783,0.00919342,0.0168228,0.0124359,0.0239944,0.0187683,-9.97986,0.0117493,-0.00484467,0.0113678,0.00549316,-0.00671387,-0.00293732,0.0152969,0.00637054
21,0,-9.99003,-0.000915527,0.000305176,-2.42562,0.0550706,-0.0756734,0.054128,0.065172,-0.0922309,0.144403,-0.126682,-0.0822652,0.00740051,0.0184631,0.0292969,0.00732422,0.0204849,0.0125885,0.0291443,0.0220871,-9.97986,0.016861,-0.00457764,0.0152206,0.00549316,-0.00595093,-0.00263214,0.0191116,0.00324249
21,1,-9.99003,0.0012207,0.000762939,-2.42501,0.0547655,-0.0735371,0.0547383,0.0996569,-0.0873481,0.146539,-0.124241,-0.0837911,0.0123215,0.02388,0.031929,0.00850677,0.0197601,0.0115585,0.0276184,0.0200272,-9.97986,0.0167084,-0.00419617,0.0124359,0.00587463,0.0179291,-0.00740051,0.0173187,0.00461578
21,2,-5.19633,-0.000305176,0.00350952,-2.42714,0.0547655,-0.0753682,0.0547383,0.132616,-0.088874,0.144098,-0.121494,-0.0847066,0.0123596,0.030098,0.0225449,0.00587463,0.0159454,0.0111389,0.0278473,0.0193024,-9.97986,0.0129318,-0.0025177,0.0154495,0.00888824,0.0185394,-0.00770569,0.0134277,0.00591278
21,3,2.12331,-0.000610352,0.00396729,-2.42714,0.0538499,-0.0747579,0.0538228,0.150926,-0.0897895,0.144403,-0.121494,-0.0850118,0.012207,0.0291824,0.0162125,0.00511169,0.0152588,0.00999451,0.0226212,0.0174713,-9.97986,0.0139236,-0.000572205,0.0168991,0.00740051,0.0199509,-0.00610352,0.0162506,0.00743866
21,4,9.46157,-0.00213623,0.00442505,-2.42867,0.0538499,-0.0765889,0.0532125,0.147875,-0.0916206,0.143487,-0.123325,-0.0862325,0.0135422,0.0323486,0.0117874,0.0125122,0.0161743,0.0094223,0.0232315,0.016861,-9.97986,0.0165558,-0.00293732,0.00869751,0.00545502,0.022316,-0.0131226,0.0127411,0.00556946
21,5,10.0097,-0.0012207,0.00167847,-2.4302,0.0529344,-0.0765889,0.0516866,0.109422,-0.0974189,0.142572,-0.125766,-0.0892843,0.00991821,0.0263596,0.00595093,0.0204468,0.018959,0.00850677,0.0232697,0.0170898,-9.97986,0.019722,-0.00232697,0.0136566,0.00724792,0.0234985,-0.00713348,0.0178909,0.00804901
21,6,10.0097,0,0.000305176,-2.42928,0.0538499,-0.0768941,0.0504659,0.0856188,-0.0971137,0.142877,-0.127292,-0.0883688,0.0106049,0.0234222,-0.000648499,0.0177765,0.0121689,0.00896454,0.0191879,0.017395,-9.97986,0.0140762,-0.00728607,0.0191116,0.00522614,0.0189972,-0.00213623,0.0165558,0.00576019
21,7,10.0097,-0.000305176,0,-2.42837,0.0550706,-0.0756734,0.0519917,0.0764635,-0.0955879,0.143182,-0.126682,-0.0871481,0.00904083,0.0284195,0.00240326,0.0133514,0.0130081,0.00980377,0.0246429,0.0192642,-9.97986,0.0152969,-0.00255585,0.0152588,0.0075531,0.017128,-0.00614166,0.0118256,0.00396729
21,8,10.0097,0.00152588,0.000305176,-2.42928,0.0535448,-0.0756734,0.0529073,0.072191,-0.094062,0.144098,-0.125766,-0.0856222,0.0140762,0.0244141,0.00236511,0.0144577,0.0181961,0.0100708,0.0222015,0.0175858,-9.97986,0.0131607,-0.00366211,0.0168991,0.00404358,0.0221252,-0.000305176,0.016098,0.00896454
21,9,10.0097,0.00183105,0.000457764,-2.42745,0.0553758,-0.0753682,0.0526021,0.0718859,-0.0937568,0.145013,-0.126072,-0.0859274,0.0136566,0.0204468,0.000915527,0.00900269,0.015831,0.00785828,0.0206375,0.019722,-9.97986,0.0128937,-0.00347137,0.0139999,0.0056839,0.0165939,-0.000572205,0.0128174,0.00717163
22,0,10.0097,0.000610352,0.000762939,-2.42714,0.0569017,-0.0762837,0.0535176,0.07036,-0.0934516,0.146234,-0.125461,-0.0834859,0.0127411,0.0236893,0.0112152,0.0104904,0.0191879,0.00747681,0.0200272,0.0179672,-9.97986,0.0123215,-0.00469208,0.0124741,0.00823975,0.0154495,0.000915527,0.0154877,0.00606537
22,1,10.0097,-0.000305176,0.000305176,-2.42653,0.0569017,-0.0744527,0.0532125,0.072191,-0.0919257,0.145318,-0.124546,-0.0825704,0.0120926,0.0202942,0.0158691,0.000724792,0.0140381,0.0127792,0.0197983,0.02491,-9.97986,0.0181961,-0.00320435,0.0142288,0.00797272,0.0148773,0.00759125,0.0195694,0.00549316
22,2,10.0097,0.00183105,-0.000305176,-2.4247,0.0562914,-0.0735371,0.054128,0.0718859,-0.0913154,0.146844,-0.124851,-0.0816549,0.0130081,0.0209427,0.020752,-0.00682831,0.0194168,0.013504,0.0248337,0.0233078,-9.97986,0.0130844,-0.00137329,0.0134659,0.00801086,0.0181198,0.00892639,0.0183105,0.00671387
22,3,10.0097,0.00183105,0.000305176,-2.42684,0.0553758,-0.0747579,0.0535176,0.0538805,-0.0949775,0.146844,-0.125766,-0.0828756,0.00862122,0.019455,0.0210953,-0.0292969,0.0189972,0.0114059,0.0224686,0.0254822,-9.97986,0.0136566,-0.00576019,0.0186157,0.00816345,0.0148392,0.00663757,0.0173187,0.00743866
22,4,7.77761,0.000305176,-0.00289917,-2.42653,0.0559862,-0.073232,0.0535176,0.0215319,-0.0961982,0.147455,-0.127903,-0.0825704,0.00965118,0.022049,0.0260925,-0.0323868,0.0127792,0.0108719,0.0149918,0.0225449,-9.97986,0.0149155,-0.00423431,0.0161362,0.00858307,0.0151825,0.00480652,0.0139236,0.00587463
22,5,-0.570173,0.000915527,-0.00473022,-2.42531,0.0559862,-0.0735371,0.0532125,-0.0144789,-0.0977241,0.147455,-0.129734,-0.0834859,0.0110245,0.0178909,0.0365448,-0.00255585,0.0179291,0.00976563,0.0199127,0.0234604,-9.97986,0.0180817,-0.00576019,0.0157547,0.0075531,0.0149536,-0.00102997,0.0149155,0.00553131
22,6,-7.7238,-0.000610352,-0.00534058,-2.4244,0.0569017,-0.0735371,0.0544332,-0.0166151,-0.0968086,0.146539,-0.129429,-0.0813497,0.0128555,0.0214767,0.0315475,0.0209427,0.0171661,0.00827789,0.018692,0.0229645,-9.97986,0.015564,-0.00404358,0.0151443,0.00724792,0.0182724,-0.00404358,0.0209045,0.00717163
22,7,-9.99003,0.000610352,-0.00350952,-2.42379,0.0572069,-0.073232,0.0562642,0.0151232,-0.090705,0.14776,-0.128208,-0.0798238,0.0105286,0.0233459,0.0396729,0.0284195,0.013504,0.00968933,0.0214386,0.0166321,-9.97986,0.0119781,-0.00190735,0.0175476,0.00656128,-0.00797272,-0.0075531,0.0149536,0.00423431
22,8,-9.99003,0.000915527,-0.000915527,-2.4247,0.0553758,-0.0741475,0.0556539,0.0483873,-0.0897895,0.146234,-0.126682,-0.0804342,0.0120544,0.0272751,0.0344849,0.0386047,0.0155258,0.0146484,0.0165558,0.0152206,-9.97986,0.0157928,-0.00389099,0.014534,0.00938416,-0.00968933,-0.00728607,0.0172424,0.00679016
22,9,-9.99003,0.000305176,0,-2.42684,0.0547655,-0.0747579,0.0550435,0.0615099,-0.0913154,0.145013,-0.125461,-0.0831808,0.00904083,0.0274658,0.0254059,0.0339508,0.0202942,0.00923157,0.0196838,0.0138092,-9.97986,0.0179291,0.00133514,0.0196075,0.00843048,-0.00743866,-0.0044632,0.0165558,0.00637054
23,0,-9.99003,0.000305176,0.000305176,-2.42653,0.0553758,-0.0747579,0.0547383,0.065172,-0.0916206,0.145929,-0.126072,-0.0825704,0.00938416,0.0265884,0.0117111,0.0268173,0.0169754,0.00671387,0.0180817,0.00858307,-9.97986,0.0123978,-0.00171661,0.014534,0.00465393,-0.0104141,-0.00621796,0.0169754,0.00804901
23,1,-9.99003,0,0.000457764,-2.42409,0.0550706,-0.0726216,0.0562642,0.101183,-0.0864326,0.144708,-0.12363,-0.0822652,0.0112915,0.026474,0.00621796,0.0245285,0.0188446,0.00720978,0.0164032,0.0120544,-9.97986,0.0177383,0.000305176,0.0148392,0.00709534,0.0150299,-0.00167847,0.0121689,0.00656128
23,2,-5.15239,-0.000305176,0.00442505,-2.42714,0.0553758,-0.0759786,0.0547383,0.134142,-0.0885688,0.143792,-0.122715,-0.0847066,0.0128937,0.0228882,-0.00125885,0.021286,0.0196457,0.0129318,0.0196838,0.0123215,-9.97986,0.0147629,-0.00484467,0.015564,0.00526428,0.0202179,-0.00171661,0.0148392,0.00572205
23,3,2.20601,0.000610352,0.00457764,-2.42745,0.0538499,-0.0765889,0.0538228,0.150926,-0.088874,0.144403,-0.121189,-0.0859274,0.00961304,0.0260162,-0.00480652,0.0149155,0.0157547,0.00808716,0.0164413,0.0111008,-9.97986,0.0119019,0.0018692,0.0143051,0.00602722,0.016098,-0.00400543,0.0131989,0.00656128
23,4,9.58272,-0.000305176,0.0050354,-2.42806,0.0535448,-0.0753682,0.0519917,0.145738,-0.0903999,0.142572,-0.122104,-0.0862325,0.01091,0.0274658,0.00244141,0.025444,0.0176239,0.0117493,0.0159836,0.0175858,-9.97986,0.0144577,0.00125885,0.0137329,0.00770569,0.0178909,-0.00156403,0.0152588,0.00579834
23,5,10.0097,0.000610352,0.00167847,-2.4305,0.0532396,-0.0759786,0.050771,0.108507,-0.0968086,0.144098,-0.124546,-0.0886739,0.0135803,0.0253677,0.00843048,0.0268555,0.0140762,0.0104523,0.0172424,0.0122452,-9.97986,0.0144958,-7.62939e-005,0.0151443,0.00549316,0.0155258,-0.00720978,0.0121689,0.00442505
23,6,10.0097,0.000610352,0.000610352,-2.4305,0.0529344,-0.0759786,0.050771,0.0828722,-0.0965034,0.143487,-0.126682,-0.0883688,0.0112152,0.0278854,0.0116348,0.0251007,0.0145721,0.00911713,0.0190353,0.0141144,-9.97986,0.0127411,0.00106812,0.0172424,0.00671387,0.0151062,-0.00205994,0.0143051,0.00579834
23,7,10.0097,0.00183105,0.000152588,-2.42776,0.0547655,-0.0759786,0.0510762,0.0758531,-0.0955879,0.143792,-0.127598,-0.0877584,0.00896454,0.0257492,0.0128555,0.0212479,0.0170898,0.00797272,0.0251007,0.0157547,-9.97986,0.0123596,-0.00114441,0.0131989,0.00591278,0.0184631,-0.00331879,0.0144196,0.00282288
23,8,10.0097,0,0,-2.42684,0.0550706,-0.0747579,0.0532125,0.072191,-0.0949775,0.143792,-0.126682,-0.0865377,0.00900269,0.0249481,0.0154114,0.0230026,0.0168991,0.0139236,0.0276947,0.0204849,-9.97986,0.0134659,0.00244141,0.0139618,0.00434875,0.0201416,-0.00255585,0.011673,0.00442505
23,9,10.0097,-0.000305176,0.000305176,-2.42684,0.0544603,-0.0753682,0.0529073,0.0718859,-0.0934516,0.144708,-0.126682,-0.0847066,0.0094986,0.0260162,0.0143433,0.0156784,0.0153732,0.011673,0.0293732,0.0203323,-9.97986,0.0149536,-0.00114441,0.0147247,0.0056076,0.0202179,-0.00896454,0.0176239,0.00610352
24,0,10.0097,0.000610352,0.000152588,-2.42776,0.0538499,-0.0744527,0.0532125,0.0706652,-0.094062,0.145624,-0.126072,-0.0847066,0.0122452,0.022049,0.0180054,0.0165558,0.0172043,0.0104523,0.0268173,0.0146484,-9.97986,0.0139618,0.00556946,0.0144958,0.00301361,0.0178909,-0.0082016,0.0159454,0.00461578
24,1,10.0097,0.000915527,-0.000152588,-2.42531,0.0572069,-0.0741475,0.054128,0.0728014,-0.0925361,0.146539,-0.124241,-0.0819601,0.00900269,0.0178528,0.0223541,0.0177765,0.0194168,0.00907898,0.0244522,0.0166321,-9.97986,0.017395,0.00167847,0.0101471,0.00614166,0.0204086,-0.00228882,0.0138855,0.00724792
24,2,10.0097,0.000305176,0.000152588,-2.42562,0.0569017,-0.0738423,0.0535176,0.0709703,-0.0922309,0.146234,-0.124851,-0.0810445,0.00831604,0.0207901,0.0239944,0.00907898,0.0151825,0.0117874,0.0271988,0.020256,-9.97986,0.0167084,0.001297,0.0126266,0.00614166,0.0164413,-0.00400543,0.0124359,0.00350952
24,3,10.0097,-0.000305176,0.000152588,-2.42776,0.0553758,-0.0744527,0.0529073,0.0532701,-0.0934516,0.146234,-0.125766,-0.0825704,0.0088501,0.0279617,0.0280762,0.00564575,0.0153351,0.0122452,0.0246048,0.0181961,-9.97986,0.0144958,0.00205994,0.0157166,0.00888824,0.0169754,-0.00175476,0.0168991,0.00713348
24,4,7.60549,0.00152588,-0.00289917,-2.42531,0.0575121,-0.0738423,0.0532125,0.0224474,-0.095893,0.145929,-0.127903,-0.0816549,0.01297,0.0226593,0.0309372,0.0185394,0.0140762,0.0118256,0.0263214,0.0191879,-9.97986,0.0164413,0.00297546,0.0189209,0.00900269,0.0145721,0.00396729,0.0159836,0.00717163
24,5,-0.718488,0.0012207,-0.00564575,-2.42623,0.0572069,-0.073232,0.0538228,-0.0138685,-0.0968086,0.147149,-0.129734,-0.0822652,0.00984192,0.0228882,0.0314331,0.0294113,0.0141525,0.0111008,0.0229263,0.013237,-9.97986,0.0126648,0.000686646,0.0151825,0.00240326,0.014801,-0.00400543,0.0117493,0.00354767
24,6,-7.87394,0.00244141,-0.00427246,-2.42653,0.0559862,-0.0738423,0.0538228,-0.0156996,-0.0952827,0.147149,-0.129734,-0.0813497,0.00961304,0.0239944,0.0325394,0.0302887,0.0187683,0.0118256,0.0249863,0.0233841,-9.97986,0.0176239,0.00461578,0.0148392,0.00591278,0.0165176,-0.00480652,0.0146103,0.0056839
24,7,-9.99003,0.0012207,-0.00366211,-2.42257,0.055681,-0.073232,0.0571797,0.016649,-0.0903999,0.147455,-0.127598,-0.0804342,0.00778198,0.0137329,0.0251007,0.0267792,0.0172424,0.0127411,0.0220108,0.0153351,-9.97986,0.0195313,0.00133514,0.0147629,0.0056076,-0.00995636,-0.00339508,0.016861,0.00728607
24,8,-9.99003,-0.000305176,-0.000915527,-2.4247,0.0562914,-0.0744527,0.0565694,0.049608,-0.0900947,0.147149,-0.125461,-0.0813497,0.0141144,0.0133133,0.0262451,0.0209427,0.0179291,0.0154877,0.0196838,0.0167465,-9.97986,0.0203705,0.00591278,0.013504,0.00846863,-0.0114822,-0.00267029,0.017128,0.00831604
24,9,-9.99003,0.0012207,-0.000457764,-2.42562,0.0550706,-0.0747579,0.0553487,0.0593737,-0.0916206,0.145624,-0.125766,-0.0813497,0.00869751,0.0129318,0.0194168,0.0169754,0.0195694,0.0111771,0.0137711,0.020752,-9.97986,0.0167465,0.000267029,0.0131989,0.00434875,-0.0144196,-0.0075531,0.0186157,0.00579834
25,0,-9.99003,0.000610352,-0.000457764,-2.42684,0.0541551,-0.075063,0.0532125,0.065172,-0.0922309,0.144098,-0.125766,-0.0828756,0.00640869,0.0208664,0.0157547,0.00946045,0.0153351,0.0108337,0.0220108,0.020256,-9.97986,0.0172424,0.00461578,0.0141907,0.00747681,-0.0119781,-0.00549316,0.0179672,0.00450134
25,1,-9.99003,0.00213623,0.000305176,-2.42592,0.055681,-0.075063,0.0568746,0.0978258,-0.0867378,0.145624,-0.123325,-0.0825704,0.00991821,0.0195313,0.00995636,0.0131607,0.0198746,0.00812531,0.0244904,0.0154495,-9.97986,0.0154495,0.00530243,0.0149918,0.00728607,0.0161743,-0.00148773,0.0144958,0.00831604
25,2,-5.24425,0.00152588,0.00305176,-2.42776,0.0541551,-0.0762837,0.0535176,0.132005,-0.0879585,0.144098,-0.12302,-0.0847066,0.0108337,0.0260544,0.00221252,0.00839233,0.0165176,0.00919342,0.0207901,0.0169754,-9.97986,0.0164032,0.0056839,0.0125122,0.00736237,0.0150299,-0.00457764,0.0156784,0.00358582
25,3,2.17153,-0.000610352,0.00457764,-2.42776,0.0544603,-0.0765889,0.0547383,0.150926,-0.0894843,0.143792,-0.121799,-0.0850118,0.0141144,0.0173187,0.00518799,0.0056076,0.0146866,0.00896454,0.0210953,0.0183105,-9.97986,0.0157166,0.0043869,0.0127029,0.00663757,0.012207,-0.000762939,0.0199127,0.00423431
25,4,9.46706,-0.000915527,0.00473022,-2.42867,0.0547655,-0.0747579,0.0529073,0.146654,-0.0910102,0.142572,-0.122104,-0.0862325,0.0103378,0.0208664,0.00774384,0.00102997,0.0143051,0.0109482,0.0230789,0.0196075,-9.97986,0.0175095,0.00125885,0.016861,0.00965118,0.0175476,0.00164032,0.0172424,0.00591278
25,5,10.0097,0.00152588,0.00183105,-2.4305,0.0529344,-0.0759786,0.050771,0.110338,-0.0968086,0.142572,-0.125156,-0.0883688,0.0069046,0.0196075,0.00965118,-0.000953674,0.0165939,0.0125122,0.0228882,0.0160217,-9.97986,0.0147629,-0.0031662,0.0170135,0.00915527,0.0154877,0.00911713,0.0141525,0.0062561
25,6,10.0097,0.000305176,0.000915527,-2.42928,0.0541551,-0.0762837,0.0513814,0.0843981,-0.0971137,0.143487,-0.126682,-0.0883688,0.0115204,0.0218582,0.0136185,-0.00133514,0.0189972,0.0127029,0.0256729,0.0161362,-9.97986,0.0157166,-0.00217438,0.0136948,0.00797272,0.0167847,0.00610352,0.0143051,0.00530243
25,7,10.0097,0.000610352,0.000152588,-2.42837,0.0547655,-0.0759786,0.0513814,0.0761583,-0.0965034,0.143792,-0.126072,-0.0874532,0.0104523,0.0138092,0.0162506,-0.0069809,0.0201035,0.00522614,0.0260925,0.0152588,-9.97986,0.0143814,3.8147e-005,0.0139618,0.00442505,0.012207,0.000457764,0.0153732,0.00614166
25,8,10.0097,-0.000915527,0,-2.42867,0.0553758,-0.0756734,0.0519917,0.0737169,-0.0955879,0.145318,-0.125766,-0.085317,0.00999451,0.0192261,0.0139999,0.00179291,0.0175095,0.00938416,0.0207138,0.0201797,-9.97986,0.0100327,-0.00530243,0.0139618,0.00595093,0.0163269,-0.00644684,0.0139999,0.00659943
25,9,10.0097,0.00152588,-0.000152588,-2.42745,0.0550706,-0.0753682,0.0532125,0.0718859,-0.0931465,0.145318,-0.125766,-0.0856222,0.00827789,0.0152206,0.0128937,0.0123596,0.0159073,0.0120163,0.0216293,0.019989,-9.97986,0.0123215,-0.00419617,0.014267,0.00335693,0.0151443,-0.00598907,0.0146484,0.00804901
26,0,10.0097,0.000305176,-0.000152588,-2.42562,0.0553758,-0.0744527,0.0522969,0.0718859,-0.0943672,0.144098,-0.126072,-0.0847066,0.00705719,0.0172806,0.0155258,0.0244904,0.0148773,0.00995636,0.0188446,0.0183868,-9.97986,0.0136185,-0.00656128,0.017395,0.00709534,0.0158691,-0.0109863,0.0162125,0.00553131
26,1,10.0097,0.00183105,-0.000305176,-2.42592,0.0565965,-0.0744527,0.054128,0.072191,-0.0925361,0.147149,-0.124851,-0.0825704,0.00724792,0.0207901,0.0170517,0.029068,0.0148392,0.014267,0.0203323,0.0127792,-9.97986,0.0136948,-0.00530243,0.0148773,0.00324249,0.00968933,-0.01194,0.015831,0.00808716
26,2,10.0097,-0.000305176,0.000457764,-2.4244,0.0562914,-0.0744527,0.0538228,0.0712755,-0.0919257,0.145318,-0.124546,-0.0825704,0.0094986,0.0219345,0.0167465,0.0255966,0.0189972,0.00801086,0.0178146,0.0210953,-9.97986,0.0158691,-0.0037384,0.0133514,0.00499725,0.0115967,-0.00484467,0.0143814,0.00606537
26,3,10.0097,0,-0.000457764,-2.42684,0.0565965,-0.075063,0.0538228,0.0526598,-0.0952827,0.145624,-0.126377,-0.0834859,0.00629425,0.0229263,0.0151062,0.0251007,0.019722,0.0102615,0.021019,0.0187683,-9.97986,0.0127411,0.000152588,0.0165939,0.00423431,0.0141144,-0.00354767,0.0141144,0.00728607
26,4,7.66194,0.00213623,-0.00289917,-2.42562,0.0565965,-0.075063,0.0532125,0.021837,-0.0965034,0.147149,-0.127292,-0.0828756,0.0132751,0.0225449,0.0193787,0.00621796,0.0177002,0.0152969,0.0248718,0.0147629,-9.97986,0.0109482,-0.00534058,0.0148392,0.0063324,0.013237,0.00141144,0.0148773,0.00537872
26,5,-0.728864,0.00213623,-0.0050354,-2.42562,0.0578172,-0.073232,0.054128,-0.0123427,-0.0983344,0.146539,-0.129429,-0.0819601,0.00785828,0.0253677,0.0175476,-0.0133133,0.0151062,0.0087738,0.021553,0.0185776,-9.97986,0.0159454,-0.00164032,0.0156784,0.00659943,0.014801,0.00499725,0.0150299,0.00648499
26,6,-7.85655,0.000610352,-0.0050354,-2.42592,0.0559862,-0.0735371,0.0547383,-0.0166151,-0.0961982,0.146844,-0.129429,-0.0813497,0.01194,0.0256729,0.0211716,-0.00469208,0.0172043,0.00846863,0.0198364,0.0193024,-9.97986,0.0136948,0.000228882,0.0147629,0.00461578,0.014534,0.00160217,0.0152206,0.00522614
26,7,-9.99003,0.000305176,-0.0038147,-2.4244,0.0562914,-0.073232,0.0565694,0.0169542,-0.0900947,0.146844,-0.126987,-0.0804342,0.00919342,0.0251007,0.0251389,0.0102234,0.0168991,0.0119019,0.0206375,0.0217056,-9.97986,0.0139618,0.000686646,0.0176239,0.00614166,-0.0151825,0.00141144,0.0167084,0.00629425
26,8,-9.99003,0,-0.00137329,-2.42623,0.0553758,-0.0741475,0.0562642,0.049608,-0.090705,0.146539,-0.126072,-0.0810445,0.00961304,0.0257492,0.0172424,0.00915527,0.0180817,0.00873566,0.0227737,0.0179291,-9.97986,0.0140762,7.62939e-005,0.0157928,0.0082016,-0.0069809,0.00434875,0.0152206,0.0069046
26,9,-9.99003,0.000610352,-0.000305176,-2.42745,0.0559862,-0.0741475,0.0547383,0.0602892,-0.0913154,0.145318,-0.126377,-0.0819601,0.0117874,0.0255966,0.0166702,0.0122833,0.0174713,0.00953674,0.0200653,0.0133896,-9.97986,0.0148392,-0.00144958,0.0173569,0.00465393,-0.00766754,0.00232697,0.0154877,0.00682831
27,0,-9.99003,-0.000610352,0.000152588,-2.42623,0.0547655,-0.0747579,0.0544332,0.0648668,-0.0922309,0.145318,-0.126072,-0.0825704,0.0141144,0.0302505,0.0198746,0.0105286,0.0218964,0.0121307,0.0257874,0.0178528,-9.97986,0.0163651,0.00221252,0.013237,0.0069809,-0.0104141,-0.000915527,0.0171661,0.00663757
27,1,-9.99003,-0.000305176,0.000152588,-2.42501,0.0553758,-0.0741475,0.0562642,0.0996569,-0.0873481,0.145624,-0.12302,-0.0828756,0.0100708,0.0205231,0.0263977,0.00816345,0.0159836,0.00816345,0.0251389,0.0166321,-9.97986,0.0107574,0.000648499,0.0122833,0.00408173,0.0146103,-0.00354767,0.0144958,0.00591278
27,2,-5.11699,0.000915527,0.00350952,-2.42684,0.0547655,-0.0756734,0.0547383,0.132311,-0.0870429,0.144403,-0.123325,-0.0840963,0.00785828,0.0166321,0.0189972,0.00507355,0.0182343,0.0118637,0.0275421,0.0195313,-9.97986,0.012207,-0.00190735,0.0119781,0.00431061,0.0136566,-0.0056076,0.0164413,0.00537872
27,3,2.27773,0.00183105,0.00396729,-2.42714,0.0532396,-0.0753682,0.054128,0.152452,-0.0882636,0.144403,-0.120884,-0.0850118,0.0115967,0.0263977,0.0252914,0.0123596,0.0196457,0.0143433,0.0222397,0.0166321,-9.97986,0.014801,0.000267029,0.0179291,0.00522614,0.0162506,-0.00183105,0.0155258,0.00656128
27,4,9.66939,0.000915527,0.00473022,-2.42928,0.0538499,-0.075063,0.0519917,0.147569,-0.0910102,0.143487,-0.122104,-0.0865377,0.0120544,0.0225067,0.0234604,0.00442505,0.0163269,0.011673,0.0244904,0.0212097,-9.97986,0.0115585,0.00354767,0.0206375,0.00919342,0.0189972,0.00473022,0.0178528,0.00858307
27,5,10.0097,-0.000915527,0.00198364,-2.43142,0.0535448,-0.0759786,0.0492452,0.107897,-0.0965034,0.141656,-0.125461,-0.0895895,0.0111771,0.0214005,0.018959,0.00339508,0.0159454,0.00900269,0.0167847,0.0177765,-9.97986,0.0120544,-0.000114441,0.0128937,0.00606537,0.0109482,-0.00419617,0.0112915,0.00312805
27,6,10.0097,0.000915527,0.000305176,-2.42989,0.0538499,-0.0762837,0.0516866,0.0862291,-0.0971137,0.145013,-0.127598,-0.0886739,0.0120163,0.0271606,0.0167084,0.00141144,0.021019,0.0142288,0.0232315,0.0188828,-9.97986,0.0154877,0.000724792,0.0155258,0.00736237,0.0188828,0.000915527,0.0183868,0.00629425
27,7,10.0097,-0.00213623,0.000610352,-2.42806,0.0544603,-0.0756734,0.0513814,0.0767687,-0.095893,0.144098,-0.126377,-0.0871481,0.00682831,0.0217056,0.0190353,0.000915527,0.0135422,0.00923157,0.022316,0.00762939,-9.97986,0.0131607,-0.000953674,0.0111771,0.00396729,0.0134277,-0.00370026,0.014534,0.00415802
27,8,10.0097,-0.000305176,0.000610352,-2.42806,0.0541551,-0.0753682,0.0513814,0.0718859,-0.0943672,0.143792,-0.126072,-0.0862325,0.0109482,0.028038,0.0133514,0.00110626,0.015564,0.0133133,0.0253677,0.0197983,-9.97986,0.0146866,0.00450134,0.0103378,0.00999451,0.0156021,-0.00202179,0.0159073,0.0069809
27,9,10.0097,-0.000305176,-0.000305176,-2.42837,0.0544603,-0.0753682,0.0529073,0.0715807,-0.0931465,0.145013,-0.126377,-0.0844015,0.0115967,0.0273132,0.0145721,-0.000953674,0.0177002,0.00900269,0.0236893,0.0149155,-9.97986,0.0140762,-0.00289917,0.0147629,0.00530243,0.014534,-0.000419617,0.0130081,0.00659943
28,0,10.0097,0.00152588,0.000610352,-2.42745,0.055681,-0.075063,0.0529073,0.07036,-0.0937568,0.145929,-0.124851,-0.0840963,0.0138855,0.0326538,0.0188446,-0.00160217,0.0142288,0.00888824,0.0238037,0.0196838,-9.97986,0.0173569,-0.00328064,0.0112152,0.00587463,0.0156021,-0.00358582,0.0149155,0.00518799
28,1,10.0097,-0.000305176,-0.000152588,-2.42592,0.0553758,-0.0738423,0.054128,0.072191,-0.0919257,0.145624,-0.125156,-0.0822652,0.0142288,0.0256348,0.0164795,0.000495911,0.0157928,0.00896454,0.0239563,0.0195694,-9.97986,0.0150299,-0.000686646,0.0140381,0.00602722,0.0169754,-0.00617981,0.0153732,0.00583649
28,2,10.0097,-0.000305176,0.000457764,-2.4247,0.0553758,-0.0744527,0.0547383,0.0715807,-0.090705,0.145624,-0.125156,-0.0816549,0.00984192,0.0348663,0.0230026,-0.00587463,0.0178909,0.00946045,0.0213623,0.0240326,-9.97986,0.0177765,0.00289917,0.0151062,0.0050354,0.017662,-0.00816345,0.013504,0.00621796
28,3,10.0097,-0.000610352,0.000305176,-2.42653,0.055681,-0.0747579,0.0532125,0.052965,-0.0946723,0.145624,-0.126682,-0.0834859,0.0133514,0.0345612,0.0285721,0.000457764,0.0167847,0.0102615,0.0203323,0.0190353,-9.97986,0.0150681,0.00114441,0.0120544,0.00789642,0.0191116,-0.00980377,0.0160217,0.00717163
28,4,7.60549,0.000915527,-0.00335693,-2.42562,0.0553758,-0.0747579,0.054128,0.0224474,-0.0961982,0.147149,-0.127598,-0.0822652,0.0144196,0.0251389,0.0296402,0.0135422,0.0203323,0.0117874,0.0220108,0.0202179,-9.97986,0.0144958,-0.00659943,0.0153732,0.00358582,0.0179672,-0.0127792,0.0178528,0.00774384
28,5,-0.858259,0.000305176,-0.00442505,-2.42562,0.0569017,-0.0738423,0.0535176,-0.0144789,-0.0961982,0.146539,-0.129734,-0.0822652,0.0128937,0.00904083,0.0261307,0.0138474,0.0195313,0.0106049,0.0227737,0.0179672,-9.97986,0.0178528,0.00102997,0.013504,0.00583649,0.0196075,-0.0123215,0.0181961,0.00839233
28,6,-7.88402,0,-0.00488281,-2.42653,0.055681,-0.0741475,0.0535176,-0.0147841,-0.0968086,0.147149,-0.130344,-0.080129,0.0102615,0.00904083,0.0205994,0.0111771,0.0139236,0.011673,0.0208282,0.0164413,-9.97986,0.0160217,-0.00469208,0.0139236,0.00904083,0.014534,-0.0123215,0.0191498,0.00766754
28,7,-9.99003,0.00152588,-0.00366211,-2.42409,0.0559862,-0.0735371,0.0565694,0.0181749,-0.0894843,0.14837,-0.127292,-0.0792135,0.00694275,0.0160217,0.0188828,0.00972748,0.0168228,0.00747681,0.0244522,0.0174332,-9.97986,0.0167847,-0.0019455,0.01091,0.00453949,-0.00854492,-0.0164413,0.0163651,0.00679016
28,8,-9.99003,0.000610352,-0.00137329,-2.4247,0.055681,-0.073232,0.0568746,0.0493029,-0.0900947,0.146844,-0.126377,-0.0804342,0.0128555,0.0228119,0.0210953,0.00717163,0.0140381,0.0102234,0.0242996,0.0210953,-9.97986,0.0175095,-0.0030899,0.0160217,0.00858307,-0.0056076,-0.0139618,0.017395,0.00694275
28,9,-9.99003,0.000915527,-0.000457764,-2.42653,0.0565965,-0.0747579,0.0550435,0.0605944,-0.0916206,0.145624,-0.126682,-0.0822652,0.00656128,0.0264359,0.0166321,0.0120163,0.018959,0.0119781,0.0226212,0.0170898,-9.97986,0.0100708,-0.00507355,0.0146866,0.00640869,-0.00774384,-0.00793457,0.0179291,0.00259399
29,0,-9.99003,0.000915527,0.000457764,-2.42806,0.0553758,-0.0744527,0.0538228,0.0639513,-0.0916206,0.144403,-0.126682,-0.0834859,0.0110626,0.0275803,0.0194931,0.0474167,0.016861,0.00480652,0.0214386,0.0191116,-9.97986,0.0166702,-0.00743866,0.0136185,0.0094223,-0.0075531,0.00087738,0.0169754,0.00774384
29,1,-9.99003,0.000305176,0,-2.42379,0.0559862,-0.075063,0.0565694,0.101183,-0.0882636,0.145929,-0.12302,-0.0822652,0.0147629,0.0233078,0.0188065,0.0541687,0.0131607,0.00888824,0.0177002,0.0229263,-9.97986,0.0150299,-0.0043869,0.014801,0.0118256,0.0148773,0.00782013,0.0210571,0.00831604
29,2,-5.1472,0.00183105,0.00366211,-2.42684,0.0535448,-0.0768941,0.054128,0.133226,-0.088874,0.144708,-0.122715,-0.0847066,0.01091,0.0282288,0.0199509,0.032959,0.0176239,0.01091,0.019722,0.0183487,-9.97986,0.0136185,-0.00118256,0.0141525,0.00732422,0.0146103,0.0104141,0.0179291,0.00900269
29,3,2.1877,0.000610352,0.00457764,-2.42776,0.0535448,-0.0759786,0.0538228,0.151232,-0.0882636,0.143792,-0.121189,-0.085317,0.00743866,0.0306702,0.0200653,0.018959,0.0183868,0.0094223,0.0177002,0.0206375,-9.97986,0.017662,-0.00171661,0.0150299,0.00617981,0.0154495,0.0094223,0.0154495,0.00534058
29,4,9.50978,0.000305176,0.00427246,-2.42837,0.0538499,-0.075063,0.0522969,0.146349,-0.090705,0.144708,-0.121799,-0.0862325,0.0112915,0.0247955,0.0199127,0.0201797,0.0218201,0.00621796,0.0223923,0.0267792,-9.97986,0.00965118,-0.00461578,0.0118637,0.00453949,0.0177002,0.00843048,0.0164795,0.00839233
29,5,10.0097,0,0.00259399,-2.43081,0.0520189,-0.0771993,0.050771,0.109422,-0.0965034,0.143182,-0.126377,-0.0880636,0.0112534,0.0250626,0.0183487,0.0180435,0.0172043,0.00579834,0.0184631,0.0207901,-9.97986,0.0161362,-0.00312805,0.0157547,0.00541687,0.0158691,0.00717163,0.015564,0.0100327
29,6,10.0097,0.000610352,0.000915527,-2.42959,0.0535448,-0.0753682,0.0510762,0.0856188,-0.0977241,0.143182,-0.126072,-0.0880636,0.0111389,0.0263214,0.0210953,0.0163269,0.0205994,0.00888824,0.0199127,0.0177765,-9.97986,0.0172043,-0.00164032,0.0153351,0.01091,0.019455,0.0056839,0.0188828,0.00782013
29,7,10.0097,0.000610352,-0.000152588,-2.42867,0.0532396,-0.075063,0.0522969,0.077379,-0.0961982,0.143487,-0.126072,-0.0868429,0.0128937,0.0285721,0.0157928,0.0160599,0.0178146,0.00801086,0.0221634,0.0139618,-9.97986,0.0110245,-0.00606537,0.0152588,0.00694275,0.0143814,0.000991821,0.017395,0.00415802
29,8,10.0097,0.000610352,0.000305176,-2.42776,0.055681,-0.0747579,0.0513814,0.0724962,-0.0931465,0.145318,-0.125766,-0.085317,0.00930786,0.0296783,0.0231934,0.0164795,0.0184631,0.0125122,0.0198746,0.0123215,-9.97986,0.0154877,-0.000686646,0.0168991,0.00961304,0.0173187,0.00579834,0.0194931,0.0101089
29,9,10.0097,0.000305176,0.000152588,-2.42898,0.0547655,-0.075063,0.0526021,0.0709703,-0.0943672,0.144098,-0.126072,-0.0840963,0.00972748,0.0250244,0.0210953,0.0082016,0.0176239,0.0106812,0.0204849,0.0152206,-9.97986,0.0112152,-0.00465393,0.0134659,0.00774384,0.0149155,-0.00232697,0.0167084,0.00652313
30,0,10.0097,0.000610352,-0.000457764,-2.42684,0.055681,-0.0747579,0.0532125,0.0709703,-0.0928413,0.145318,-0.126377,-0.0834859,0.0138474,0.0294876,0.0247574,0.0111008,0.0168228,0.011673,0.0246429,0.0146484,-9.97986,0.0165558,-0.00198364,0.0178909,0.00968933,0.018158,-0.00236511,0.0178909,0.00846863
30,1,10.0097,-0.000915527,0.000305176,-2.42562,0.055681,-0.0747579,0.0532125,0.0712755,-0.0931465,0.145624,-0.12363,-0.0822652,0.00923157,0.0222778,0.0236511,0.00812531,0.0117874,0.0069046,0.0208282,0.0132751,-9.97986,0.0199509,-0.0104904,0.011673,0.00709534,0.0159836,-0.0100708,0.0185394,0.00709534
30,2,10.0097,0.00213623,-0.000152588,-2.4247,0.0572069,-0.0735371,0.054128,0.0724962,-0.0928413,0.146234,-0.124241,-0.0813497,0.0128937,0.0271988,0.0248718,0.0069046,0.0170517,0.0123596,0.02491,0.0116348,-9.97986,0.0124359,-0.00751495,0.0174332,0.0056076,0.0167465,-0.0138092,0.0191879,0.00595093
30,3,10.0097,-0.00183105,0.000305176,-2.42623,0.0550706,-0.0744527,0.0547383,0.0526598,-0.0955879,0.146234,-0.126072,-0.0822652,0.00804901,0.0192642,0.0228882,0.00102997,0.0162888,0.0103378,0.0257492,0.0118637,-9.97986,0.0153732,-0.00549316,0.0130844,0.00717163,0.0168228,-0.00801086,0.0161743,0.00610352
30,4,7.64974,0.000610352,-0.00320435,-2.42562,0.0562914,-0.0738423,0.0532125,0.0212267,-0.0965034,0.148065,-0.128208,-0.0822652,0.0127411,0.0226974,0.0284195,0.00442505,0.0141907,0.0087738,0.0243378,0.0131607,-9.97986,0.0164413,-0.0043869,0.0143814,0.00759125,0.0170135,-0.00663757,0.0178909,0.00499725
30,5,-0.790205,0.0012207,-0.00488281,-2.42562,0.0569017,-0.0738423,0.0538228,-0.0123427,-0.0968086,0.146539,-0.130344,-0.0822652,0.0123978,0.021553,0.0289154,0.00862122,0.0150299,0.0088501,0.0201416,0.0139999,-9.97986,0.0122452,-0.00537872,0.0150299,0.0069809,0.0177765,-0.00442505,0.0198364,0.00808716
30,6,-7.96031,0.00183105,-0.00427246,-2.42592,0.0572069,-0.073232,0.0532125,-0.0166151,-0.095893,0.145624,-0.129734,-0.0810445,0.0125885,0.0225449,0.0219345,0.027771,0.017128,0.0123596,0.0210953,0.0166702,-9.97986,0.014801,-0.00553131,0.0145721,0.00408173,0.0159454,0.00183105,0.0158691,0.00549316
30,7,-9.99003,0.000610352,-0.00396729,-2.42318,0.0569017,-0.0735371,0.0568746,0.0187853,-0.0913154,0.147149,-0.126987,-0.0798238,0.00812531,0.0178909,0.0219345,0.0257492,0.0163269,0.0107956,0.0181961,0.0190735,-9.97986,0.0187683,-0.00164032,0.0149536,0.00717163,-0.00488281,0.00362396,0.0200272,0.0056076
30,8,-9.99003,0.000305176,-0.00106812,-2.42562,0.055681,-0.0741475,0.0568746,0.0486925,-0.0900947,0.146539,-0.126682,-0.0807394,0.0143814,0.0169754,0.0263596,0.0177765,0.0172424,0.0087738,0.0211716,0.0174332,-9.97986,0.0163269,-0.00175476,0.0193024,0.0069046,-0.00740051,0.00324249,0.0188446,0.00682831
30,9,-9.99003,0.000610352,0.000152588,-2.42531,0.0562914,-0.0744527,0.0550435,0.0612047,-0.0919257,0.145318,-0.126072,-0.0822652,0.0137329,0.0144577,0.0238037,0.0161743,0.0140762,0.0149155,0.017662,0.0231552,-9.97986,0.0129318,-0.00358582,0.0130463,0.00541687,-0.00980377,0.00541687,0.0180054,0.00724792
31,0,-9.99003,-0.000305176,0.000305176,-2.42684,0.0547655,-0.0744527,0.0535176,0.0645616,-0.0925361,0.144708,-0.125766,-0.0837911,0.0144577,0.0200653,0.0177383,0.0156021,0.0186157,0.0123215,0.0186539,0.0236511,-9.97986,0.0174713,0.00038147,0.0165939,0.00705719,-0.00453949,0.00263214,0.0175476,0.0088501
31,1,-9.99003,0.0012207,0.000305176,-2.42501,0.055681,-0.0744527,0.0562642,0.099962,-0.0861274,0.146234,-0.123325,-0.0822652,0.0144196,0.0153351,0.0118256,0.0063324,0.0193787,0.0116348,0.0178146,0.0180054,-9.97986,0.0140762,0.00144958,0.0141525,0.00701904,0.0131607,-0.00118256,0.0164032,0.00408173
31,2,-5.13743,0.000610352,0.00396729,-2.42806,0.0535448,-0.075063,0.0547383,0.133226,-0.0879585,0.145624,-0.122104,-0.0837911,0.00751495,0.016098,0.0110245,0.00385284,0.0152588,0.0121689,0.0203323,0.0209427,-9.97986,0.0146866,0.000801086,0.013237,0.00907898,0.0187302,-0.00232697,0.0179291,0.00511169
31,3,2.28047,0.00152588,0.00442505,-2.42806,0.0538499,-0.0762837,0.054128,0.150621,-0.088874,0.143182,-0.121799,-0.0868429,0.00709534,0.0200653,0.0121689,0.00160217,0.0191498,0.010643,0.0208282,0.0153351,-9.97986,0.017395,-3.8147e-005,0.0166702,0.00511169,0.0152206,-0.0038147,0.0128555,0.00709534
31,4,9.69716,0.000305176,0.0050354,-2.42867,0.0544603,-0.0762837,0.0519917,0.146959,-0.0916206,0.142572,-0.120884,-0.0865377,0.0104523,0.0170898,0.00556946,-0.00396729,0.0155258,0.00732422,0.0213623,0.0141525,-9.97986,0.0136948,-0.00656128,0.0147247,0.00591278,0.0156784,-0.00606537,0.0165558,0.0075531
31,5,10.0097,0.000610352,0.00213623,-2.4305,0.0535448,-0.0775044,0.0510762,0.108507,-0.0974189,0.142572,-0.126072,-0.0880636,0.0104523,0.0188065,0.00579834,0.000724792,0.0175476,0.0102997,0.0205231,0.0102615,-9.97986,0.0215912,-0.00514984,0.0121307,0.00289917,0.0162125,-0.00358582,0.0176239,0.00648499
31,6,10.0097,0.000305176,0.000762939,-2.42928,0.0529344,-0.0762837,0.0501607,0.0840929,-0.0974189,0.143487,-0.125461,-0.0880636,0.0143814,0.0144958,0.00961304,0.000343323,0.0123215,0.0103378,0.0183105,0.0118637,-9.97986,0.0150299,3.8147e-005,0.0151443,0.00812531,0.0180054,-0.00221252,0.0151443,0.00671387
31,7,10.0097,0,0.000457764,-2.42837,0.0544603,-0.0744527,0.0510762,0.0758531,-0.0955879,0.142572,-0.126987,-0.0871481,0.00778198,0.0208282,0.00518799,-0.0019455,0.0177002,0.0125885,0.0253677,0.0117493,-9.97986,0.0151062,3.8147e-005,0.0127029,0.00751495,0.0181198,-0.00736237,0.0143433,0.00602722
31,8,10.0097,0.000610352,-0.000152588,-2.42745,0.0559862,-0.0753682,0.0526021,0.0734117,-0.0934516,0.145929,-0.126377,-0.0862325,0.00831604,0.0257874,0.0123596,-0.000991821,0.019722,0.00774384,0.0204468,0.0133133,-9.97986,0.0152206,0.0038147,0.0137329,0.00751495,0.015564,-0.00423431,0.0154495,0.00640869
31,9,10.0097,0.000305176,0.000610352,-2.42653,0.0562914,-0.0747579,0.0535176,0.0718859,-0.0934516,0.144403,-0.126072,-0.0847066,0.0131226,0.0240326,0.0157166,-0.00301361,0.0157928,0.0119019,0.0172806,0.0135803,-9.97986,0.0168228,0.00743866,0.0139618,0.00614166,0.0136948,0.00205994,0.0165939,0.0069046
32,0,10.0097,0.000305176,-0.000305176,-2.42745,0.0544603,-0.0747579,0.0532125,0.0718859,-0.0934516,0.145318,-0.126682,-0.0847066,0.0153351,0.0267792,0.0153732,0.00236511,0.0175858,0.00984192,0.0220108,0.0125885,-9.97986,0.0180054,0.00526428,0.0161362,0.00465393,0.0175095,0.000915527,0.0153732,0.00488281
32,1,10.0097,0.00152588,0.000457764,-2.42653,0.0565965,-0.0744527,0.0547383,0.07036,-0.0928413,0.147149,-0.124241,-0.0816549,0.0112152,0.0258255,0.0187683,0.0158691,0.0148392,0.00743866,0.0187683,0.0152206,-9.97986,0.0147247,0.00694275,0.00976563,0.00926971,0.0154114,-0.00442505,0.0178146,0.00358582
32,2,10.0097,-0.000610352,-0.000305176,-2.42531,0.0562914,-0.0738423,0.0547383,0.0728014,-0.0916206,0.146539,-0.123935,-0.0834859,0.0106812,0.0264359,0.0177383,0.028801,0.0153351,0.00865936,0.019722,0.0131989,-9.97986,0.0180054,0.00507355,0.011673,0.00617981,0.0164795,-0.0038147,0.0141525,0.00549316
32,3,10.0097,-0.000915527,0.000305176,-2.42562,0.055681,-0.0753682,0.0532125,0.0520494,-0.0943672,0.145929,-0.125766,-0.0822652,0.0087738,0.0242233,0.0167465,0.0339508,0.0149918,0.00946045,0.0260162,0.0207901,-9.97986,0.0163269,0.00423431,0.0144577,0.00782013,0.0156403,-0.00610352,0.0178146,0.00579834
32,4,7.55788,-0.000915527,-0.00305176,-2.42623,0.0562914,-0.0744527,0.0519917,0.021837,-0.0968086,0.145318,-0.128208,-0.0825704,0.00671387,0.0139236,0.0150299,0.0365829,0.0212479,0.00740051,0.0237656,0.0163269,-9.97986,0.0155258,-0.00225067,0.0124741,0.00556946,0.0164413,-0.00778198,0.0138092,0.00816345
32,5,-0.918684,0.000305176,-0.00457764,-2.42623,0.0578172,-0.0735371,0.0529073,-0.0114271,-0.0971137,0.147149,-0.129123,-0.0822652,0.00804901,0.0133896,0.0197983,0.0302887,0.0192642,0.0115967,0.0259018,0.019989,-9.97986,0.0186539,0.00209808,0.0156021,0.00946045,0.0181961,-0.00591278,0.0203323,0.00846863
32,6,-8.01097,0.000305176,-0.00534058,-2.4247,0.0562914,-0.0738423,0.0532125,-0.0163099,-0.0952827,0.146539,-0.129429,-0.0807394,0.010376,0.0157928,0.0201797,0.0216293,0.0177002,0.00644684,0.021553,0.0221252,-9.97986,0.0128555,0.000762939,0.0152206,0.000953674,0.0160599,-0.00888824,0.0138092,0.00617981
32,7,-9.99003,0.000915527,-0.00427246,-2.42318,0.0565965,-0.073232,0.0571797,0.0178697,-0.090705,0.145929,-0.127598,-0.0792135,0.0143814,0.0215149,0.0199127,0.0181961,0.0165939,0.00831604,0.0216675,0.0178528,-9.97986,0.0175476,0.000686646,0.0148773,0.00762939,-0.0101852,-0.0139618,0.0144196,0.00564575
32,8,-9.99003,0.000610352,-0.000762939,-2.42592,0.055681,-0.0741475,0.0565694,0.047777,-0.0897895,0.146539,-0.126072,-0.0810445,0.00694275,0.0194168,0.0189209,0.0169373,0.0167465,0.0156403,0.0231171,0.0208664,-9.97986,0.0165558,0.000648499,0.0141144,0.00743866,-0.00686646,-0.0239182,0.0157928,0.00663757
32,9,-9.99003,0.00152588,0,-2.42501,0.055681,-0.0735371,0.0556539,0.059984,-0.0910102,0.145929,-0.125461,-0.0825704,0.0120544,0.0244904,0.0213623,0.0155258,0.0181961,0.0101471,0.02388,0.0162506,-9.97986,0.016861,-0.000419617,0.0156021,0.00595093,-0.0100327,-0.0286102,0.0151443,0.00728607
33,0,-9.99003,0.000305176,-0.000305176,-2.42714,0.0547655,-0.0747579,0.0535176,0.0636461,-0.0916206,0.145318,-0.126682,-0.0822652,0.00846863,0.0225067,0.019455,0.0140762,0.0151443,0.00968933,0.0177002,0.0170517,-9.97986,0.0123596,-0.0043869,0.0125885,0.00797272,-0.0111008,-0.0212097,0.0172043,0.00598907
33,1,-9.99003,-0.000305176,0.000305176,-2.4247,0.0544603,-0.0744527,0.0562642,0.100267,-0.0858222,0.146844,-0.123325,-0.0819601,0.00846863,0.0252914,0.0158691,0.01091,0.0162125,0.0107193,0.0257874,0.0179672,-9.97986,0.0141525,-0.00648499,0.0128555,0.0088501,0.017128,-0.0114441,0.014267,0.00671387
33,2,-5.21129,0.000305176,0.00274658,-2.42714,0.0535448,-0.0762837,0.0556539,0.132616,-0.088874,0.143487,-0.12241,-0.0847066,0.0102615,0.0260544,0.0183868,0.0140762,0.0134659,0.0141525,0.0160599,0.0204086,-9.97986,0.00923157,-0.00156403,0.0111771,0.00823975,0.0138855,-0.00743866,0.0169754,0.00770569
33,3,2.24507,0.000305176,0.00396729,-2.42837,0.0550706,-0.075063,0.0544332,0.150011,-0.0900947,0.143792,-0.121189,-0.0859274,0.0128937,0.0248337,0.0215912,0.0115585,0.0211334,0.0128174,0.0191879,0.0201797,-9.97986,0.0139236,-0.00164032,0.0136185,0.00988007,0.0157166,-0.00461578,0.0170898,0.00389099
33,4,9.5876,0.000305176,0.00488281,-2.42898,0.0532396,-0.0759786,0.0529073,0.146349,-0.090705,0.142572,-0.12302,-0.0871481,0.0101089,0.0257874,0.0181961,0.0135803,0.0172806,0.00850677,0.0206375,0.0180817,-9.97986,0.0174332,-0.00038147,0.0127792,0.00305176,0.0133133,0.00724792,0.0131607,0.00495911
33,5,10.0097,0.000305176,0.00198364,-2.43111,0.0535448,-0.0765889,0.0504659,0.109117,-0.0971137,0.143182,-0.125156,-0.0889791,0.00835419,0.0222015,0.0175476,0.00919342,0.0139999,0.0130463,0.0202942,0.0187683,-9.97986,0.0170898,0.00141144,0.0120926,0.00648499,0.0179672,0.00782013,0.0163269,0.00873566
33,6,10.0097,0.00152588,0.000457764,-2.42898,0.0541551,-0.0768941,0.0495503,0.0850084,-0.0980293,0.143487,-0.126682,-0.0880636,0.011673,0.0219345,0.0242996,0.00717163,0.0182724,0.0115585,0.0217438,0.0219345,-9.97986,0.0141144,-0.00125885,0.01297,0.00751495,0.0170898,-7.62939e-005,0.0152588,0.00377655
33,7,10.0097,-0.000610352,0.000457764,-2.42959,0.0544603,-0.0759786,0.0513814,0.0767687,-0.0952827,0.143487,-0.126987,-0.0868429,0.0104141,0.0287247,0.0220108,0.00999451,0.0117111,0.00946045,0.0171661,0.0161362,-9.97986,0.0181198,-0.000610352,0.0151825,0.0062561,0.017662,-0.00301361,0.0157547,0.00579834
33,8,10.0097,0.000610352,0.000305176,-2.42714,0.0541551,-0.0753682,0.0529073,0.072191,-0.0937568,0.145624,-0.126377,-0.0850118,0.00404358,0.02388,0.0209427,0.00713348,0.0166702,0.0146484,0.0201797,0.0134277,-9.97986,0.0116348,-0.00190735,0.0119781,0.00537872,0.0136566,-0.00541687,0.0147629,0.00278473
33,9,10.0097,0.00396729,0.000915527,-2.42714,0.0553758,-0.075063,0.0526021,0.0718859,-0.094062,0.145929,-0.126377,-0.0837911,0.0125885,0.0274658,0.0212479,0.00843048,0.0199509,0.0139999,0.0193024,0.0127411,-9.97986,0.0147247,-0.00225067,0.0146103,0.00514984,0.0154877,-0.00419617,0.0145721,0.00774384
34,0,10.0097,-0.000610352,0.000305176,-2.42653,0.0547655,-0.0753682,0.054128,0.0712755,-0.094062,0.143487,-0.125156,-0.0840963,0.00988007,0.0263214,0.0200653,0.00541687,0.0148392,0.00785828,0.0191116,0.0185013,-9.97986,0.0130463,-0.000534058,0.0139236,0.00938416,0.0140762,-0.00038147,0.0138092,0.00656128
34,1,10.0097,0,0.000152588,-2.42684,0.055681,-0.0738423,0.054128,0.0712755,-0.0919257,0.145929,-0.125461,-0.0819601,0.01091,0.0299835,0.0214386,0.00663757,0.0193787,0.0119781,0.0178528,0.0179672,-9.97986,0.0151443,-0.00675201,0.0170517,0.00766754,0.0149536,0.00301361,0.0148392,0.00682831
34,2,10.0097,0.00244141,0.000610352,-2.42592,0.0565965,-0.0735371,0.0547383,0.072191,-0.0919257,0.145929,-0.124851,-0.0819601,0.0102997,0.0244904,0.019989,0.00366211,0.0162125,0.00801086,0.0170135,0.0202942,-9.97986,0.0113678,-0.00679016,0.012207,0.00968933,0.0177002,-0.00133514,0.013504,0.00461578
34,3,10.0097,-0.000610352,0.000305176,-2.42714,0.0553758,-0.0738423,0.054128,0.0526598,-0.095893,0.14776,-0.125766,-0.0819601,0.01091,0.0302505,0.0247192,0.00804901,0.0175476,0.00762939,0.020256,0.0177765,-9.97986,0.0126648,-0.00370026,0.0163269,0.00507355,0.0159836,-0.00247955,0.0161362,0.00656128
34,4,7.62746,0,-0.00289917,-2.42745,0.0569017,-0.075063,0.0532125,0.0221422,-0.0961982,0.145013,-0.127903,-0.0816549,0.00980377,0.0285721,0.0212479,0.00488281,0.0188065,0.00911713,0.0189209,0.0189972,-9.97986,0.0146484,-0.00480652,0.0157928,0.00812531,0.0164795,-0.00450134,0.0172806,0.00679016
34,5,-0.842085,0.00183105,-0.00473022,-2.42592,0.0572069,-0.073232,0.0526021,-0.0114271,-0.0965034,0.146539,-0.128513,-0.0816549,0.00862122,0.0271988,0.0238037,0.00934601,0.0187302,0.0111389,0.0191116,0.0192261,-9.97986,0.014267,-0.00343323,0.00965118,0.00984192,0.021019,-0.00888824,0.0154114,0.00648499
34,6,-7.91423,0.000915527,-0.00488281,-2.42531,0.0569017,-0.0738423,0.054128,-0.0166151,-0.0980293,0.147149,-0.130039,-0.0816549,0.0118256,0.03479,0.0191498,0.00694275,0.017128,0.0101471,0.0205994,0.014801,-9.97986,0.0112915,-0.00324249,0.0176239,0.00778198,0.0190353,-0.00911713,0.0168991,0.0069809
34,7,-9.99003,-0.000610352,-0.00457764,-2.42257,0.0569017,-0.0729268,0.0568746,0.016649,-0.0910102,0.146234,-0.127598,-0.0795187,0.00602722,0.0346756,0.0186157,0.0056839,0.0200272,0.0107956,0.0248718,0.0138092,-9.97986,0.0165939,-0.00286102,0.0178528,0.00980377,-0.00522614,0.000534058,0.0123978,0.00762939
34,8,-9.99003,0.000610352,-0.000915527,-2.42531,0.0550706,-0.0738423,0.0571797,0.0499132,-0.0910102,0.145318,-0.126377,-0.0810445,0.0110626,0.00621796,0.0174713,0.00938416,0.0199127,0.0134659,0.0256348,0.0205994,-9.97986,0.0108719,-0.00602722,0.0130844,0.00537872,-0.00957489,0.00720978,0.0139618,0.00339508
34,9,-9.99003,0.000915527,0.000152588,-2.42592,0.055681,-0.0738423,0.0556539,0.0605944,-0.090705,0.145013,-0.126072,-0.0828756,0.0145721,-0.00038147,0.0217819,0.0082016,0.0185776,0.00980377,0.0242233,0.0184631,-9.97986,0.0151062,-0.0038147,0.0102234,0.00892639,-0.00236511,0.0151443,0.0187683,0.00640869
35,0,-9.99003,-0.0012207,-0.000152588,-2.42623,0.0550706,-0.0744527,0.0544332,0.0660875,-0.0925361,0.144403,-0.126072,-0.0834859,0.00835419,0.0105286,0.0176239,0.00919342,0.0139999,0.00858307,0.0235748,0.0207901,-9.97986,0.0191498,-0.00724792,0.0152588,0.0102615,-0.00347137,0.0156021,0.0163651,0.00644684
35,1,-9.99003,0.000915527,0.000457764,-2.4244,0.0553758,-0.0735371,0.0565694,0.102403,-0.0873481,0.146844,-0.123935,-0.0816549,0.0109482,0.0139999,0.0191879,0.00904083,0.0162506,0.0105667,0.0278473,0.0203705,-9.97986,0.0150681,-0.00469208,0.0167084,0.00831604,0.0162125,0.016098,0.0149918,0.00579834
35,2,-5.07335,-0.00183105,0.00366211,-2.42684,0.0541551,-0.0759786,0.0547383,0.133531,-0.0885688,0.144403,-0.122715,-0.0844015,0.0125122,0.0231934,0.0174332,0.00694275,0.0137329,0.0120926,0.023613,0.0207138,-9.97986,0.0118256,-0.00602722,0.0167847,0.0122452,0.0170898,0.0123596,0.015564,0.00686646
35,3,2.36074,0.000915527,0.0038147,-2.42867,0.0544603,-0.0762837,0.0529073,0.150621,-0.088874,0.144098,-0.121494,-0.0856222,0.0108337,0.0222397,0.0193024,0.0150299,0.0157547,0.00923157,0.020752,0.0212479,-9.97986,0.0116348,-0.00576019,0.016098,0.0043869,0.0139618,-0.00133514,0.0140762,0.00518799
35,4,9.75423,0.000915527,0.00411987,-2.42867,0.0541551,-0.0768941,0.0529073,0.146959,-0.0916206,0.144403,-0.121799,-0.0865377,0.00598907,0.019722,0.0214767,0.0175095,0.0175095,0.0130844,0.0246429,0.0224304,-9.97986,0.0178528,-0.00545502,0.0174332,0.00915527,0.0183868,-0.00167847,0.017662,0.0105667
35,5,10.0097,0.00183105,0.00167847,-2.43111,0.0529344,-0.0765889,0.0504659,0.108812,-0.0968086,0.142572,-0.125156,-0.0892843,0.00526428,0.0228119,0.0198364,0.0127411,0.0155258,0.00873566,0.0239944,0.0123978,-9.97986,0.0137329,-0.00411987,0.0188446,0.0102234,0.0196075,0.00160217,0.0128555,0.00774384
35,6,10.0097,0.000305176,0.000305176,-2.42959,0.0544603,-0.0762837,0.0501607,0.0847032,-0.0977241,0.144098,-0.126377,-0.0880636,0.00720978,0.022583,0.0186157,0.00762939,0.0141525,0.00831604,0.02285,0.0211334,-9.97986,0.0136948,-0.00431061,0.0162125,0.00705719,0.0198364,0.00148773,0.0158691,0.0043869
35,7,10.0097,0,0.000457764,-2.42928,0.0535448,-0.0753682,0.0519917,0.075548,-0.0949775,0.143487,-0.126987,-0.0871481,0.00961304,0.0247574,0.0183105,0.00484467,0.0157166,0.0120544,0.0224686,0.0149918,-9.97986,0.00728607,-0.00156403,0.0167465,0.00846863,0.0170135,0.00564575,0.0165558,0.00621796
35,8,10.0097,-0.000305176,0.000610352,-2.42745,0.0547655,-0.075063,0.0516866,0.0731066,-0.0949775,0.144098,-0.126682,-0.0856222,0.0117874,0.0205994,0.0180054,0.00667572,0.0145721,0.00980377,0.0185776,0.0151825,-9.97986,0.0179291,-0.0037384,0.0138855,0.00797272,0.0149155,0.00232697,0.0163651,0.00484467
35,9,10.0097,-0.00183105,0.000152588,-2.42806,0.0547655,-0.0747579,0.0529073,0.0712755,-0.0937568,0.145013,-0.125461,-0.0844015,0.0120163,0.0252151,0.0196838,0.0120926,0.0182724,0.00514984,0.0253677,0.0209045,-9.97986,0.0157166,0.000686646,0.0183487,0.0104141,0.0219727,0.0037384,0.0160599,0.00663757
36,0,10.0097,0,-0.000152588,-2.42714,0.0547655,-0.075063,0.0538228,0.0715807,-0.0931465,0.145013,-0.126987,-0.0837911,0.0121689,0.0208282,0.0165558,0.0106049,0.0157928,0.0154495,0.0223923,0.0163651,-9.97986,0.0125885,-7.62939e-005,0.0188828,0.00564575,0.0168228,-0.00179291,0.0151825,0.00663757
36,1,10.0097,0.000610352,0.000305176,-2.42592,0.0562914,-0.0738423,0.054128,0.0715807,-0.0934516,0.145624,-0.124851,-0.0828756,0.00892639,0.0247955,0.0163651,0.0120163,0.0201797,0.0128555,0.0213623,0.0150299,-9.97986,0.0170517,-0.00267029,0.013504,0.00576019,0.0169754,-0.00946045,0.013237,0.00720978
36,2,10.0097,0.000305176,0.000152588,-2.42531,0.0550706,-0.073232,0.0547383,0.0712755,-0.0922309,0.146234,-0.124546,-0.0822652,0.00595093,0.021286,0.0166702,0.0107574,0.0206375,0.0115204,0.0230789,0.015564,-9.97986,0.0111389,-0.00312805,0.0168228,0.00671387,0.0152588,-0.0118256,0.018425,0.00640869
36,3,10.0097,0.000305176,0,-2.42684,0.0559862,-0.0744527,0.0535176,0.0502184,-0.095893,0.145624,-0.126072,-0.0828756,0.00782013,0.0234985,0.0207901,0.00621796,0.0152969,0.00701904,0.0210571,0.0188065,-9.97986,0.0102615,-0.000152588,0.0146866,0.00743866,0.0162506,-0.0148392,0.0200272,0.00656128
36,4,7.43276,-0.000305176,-0.00320435,-2.42653,0.0572069,-0.0744527,0.0535176,0.0203112,-0.0968086,0.146234,-0.127598,-0.0822652,0.0115967,0.02491,0.0149536,0.00305176,0.0161362,0.0115967,0.017395,0.0132751,-9.97986,0.0151062,0.000267029,0.0133514,0.0043869,0.0151443,-0.012207,0.0151443,0.0088501
36,5,-1.07829,-0.000305176,-0.00457764,-2.42531,0.0575121,-0.073232,0.0547383,-0.0123427,-0.0968086,0.145929,-0.128818,-0.0819601,0.0106049,0.0224686,0.0174332,-0.00419617,0.0142288,0.0115967,0.0196457,0.019722,-9.97986,0.0151443,0.00274658,0.0123215,0.00476837,0.0190735,-0.00923157,0.0138092,0.00930786
36,6,-8.14769,-0.000305176,-0.00427246,-2.42531,0.055681,-0.0726216,0.0535176,-0.0166151,-0.0968086,0.146539,-0.130039,-0.0819601,0.0135803,0.0235367,0.0177765,-0.00320435,0.0180435,0.0119019,0.0231934,0.0156403,-9.97986,0.0126648,0.00297546,0.0166702,0.00827789,0.0127792,-0.00812531,0.0144196,0.00419617
36,7,-9.99003,0.000610352,-0.0038147,-2.42257,0.0565965,-0.0747579,0.0571797,0.0190905,-0.0910102,0.14776,-0.127903,-0.0795187,0.0101471,0.0242615,0.0243759,-0.0120926,0.0157928,0.0118256,0.0208664,0.0188828,-9.97986,0.0153732,0.00526428,0.00873566,0.00522614,-0.00526428,-0.00362396,0.0178528,0.00663757
36,8,-9.99003,0.000915527,-0.00137329,-2.42501,0.0562914,-0.0738423,0.0574849,0.0505236,-0.0891792,0.147149,-0.126072,-0.0810445,0.0123596,0.0242996,0.0222397,-0.00343323,0.0151062,0.0114822,0.0230026,0.0177002,-9.97986,0.0157928,0.00152588,0.0126266,0.0082016,-0.00907898,0.000228882,0.018158,0.00549316
36,9,-9.99003,-0.000305176,-0.000457764,-2.42684,0.0553758,-0.075063,0.0550435,0.0608995,-0.0913154,0.145624,-0.126072,-0.0825704,0.00907898,0.0247955,0.0189209,0.0199509,0.0164413,0.0104904,0.019989,0.0202179,-9.97986,0.0104523,0.00267029,0.0140381,0.00545502,-0.00846863,0.00610352,0.0180435,0.00720978
37,0,-9.99003,0.00152588,-0.000152588,-2.42592,0.055681,-0.0747579,0.0553487,0.0660875,-0.0916206,0.144403,-0.126987,-0.0834859,0.0088501,0.028038,0.0220871,0.0310898,0.0172424,0.0101089,0.0169754,0.0132751,-9.97986,0.0141907,0.00152588,0.0172424,0.00579834,-0.00995636,0.00873566,0.021553,0.00888824
37,1,-9.99003,0.000610352,0.000152588,-2.42409,0.055681,-0.075063,0.0565694,0.101183,-0.0873481,0.14776,-0.123325,-0.0828756,0.00968933,0.0347519,0.0238419,0.0318909,0.0173187,0.00736237,0.0214767,0.0185394,-9.97986,0.0177383,-0.001297,0.0143814,0.00873566,0.0168991,0.00110626,0.0151443,0.00759125
37,2,-5.14476,-0.000305176,0.00289917,-2.42684,0.0541551,-0.0759786,0.0553487,0.132616,-0.0882636,0.144708,-0.12363,-0.0837911,0.0122833,0.0291061,0.0204468,0.0263977,0.0180435,0.00740051,0.018158,0.0205994,-9.97986,0.0126648,0.00160217,0.0149536,0.00606537,0.0180435,-0.00766754,0.0149536,0.00797272
37,3,2.29848,-0.000915527,0.00457764,-2.42806,0.0529344,-0.0762837,0.054128,0.150316,-0.0882636,0.143792,-0.121799,-0.085317,0.0113678,0.0261688,0.0194931,0.0211716,0.0175095,0.0133133,0.0228119,0.0187683,-9.97986,0.0119781,0.000572205,0.0156403,0.00881195,0.0196838,-0.00289917,0.0196075,0.00659943
37,4,9.65444,-0.000305176,0.00442505,-2.42806,0.0535448,-0.0759786,0.0532125,0.14818,-0.0919257,0.143487,-0.12241,-0.0862325,0.0120926,0.0188065,0.011673,0.0180435,0.0144958,0.0133514,0.018959,0.0167465,-9.97986,0.0154877,-0.00110626,0.017662,0.00637054,0.0177765,-0.0063324,0.0151825,0.00946045
37,5,10.0097,0.000305176,0.00228882,-2.43111,0.0529344,-0.0771993,0.0498555,0.108812,-0.0961982,0.141656,-0.126072,-0.0892843,0.00854492,0.0237656,0.0197983,0.0174332,0.0210571,0.0133133,0.0198364,0.0206757,-9.97986,0.0163269,-0.00225067,0.0152969,0.00579834,0.0172424,0.00312805,0.0177002,0.00408173
37,6,10.0097,-0.000305176,0.000610352,-2.42959,0.0535448,-0.0768941,0.0501607,0.0853136,-0.095893,0.143487,-0.126377,-0.0886739,0.0120544,0.0269318,0.0146866,0.0122833,0.0141144,0.0103378,0.0165176,0.0141525,-9.97986,0.0145721,-0.000572205,0.0125122,0.0117111,0.0127792,-0.00232697,0.0188065,0.00366211
37,7,10.0097,0.000610352,0.000305176,-2.42959,0.0550706,-0.0753682,0.0519917,0.0764635,-0.0965034,0.144098,-0.125766,-0.0865377,0.0117874,0.0244141,0.0128937,0.0125122,0.0182343,0.0105286,0.0210953,0.0165558,-9.97986,0.0153732,-0.000152588,0.0146866,0.0044632,0.0150299,0.0056076,0.0160599,0.0103378
37,8,10.0097,0.000610352,-0.000457764,-2.42776,0.055681,-0.075063,0.0532125,0.0728014,-0.094062,0.144098,-0.126377,-0.085317,0.0115204,0.0230408,0.014801,0.0130844,0.0155258,0.00675201,0.018959,0.0162125,-9.97986,0.0135422,0.000534058,0.0166321,0.00804901,0.0169373,0.00904083,0.0126266,0.0069046
37,9,10.0097,0.000610352,0.000305176,-2.42776,0.0547655,-0.0759786,0.0535176,0.0715807,-0.0934516,0.145013,-0.125766,-0.0850118,0.00972748,0.0220108,0.0100327,0.0137329,0.0146866,0.00892639,0.0222778,0.0177002,-9.97986,0.0133514,-0.0018692,0.0137711,0.00846863,0.0151825,0.00915527,0.0196075,0.00598907
38,0,10.0097,0.000610352,0.000762939,-2.42714,0.0569017,-0.0747579,0.0538228,0.0700548,-0.0937568,0.144708,-0.126682,-0.0847066,0.0131607,0.0249863,0.0147247,0.0158691,0.0195694,0.00999451,0.018692,0.0202942,-9.97986,0.0133133,0.00297546,0.0173569,0.00804901,0.0183487,0.00480652,0.0191498,0.00778198
38,1,10.0097,0.000610352,0.000152588,-2.42653,0.0559862,-0.073232,0.0544332,0.0712755,-0.090705,0.145929,-0.123935,-0.0825704,0.0147247,0.0242615,0.00934601,0.0122833,0.0154495,0.00988007,0.0202942,0.020256,-9.97986,0.0166321,0.00106812,0.010643,0.00747681,0.0115585,0.00602722,0.0175095,0.00694275
38,2,10.0097,0.000305176,-0.000152588,-2.42531,0.0569017,-0.0741475,0.0547383,0.0724962,-0.0922309,0.145624,-0.124241,-0.0819601,0.0101089,0.0233841,0.0104904,0.00827789,0.0152588,0.0069809,0.0292969,0.0143814,-9.97986,0.00972748,-0.00217438,0.0130463,0.000915527,0.0138092,-0.00305176,0.0130463,0.00507355
38,3,10.0097,-0.000305176,0,-2.42623,0.055681,-0.0744527,0.0529073,0.0511339,-0.0946723,0.145929,-0.126072,-0.0828756,0.0136185,0.0282669,0.0150681,0.00701904,0.0185013,0.0109863,0.0284576,0.0217819,-9.97986,0.0159073,-0.00087738,0.0168228,0.00709534,0.0170898,-0.00404358,0.0165176,0.0101852
38,4,7.47121,-0.000610352,-0.00274658,-2.42684,0.0559862,-0.0723164,0.0522969,0.0224474,-0.0965034,0.145624,-0.127598,-0.0828756,0.0154877,0.030899,0.015831,-0.000419617,0.0170898,0.00846863,0.028801,0.0157166,-9.97986,0.0130844,0.0012207,0.0153732,0.00377655,0.018158,-0.00587463,0.0165939,0.0075531
38,5,-1.01268,-0.00152588,-0.00442505,-2.42592,0.0565965,-0.0747579,0.0547383,-0.0120375,-0.0977241,0.146539,-0.129123,-0.0816549,0.0104904,0.0313568,0.0201035,-0.00225067,0.0172043,0.0088501,0.0268936,0.0174332,-9.97986,0.013504,0.0012207,0.0131989,0.00907898,0.013504,-0.00686646,0.0167084,0.00476837
38,6,-8.11137,-0.000305176,-0.00427246,-2.42592,0.0562914,-0.0744527,0.054128,-0.0166151,-0.0965034,0.147455,-0.129734,-0.0822652,0.0113297,0.0291443,0.0248718,0.00431061,0.0197983,0.0101852,0.0268555,0.0168228,-9.97986,0.0157928,0.000152588,0.0151443,0.00679016,0.0157928,-0.00190735,0.0156403,0.00507355
38,7,-9.99003,0.0012207,-0.00335693,-2.42501,0.0569017,-0.0729268,0.0574849,0.0203112,-0.0922309,0.146844,-0.127292,-0.0795187,0.0088501,0.0260162,0.0223541,0.00289917,0.0144196,0.00930786,0.0255585,0.0190735,-9.97986,0.0148773,-0.00148773,0.0128937,0.00785828,-0.00610352,-0.00610352,0.0167084,0.00713348
38,8,-9.99003,-0.0012207,-0.000915527,-2.4244,0.0553758,-0.0735371,0.055959,0.0493029,-0.0903999,0.145929,-0.125766,-0.0804342,0.0128174,0.0234222,0.0253296,-0.00217438,0.0160217,0.0117111,0.0278091,0.0156784,-9.97986,0.0170135,-0.000114441,0.0133514,0.0094223,-0.00564575,-0.00785828,0.0146866,0.00423431
38,9,-9.99003,0.00213623,-0.000610352,-2.42714,0.0553758,-0.0738423,0.054128,0.0615099,-0.0910102,0.145624,-0.126377,-0.0825704,0.01297,0.0247955,0.02285,-0.0108337,0.017662,0.00843048,0.0248337,0.0212097,-9.97986,0.0144958,0.00217438,0.0130463,0.00743866,-0.00171661,-0.0043869,0.0167847,0.00576019
39,0,-9.99003,-0.000305176,-0.000305176,-2.42653,0.0559862,-0.0747579,0.0547383,0.0654772,-0.0919257,0.145013,-0.126987,-0.0834859,0.00808716,0.0229263,0.018158,-0.00984192,0.0201035,0.00995636,0.0251007,0.0146866,-9.97986,0.0121307,-0.00789642,0.016861,0.00614166,-0.00774384,-0.00534058,0.0154877,0.00930786
39,1,-9.99003,0.0012207,0.000305176,-2.42531,0.0559862,-0.075063,0.0568746,0.103319,-0.0870429,0.145318,-0.12241,-0.0822652,0.0121689,0.0251389,0.0136948,0.018692,0.016861,0.0132751,0.0202179,0.0173187,-9.97986,0.0165558,-0.00469208,0.013504,0.0030899,0.0176239,-0.00411987,0.0200272,0.00469208
39,2,-5.10966,-0.00183105,0.00320435,-2.42684,0.0550706,-0.0744527,0.054128,0.134752,-0.088874,0.144708,-0.121494,-0.0856222,0.0104904,0.0242615,0.0114441,0.0441742,0.0152588,0.0127792,0.0162506,0.0213242,-9.97986,0.0127411,-0.00473022,0.0129318,0.00553131,0.0142288,-0.00637054,0.0137711,0.00293732
39,3,2.37783,0.000305176,0.00457764,-2.42806,0.0535448,-0.0762837,0.0538228,0.151232,-0.0885688,0.144403,-0.121494,-0.0847066,0.00778198,0.0224686,0.0123215,0.039711,0.0194168,0.0131226,0.0196457,0.0205231,-9.97986,0.016861,-0.000152588,0.0111771,0.00591278,0.0148392,-0.00720978,0.015831,0.00602722
39,4,9.78322,-0.000610352,0.00473022,-2.42898,0.0535448,-0.075063,0.0532125,0.147875,-0.090705,0.143487,-0.12241,-0.0865377,0.0111008,0.0243759,0.0105667,0.0231934,0.0154114,0.0104141,0.0177765,0.0185776,-9.97986,0.0144958,-0.00293732,0.0119781,0.00812531,0.0159073,-0.00209808,0.0195694,0.00621796
39,5,10.0097,0.0012207,0.00213623,-2.43081,0.0538499,-0.0765889,0.0501607,0.108507,-0.0980293,0.142572,-0.126377,-0.0889791,0.0111008,0.0252914,0.0128174,0.0175476,0.0178146,0.00854492,0.015564,0.0179672,-9.97986,0.0127411,-0.00202179,0.0140381,0.00675201,0.0127029,0.00156403,0.0162888,0.00434875
39,6,10.0097,0.000610352,0.000762939,-2.42989,0.0541551,-0.0759786,0.0504659,0.0843981,-0.0965034,0.142877,-0.126377,-0.0886739,0.00911713,0.0266266,0.0101852,0.0200272,0.0232697,0.0122452,0.0217056,0.0200653,-9.97986,0.0153732,0.000610352,0.0160599,0.00919342,0.0191498,-7.62939e-005,0.0159454,0.00679016
39,7,10.0097,-0.000915527,0,-2.42928,0.0535448,-0.0744527,0.0516866,0.0767687,-0.0955879,0.143792,-0.126377,-0.0871481,0.00862122,0.0250626,0.0122833,0.0222015,0.0185013,0.0110245,0.0192642,0.0132751,-9.97986,0.0151825,-0.00286102,0.0112534,0.00572205,0.013504,-0.00274658,0.0162125,0.00240326
39,8,10.0097,0.000305176,-0.000305176,-2.42745,0.055681,-0.0756734,0.0522969,0.0728014,-0.0955879,0.145624,-0.126072,-0.0859274,0.0197983,0.0305176,0.0165558,0.027504,0.0192642,0.0148773,0.0249481,0.019722,-9.97986,0.0151825,-0.000419617,0.0181961,0.00808716,0.0180817,-0.000152588,0.0173187,0.00976563
39,9,10.0097,0.00213623,0,-2.42714,0.0553758,-0.0747579,0.0526021,0.0718859,-0.0931465,0.146234,-0.126377,-0.0847066,0.0044632,0.0260162,0.0149918,0.0181198,0.0160599,0.00736237,0.02285,0.0153351,-9.97986,0.0121689,-0.00144958,0.0153732,0.00911713,0.0167084,-0.00419617,0.0140381,0.00541687
40,0,10.0097,0.000305176,0.000457764,-2.42653,0.0550706,-0.075063,0.0538228,0.0694445,-0.0943672,0.145624,-0.124851,-0.0847066,0.0116348,0.0268173,0.0174713,0.0170517,0.017128,0.0106812,0.0217438,0.018158,-9.97986,0.017395,0.000686646,0.0109482,0.00713348,0.0149155,0.000190735,0.0196457,0.00400543
40,1,10.0097,0.000610352,0.000610352,-2.42592,0.0562914,-0.0741475,0.0538228,0.0724962,-0.0919257,0.145624,-0.125156,-0.0813497,0.0110245,0.0251007,0.0188828,0.0161743,0.0183105,0.00972748,0.0270081,0.018158,-9.97986,0.0149155,-0.000724792,0.0141907,0.0108719,0.0204468,-0.00457764,0.0191116,0.00713348
40,2,10.0097,-0.000610352,-0.000152588,-2.42501,0.0553758,-0.0735371,0.0547383,0.072191,-0.0916206,0.145929,-0.124851,-0.0816549,0.0101471,0.0233459,0.0170135,0.0151443,0.0200653,0.01091,0.0242615,0.0152969,-9.97986,0.0201035,-0.00190735,0.0123596,0.00648499,0.0200272,-0.00419617,0.0151062,0.00583649
40,3,10.0097,-0.000305176,0.000152588,-2.42653,0.0559862,-0.0747579,0.0538228,0.0523546,-0.0943672,0.146844,-0.126377,-0.0825704,0.0114822,0.0212479,0.0186539,0.0151443,0.0175095,0.00888824,0.02491,0.0159836,-9.97986,0.0174332,-0.000495911,0.0124359,0.00656128,0.017128,-0.00823975,0.0144196,0.00518799
40,4,7.46968,0.0012207,-0.00335693,-2.42623,0.0559862,-0.0747579,0.0532125,0.021837,-0.0961982,0.146234,-0.127292,-0.0822652,0.0145721,0.018959,0.0208282,0.0140381,0.0166321,0.0127411,0.0214767,0.0163651,-9.97986,0.0201416,-0.000534058,0.0165939,0.00614166,0.0172043,-0.0128555,0.0197601,0.00629425
