
Devices
1200
,,BP Load cell - Voltage,String Length - Voltage,Clutch Active - Voltage,#7 iPecs - Voltage,,,,,,,,,EMG 1-8 Left - Voltage,,,,,,,,Pylon Force - Voltage,EMG 9-16 Right - Voltage,,,,,,,,
Frame,Sub Frame,BP Load Cell,String Length,From Arduino Logic,A45,A135,A225,A315,S0,S90,S180,S270,ZSum,EMG 1 Glut Max,EMG 2 Glut Med,EMG 3 Biceps Femoris Long,EMG 4 Rectus Femoris,EMG 5 Vastus Medialis,EMG 6 Tib Ant,EMG 7 Med Gas,EMG 8 Soleus,Pylon volts,EMG 9 Glut Max,EMG 10 Glut Med,EMG 11 Biceps Femoris Long,EMG 12 Rectus Femoris,EMG 13 Vastus Medialis,EMG 14 Tib Ant,EMG 15 Med Gas,EMG 16 Soleus
,,V,V,V,V,V,V,V,V,V,V,V,V,V,V,V,V,V,V,V,V,V,V,V,V,V,V,V,V,V
1,0,10.0097,0.000610352,-0.000610352,-2.4247,0.0562914,-0.0738423,0.0547383,0.0715807,-0.0922309,0.147149,-0.124851,-0.0816549,0.0112915,0.0181198,0.0030899,0.0226212,0.024147,0.00774384,0.0134659,0.0148392,-9.97986,0.0180817,-0.00801086,0.0148773,0.0157166,0.01297,0.0115585,0.0167465,0.00499725
1,1,10.0097,0.00183105,0,-2.42562,0.0559862,-0.0738423,0.054128,0.0709703,-0.0916206,0.145318,-0.12241,-0.0804342,0.0107956,0.0175858,0.00919342,0.020752,0.0256348,0.00938416,0.0218964,0.0179672,-9.97986,0.0113678,-0.0019455,0.0139236,0.0123596,0.0106812,0.00728607,0.0188065,0.00389099
1,2,10.0097,0.000610352,0.000152588,-2.42562,0.0559862,-0.0729268,0.0550435,0.0712755,-0.0910102,0.146234,-0.125461,-0.0804342,0.00946045,0.017128,0.0104523,0.0170898,0.0252533,0.00923157,0.022583,0.0170135,-9.97986,0.0146484,-0.00232697,0.0118637,0.0168228,0.0109482,0.00255585,0.017128,0.00720978
1,3,10.0097,0.0012207,0.000457764,-2.42501,0.0572069,-0.075063,0.0547383,0.0715807,-0.0913154,0.146539,-0.12241,-0.0807394,0.0111389,0.0212479,0.0102615,0.0139999,0.0311661,0.0115585,0.0224686,0.0189209,-9.97986,0.019722,0.000762939,0.0121689,0.0210571,0.0185013,-0.000190735,0.0204086,0.00637054
1,4,10.0097,-0.000915527,-0.00167847,-2.42653,0.0565965,-0.0738423,0.0532125,0.0431993,-0.0965034,0.145624,-0.125766,-0.0828756,0.00774384,0.0139618,0.0101471,0.0120163,0.0248718,0.00793457,0.0137329,0.0183105,-9.97986,0.00904083,-0.00717163,0.00923157,0.0133133,0.00919342,-0.00362396,0.0176239,0.00576019
1,5,8.43129,0.000305176,-0.000915527,-2.42531,0.0578172,-0.0744527,0.0550435,0.04442,-0.0937568,0.146539,-0.127598,-0.0816549,0.0144958,0.0226212,0.0193787,0.0127792,0.0255585,0.0109482,0.0167084,0.0160217,-9.97986,0.0121689,-0.00267029,0.0156021,0.0212479,0.0178528,-0.00236511,0.0213242,0.00473022
1,6,7.19411,0.000610352,-0.000610352,-2.42592,0.0538499,-0.0744527,0.0544332,0.0538805,-0.0934516,0.146234,-0.126072,-0.0819601,0.010376,0.0164032,0.0126266,0.00865936,0.0256729,0.0100327,0.0179672,0.0159454,-9.97986,0.00854492,0.000114441,0.010376,0.022316,0.0205994,-0.00614166,0.0210571,0.00530243
1,7,7.07997,-0.000610352,-0.000305176,-2.42562,0.0547655,-0.0744527,0.0544332,0.0648668,-0.0931465,0.145013,-0.125461,-0.0825704,0.0140762,0.021553,0.0174713,0.00804901,0.0287628,0.0149536,0.0189209,0.0143814,-9.97986,0.0149918,0.000610352,0.0120163,0.0234985,0.019722,-0.00556946,0.0251007,0.00434875
1,8,7.31618,0.000305176,0.000610352,-2.42623,0.0550706,-0.0747579,0.0550435,0.0715807,-0.0922309,0.145013,-0.126072,-0.0831808,0.0113678,0.0236511,0.016098,0.00549316,0.0238419,0.00816345,0.0267792,0.0210953,-9.97986,0.0134277,0.00270844,0.0128555,0.0190735,0.0201797,-0.00461578,0.0221252,0.000686646
1,9,9.03981,-0.000305176,0.00106812,-2.42684,0.0553758,-0.0756734,0.055959,0.092943,-0.0900947,0.145318,-0.125156,-0.0837911,0.0101471,0.02285,0.0159454,0.00518799,0.0233841,0.0110245,0.0268173,0.0246429,-9.97986,0.0125122,0.0043869,0.0117874,0.024147,0.0197601,-0.00289917,0.0233078,0.00827789
2,0,10.0097,0.0012207,0.00213623,-2.42837,0.0526292,-0.075063,0.0532125,0.0956896,-0.0931465,0.142877,-0.125766,-0.085317,0.0136566,0.0228882,0.021019,0.00720978,0.021553,0.0111389,0.0274658,0.0286102,-9.97986,0.0122452,0.00358582,0.0135803,0.0247955,0.0233459,-0.00087738,0.0240326,0.00717163
2,1,10.0097,0.00305176,0.000152588,-2.42928,0.0541551,-0.0744527,0.0519917,0.0792101,-0.0946723,0.143487,-0.127292,-0.0868429,0.0125885,0.0244904,0.0217056,0.00679016,0.0202942,0.0104904,0.028038,0.0293732,-9.97986,0.0108337,-0.00141144,0.0128174,0.0195694,0.0245285,-0.00164032,0.0238419,0.00728607
2,2,10.0097,0.000305176,0,-2.42867,0.0550706,-0.075063,0.0532125,0.0731066,-0.0949775,0.143792,-0.127598,-0.0868429,0.0117493,0.0215912,0.0235748,-0.00263214,0.0156021,0.0128937,0.0297165,0.0257111,-9.97986,0.0107956,0.000534058,0.018425,0.0198364,0.0226212,-0.00160217,0.0232697,0.00579834
2,3,10.0097,0.000305176,-0.000457764,-2.42959,0.0526292,-0.0759786,0.0529073,0.0700548,-0.0955879,0.143182,-0.127292,-0.0862325,0.0112152,0.0185776,0.0278091,-0.0115585,0.0166321,0.0087738,0.0268173,0.0265121,-9.97986,0.0087738,-0.00152588,0.013504,0.0228119,0.0208282,-0.00244141,0.0273895,0.00614166
2,4,10.0097,-0.000915527,0,-2.42928,0.0538499,-0.0753682,0.0529073,0.07036,-0.0943672,0.142877,-0.127903,-0.0874532,0.0143051,0.0230026,0.0306702,-0.0173187,0.0127029,0.0160599,0.022316,0.027504,-9.97986,0.0135422,-0.00213623,0.0193024,0.0223541,0.0193405,0.00392914,0.0246429,0.00617981
2,5,10.0097,0,-0.000305176,-2.42745,0.0541551,-0.0756734,0.0529073,0.0694445,-0.094062,0.143182,-0.127292,-0.0859274,0.00907898,0.0263214,0.0266647,-0.0218201,0.0107574,0.0118637,0.020256,0.0282669,-9.97986,0.00499725,0.000801086,0.0134277,0.0214005,0.02388,0.00350952,0.026474,0.00587463
2,6,10.0097,0.000305176,-0.000152588,-2.42776,0.0562914,-0.075063,0.0535176,0.0697496,-0.0931465,0.143792,-0.126377,-0.0850118,0.0123215,0.0252533,0.0304031,-0.0348282,0.0123596,0.00988007,0.0211716,0.0268555,-9.97986,0.00713348,-0.00324249,0.0150681,0.0182343,0.0212097,0.0050354,0.0271606,0.00572205
2,7,10.0097,0.000915527,-0.000305176,-2.42837,0.0547655,-0.0747579,0.054128,0.0691393,-0.0952827,0.145929,-0.125156,-0.0847066,0.0125885,0.0285721,0.0345612,-0.0326538,0.0165939,0.0120926,0.0265121,0.0259781,-9.97986,0.00740051,-0.00328064,0.0189209,0.0194168,0.0193787,0.0111008,0.0263214,0.00545502
2,8,10.0097,0,0.000152588,-2.42623,0.0541551,-0.0747579,0.054128,0.0691393,-0.0931465,0.144098,-0.125766,-0.0834859,0.0111008,0.0295639,0.0371552,-0.0393295,0.018158,0.00915527,0.0255966,0.0240707,-9.97986,0.00843048,-0.00160217,0.0183868,0.0191879,0.0208664,0.0100327,0.0285339,0.00743866
2,9,10.0097,0.0012207,0.000610352,-2.42531,0.055681,-0.0741475,0.0532125,0.07036,-0.0925361,0.146234,-0.125461,-0.0822652,0.00961304,0.032692,0.0451279,-0.0556183,0.0139236,0.0130081,0.0271606,0.0191498,-9.97986,0.00564575,-0.00350952,0.0184631,0.0176239,0.0198746,0.0102234,0.0242996,0.00564575
3,0,10.0097,0.000915527,0.000305176,-2.42531,0.0562914,-0.0741475,0.0556539,0.0724962,-0.0913154,0.146844,-0.124241,-0.0816549,0.0128937,0.0359726,0.0414276,-0.0740051,0.0178146,0.00743866,0.02388,0.00747681,-9.97986,0.00774384,-0.00411987,0.0216293,0.0185776,0.0204849,0.0120544,0.0246811,0.00637054
3,1,10.0097,0.000305176,-0.000305176,-2.42501,0.0559862,-0.0744527,0.0550435,0.0700548,-0.0916206,0.145929,-0.124546,-0.0816549,0.0104523,0.0400925,0.0380707,-0.0707245,0.0115204,0.0113297,0.0302887,-0.00846863,-9.97986,0.00873566,-0.0044632,0.019989,0.0201797,0.0220871,0.0150681,0.0271606,0.00717163
3,2,10.0097,0.000915527,-0.000152588,-2.4244,0.055681,-0.0744527,0.0550435,0.0731066,-0.0919257,0.147149,-0.124546,-0.0807394,0.0141907,0.0498962,0.0351715,-0.0309372,0.0163269,0.0102997,0.0345612,-0.0125504,-9.97986,0.0118637,0.00190735,0.0209808,0.0179291,0.0200653,0.0144196,0.0267792,0.0082016
3,3,10.0097,-0.00183105,0.000915527,-2.4244,0.0559862,-0.073232,0.055959,0.0706652,-0.0922309,0.14776,-0.123325,-0.080129,0.0146103,0.0598526,0.0240326,0.00774384,0.0142288,0.0127792,0.0282669,-0.00747681,-9.97986,0.0107193,0.00740051,0.0242996,0.0181961,0.0220108,0.0131989,0.0266266,0.0069046
3,4,10.0097,0.000610352,-0.00167847,-2.42714,0.0559862,-0.0744527,0.0538228,0.0435045,-0.0949775,0.146234,-0.126072,-0.0816549,0.00934601,0.0672913,0.0143433,0.000572205,0.0140762,0.00934601,0.0229645,0.0050354,-9.97986,0.0146103,0.00411987,0.0226974,0.0094986,0.021286,0.0151443,0.0258636,0.00591278
3,5,8.40016,0.000610352,-0.00167847,-2.42531,0.0565965,-0.0747579,0.0538228,0.0450304,-0.0934516,0.146539,-0.126072,-0.0822652,0.0121689,0.049324,0.0216293,-0.0118637,0.0152588,0.00823975,0.0220108,0.0105667,-9.97986,0.0164032,-0.00797272,0.0224686,0.0157166,0.02285,0.0179291,0.0304413,0.00728607
3,6,7.16542,0.000610352,-0.000610352,-2.42531,0.0547655,-0.0741475,0.054128,0.0535753,-0.0919257,0.145013,-0.126072,-0.0816549,0.0108337,0.0131607,0.0358963,-0.00244141,0.0125122,0.0126648,0.025177,0.00965118,-9.97986,0.0160599,0.00209808,0.0218582,0.0154495,0.0201416,0.0185394,0.0317001,0.00732422
3,7,7.00429,0.00152588,-0.000305176,-2.42623,0.0559862,-0.0741475,0.0544332,0.0645616,-0.0922309,0.145624,-0.125461,-0.0825704,0.0157547,-0.0082016,0.0380707,0.0208664,0.0144958,0.00968933,0.0214386,0.00991821,-9.97986,0.0207138,0.00164032,0.0201416,0.0169373,0.0164413,0.0192642,0.027504,0.00892639
3,8,7.23226,0,0.000610352,-2.42806,0.0559862,-0.0738423,0.0544332,0.07036,-0.0916206,0.145929,-0.124546,-0.0834859,0.0118637,-0.00804901,0.0344467,0.0148773,0.0175858,0.0121307,0.019989,0.020256,-9.97986,0.0219345,-0.00286102,0.0254822,0.0104523,0.0185776,0.0168228,0.0322342,0.00965118
3,9,8.93086,-0.000305176,0.00137329,-2.42653,0.0532396,-0.0747579,0.0553487,0.0923326,-0.0897895,0.145013,-0.124546,-0.0840963,0.0155258,0.000152588,0.0327301,0.0138092,0.0148773,0.00587463,0.0183487,0.017395,-9.97986,0.0204849,-0.00190735,0.0241089,0.0156021,0.0221634,0.00907898,0.0341415,0.00549316
4,0,10.0097,0.00213623,0.00228882,-2.42928,0.0538499,-0.0756734,0.0535176,0.0966051,-0.0934516,0.143182,-0.125766,-0.0850118,0.00984192,-0.00556946,0.0260544,0.0498962,0.0141907,0.00507355,0.0172043,0.0214005,-9.97986,0.0185013,-0.0094223,0.021553,0.0114059,0.017395,0.00202179,0.0343704,0.00434875
4,1,10.0097,0.000305176,-0.000152588,-2.42959,0.0535448,-0.0762837,0.0519917,0.0792101,-0.0946723,0.143792,-0.126987,-0.0868429,0.0106812,-0.0138474,0.0152969,0.0723648,0.0160599,0.00556946,0.0254059,0.0203323,-9.97986,0.0205994,-0.000610352,0.0234985,0.0132751,0.0254059,0.00980377,0.0370789,0.010643
4,2,10.0097,0.000915527,-0.000305176,-2.42806,0.0547655,-0.0744527,0.0522969,0.0737169,-0.0952827,0.143487,-0.126987,-0.0871481,0.01091,-0.00312805,0.0104904,0.0634766,0.010376,0.00904083,0.0170898,0.0198746,-9.97986,0.0200272,-0.00476837,0.018425,0.0135803,0.021286,0.0102997,0.0382614,0.00827789
4,3,10.0097,0.000610352,-0.000457764,-2.42989,0.0538499,-0.0756734,0.0519917,0.0706652,-0.0943672,0.143792,-0.127598,-0.0871481,0.0105667,0.00106812,0.0129318,0.0540924,0.0150681,0.0143814,0.0214005,0.0229263,-9.97986,0.0226212,0.00350952,0.0156403,0.0106049,0.0196838,0.0194168,0.038681,0.00904083
4,4,10.0097,0.00152588,-0.000915527,-2.42837,0.0538499,-0.0771993,0.0526021,0.0694445,-0.0955879,0.143182,-0.126987,-0.0862325,0.00980377,0.0138092,-0.00488281,0.0542068,0.0124359,0.00976563,0.0214005,0.0189209,-9.97986,0.0166321,0.0147247,0.0257111,0.0103378,0.0182343,0.0248718,0.0376511,0.010376
4,5,10.0097,-0.000305176,-0.00106812,-2.42837,0.0559862,-0.0762837,0.0519917,0.0700548,-0.0946723,0.144708,-0.127292,-0.0859274,0.00751495,0.0193405,-0.0138855,0.0629807,0.0158691,0.00930786,0.0185394,0.0159073,-9.97986,0.0207901,0.00339508,0.0196075,0.00766754,0.0136566,0.0279617,0.0377655,0.0069046
4,6,10.0097,0.000305176,-0.000152588,-2.42745,0.0541551,-0.0756734,0.054128,0.0688341,-0.0946723,0.144098,-0.126377,-0.0862325,0.00972748,0.0245667,-0.0183105,0.0505447,0.0124359,0.00461578,0.0189972,0.0248337,-9.97986,0.0222015,0.00038147,0.0165176,0.00762939,0.0209427,0.0328827,0.0430679,0.00701904
4,7,10.0097,0,0.000152588,-2.42776,0.0547655,-0.075063,0.0526021,0.0691393,-0.0928413,0.144403,-0.126072,-0.0850118,0.0114059,0.0223923,-0.0251007,0.0450134,0.00976563,0.00709534,0.0166702,0.0185394,-9.97986,0.0215912,-0.0088501,0.0225449,0.0094986,0.0198746,0.0313568,0.0431824,0.00747681
4,8,10.0097,0.00152588,-0.000457764,-2.42653,0.0547655,-0.075063,0.054128,0.0712755,-0.0928413,0.145318,-0.125461,-0.0837911,0.00598907,0.018692,-0.0188446,0.0418091,0.0152206,0.0105667,0.00995636,0.0226974,-9.97986,0.0245667,-0.00526428,0.0224686,0.0063324,0.0165939,0.0280762,0.0399017,0.00770569
4,9,10.0097,0.00183105,0.000305176,-2.42531,0.0559862,-0.0738423,0.0553487,0.0706652,-0.0925361,0.145624,-0.125156,-0.0822652,0.0119781,0.0197983,-0.0107956,0.0352097,0.0146484,0.0030899,0.00782013,0.0251389,-9.97986,0.0210953,0.00583649,0.0209427,0.00431061,0.0180817,0.0228119,0.0450516,0.00946045
5,0,10.0097,0.0012207,-0.000305176,-2.42623,0.0569017,-0.075063,0.0547383,0.0718859,-0.0919257,0.146539,-0.123935,-0.0819601,0.00785828,0.0244522,-0.0050354,0.0278854,0.0119781,0.00938416,0.00587463,0.0278854,-9.97986,0.0175095,0.0199127,0.0233841,0.000190735,0.0189972,0.0203323,0.0416946,0.00667572
5,1,10.0097,0,0,-2.42501,0.0559862,-0.0738423,0.0553487,0.0709703,-0.0913154,0.14776,-0.123935,-0.0816549,0.011673,0.0278854,0.00740051,0.0197601,0.01297,0.00682831,0.00862122,0.0247955,-9.97986,0.0165176,0.0128937,0.0213242,0.00465393,0.018692,0.0149155,0.044136,0.00576019
5,2,10.0097,0.000305176,-0.000762939,-2.4247,0.0550706,-0.0735371,0.0556539,0.0712755,-0.0919257,0.145318,-0.123935,-0.0813497,0.00762939,0.0233841,0.0115204,0.0242233,0.0137329,0.00812531,0.0127411,0.0206375,-9.97986,0.0162506,-0.00350952,0.0246811,0.00606537,0.0194931,0.0172806,0.039444,0.0107193
5,3,10.0097,0.00183105,0.000915527,-2.4247,0.0569017,-0.0735371,0.0556539,0.0712755,-0.0910102,0.14837,-0.124241,-0.0810445,0.0114059,0.0264359,0.0218582,0.0245667,0.0106812,0.00705719,0.0133896,0.015564,-9.97986,0.0164032,0.00610352,0.022049,0.0056839,0.0218582,0.0152969,0.0434875,0.00888824
5,4,10.0097,0.0012207,-0.000610352,-2.42653,0.0553758,-0.0741475,0.0547383,0.0419786,-0.0949775,0.145624,-0.126987,-0.0816549,0.0075531,0.0273895,0.0292206,0.0239944,0.0112534,0.0038147,0.0159454,0.0173187,-9.97986,0.0165176,0.0088501,0.0233459,0.0062561,0.0182724,0.0120544,0.0411224,0.00774384
5,5,8.32143,0,-0.00167847,-2.42592,0.0565965,-0.0738423,0.054128,0.0450304,-0.0928413,0.146234,-0.125766,-0.0816549,0.00965118,0.0201797,0.0304031,0.0178528,0.01091,0.010376,0.0241852,0.0196838,-9.97986,0.0114059,0.000762939,0.0234985,0.00354767,0.0157547,0.00907898,0.0402832,0.00957489
5,6,7.08699,0.000915527,-0.000610352,-2.42592,0.0565965,-0.0741475,0.0553487,0.0541857,-0.0922309,0.14776,-0.126682,-0.0819601,0.00682831,0.0116348,0.0313187,0.019722,0.00785828,0.00938416,0.0245667,0.023613,-9.97986,0.0146484,-0.000457764,0.0194168,0.00423431,0.0165176,0.00759125,0.0396729,0.00827789
5,7,6.9225,0.00213623,-0.000152588,-2.42653,0.0547655,-0.0747579,0.055959,0.0627306,-0.0925361,0.145624,-0.126377,-0.0825704,0.0108337,0.00717163,0.0279999,0.0209045,0.0125885,0.0128555,0.0253677,0.0299835,-9.97986,0.0162125,-0.00999451,0.0189972,-0.000839233,0.0223541,0.00507355,0.037384,0.0100708
5,8,7.13002,0.00183105,0.000152588,-2.42684,0.0550706,-0.0741475,0.0522969,0.0700548,-0.0913154,0.145929,-0.124851,-0.0825704,0.0111008,0.0118637,0.0341797,0.0101089,0.0115967,0.0102234,0.0210571,0.0282669,-9.97986,0.0133514,-0.00846863,0.0215149,0.00282288,0.0202179,0.00637054,0.037117,0.00888824
5,9,8.79537,0,0.000762939,-2.42714,0.0547655,-0.0753682,0.055959,0.092943,-0.090705,0.146234,-0.124546,-0.0831808,0.00759125,0.0191498,0.0349426,0.0111008,0.0149536,0.00724792,0.0259018,0.0279999,-9.97986,0.0130463,-0.000343323,0.0188446,0.00415802,0.0143051,0.00892639,0.0339127,0.00709534
6,0,10.0097,-0.000610352,0.00259399,-2.42867,0.0541551,-0.0759786,0.0526021,0.0993517,-0.0922309,0.144098,-0.125766,-0.085317,0.0114441,0.0231171,0.0324631,0.0115585,0.0118256,0.0108719,0.0282288,0.0283432,-9.97986,0.00831604,-0.00556946,0.0188446,-0.000572205,0.0182724,0.0284576,0.0336456,0.00656128
6,1,10.0097,-0.000610352,0.000305176,-2.42928,0.0538499,-0.0765889,0.0522969,0.0789049,-0.0965034,0.144098,-0.126682,-0.0871481,0.0163269,0.0275803,0.0220108,0.0131226,0.0130081,0.0132751,0.0257111,0.02491,-9.97986,0.0123215,-0.000915527,0.0193787,0.00225067,0.0180817,0.019455,0.0320435,0.0088501
6,2,10.0097,0.000610352,0,-2.42776,0.0544603,-0.0753682,0.0519917,0.0724962,-0.0949775,0.142267,-0.127598,-0.0874532,0.0113678,0.0362015,0.0131607,0.00812531,0.0162125,0.00587463,0.0186157,0.0186539,-9.97986,0.0133514,0.00850677,0.0252914,0.00118256,0.0177765,0.00473022,0.0304031,0.00900269
6,3,10.0097,0.00183105,0,-2.4302,0.0532396,-0.0762837,0.0526021,0.07036,-0.0955879,0.143792,-0.127903,-0.0880636,0.0106049,0.0295258,0.0157166,0.0103378,0.0126266,0.0103378,0.0188828,0.0172806,-9.97986,0.0107956,0.00839233,0.0204849,-0.00213623,0.0157547,-0.00576019,0.0300217,0.00499725
6,4,10.0097,0.0012207,-0.000457764,-2.42928,0.0541551,-0.0771993,0.0513814,0.067003,-0.0971137,0.143487,-0.127903,-0.0862325,0.0124741,0.0273132,0.0110245,0.0111008,0.0149536,0.00930786,0.02491,0.0130081,-9.97986,0.0161743,0.00717163,0.0191498,-0.00335693,0.0178528,-0.0125504,0.0270462,0.00236511
6,5,10.0097,0.000610352,0,-2.42806,0.0532396,-0.0756734,0.0522969,0.0685289,-0.0937568,0.142572,-0.127598,-0.0871481,0.0130844,0.0341797,0.011673,0.00686646,0.0164032,0.00816345,0.0182724,0.00827789,-9.97986,0.0157547,-0.00171661,0.0236893,-0.0031662,0.0180054,-0.0180054,0.0214386,0.00278473
6,6,10.0097,0.00183105,-0.000305176,-2.42714,0.0547655,-0.0753682,0.0532125,0.0697496,-0.0937568,0.145929,-0.126072,-0.085317,0.0128937,0.0483322,0.0190353,0.00667572,0.015831,0.00747681,0.0230408,0.00263214,-9.97986,0.0123596,0.0037384,0.0207901,0.00370026,0.0178146,-0.0122833,0.0251007,0.00495911
6,7,10.0097,0.000305176,0.000610352,-2.42592,0.0547655,-0.0738423,0.054128,0.07036,-0.0925361,0.145013,-0.126072,-0.0847066,0.0150299,0.0658035,0.0308609,-0.00202179,0.0131989,0.00846863,0.0186157,0.0043869,-9.97986,0.012207,0.000495911,0.0258636,-0.00225067,0.0146103,-0.0159454,0.0236893,0.00614166
6,8,10.0097,0.000915527,0.000610352,-2.42714,0.0547655,-0.0753682,0.0532125,0.07036,-0.0931465,0.145013,-0.125766,-0.0837911,0.0149918,0.0905609,0.0361633,0.0025177,0.0157166,0.00595093,0.0214005,0.0119019,-9.97986,0.0117493,0.00217438,0.0209427,0.00110626,0.0163651,-0.0130844,0.0268936,0.00720978
6,9,10.0097,0.000915527,0.000610352,-2.42501,0.055681,-0.0738423,0.0550435,0.0700548,-0.0925361,0.145624,-0.124546,-0.0828756,0.0107574,0.104256,0.0270844,-0.00148773,0.0159073,0.00888824,0.0117111,0.0103378,-9.97986,0.010643,0.000228882,0.0223541,0.00179291,0.0209808,-0.0151825,0.0248337,0.0063324
7,0,10.0097,0,0.000305176,-2.42592,0.0562914,-0.07842,0.0547383,0.0706652,-0.0913154,0.145624,-0.124546,-0.0822652,0.00804901,0.0992203,0.0209045,-0.00137329,0.0152969,0.00701904,0.01297,0.0187683,-9.97986,0.0120544,-0.000457764,0.0214386,-0.000839233,0.0218201,-0.0174332,0.0208282,0.00320435
7,1,10.0097,0.0012207,0.000152588,-2.42592,0.0572069,-0.073232,0.0547383,0.0715807,-0.0916206,0.142572,-0.123935,-0.0819601,0.00988007,0.0736237,0.0133514,-0.00293732,0.0155258,0.00694275,0.0163269,0.0132751,-9.97986,0.0118256,0.000572205,0.0201035,0.00320435,0.0178909,-0.0199509,0.0204086,0.00736237
7,2,10.0097,0.0012207,-0.000457764,-2.42562,0.0553758,-0.0744527,0.0550435,0.0706652,-0.0916206,0.146539,-0.125156,-0.0813497,0.0111008,0.0404358,0.00537872,-0.00335693,0.0185776,0.00881195,0.0102234,0.0157928,-9.97986,0.0175858,-0.00488281,0.021019,0.000572205,0.0193405,-0.0223541,0.0252914,0.00839233
7,3,10.0097,-0.000610352,0,-2.42379,0.0569017,-0.0756734,0.0553487,0.0712755,-0.0913154,0.147455,-0.122715,-0.0804342,0.0130081,0.0346375,-0.00339508,-0.000686646,0.0141525,0.00728607,0.0121307,0.01091,-9.97986,0.0197601,0,0.0188446,-0.00102997,0.0179672,-0.0288391,0.0205994,0.00495911
7,4,10.0097,-0.000305176,-0.00167847,-2.42714,0.0553758,-0.0741475,0.0526021,0.0419786,-0.0949775,0.144708,-0.126682,-0.0825704,0.0113297,-0.0121689,-0.0043869,-0.00476837,0.0162506,0.00724792,0.0159454,0.0162506,-9.97986,0.0204086,-0.00270844,0.0161743,-0.00484467,0.0182724,-0.0297928,0.0234985,0.00534058
7,5,8.23689,0.000915527,-0.00213623,-2.42501,0.0559862,-0.073232,0.0553487,0.042589,-0.0928413,0.145929,-0.126682,-0.0822652,0.0107193,-0.0482178,-0.00926971,-0.00389099,0.0116348,0.011673,0.0231934,0.00934601,-9.97986,0.0243378,-0.00289917,0.0162125,-0.00110626,0.0187302,-0.0244904,0.0236511,0.00823975
7,6,6.99025,0.000610352,-0.000762939,-2.42501,0.0547655,-0.0686543,0.055959,0.0541857,-0.0922309,0.147455,-0.126377,-0.0810445,0.0119019,-0.0258255,-0.0104904,-0.000419617,0.0163269,0.010376,0.0214767,0.0162506,-9.97986,0.025177,-0.00156403,0.0204086,-0.000572205,0.0191498,-0.0254822,0.021286,0.00598907
7,7,6.79708,-0.00213623,-0.000152588,-2.42714,0.0553758,-0.0744527,0.0547383,0.0642565,-0.0916206,0.145929,-0.125766,-0.0825704,0.0108719,-0.0219727,-0.017395,0.00205994,0.0182724,0.0111389,0.0129318,0.0156403,-9.97986,0.0233841,-0.001297,0.0177383,0.000915527,0.015831,-0.0170135,0.0177383,0.00656128
7,8,7.00643,-0.000305176,0.000457764,-2.42684,0.0544603,-0.0744527,0.0544332,0.0715807,-0.090705,0.145929,-0.125766,-0.0831808,0.00827789,-0.0365448,-0.00724792,-0.00221252,0.0149155,0.0130081,0.0143433,0.0167084,-9.97986,0.0215912,-0.00617981,0.0179291,0.000686646,0.019455,-0.0164795,0.0194168,0.00610352
7,9,8.7087,0.000305176,0.000762939,-2.42592,0.0550706,-0.0714009,0.0544332,0.0932482,-0.0900947,0.145013,-0.124851,-0.0840963,0.0120163,-0.0302505,0.00118256,-0.00343323,0.0153732,0.00896454,0.0185013,0.0170135,-9.97986,0.0179672,-0.00202179,0.0188446,0.0012207,0.0228882,-0.015564,0.019722,0.00827789
8,0,10.0097,0.000915527,0.00244141,-2.42745,0.0541551,-0.0765889,0.0526021,0.100572,-0.0903999,0.145624,-0.125156,-0.0859274,0.0104904,-0.0231552,0.00255585,-7.62939e-005,0.0143433,0.00682831,0.0172043,0.0185394,-9.97986,0.0217819,-0.00106812,0.0185013,0.001297,0.02285,-0.0143433,0.0208664,0.00789642
8,1,10.0097,-0.0012207,0.000305176,-2.4302,0.0538499,-0.0771993,0.0516866,0.0798204,-0.0949775,0.143792,-0.126987,-0.0874532,0.0119781,-0.0129318,0.00774384,7.62939e-005,0.0188446,0.0117874,0.0123978,0.0176239,-9.97986,0.0170135,-3.8147e-005,0.0110245,0.001297,0.0145721,-0.014534,0.0201416,0.00953674
8,2,10.0097,0.000915527,0.000457764,-2.4302,0.0535448,-0.0790303,0.0522969,0.0731066,-0.0946723,0.143792,-0.125766,-0.0871481,0.0110626,-0.00766754,0.00579834,0.00137329,0.0180817,0.00793457,0.0179291,0.0187683,-9.97986,0.018425,-0.00156403,0.0152588,-0.00213623,0.0192642,-0.0148773,0.0147629,0.00965118
8,3,10.0097,0.000915527,-0.00137329,-2.42928,0.0526292,-0.0753682,0.0504659,0.0712755,-0.0937568,0.143487,-0.127598,-0.0874532,0.0101852,-0.00297546,0.0135422,0.000152588,0.0193405,0.0146866,0.0151825,0.0186157,-9.97986,0.0201797,-0.00461578,0.0159454,-0.00125885,0.0139236,-0.012207,0.0153732,0.00518799
8,4,10.0097,0.000305176,-0.000152588,-2.42898,0.0547655,-0.0771993,0.0519917,0.07036,-0.0931465,0.144403,-0.128208,-0.0868429,0.00740051,0.001297,0.0129318,-0.00598907,0.0164032,0.00766754,0.0146484,0.0149155,-9.97986,0.019455,-0.00038147,0.0119781,7.62939e-005,0.0175095,-0.0130844,0.0158691,0.00579834
8,5,10.0097,0.00244141,0.000457764,-2.42806,0.0544603,-0.0717061,0.0535176,0.0697496,-0.0949775,0.144098,-0.126987,-0.0874532,0.0112915,0.00297546,0.0236511,-0.00404358,0.018959,0.00469208,0.0142288,0.0186157,-9.97986,0.0176239,0.00179291,0.0185394,0.00141144,0.0206757,-0.0101089,0.0159454,0.00858307
8,6,10.0097,-0.00183105,-0.000610352,-2.42806,0.0541551,-0.0756734,0.0538228,0.0694445,-0.0946723,0.145013,-0.126377,-0.0859274,0.0120163,0.00534058,0.0184631,-0.00282288,0.0204086,0.00793457,0.0197601,0.0207138,-9.97986,0.0187302,-0.00362396,0.0155258,0.00282288,0.0200653,-0.0122452,0.0151825,0.00576019
8,7,10.0097,0.0012207,-0.000305176,-2.42745,0.055681,-0.0747579,0.0532125,0.0688341,-0.0928413,0.144708,-0.126682,-0.0850118,0.00770569,0.00995636,0.019455,0.00629425,0.0177383,0.00465393,0.0178146,0.0173569,-9.97986,0.0153732,0.00171661,0.0170898,-0.00305176,0.0189209,-0.0100327,0.01091,0.00530243
8,8,10.0097,-0.000305176,0.000305176,-2.42745,0.0538499,-0.0753682,0.0550435,0.0697496,-0.0931465,0.145013,-0.126072,-0.0844015,0.00991821,0.0110626,0.0211716,0.0128174,0.0231171,0.00679016,0.022049,0.0198746,-9.97986,0.0180054,0.000457764,0.0140381,0.000648499,0.0214767,-0.00789642,0.0123596,0.00759125
8,9,10.0097,0,0.000305176,-2.4247,0.0562914,-0.0747579,0.0544332,0.0694445,-0.0928413,0.147149,-0.124546,-0.0822652,0.0130081,0.0154877,0.0226593,0.0118637,0.020752,0.0124359,0.0204086,0.0181198,-9.97986,0.0122833,0.000267029,0.0152206,0.000305176,0.0159836,-0.0087738,0.0116348,0.00770569
9,0,10.0097,0.000610352,-0.000457764,-2.42623,0.0572069,-0.0744527,0.0550435,0.0712755,-0.0916206,0.145929,-0.124851,-0.0822652,0.00839233,0.0135422,0.0238037,0.011673,0.0244904,0.0094223,0.0205994,0.0190735,-9.97986,0.0115585,-0.0056076,0.0130844,0.00148773,0.0202179,-0.00984192,0.0120926,0.00747681
9,1,10.0097,0.0012207,-0.000457764,-2.4247,0.0562914,-0.0747579,0.0550435,0.0709703,-0.0913154,0.147149,-0.12363,-0.0807394,0.00896454,0.0127029,0.0235367,0.0112915,0.0232315,0.00598907,0.019722,0.022049,-9.97986,0.0162125,0.000534058,0.0156403,0.00125885,0.0184631,-0.0143433,0.0127029,0.00583649
9,2,10.0097,-0.000305176,0.000152588,-2.42623,0.0562914,-0.0747579,0.0544332,0.07036,-0.0931465,0.146234,-0.124851,-0.0810445,0.00953674,0.0165939,0.0258255,0.0139618,0.0221634,0.00679016,0.0179291,0.0173187,-9.97986,0.0134659,0.00175476,0.0118256,0.000534058,0.0119781,-0.00869751,0.0112152,0.0088501
9,3,10.0097,0.000305176,0.000457764,-2.4244,0.0565965,-0.0735371,0.0550435,0.07036,-0.0919257,0.147149,-0.123935,-0.0804342,0.00957489,0.014267,0.0270844,0.0100327,0.0202942,0.00762939,0.0174332,0.0161743,-9.97986,0.0141144,0.00350952,0.0134277,-0.00431061,0.018425,-0.0113678,0.00720978,0.00873566
9,4,10.0097,0.000915527,-0.00152588,-2.42684,0.0584276,-0.075063,0.0532125,0.0435045,-0.0949775,0.146234,-0.126377,-0.0816549,0.0106812,0.0220108,0.0264359,0.0121307,0.0211334,0.0110626,0.0168991,0.0194168,-9.97986,0.0120544,0.00392914,0.0111008,-0.00125885,0.0139999,-0.00816345,0.00823975,0.0069046
9,5,8.33394,0.000915527,-0.00137329,-2.42501,0.0565965,-0.0741475,0.0529073,0.0438097,-0.0937568,0.147455,-0.127598,-0.0810445,0.0112534,0.0173187,0.025444,0.0123215,0.0214005,0.00904083,0.0193405,0.0203323,-9.97986,0.0134659,0.00499725,0.0130463,-0.00404358,0.0172043,-0.00972748,0.00736237,0.00858307
9,6,7.0345,0.00244141,-0.000762939,-2.42562,0.0544603,-0.0738423,0.0556539,0.0554064,-0.0913154,0.147455,-0.126072,-0.0816549,0.0108719,0.0214005,0.024147,0.0130463,0.022316,0.00846863,0.0194168,0.0187683,-9.97986,0.0094223,0.00331879,0.0141144,-0.00377655,0.0127792,-0.00846863,0.00640869,0.00858307
9,7,6.86757,0.00152588,-0.000457764,-2.42501,0.0562914,-0.0744527,0.0556539,0.0663927,-0.0928413,0.147149,-0.127292,-0.0816549,0.0118256,0.0230789,0.0249863,0.0120926,0.0197983,0.00740051,0.0208664,0.0153732,-9.97986,0.0120926,-0.000648499,0.00984192,-0.000572205,0.0125122,-0.0107193,0.00606537,0.0056839
9,8,7.12239,0.000915527,0.000305176,-2.42562,0.0550706,-0.0747579,0.054128,0.0715807,-0.0916206,0.145929,-0.126072,-0.0831808,0.0127029,0.0260544,0.0244522,0.0127792,0.0164032,0.0125885,0.0255203,0.0217438,-9.97986,0.0165939,-0.00228882,0.0141525,-0.0025177,0.0136566,-0.00751495,0.00579834,0.00686646
9,9,8.83809,-0.000610352,0.00152588,-2.42653,0.0541551,-0.0759786,0.054128,0.0935533,-0.0903999,0.145013,-0.124241,-0.0837911,0.00713348,0.0271606,0.02285,0.0110626,0.0199509,0.0106812,0.0245667,0.020256,-9.97986,0.0156021,-0.00350952,0.0143814,0.00209808,0.0152206,-0.0111008,0.00549316,0.0075531
10,0,10.0097,0.00152588,0.00244141,-2.42959,0.0538499,-0.0762837,0.0538228,0.0984362,-0.0928413,0.142267,-0.124546,-0.085317,0.0094223,0.0290298,0.0252151,0.0133514,0.0219727,0.00724792,0.0259399,0.02388,-9.97986,0.00980377,0.00572205,0.0121689,-0.00419617,0.0191879,-0.0121689,0.00411987,0.0063324
10,1,10.0097,0.00244141,0.000762939,-2.42989,0.0535448,-0.0765889,0.0522969,0.0801256,-0.0955879,0.145013,-0.126072,-0.0874532,0.0110626,0.0320053,0.0236893,0.0118637,0.0183868,0.00602722,0.0251389,0.0259018,-9.97986,0.0148773,-0.00431061,0.0123596,-0.00144958,0.0178146,-0.0102997,0.00106812,0.00556946
10,2,10.0097,0.000610352,0,-2.42806,0.0535448,-0.0756734,0.0522969,0.0737169,-0.0949775,0.142877,-0.126682,-0.0898946,0.0108337,0.0266266,0.0259399,0.0115585,0.0182724,0.00961304,0.0345993,0.0211716,-9.97986,0.0108337,0.00324249,0.0115967,-0.000686646,0.0179672,-0.0140381,0.00339508,0.00553131
10,3,10.0097,0.000610352,-0.000305176,-2.42745,0.0538499,-0.0762837,0.0513814,0.0700548,-0.095893,0.143487,-0.127598,-0.0874532,0.00793457,0.0342941,0.0224686,0.0126648,0.0178528,0.0131989,0.0357437,0.0175476,-9.97986,0.010376,0.00179291,0.0114822,0.000152588,0.0157547,-0.0113678,0.00106812,0.00675201
10,4,10.0097,0.00183105,-0.000305176,-2.42898,0.0535448,-0.0756734,0.0532125,0.0697496,-0.0934516,0.142877,-0.127903,-0.0874532,0.00801086,0.0298309,0.0203705,0.0102234,0.0153732,0.0101852,0.0358963,0.0156021,-9.97986,0.0125122,0.00133514,0.0122833,0.00205994,0.018692,-0.00629425,0.000686646,0.00514984
10,5,10.0097,0,-0.000305176,-2.42837,0.0544603,-0.0762837,0.0535176,0.0688341,-0.0925361,0.144098,-0.127292,-0.0874532,0.010643,0.0318146,0.0270462,0.00793457,0.0113678,0.00789642,0.030365,0.0172424,-9.97986,0.0146103,-0.000610352,0.0104523,0,0.0150299,0.000267029,0.00221252,0.00591278
10,6,10.0097,0.00366211,-0.000457764,-2.43111,0.0547655,-0.075063,0.0526021,0.0697496,-0.0934516,0.144098,-0.126377,-0.0847066,0.0104523,0.0383377,0.0298691,0.0102615,0.0167084,0.0120926,0.0343704,0.0188828,-9.97986,0.012207,0.00102997,0.0102997,-0.00244141,0.0173187,0.0043869,-0.00335693,0.00537872
10,7,10.0097,0.000305176,0.000305176,-2.42714,0.055681,-0.0747579,0.0532125,0.0685289,-0.0934516,0.146539,-0.126072,-0.0847066,0.01194,0.0403214,0.0297546,0.011673,0.0201797,0.0124741,0.0336075,0.0176239,-9.97986,0.00988007,0.00190735,0.012207,0.000610352,0.0193787,-3.8147e-005,-0.00305176,0.00244141
10,8,10.0097,0.000915527,-0.000457764,-2.42623,0.055681,-0.075063,0.0550435,0.0694445,-0.0937568,0.143792,-0.126377,-0.0828756,0.00793457,0.0339508,0.0306702,0.00583649,0.0165939,0.010643,0.0275421,0.0182343,-9.97986,0.0134659,0.00106812,0.0134277,0.00106812,0.017662,-0.00244141,-0.00213623,0.00476837
10,9,10.0097,0.00213623,0.000762939,-2.42287,0.0559862,-0.0741475,0.054128,0.0697496,-0.0922309,0.147455,-0.124851,-0.0822652,0.00835419,0.0218201,0.0254822,0.0075531,0.017128,0.0114441,0.028801,0.0174332,-9.97986,0.0146484,0,0.00915527,-0.000991821,0.0159836,-0.0025177,-0.00480652,0.00423431
11,0,10.0097,0.000915527,0.000305176,-2.42592,0.0562914,-0.073232,0.0562642,0.0731066,-0.0916206,0.145624,-0.125156,-0.0822652,0.00701904,0.0182343,0.0222397,0.0105667,0.0151825,0.0123978,0.0209808,0.0164413,-9.97986,0.0138092,0.00366211,0.015564,-0.000572205,0.018425,-0.00782013,-0.00469208,0.00667572
11,1,10.0097,-0.000915527,-0.000152588,-2.42409,0.0572069,-0.0735371,0.0553487,0.0715807,-0.0922309,0.145929,-0.123325,-0.0837911,0.00854492,0.0285339,0.0241089,0.00297546,0.0108719,0.00839233,0.0223923,0.0176239,-9.97986,0.0144196,0.00209808,0.00904083,-0.00190735,0.0213623,-0.00743866,-0.00366211,0.00469208
11,2,10.0097,0.00152588,-0.000457764,-2.42714,0.055681,-0.0738423,0.0550435,0.0712755,-0.0925361,0.146234,-0.123935,-0.0816549,0.00461578,0.0291061,0.0225449,0.00366211,0.0164032,0.0111771,0.0244522,0.0195694,-9.97986,0.0144196,-0.00461578,0.00946045,0.00213623,0.0163651,-0.0108337,-0.00461578,0.00476837
11,3,10.0097,0.0012207,0.000915527,-2.42501,0.0553758,-0.0744527,0.0550435,0.0709703,-0.0903999,0.146844,-0.12363,-0.0804342,0.00835419,0.0267792,0.0250244,0.00419617,0.0124359,0.0143814,0.026207,0.0176239,-9.97986,0.0132751,-0.00087738,0.00827789,-0.00286102,0.0146866,-0.00835419,-0.00488281,0.00663757
11,4,10.0097,0.000305176,-0.00152588,-2.42592,0.0559862,-0.0738423,0.0532125,0.0441149,-0.0943672,0.145318,-0.126072,-0.080129,0.0139618,0.0268555,0.0291061,0.01194,0.0152206,0.0138092,0.0304794,0.0194931,-9.97986,0.0130081,-0.00171661,0.0131989,-0.00144958,0.0181198,-0.00759125,-0.00339508,0.00366211
11,5,8.38399,0.0012207,-0.00198364,-2.42867,0.0562914,-0.0726216,0.0544332,0.0447252,-0.0934516,0.146844,-0.127292,-0.0825704,0.00846863,0.0270081,0.0250626,0.0102615,0.0133896,0.00831604,0.0302887,0.0126648,-9.97986,0.0179672,-0.00427246,0.00907898,-0.00415802,0.0141144,-0.00667572,-0.00701904,0.0031662
11,6,7.15688,-0.000305176,-0.000457764,-2.42592,0.0572069,-0.0738423,0.0544332,0.0480822,-0.0928413,0.145013,-0.125156,-0.0822652,0.0112152,0.0299835,0.0276566,0.0237274,0.0165939,0.0104904,0.032959,0.0246048,-9.97986,0.0135422,0.00205994,0.00457764,-0.000228882,0.0148392,-0.0112152,-0.00728607,0.00148773
11,7,6.98812,0.000305176,-0.000305176,-2.42806,0.0559862,-0.0738423,0.0547383,0.0630358,-0.0931465,0.145318,-0.126072,-0.085317,0.0102234,0.0327301,0.0233841,0.0167084,0.0143433,0.0139236,0.0232697,0.0202942,-9.97986,0.0161362,0.0030899,0.00469208,-0.00335693,0.0138092,-0.00907898,-0.00347137,0.00759125
11,8,7.22585,0.000915527,-0.000152588,-2.4247,0.0553758,-0.0753682,0.0535176,0.07036,-0.0913154,0.145624,-0.124851,-0.0831808,0.00991821,0.0219345,0.0274658,0.0167465,0.014801,0.0136185,0.0260925,0.0217056,-9.97986,0.0165939,0.00476837,0.010643,-0.00881195,0.0148773,-0.00801086,-0.00667572,0.00370026
11,9,8.8857,0.000915527,0.000457764,-2.42562,0.0535448,-0.0753682,0.0556539,0.0932482,-0.0910102,0.145624,-0.124546,-0.0834859,0.0103378,0.0288391,0.0233841,0.0104523,0.0139236,0.0155258,0.0231171,0.0188446,-9.97986,0.0157166,-0.000572205,0.00900269,-0.0110626,0.0127029,-0.0128555,-0.00740051,-0.000686646
12,0,10.0097,-0.00183105,0.00183105,-2.42867,0.0541551,-0.0771993,0.0529073,0.0984362,-0.0949775,0.142877,-0.125461,-0.0871481,0.00934601,0.0278854,0.0239944,0.0105667,0.0148773,0.0150299,0.021286,0.0157928,-9.97986,0.012207,0.00469208,0.00610352,-0.0118637,0.014267,-0.00953674,-0.00270844,0.00415802
12,1,10.0097,-0.000305176,0.000610352,-2.43142,0.0541551,-0.0762837,0.0522969,0.0782946,-0.094062,0.142267,-0.125156,-0.0871481,0.0120926,0.0294876,0.0227737,0.0111771,0.0128937,0.0167847,0.0191879,0.0168228,-9.97986,0.0140762,-0.000953674,0.00846863,-0.00751495,0.016861,-0.00534058,-0.00366211,0.00434875
12,2,10.0097,0.0012207,0,-2.42959,0.0532396,-0.0747579,0.0526021,0.0737169,-0.0949775,0.144098,-0.126682,-0.0856222,0.00709534,0.0247574,0.0207901,0.0130844,0.0162888,0.0143433,0.0176239,0.0221634,-9.97986,0.0155258,0.00488281,0.00705719,-0.00133514,0.0156403,-0.00679016,-0.00148773,0.0069809
12,3,10.0097,0.0012207,-0.000457764,-2.42867,0.0538499,-0.0753682,0.0516866,0.0706652,-0.0943672,0.143792,-0.126987,-0.0834859,0.01297,0.0291443,0.0238419,0.0123978,0.0156784,0.0152969,0.0172424,0.0209045,-9.97986,0.0106049,0.00923157,0.0050354,-0.00934601,0.0151825,-0.00812531,-0.001297,0.00419617
12,4,10.0097,0,-0.000305176,-2.42592,0.0553758,-0.0753682,0.0519917,0.0694445,-0.0949775,0.142877,-0.127903,-0.0877584,0.00984192,0.0247955,0.0179291,0.0122833,0.014534,0.0132751,0.0174713,0.0240326,-9.97986,0.0157928,0.0050354,0.00930786,-0.00556946,0.0157547,-0.00526428,-0.00293732,0.00179291
12,5,10.0097,0.000915527,0.000305176,-2.42867,0.0538499,-0.0747579,0.0532125,0.0752428,-0.0943672,0.144403,-0.127292,-0.0865377,0.0127792,0.0279999,0.0222015,0.0176239,0.0200653,0.0191879,0.027771,0.0302505,-9.97986,0.0192261,0.00621796,0.0117493,-0.00247955,0.0127792,0.000534058,0.00205994,0.00522614
12,6,10.0097,0.00183105,0.000305176,-2.42806,0.0547655,-0.0753682,0.054128,0.0706652,-0.0934516,0.144403,-0.126072,-0.0825704,0.00709534,0.0181961,0.0170898,0.0136185,0.0102997,0.0130081,0.021286,0.022316,-9.97986,0.0112534,-0.00896454,0.00167847,-0.00694275,0.0134277,-0.00282288,-0.0030899,-0.00301361
12,7,10.0097,0.000610352,0,-2.42562,0.0550706,-0.0753682,0.0547383,0.07036,-0.094062,0.144708,-0.125766,-0.0844015,0.010643,0.0223923,0.0181198,0.0165176,0.0144577,0.0105667,0.0348663,0.0232697,-9.97986,0.0122452,-0.00911713,0.0075531,7.62939e-005,0.0170517,0.00442505,0.000801086,0.000190735
12,8,10.0097,0.000610352,0.000915527,-2.42684,0.0559862,-0.075063,0.0532125,0.0740221,-0.0931465,0.145013,-0.125766,-0.0834859,0.0103378,0.018692,0.0219727,0.0152206,0.0147247,0.0152969,0.0325775,0.0253677,-9.97986,0.0154495,-0.00816345,0.00534058,0.00205994,0.0125504,-0.00453949,0.000839233,0.00152588
12,9,10.0097,0.000915527,0.000915527,-2.42592,0.055681,-0.0738423,0.0556539,0.0706652,-0.0922309,0.145013,-0.12363,-0.0850118,0.0117874,0.0165939,0.0217056,0.0189209,0.015564,0.0130463,0.0350189,0.0303268,-9.97986,0.01091,0.00213623,0.00534058,0.00400543,0.0143051,-0.0031662,0.00102997,0.00431061
13,0,10.0097,0.00152588,0.000762939,-2.42623,0.0559862,-0.0744527,0.0550435,0.0706652,-0.0934516,0.147149,-0.125461,-0.0822652,0.0118256,0.018425,0.017395,0.0207138,0.0119019,0.0102615,0.0403595,0.0298309,-9.97986,0.0108719,0.00938416,0.00419617,0.00400543,0.0123215,-0.00530243,0.00106812,0.00564575
13,1,10.0097,0.000610352,0.000152588,-2.42501,0.0562914,-0.0747579,0.0544332,0.0648668,-0.0910102,0.146539,-0.125461,-0.0810445,0.0136185,0.0146866,0.0223923,0.0156784,0.0123978,0.010643,0.0404358,0.0352859,-9.97986,0.013237,0.0056076,0.00637054,0.00255585,0.0180054,-0.00442505,-0.00167847,-0.000801086
13,2,10.0097,0.0012207,-0.000915527,-2.42501,0.055681,-0.0729268,0.0544332,0.0694445,-0.0919257,0.146234,-0.123325,-0.0816549,0.0102997,0.0108719,0.0222015,0.00873566,0.0100327,0.0164413,0.0343323,0.0357056,-9.97986,0.0101089,0.000495911,0.0056076,0.00461578,0.0191879,0.000305176,0.000686646,0.00358582
13,3,10.0097,0.0012207,0.000152588,-2.42531,0.0559862,-0.0726216,0.0553487,0.0709703,-0.0919257,0.146539,-0.123935,-0.080129,0.0141144,0.00858307,0.0220108,0.00812531,0.0116348,0.0163651,0.0391388,0.0340652,-9.97986,0.0104141,-0.00473022,0.00637054,0.00419617,0.0161362,-3.8147e-005,0.00679016,0.000915527
13,4,10.0097,0.000305176,-0.00152588,-2.42562,0.0562914,-0.0735371,0.054128,0.0386217,-0.0946723,0.145624,-0.126377,-0.0825704,0.0124359,0.00465393,0.0259781,0.0120544,0.0148773,0.0173187,0.0340271,0.0355911,-9.97986,0.0120544,-0.00766754,0.00518799,0.00102997,0.0199127,-0.00423431,0.00511169,0.00205994
13,5,8.45082,0.0012207,-0.00244141,-2.42531,0.0562914,-0.073232,0.0547383,0.0441149,-0.0931465,0.146539,-0.126072,-0.0828756,0.0113297,-0.000343323,0.0194931,0.00473022,0.0128937,0.00926971,0.0305176,0.0304794,-9.97986,0.00576019,-0.00457764,0.00915527,0.00827789,0.0209427,0,0.000991821,0.00534058
13,6,7.21791,-0.000915527,-0.00106812,-2.42714,0.0565965,-0.0738423,0.054128,0.0554064,-0.0919257,0.145929,-0.125156,-0.0825704,0.0112152,0.00328064,0.0180817,-0.00514984,0.0130081,0.0127029,0.0285721,0.02285,-9.97986,0.00328064,0.0104904,0.00652313,0.00797272,0.0199509,-0.00125885,0.0037384,0.00297546
13,7,7.06655,0.000610352,-0.000305176,-2.42623,0.0553758,-0.0741475,0.0550435,0.067003,-0.0928413,0.144403,-0.127903,-0.0828756,0.0127029,0.00785828,0.0220108,-0.0154114,0.0114441,0.0122452,0.0242615,0.0114059,-9.97986,0.00537872,0.0219727,0.00328064,0.0106812,0.0149536,-0.000495911,0.00522614,0.00038147
13,8,7.2759,0.000610352,0.000152588,-2.42684,0.055681,-0.0735371,0.0544332,0.0697496,-0.0910102,0.146234,-0.125766,-0.0837911,0.0158691,0.00354767,0.021553,-0.0113678,0.0112534,0.0126266,0.0238037,0.00617981,-9.97986,0.00640869,0.0110245,0.00709534,0.00617981,0.015564,-0.00255585,0.0103378,0.00534058
13,9,8.98519,-0.0012207,0.00106812,-2.42928,0.0553758,-0.0747579,0.0547383,0.0914171,-0.0894843,0.146234,-0.123935,-0.0831808,0.0160217,0.00717163,0.0195694,-0.0284958,0.0124359,0.0143814,0.0292969,-0.00427246,-9.97986,0.00427246,0.0101089,0.00911713,0.0094223,0.0189209,-0.000610352,0.00602722,0.00408173
14,0,10.0097,-0.000305176,0.00259399,-2.42745,0.0538499,-0.0762837,0.0529073,0.0984362,-0.0925361,0.144403,-0.126072,-0.0856222,0.0181961,0.0149536,0.0226974,-0.0437164,0.0102997,0.0106049,0.0292206,-0.0037384,-9.97986,0.00717163,0.00709534,0.0117874,0.0100327,0.0189972,0.000305176,0.00576019,0.00423431
14,1,10.0097,0.0012207,0.000305176,-2.42928,0.0547655,-0.0747579,0.0513814,0.0782946,-0.0955879,0.142572,-0.127292,-0.0880636,0.0181198,0.0118637,0.0195694,-0.0479507,0.0179672,0.0125885,0.0215912,-0.011673,-9.97986,0.0107956,0.00808716,0.0112915,0.0115204,0.015564,0.00450134,0.00556946,-0.000343323
14,2,10.0097,0,0.000152588,-2.42806,0.0529344,-0.0762837,0.0526021,0.0724962,-0.0955879,0.144403,-0.127598,-0.0865377,0.0183868,0.00705719,0.0141907,-0.0534439,0.0169373,0.0104141,0.0263977,-0.0129318,-9.97986,0.0102615,0.001297,0.00839233,0.0102615,0.0164032,0.00740051,0.00579834,0.00228882
14,3,10.0097,0.0012207,-0.000610352,-2.42928,0.0544603,-0.0759786,0.0532125,0.0728014,-0.0949775,0.142877,-0.129429,-0.0868429,0.0157547,0.00583649,0.00934601,-0.0377655,0.0178146,0.0131226,0.0236893,-0.0162888,-9.97986,0.0115967,0.00263214,0.0056839,0.0110626,0.0150681,-0.00133514,0.00713348,0.00217438
14,4,10.0097,0.000305176,0,-2.42989,0.0550706,-0.0759786,0.0522969,0.0697496,-0.0946723,0.144098,-0.126987,-0.0880636,0.0151062,0.0102997,0.0123978,-0.00293732,0.0201416,0.0113678,0.0226593,-0.0125504,-9.97986,0.0117111,-0.00038147,0.00740051,0.0108719,0.0212479,-0.000419617,0.00499725,0.00209808
14,5,10.0097,0.00274658,-0.000152588,-2.42867,0.0544603,-0.075063,0.0565694,0.0697496,-0.0949775,0.143487,-0.127292,-0.0862325,0.0137711,0.0291824,0.0234985,0.0172043,0.0188446,0.0151062,0.02491,-0.00835419,-9.97986,0.0159836,-0.000724792,0.00812531,0.014267,0.0177002,-0.00205994,0.00652313,-0.000419617
14,6,10.0097,0.00183105,0,-2.42806,0.0547655,-0.075063,0.0529073,0.0676134,-0.0943672,0.145013,-0.124851,-0.0850118,0.0126648,0.0480652,0.0281525,-0.00221252,0.0226974,0.0159073,0.0211716,-0.00656128,-9.97986,0.0162506,-0.0019455,0.0106049,0.0146484,0.0180817,0.00221252,0.0056839,0.000419617
14,7,10.0097,0.000610352,0,-2.42653,0.0550706,-0.0747579,0.054128,0.0700548,-0.0934516,0.145929,-0.125156,-0.085317,0.0119019,0.0624466,0.032196,-0.0171661,0.0226974,0.015831,0.0229645,0.000343323,-9.97986,0.0205994,-0.00305176,0.0114441,0.0113297,0.021553,0.00362396,0.00267029,0.00511169
14,8,10.0097,0,0.000152588,-2.42928,0.0544603,-0.0765889,0.0522969,0.0700548,-0.094062,0.144403,-0.125156,-0.0840963,0.010643,0.0626755,0.0449753,-0.00404358,0.0204468,0.0157547,0.0249481,0.00324249,-9.97986,0.0210571,0.00358582,0.0104904,0.0135803,0.022583,0.00358582,0.0037384,0.00370026
14,9,10.0097,-0.000305176,0,-2.42562,0.0550706,-0.0747579,0.0544332,0.0688341,-0.0910102,0.145929,-0.123325,-0.0825704,0.0136948,0.0547028,0.0448608,0.0370789,0.0247574,0.0175476,0.0213623,0.0111771,-9.97986,0.0191116,0.000267029,0.0102234,0.0139618,0.018425,0.00541687,0.0101852,0.00221252
15,0,10.0097,0.000305176,0,-2.42562,0.0559862,-0.0729268,0.0544332,0.0712755,-0.0910102,0.146234,-0.124546,-0.0837911,0.00789642,0.0558472,0.0453568,0.0662613,0.0212097,0.0138474,0.02388,0.0149536,-9.97986,0.0212479,-0.000305176,0.00694275,0.0126648,0.0199127,0.00232697,0.00846863,0.00205994
15,1,10.0097,0,0,-2.42379,0.0559862,-0.0735371,0.0590108,0.0712755,-0.0925361,0.147149,-0.124241,-0.0813497,0.00774384,0.0633621,0.0440979,0.0658035,0.0237274,0.0113297,0.0183105,0.0143814,-9.97986,0.0244904,0,0.00762939,0.0181961,0.0204086,-0.000114441,0.0115204,-0.000419617
15,2,10.0097,-0.000305176,-0.000457764,-2.42379,0.0562914,-0.0735371,0.0538228,0.072191,-0.0922309,0.146234,-0.124546,-0.0816549,0.00793457,0.0648117,0.041008,0.0543976,0.0247192,0.014267,0.018692,0.0141525,-9.97986,0.0233841,-0.000267029,0.0087738,0.0106049,0.0177765,0.00427246,0.0115204,0.00396729
15,3,10.0097,0.000305176,0.000305176,-2.42501,0.0565965,-0.073232,0.0547383,0.0718859,-0.0919257,0.145624,-0.123935,-0.080129,0.00431061,0.0655365,0.0386429,0.0691605,0.0177383,0.0117493,0.0154114,0.0169754,-9.97986,0.0302887,-0.00232697,0.00843048,0.0143433,0.0170135,0.001297,0.0136185,0.00465393
15,4,10.0097,-0.000610352,-0.000915527,-2.42562,0.0550706,-0.0735371,0.0501607,0.0416735,-0.094062,0.146539,-0.126072,-0.0825704,0.0102615,0.0684357,0.0367355,0.085144,0.0202179,0.0128555,0.0219345,0.0208664,-9.97986,0.027771,0.00202179,0.00705719,0.0125122,0.0179672,-0.00400543,0.0146484,0.0031662
15,5,8.14992,0.00152588,-0.00167847,-2.42562,0.0559862,-0.0744527,0.0556539,0.0416735,-0.094062,0.145624,-0.126072,-0.0819601,0.00720978,0.0686264,0.0257492,0.07164,0.0225449,0.00675201,0.0206375,0.0171661,-9.97986,0.025177,0.00228882,0.00656128,0.016098,0.0211716,-0.00396729,0.0138092,0.0030899
15,6,6.85292,0,-0.0012207,-2.42653,0.0562914,-0.0738423,0.0538228,0.054796,-0.0925361,0.145929,-0.126072,-0.0819601,0.00770569,0.0690079,0.0167084,0.0608063,0.0162125,0.00907898,0.0229645,0.016861,-9.97986,0.0255203,0.000190735,0.00846863,0.0141907,0.019989,0.0019455,0.0131607,0.00385284
15,7,6.69332,0.000305176,-0.000457764,-2.42653,0.055681,-0.0741475,0.0547383,0.0639513,-0.090705,0.146234,-0.126377,-0.0828756,0.00400543,0.0600433,0.00232697,0.0533295,0.0179672,0.0087738,0.0197601,0.0196838,-9.97986,0.0254822,-0.00289917,0.0102234,0.0150299,0.0163651,0.00175476,0.013237,0.00610352
15,8,6.91579,0.000610352,0,-2.42562,0.055681,-0.0747579,0.0562642,0.0691393,-0.0913154,0.146234,-0.125156,-0.0834859,0.0063324,0.0520706,-0.0165558,0.0534439,0.0221252,0.00907898,0.020256,0.0222397,-9.97986,0.0255585,-0.00259399,0.0104523,0.0126266,0.0175476,-0.00125885,0.0202942,0.00770569
15,9,8.5909,-0.000610352,0.00152588,-2.42745,0.0541551,-0.0747579,0.054128,0.092943,-0.0913154,0.144098,-0.12363,-0.0834859,0.00328064,0.0429916,-0.0261688,0.0497055,0.0208282,0.00976563,0.0220871,0.018425,-9.97986,0.0271606,-0.00225067,0.0101852,0.0123978,0.0179672,0.00259399,0.0177002,0.00392914
16,0,10.0097,0.000915527,0.00213623,-2.42653,0.0529344,-0.0762837,0.0522969,0.100572,-0.0931465,0.142572,-0.125461,-0.0859274,0.00358582,0.0353622,-0.027771,0.0393295,0.0205231,0.0143814,0.0265884,0.0146484,-9.97986,0.0267029,-0.00179291,0.00965118,0.0151443,0.0120163,0.00164032,0.0204086,0.00576019
16,1,10.0097,0.000305176,0.000762939,-2.42959,0.0541551,-0.0771993,0.0519917,0.0804308,-0.0955879,0.143182,-0.126987,-0.0871481,0.00606537,0.0299835,-0.0275803,0.0403976,0.0219727,0.00919342,0.0289154,0.0149155,-9.97986,0.0227737,-0.00297546,0.0123215,0.0196075,0.0205994,0.0069046,0.0196838,0.00579834
16,2,10.0097,0.000610352,0.000305176,-2.42806,0.0535448,-0.075063,0.0532125,0.0728014,-0.0955879,0.143182,-0.127598,-0.0871481,0.00823975,0.0239563,-0.0282669,0.0351715,0.0161743,0.00583649,0.0257111,0.0179291,-9.97986,0.0242233,-0.00312805,0.012207,0.0160217,0.0189972,0.0044632,0.0133514,0.00408173
16,3,10.0097,0,-0.000915527,-2.42928,0.0544603,-0.0753682,0.054128,0.0700548,-0.0943672,0.144403,-0.127292,-0.0874532,0.00759125,0.019989,-0.0256729,0.0309753,0.0162125,0.0115585,0.0253677,0.0167465,-9.97986,0.0210953,-0.001297,0.0117874,0.0195694,0.0205612,0.00358582,0.019722,0.00606537
16,4,10.0097,0,-0.000610352,-2.43081,0.0538499,-0.0762837,0.0522969,0.0694445,-0.0946723,0.142877,-0.127292,-0.0868429,0.0113297,0.0183105,-0.019455,0.0328445,0.0209045,0.0151062,0.0271988,0.0184631,-9.97986,0.0172043,-0.000762939,0.01091,0.016098,0.0178528,-0.00171661,0.0199509,0.00476837
16,5,10.0097,0.0012207,0.000152588,-2.42745,0.0532396,-0.0756734,0.0516866,0.0682238,-0.0937568,0.143487,-0.127292,-0.085317,0.0100327,0.0157928,-0.010376,0.0296021,0.0217056,0.0124359,0.0221252,0.018959,-9.97986,0.0179291,-0.00125885,0.00694275,0.0157166,0.0165176,-0.0037384,0.0182343,0.00476837
16,6,10.0097,0.000915527,-0.000610352,-2.42867,0.0547655,-0.0756734,0.0513814,0.0694445,-0.0937568,0.144708,-0.128208,-0.0850118,0.00541687,0.0175095,-0.0168991,0.0211334,0.0180817,0.00900269,0.0221634,0.0174713,-9.97986,0.0162888,-0.00137329,0.00850677,0.0165558,0.020256,-0.00347137,0.0189972,0.00358582
16,7,10.0097,0.00274658,-0.000152588,-2.42776,0.0535448,-0.075063,0.0535176,0.0712755,-0.0919257,0.145318,-0.126682,-0.0840963,0.00934601,0.0172424,-0.00709534,0.0258636,0.0207901,0.00507355,0.0238419,0.019989,-9.97986,0.0188828,0.00335693,0.0102615,0.0178909,0.0200653,-0.00114441,0.017128,0.00667572
16,8,10.0097,0,0,-2.42776,0.0535448,-0.0738423,0.0535176,0.0700548,-0.0925361,0.145624,-0.125461,-0.0844015,0.00682831,0.0136185,-0.00396729,0.0159454,0.0165939,0.0130081,0.0180054,0.0230789,-9.97986,0.0141907,-0.00255585,0.00953674,0.0122833,0.0199509,-0.00404358,0.0200653,0.00431061
16,9,10.0097,0,0.000152588,-2.42562,0.0562914,-0.075063,0.0532125,0.0694445,-0.0928413,0.146539,-0.124241,-0.0825704,0.00602722,0.0152588,0.00217438,0.0176239,0.0193787,0.0107574,0.0259781,0.0204086,-9.97986,0.0170517,-0.0135803,0.0120163,0.0130844,0.0179291,-0.00305176,0.0196838,0.00766754
17,0,10.0097,0.000915527,0,-2.42501,0.0541551,-0.0741475,0.0550435,0.0709703,-0.0922309,0.145929,-0.124546,-0.0816549,0.0102615,0.0172043,0.00102997,0.0136948,0.0195694,0.0082016,0.0225067,0.0215149,-9.97986,0.0200272,-0.00747681,0.00671387,0.0135422,0.0232315,0.00221252,0.021553,0.0063324
17,1,10.0097,0.000915527,0,-2.42531,0.055681,-0.0753682,0.0556539,0.0715807,-0.0916206,0.14776,-0.123325,-0.0831808,0.0109482,0.0177002,0.00396729,0.0149918,0.0195313,0.0117874,0.0196075,0.0239944,-9.97986,0.0129318,-0.00133514,0.00598907,0.0087738,0.0196457,0.00484467,0.021019,0.00556946
17,2,10.0097,0.0012207,0.000152588,-2.42501,0.0559862,-0.0735371,0.0556539,0.0700548,-0.0922309,0.146539,-0.12302,-0.0810445,0.0100327,0.0124359,0.0111771,0.0109482,0.0208282,0.0127411,0.0189209,0.0164795,-9.97986,0.014267,0.000839233,0.0123978,0.00995636,0.018158,0.0127411,0.0242615,0.00350952
17,3,10.0097,0.00183105,0.000305176,-2.42501,0.055681,-0.0726216,0.0544332,0.0718859,-0.0913154,0.145624,-0.124241,-0.0807394,0.00553131,0.00740051,0.0114059,0.0114822,0.0193024,0.0106049,0.0231552,0.0213623,-9.97986,0.0156403,0.00473022,0.0115585,0.00991821,0.0178146,0.0103378,0.0208664,0.00469208
17,4,10.0097,0.000610352,-0.00152588,-2.42592,0.0569017,-0.0738423,0.054128,0.0416735,-0.0965034,0.146234,-0.127292,-0.0822652,0.00797272,0.0130463,0.01297,0.0105286,0.0271988,0.0102615,0.0231552,0.032196,-9.97986,0.0120926,0.00526428,0.00579834,0.011673,0.0146103,0.00686646,0.0194168,0.0043869
17,5,8.03823,0.000610352,-0.00152588,-2.42653,0.0559862,-0.0735371,0.054128,0.0441149,-0.0919257,0.146539,-0.126377,-0.0807394,0.01091,0.0129318,0.0142288,0.00526428,0.0257111,0.0119019,0.0255966,0.0353241,-9.97986,0.0131226,0.00282288,0.0139236,0.0125122,0.0130081,0.00347137,0.0218582,0.00827789
17,6,6.75801,0.000305176,-0.0012207,-2.42684,0.055681,-0.0738423,0.0547383,0.054796,-0.0913154,0.146539,-0.125156,-0.0828756,0.0107193,0.0117111,0.0180054,0.00572205,0.0269318,0.0120926,0.0240326,0.0401306,-9.97986,0.0138474,0.00293732,0.0100327,0.0104904,0.0140381,-0.000457764,0.0221252,0.00473022
17,7,6.55751,0.000305176,-0.000152588,-2.42714,0.0550706,-0.0756734,0.0556539,0.0633409,-0.0913154,0.145624,-0.126072,-0.0828756,0.0130844,0.0140381,0.0191116,0.00812531,0.0283813,0.011673,0.0244522,0.033493,-9.97986,0.0115967,0.00392914,0.00747681,0.0109482,0.0175858,0.001297,0.0225067,0.00526428
17,8,6.73635,0,-0.000305176,-2.42837,0.055681,-0.0744527,0.0550435,0.0712755,-0.0913154,0.145013,-0.126377,-0.0837911,0.0142288,0.0159073,0.020256,0.00263214,0.0257492,0.00541687,0.0235748,0.0287628,-9.97986,0.0137329,0.00114441,0.0114441,0.00713348,0.017395,0.000343323,0.0162506,0.00511169
17,9,8.44777,0.000305176,0.000762939,-2.42684,0.0550706,-0.075063,0.0544332,0.0923326,-0.0900947,0.145013,-0.124241,-0.0834859,0.010376,0.0112915,0.0216675,0.00110626,0.0259399,0.00938416,0.0249481,0.0316238,-9.97986,0.0150299,-0.00125885,0.0149918,0.00831604,0.0177002,0.00720978,0.0211334,0.0044632
18,0,10.0097,-0.000305176,0.00213623,-2.42959,0.0544603,-0.0762837,0.0544332,0.102403,-0.0925361,0.142267,-0.125156,-0.0859274,0.0145721,0.0154877,0.0177765,0.00171661,0.0239182,0.0115585,0.0234604,0.0234604,-9.97986,0.0108337,-0.00343323,0.0131607,0.0112152,0.0136566,0.00778198,0.0219727,0.00518799
18,1,10.0097,0,0.000305176,-2.42959,0.0541551,-0.0762837,0.0526021,0.080736,-0.0946723,0.144403,-0.124851,-0.0865377,0.012207,0.0180435,0.0192261,0.00087738,0.0270844,0.00549316,0.0257492,0.0150299,-9.97986,0.0114822,0.00415802,0.0102615,0.0105286,0.0147247,0.00980377,0.025177,0.0025177
18,2,10.0097,0,-0.000152588,-2.42867,0.0544603,-0.0756734,0.0519917,0.0718859,-0.0955879,0.144098,-0.126987,-0.0865377,0.00888824,0.0165176,0.0239182,-0.00389099,0.0231934,0.0136948,0.0191498,-0.00946045,-9.97986,0.0105286,0.0025177,0.00946045,0.00534058,0.0156784,0.0113678,0.0213242,0.0012207
18,3,10.0097,-0.000305176,0,-2.42928,0.0535448,-0.0753682,0.0532125,0.0697496,-0.0943672,0.143487,-0.128208,-0.0877584,0.00816345,0.0179291,0.0251007,-0.00530243,0.0272369,0.00965118,0.0165176,-0.0176239,-9.97986,0.0124741,0.000419617,0.013237,0.0069046,0.0124741,0.00827789,0.022049,0.00709534
18,4,10.0097,0.000915527,-0.000457764,-2.4305,0.0547655,-0.0765889,0.0516866,0.0688341,-0.0961982,0.144098,-0.127903,-0.0871481,0.00205994,0.0144958,0.02285,-0.00144958,0.0226974,0.0103378,0.013237,0.00160217,-9.97986,0.0148392,0.00164032,0.0118637,0.00957489,0.0169373,0.00793457,0.0218582,0.00392914
18,5,10.0097,-0.00152588,-0.000457764,-2.42806,0.0532396,-0.0753682,0.0522969,0.0715807,-0.0937568,0.144403,-0.126072,-0.0865377,0.00679016,0.00862122,0.0230026,0.00160217,0.0286102,0.0113678,0.0153732,0.0165558,-9.97986,0.0143051,0.000724792,0.00923157,0.00720978,0.0149536,0.00648499,0.0245667,0.00732422
18,6,10.0097,-0.000610352,-0.000457764,-2.42776,0.0541551,-0.0759786,0.0529073,0.0709703,-0.0937568,0.145013,-0.126682,-0.0850118,0.00888824,0.011673,0.0231552,-0.000953674,0.0238419,0.00782013,0.00904083,0.0161743,-9.97986,0.00991821,-0.00457764,0.0108719,0.00854492,0.0129318,0.00473022,0.0231552,0.00686646
18,7,10.0097,0.000610352,0.000305176,-2.42898,0.0550706,-0.0762837,0.0522969,0.0700548,-0.0946723,0.144098,-0.126987,-0.0850118,0.0100708,0.0105667,0.0207138,-0.00370026,0.0208282,0.0112534,0.0127029,0.00804901,-9.97986,0.0125504,-0.0141907,0.0132751,0.00934601,0.0157547,0.00705719,0.0252151,0.00553131
18,8,10.0097,0.00152588,-0.000152588,-2.42714,0.0547655,-0.0738423,0.0547383,0.0709703,-0.0931465,0.143487,-0.126072,-0.0834859,0.00358582,0.01194,0.025444,-0.00259399,0.0207901,0.00961304,0.013504,0.0114441,-9.97986,0.0115585,-0.00614166,0.0127029,0.0102997,0.0123596,0.00156403,0.0217819,0.00419617
18,9,10.0097,0.000915527,0.000457764,-2.42653,0.0547655,-0.0735371,0.054128,0.0712755,-0.0910102,0.145929,-0.124851,-0.0822652,0.0130463,0.0141144,0.0252533,-0.00392914,0.0204086,0.00652313,0.01091,0.0123596,-9.97986,0.0131607,0.00850677,0.0111008,0.0103378,0.0127792,0.00492096,0.0255203,0.0082016
19,0,10.0097,0.000610352,-0.000152588,-2.42348,0.0553758,-0.0741475,0.0550435,0.0697496,-0.0916206,0.147149,-0.125156,-0.0810445,0.0115204,0.012207,0.0204468,-0.00335693,0.0192261,0.00835419,0.00835419,0.0123978,-9.97986,0.0105286,0.00980377,0.0125122,0.00835419,0.0157166,0.00370026,0.0233841,0.00534058
19,1,10.0097,-0.000305176,-0.000457764,-2.42562,0.0569017,-0.0744527,0.055959,0.0706652,-0.0922309,0.146234,-0.124241,-0.0816549,0.0105286,0.0141907,0.0243378,-0.00370026,0.0192642,0.0115204,0.0069046,0.0140381,-9.97986,0.0106049,-7.62939e-005,0.00995636,0.00804901,0.00770569,-0.00274658,0.0231171,0.00656128
19,2,10.0097,0.00244141,0.000152588,-2.42531,0.055681,-0.0735371,0.0544332,0.0697496,-0.0910102,0.146844,-0.124241,-0.0819601,0.0082016,0.0111771,0.0242996,-0.00274658,0.020752,0.0105286,0.00736237,0.0172043,-9.97986,0.0131989,-0.00354767,0.00930786,0.00476837,0.0159454,-0.00217438,0.0241852,0.0062561
19,3,10.0097,-0.000305176,0.000762939,-2.42623,0.055681,-0.073232,0.0550435,0.07036,-0.0922309,0.146234,-0.124546,-0.0804342,0.0103378,0.0124359,0.0259018,-0.00286102,0.0201416,0.0062561,0.0128937,0.0165558,-9.97986,0.0151443,0.00415802,0.0087738,0.00797272,0.0141144,-0.00297546,0.0246811,0.00652313
19,4,10.0097,0.0012207,-0.000762939,-2.4244,0.0553758,-0.0738423,0.0538228,0.0441149,-0.0952827,0.147149,-0.126377,-0.0819601,0.00785828,0.0189972,0.0214005,0.00606537,0.0215149,0.0111008,0.0153732,0.0143051,-9.97986,0.0136185,0.0119781,0.0142288,0.00843048,0.0169754,-0.00366211,0.0254822,0.00617981
19,5,8.46059,0.00183105,-0.00198364,-2.42714,0.0575121,-0.0741475,0.0550435,0.0447252,-0.0931465,0.146539,-0.126682,-0.0822652,0.00881195,0.0191879,0.0226974,0.00431061,0.015831,0.00545502,0.0178528,0.0174713,-9.97986,0.0132751,0.00404358,0.0134277,0.00545502,0.0118637,-0.00518799,0.0277328,0.00732422
19,6,7.25972,-0.000305176,-0.000915527,-2.42531,0.0559862,-0.0744527,0.0571797,0.0544908,-0.0919257,0.145318,-0.125766,-0.0822652,0.0108337,0.0193405,0.0273514,0.00370026,0.0162888,0.0137329,0.0204086,0.0144958,-9.97986,0.0130463,-0.0136185,0.00938416,0.00617981,0.0151443,-0.00396729,0.0276947,0.00854492
19,7,7.10469,0.00183105,-0.000610352,-2.42623,0.055681,-0.0744527,0.0553487,0.0645616,-0.0922309,0.144403,-0.126987,-0.0840963,0.0106812,0.0233841,0.0260925,0.00141144,0.0179291,0.00774384,0.020752,0.0183105,-9.97986,0.0140381,-0.0165176,0.0128555,0.00530243,0.0165176,-0.00389099,0.0268173,0.0112534
19,8,7.30031,0.00183105,0,-2.42592,0.055681,-0.0753682,0.0532125,0.0700548,-0.0925361,0.144403,-0.126072,-0.0840963,0.00808716,0.0254822,0.0281143,0.00762939,0.0194168,0.0069046,0.0286865,0.0204086,-9.97986,0.0127029,-0.00717163,0.0172806,0.0031662,0.0131226,-0.00900269,0.0218964,0.00499725
19,9,8.98549,0.000305176,0.00152588,-2.42623,0.055681,-0.0747579,0.0547383,0.092943,-0.0928413,0.144098,-0.124241,-0.0831808,0.00968933,0.0245667,0.0310516,0.0063324,0.0186539,0.00778198,0.0321579,0.0121307,-9.97986,0.0104904,-0.00766754,0.0157928,0.00629425,0.0166702,-0.00240326,0.0281906,0.00823975
20,0,10.0097,0.000915527,0.00228882,-2.42806,0.0535448,-0.0747579,0.0532125,0.0978258,-0.094062,0.144708,-0.125766,-0.0865377,0.00850677,0.0261688,0.033493,0.00247955,0.0200653,0.00835419,0.0362015,0.0172806,-9.97986,0.0107574,-0.00667572,0.0121689,0.00392914,0.0164032,-0.00476837,0.0276566,0.00465393
20,1,10.0097,-0.00183105,0.0012207,-2.42867,0.0550706,-0.0756734,0.0535176,0.080736,-0.0955879,0.143182,-0.126377,-0.0865377,0.0107574,0.0342941,0.0286865,0.00488281,0.0220108,0.00541687,0.0301743,0.0173187,-9.97986,0.0135803,-0.00202179,0.0167465,0.00709534,0.0139618,-0.00511169,0.0257111,0.0082016
20,2,10.0097,0.000610352,0.000152588,-2.43081,0.0544603,-0.0759786,0.0519917,0.0731066,-0.0955879,0.144098,-0.126987,-0.0868429,0.0116348,0.0348282,0.0299835,0.00640869,0.0178909,0.0105286,0.0320816,0.015831,-9.97986,0.00938416,-0.00484467,0.0172806,0.00595093,0.0162125,-0.00896454,0.0263214,0.00816345
20,3,10.0097,0.000915527,-0.000762939,-2.42898,0.0535448,-0.0762837,0.0510762,0.0700548,-0.0955879,0.142877,-0.127292,-0.0871481,0.0108719,0.0267029,0.0291443,0.00209808,0.0209427,0.00720978,0.0208664,0.0205994,-9.97986,0.0127792,-0.00522614,0.0155258,0.0115204,0.014534,-0.0112915,0.0251007,0.00850677
20,4,10.0097,0.0012207,-0.000915527,-2.42959,0.0538499,-0.0759786,0.0522969,0.0688341,-0.0946723,0.143792,-0.127598,-0.0877584,0.00980377,0.0298691,0.0307846,0.00526428,0.0198364,0.0108719,0.0198364,0.0197983,-9.97986,0.0127411,0.00297546,0.0101852,0.0114441,0.013504,-0.0125885,0.0231552,0.0114822
20,5,10.0097,0.0012207,-0.000305176,-2.42867,0.0538499,-0.075063,0.0519917,0.0688341,-0.0931465,0.144403,-0.126987,-0.0862325,0.0087738,0.0354385,0.0259018,0.00637054,0.0173187,0.0126266,0.0200653,0.0191116,-9.97986,0.011673,0.0136948,0.0110626,0.0104523,0.0102997,-0.0175476,0.0239563,0.00717163
20,6,10.0097,0.000610352,-0.000152588,-2.42806,0.0544603,-0.0753682,0.0529073,0.0706652,-0.0955879,0.144403,-0.126072,-0.0862325,0.0129318,0.0379562,0.0214767,0.00331879,0.0139618,0.0113297,0.0242233,0.0196457,-9.97986,0.01194,0.0155258,0.00991821,0.00774384,0.00965118,-0.0154114,0.0249863,0.00617981
20,7,10.0097,0.000915527,-0.000305176,-2.42714,0.0541551,-0.0747579,0.054128,0.07036,-0.0946723,0.144403,-0.126377,-0.0856222,0.0109482,0.0351334,0.0188828,0.00377655,0.0154877,0.013504,0.0305939,0.0202942,-9.97986,0.0110626,0.00572205,0.00751495,0.00675201,0.013237,-0.0189209,0.0250244,0.00881195
20,8,10.0097,0.000915527,0.000915527,-2.42806,0.0541551,-0.0762837,0.0538228,0.0706652,-0.0934516,0.144403,-0.126072,-0.0828756,0.00743866,0.0195694,0.0136566,0.00675201,0.0196457,0.00957489,0.0299835,0.0141525,-9.97986,0.0136185,-0.001297,0.0156403,0.00762939,0.0135803,-0.0170898,0.0236893,0.0103378
20,9,10.0097,0.000305176,0,-2.42592,0.0541551,-0.0744527,0.054128,0.0715807,-0.0928413,0.146234,-0.126377,-0.0831808,0.0102997,-0.00499725,0.0144196,0.00793457,0.0162506,0.0115585,0.0282669,0.0149536,-9.97986,0.0130844,-0.0115585,0.0138474,0.00476837,0.0113678,-0.0152206,0.0242615,0.0122452
21,0,10.0097,0,-0.000152588,-2.42531,0.0565965,-0.0747579,0.0544332,0.0709703,-0.0934516,0.147455,-0.125156,-0.0822652,0.00740051,-0.00141144,0.0193405,0.00335693,0.0157166,0.00827789,0.025177,0.0180435,-9.97986,0.0110245,-0.0100708,0.0107574,0.0114822,0.00812531,-0.0125504,0.0242615,0.00732422
21,1,10.0097,-0.000305176,-0.000305176,-2.42379,0.0572069,-0.0744527,0.0544332,0.0712755,-0.0922309,0.146234,-0.123325,-0.0813497,0.0101852,0.00274658,0.0205231,0.0107574,0.0158691,0.0112152,0.0242615,0.0176239,-9.97986,0.0154495,-0.00530243,0.0143051,0.00530243,0.0109863,-0.0139618,0.0246048,0.00671387
21,2,10.0097,0.0012207,0.000152588,-2.4247,0.0565965,-0.075063,0.0544332,0.0700548,-0.0903999,0.146539,-0.125461,-0.0816549,0.0123215,0.00526428,0.0153351,0.00839233,0.0185776,0.0122833,0.0261688,0.0193787,-9.97986,0.018425,-0.00766754,0.00888824,0.00469208,0.01297,-0.0114822,0.02285,0.0100327
21,3,10.0097,-0.000305176,-0.00106812,-2.42592,0.0565965,-0.0741475,0.0550435,0.0715807,-0.0910102,0.147149,-0.123325,-0.0798238,0.0131607,0.0102615,0.00656128,0.00408173,0.0195313,0.010643,0.0233841,0.0202942,-9.97986,0.0161362,-0.0069809,0.0164795,-0.000572205,0.0168991,-0.00442505,0.0232697,0.0100327
21,4,10.0097,-0.000305176,-0.00167847,-2.42562,0.0569017,-0.073232,0.0522969,0.04442,-0.094062,0.145929,-0.126682,-0.0825704,0.0102234,0.0125885,0.00663757,0.00320435,0.0186157,0.010376,0.0211716,0.0176239,-9.97986,0.0111008,-0.00488281,0.0128937,-0.00152588,0.0146103,-0.00915527,0.0221252,0.00846863
21,5,8.43007,0.000610352,-0.00198364,-2.42592,0.0562914,-0.0735371,0.054128,0.0431993,-0.094062,0.146844,-0.125156,-0.0804342,0.0106812,0.0190735,0.01194,0.0125885,0.0181961,0.0104523,0.0232697,0.0172043,-9.97986,0.014801,-0.00370026,0.0143051,-0.000915527,0.0160599,-0.0063324,0.0236893,0.00617981
21,6,7.18831,0.000915527,-0.000610352,-2.42623,0.0553758,-0.0744527,0.0547383,0.0557115,-0.0919257,0.146539,-0.126072,-0.0822652,0.0113297,0.0170898,0.0193787,0.0111771,0.0190353,0.00770569,0.0202179,0.0217819,-9.97986,0.013504,-0.00865936,0.011673,-0.00179291,0.0138855,-0.0102997,0.0247192,0.00751495
21,7,7.03969,0.00152588,-0.000152588,-2.42623,0.0547655,-0.0738423,0.0538228,0.0621202,-0.0928413,0.145929,-0.125461,-0.0825704,0.0135422,0.0154495,0.0243759,0.0126266,0.0191498,0.00911713,0.0192642,0.0208664,-9.97986,0.0136185,-0.00343323,0.0167084,-0.000839233,0.00988007,-0.0043869,0.0200653,0.0111008
21,8,7.23683,0.000305176,-0.000305176,-2.42714,0.0553758,-0.0747579,0.0544332,0.0712755,-0.0916206,0.146234,-0.126072,-0.0816549,0.0134277,0.0183868,0.0217056,0.0132751,0.0204849,0.00972748,0.0151825,0.0226593,-9.97986,0.0133133,-0.00431061,0.0128174,-0.000152588,0.00965118,-0.00743866,0.0193405,0.00839233
21,9,8.91622,0,0.00183105,-2.42562,0.0544603,-0.0747579,0.0562642,0.0923326,-0.090705,0.145318,-0.124241,-0.0837911,0.0117493,0.0190735,0.0239944,0.0104141,0.0179291,0.0120163,0.019455,0.0235367,-9.97986,0.0165939,-0.00370026,0.0137329,0.00270844,0.0110245,-0.00232697,0.0166321,0.00911713
22,0,10.0097,-0.0012207,0.00259399,-2.42928,0.0538499,-0.0759786,0.0519917,0.0962999,-0.0925361,0.143182,-0.126072,-0.085317,0.0123596,0.0216675,0.0210571,0.00888824,0.0217056,0.00610352,0.0212479,0.0192642,-9.97986,0.0138474,-0.00343323,0.0130463,0.0056076,0.0127411,0.00240326,0.0184631,0.00873566
22,1,10.0097,0.000610352,0.000762939,-2.42928,0.0535448,-0.0775044,0.0532125,0.0792101,-0.0961982,0.145318,-0.126377,-0.0844015,0.0113297,0.0216675,0.0235748,0.00953674,0.019989,0.00740051,0.0169373,0.0191879,-9.97986,0.0167465,-0.00488281,0.0144196,0.00244141,0.0172043,0.00492096,0.0154114,0.0115204
22,2,10.0097,-0.000305176,0.000152588,-2.42806,0.0538499,-0.0762837,0.0519917,0.0728014,-0.0949775,0.143792,-0.127292,-0.0874532,0.0144196,0.0233459,0.0135803,0.0094986,0.0180054,0.00953674,0.0177383,0.0154495,-9.97986,0.0112152,-0.00396729,0.0125504,0.00324249,0.0117493,0.00457764,0.0180817,0.0101852
22,3,10.0097,-0.000610352,-0.000457764,-2.42928,0.0538499,-0.0753682,0.0519917,0.067003,-0.0949775,0.143487,-0.126682,-0.0877584,0.0130081,0.0248337,0.0151062,0.00782013,0.0162506,0.0130463,0.0151825,0.0193024,-9.97986,0.0174713,-0.00293732,0.0154877,0.000686646,0.00778198,0.00427246,0.0171661,0.00808716
22,4,10.0097,0.000305176,-0.0012207,-2.42989,0.0535448,-0.0768941,0.0526021,0.0697496,-0.0946723,0.143792,-0.126682,-0.0859274,0.00946045,0.0151825,0.0165176,0.0137711,0.0161743,0.0104141,0.0165176,0.0198364,-9.97986,0.0152969,-0.00350952,0.0152206,-0.00339508,0.00671387,0.00183105,0.0127792,0.00797272
22,5,10.0097,0.000915527,0.000152588,-2.42714,0.0544603,-0.0759786,0.0513814,0.0685289,-0.0937568,0.142572,-0.127292,-0.0859274,0.0141144,0.0230026,0.0175095,0.0115585,0.0186539,0.0126648,0.014801,0.0167847,-9.97986,0.0141907,-0.00499725,0.011673,-0.00152588,0.0117874,0.00228882,0.0112152,0.00804901
22,6,10.0097,0.00183105,0,-2.42806,0.0547655,-0.0762837,0.0529073,0.0697496,-0.0934516,0.145318,-0.126987,-0.085317,0.0147247,0.0217819,0.0139618,0.0112915,0.0146484,0.01194,0.014267,0.0173187,-9.97986,0.0139999,-0.000762939,0.0130081,-0.00370026,0.0110626,-0.000610352,0.0136948,0.00766754
22,7,10.0097,0.000305176,-0.000457764,-2.42806,0.0544603,-0.0753682,0.0526021,0.0697496,-0.0925361,0.144403,-0.126377,-0.085317,0.00957489,0.0239182,0.0188065,0.00736237,0.0163269,0.0146484,0.0165558,0.0165176,-9.97986,0.0125504,-0.00293732,0.0115204,-0.00686646,0.0141525,-0.00160217,0.0122452,0.0100327
22,8,10.0097,0.00152588,0.000152588,-2.42776,0.0559862,-0.0744527,0.0535176,0.0694445,-0.0937568,0.144098,-0.126377,-0.0831808,0.0160599,0.0225449,0.0150681,0.0106049,0.0133133,0.0122452,0.0148392,0.016861,-9.97986,0.0156784,-0.00423431,0.00892639,0.00305176,0.0128555,-0.00694275,0.0132751,0.00946045
22,9,10.0097,0.000610352,0.000457764,-2.42592,0.0559862,-0.0744527,0.054128,0.0709703,-0.0922309,0.143792,-0.124851,-0.0819601,0.0122452,0.0259018,0.0186157,0.01194,0.0176239,0.0128937,0.0169373,0.0166702,-9.97986,0.0130463,-0.00408173,0.0130463,0.00198364,0.0146103,-0.00652313,0.0127411,0.0101852
23,0,10.0097,0.000305176,0.000305176,-2.4247,0.0550706,-0.0753682,0.0544332,0.0712755,-0.0910102,0.146539,-0.124851,-0.0822652,0.0134277,0.0223541,0.0149918,0.00862122,0.0143814,0.0087738,0.0126266,0.0193024,-9.97986,0.0147629,-7.62939e-005,0.0136566,-0.00583649,0.0127792,-0.0075531,0.00972748,0.00995636
23,1,10.0097,0.000915527,-0.000457764,-2.42531,0.0562914,-0.0762837,0.0538228,0.0718859,-0.0928413,0.146844,-0.12363,-0.0816549,0.00812531,0.0249481,0.0209045,0.0126648,0.0151825,0.01091,0.0166702,0.0209045,-9.97986,0.0141525,-0.00488281,0.0127792,-0.00087738,0.0130463,-0.00919342,0.0114441,0.00995636
23,2,10.0097,-0.000610352,0.000305176,-2.4244,0.0559862,-0.0744527,0.0547383,0.0700548,-0.0916206,0.145013,-0.125461,-0.0822652,0.0069809,0.0207138,0.0177002,0.0122833,0.0151443,0.0134659,0.0133133,0.0220871,-9.97986,0.0128174,-0.00270844,0.00926971,-0.00038147,0.00965118,-0.00736237,0.0120926,0.0102615
23,3,10.0097,0.000915527,0,-2.42562,0.0559862,-0.0738423,0.0550435,0.0715807,-0.0916206,0.148065,-0.123325,-0.0798238,0.0132751,0.0214767,0.0161743,0.0119781,0.0212097,0.00732422,0.0165176,0.0188065,-9.97986,0.0135422,0.000495911,0.0135803,0.00305176,0.0117874,-0.00396729,0.0119781,0.0105667
23,4,10.0097,0.000305176,-0.000762939,-2.42623,0.0559862,-0.075063,0.0535176,0.0438097,-0.0949775,0.146234,-0.127292,-0.0816549,0.0115967,0.0200272,0.0211716,0.00995636,0.0173569,0.00846863,0.0164032,0.0244141,-9.97986,0.0128937,-0.00141144,0.0155258,0.00236511,0.01297,-0.00473022,0.0119019,0.00938416
23,5,8.45021,0.000305176,-0.00167847,-2.42562,0.0553758,-0.0738423,0.0538228,0.0471666,-0.0925361,0.14776,-0.125461,-0.0816549,0.0108719,0.0197601,0.0187683,0.00988007,0.0133896,0.00968933,0.0172806,0.0247955,-9.97986,0.0120926,-0.000228882,0.0154114,0.0056839,0.0133514,-0.0106049,0.0128555,0.00511169
23,6,7.26522,0.000610352,-0.000305176,-2.42623,0.055681,-0.0741475,0.0553487,0.0544908,-0.0934516,0.146539,-0.126072,-0.0819601,0.0126648,0.0185394,0.018158,0.0107574,0.0135803,0.0121689,0.0238037,0.0200272,-9.97986,0.0128555,-0.00286102,0.0124359,0.00366211,0.00938416,-0.0128174,0.0121307,0.00930786
23,7,7.09523,0.00152588,0,-2.42684,0.0559862,-0.0744527,0.0544332,0.0639513,-0.0910102,0.146234,-0.125156,-0.0825704,0.0104523,0.0179672,0.0209045,0.0123215,0.0140762,0.0136185,0.0251389,0.0215149,-9.97986,0.0172043,0.000457764,0.0154495,0.00553131,0.0156784,-0.00583649,0.0137329,0.0118256
23,8,7.3235,0.00213623,0.000305176,-2.42623,0.055681,-0.0741475,0.0556539,0.0697496,-0.0922309,0.144403,-0.124241,-0.0831808,0.0108337,0.0201797,0.0180435,0.0125122,0.0145721,0.0109482,0.0220871,0.0207901,-9.97986,0.0100327,-0.00240326,0.0120544,0.00595093,0.010376,-0.00434875,0.0131607,0.0110245
23,9,9.00899,0.000610352,0.00137329,-2.42623,0.0547655,-0.075063,0.0544332,0.0923326,-0.0913154,0.145318,-0.124546,-0.0837911,0.0100327,0.0179291,0.0155258,0.0135803,0.0146484,0.0148392,0.0231171,0.021286,-9.97986,0.0139236,3.8147e-005,0.0149536,0.00457764,0.0133133,-0.0044632,0.01091,0.00984192
24,0,10.0097,0,0.00244141,-2.42928,0.0526292,-0.0762837,0.0519917,0.0969103,-0.0922309,0.143792,-0.126072,-0.0856222,0.0120926,0.0201797,0.0185013,0.00915527,0.0169373,0.0128555,0.0279999,0.0172043,-9.97986,0.0188446,-0.00301361,0.0159836,0.00640869,0.0146103,-0.000534058,0.00953674,0.00972748
24,1,10.0097,0.00152588,0.000152588,-2.42898,0.0544603,-0.0756734,0.0522969,0.0801256,-0.0943672,0.145318,-0.126682,-0.0877584,0.0139236,0.0161743,0.0149918,0.0105667,0.0169754,0.00988007,0.0285721,0.0193405,-9.97986,0.0138474,-0.00152588,0.014267,0.00679016,0.0135803,0.00522614,0.0124359,0.00808716
24,2,10.0097,0.0012207,0.000305176,-2.42776,0.0541551,-0.0753682,0.0519917,0.0718859,-0.0955879,0.143792,-0.126682,-0.0868429,0.0130844,0.0151062,0.0188828,0.0087738,0.0137711,0.00957489,0.0266647,0.0133133,-9.97986,0.0138474,-0.00492096,0.0123596,0.00637054,0.0121689,0.00476837,0.0128937,0.00709534
24,3,10.0097,-0.000305176,-0.000915527,-2.42989,0.0538499,-0.0762837,0.0516866,0.0706652,-0.0949775,0.142572,-0.128208,-0.0874532,0.0103378,0.0149155,0.0195313,0.0122452,0.01194,0.00946045,0.0207901,0.0143433,-9.97986,0.0146103,0.00148773,0.0127029,0.00507355,0.0155258,0.00553131,0.00892639,0.00572205
24,4,10.0097,0,0,-2.43081,0.0538499,-0.0744527,0.0529073,0.0682238,-0.0952827,0.144098,-0.126682,-0.0871481,0.0127029,0.0220871,0.0204086,0.0119019,0.0120163,0.015831,0.0167847,0.0126266,-9.97986,0.0144196,0.00156403,0.0169373,0.00343323,0.0122452,0.00358582,0.0125504,0.00938416
24,5,10.0097,0,-0.00106812,-2.42684,0.0547655,-0.075063,0.0529073,0.0691393,-0.0949775,0.144098,-0.127598,-0.085317,0.0122833,0.0235367,0.017128,0.00751495,0.0137711,0.0125504,0.0212097,0.0132751,-9.97986,0.0175858,-0.00278473,0.0162125,0.00125885,0.010643,-0.00347137,0.0136948,0.00869751
24,6,10.0097,0.000610352,-0.000305176,-2.42837,0.0538499,-0.075063,0.0538228,0.0700548,-0.0934516,0.145318,-0.126072,-0.085317,0.01091,0.0245285,0.016098,0.00377655,0.0106049,0.0113297,0.0204849,0.0126266,-9.97986,0.0167847,-0.00110626,0.0164032,0.00659943,0.0170135,-0.000724792,0.0173187,0.00938416
24,7,10.0097,0.000305176,-0.000152588,-2.42806,0.0544603,-0.0744527,0.0535176,0.0679186,-0.0931465,0.144708,-0.125766,-0.0844015,0.00980377,0.0254059,0.0170135,0.01091,0.0110245,0.0128937,0.0229263,0.0131989,-9.97986,0.0106812,-0.00778198,0.0156021,0.0018692,0.0114441,-0.000686646,0.013237,0.00919342
24,8,10.0097,0.0012207,0.000152588,-2.42684,0.0550706,-0.0747579,0.0526021,0.0700548,-0.0928413,0.144403,-0.126377,-0.0840963,0.0125504,0.0330734,0.0218964,0.0299835,0.0153351,0.0123978,0.031929,0.0206375,-9.97986,0.0168228,0.00343323,0.0151825,0.0104904,0.0166702,0.00240326,0.0178146,0.00873566
24,9,10.0097,0.000610352,0,-2.42562,0.0559862,-0.0747579,0.0544332,0.0706652,-0.0919257,0.147149,-0.125461,-0.0825704,0.00587463,0.0216293,0.0134659,0.0239563,0.00713348,0.00785828,0.0204849,0.0134277,-9.97986,0.0140381,-0.00305176,0.0105286,-0.000190735,0.013237,-0.0038147,0.0125504,0.00667572
25,0,10.0097,0,-0.000152588,-2.42501,0.0559862,-0.0747579,0.0544332,0.0697496,-0.0913154,0.146234,-0.125461,-0.0816549,0.0124359,0.0320435,0.0194931,0.0229263,0.0125504,0.0138474,0.026741,0.0185776,-9.97986,0.0182724,0.000495911,0.0136566,-0.000114441,0.0125122,-0.00701904,0.015564,0.00812531
25,1,10.0097,0.000610352,0.000610352,-2.42592,0.055681,-0.0744527,0.0550435,0.0712755,-0.0928413,0.14776,-0.124241,-0.0804342,0.0104523,0.0283051,0.0169373,0.0186539,0.00862122,0.0115967,0.0228882,0.0185394,-9.97986,0.0102997,0.000686646,0.0135422,0.00087738,0.014801,-0.0110626,0.0120544,0.0069809
25,2,10.0097,0.000610352,0,-2.42409,0.0553758,-0.0729268,0.0544332,0.0712755,-0.0916206,0.146539,-0.124241,-0.0816549,0.00984192,0.026741,0.0157547,0.0171661,0.0128174,0.00915527,0.0269699,0.0263977,-9.97986,0.0143433,-0.00232697,0.0150299,0.00392914,0.0170135,-0.012207,0.0122833,0.00358582
25,3,10.0097,0.000610352,0.000610352,-2.42318,0.0578172,-0.0738423,0.0553487,0.0724962,-0.0922309,0.146844,-0.123935,-0.0813497,0.0094986,0.0305557,0.013237,0.0200653,0.0149918,0.0102234,0.0282288,0.0310135,-9.97986,0.0135422,-0.00331879,0.0139618,0.00553131,0.0169373,-0.0162125,0.0139618,0.0102234
25,4,10.0097,0.000915527,-0.000305176,-2.42501,0.0569017,-0.0741475,0.0532125,0.0435045,-0.0949775,0.146234,-0.126072,-0.0810445,0.00812531,0.0310135,0.018959,0.023613,0.0144577,0.00747681,0.0308228,0.0328064,-9.97986,0.0143433,0.00152588,0.0153351,0.00228882,0.0186157,-0.010643,0.0157166,0.00919342
25,5,8.52407,0.000915527,-0.00106812,-2.4244,0.055681,-0.0741475,0.055959,0.0447252,-0.0925361,0.145624,-0.126072,-0.0813497,0.0105667,0.0266266,0.0195313,0.0213242,0.0088501,0.0140762,0.0273895,0.0320816,-9.97986,0.0141144,-0.000648499,0.0151825,0.00423431,0.0156403,-0.012207,0.0141525,0.00644684
25,6,7.3528,0.000305176,-0.00106812,-2.42562,0.0562914,-0.0738423,0.055959,0.0554064,-0.0922309,0.146234,-0.127903,-0.0828756,0.00938416,0.0248337,0.0217056,0.0167465,0.0117111,0.0120926,0.0248337,0.0368118,-9.97986,0.01091,0.000610352,0.0136948,0.00320435,0.0156021,-0.00465393,0.0134659,0.00740051
25,7,7.24904,0.000610352,0.000457764,-2.42562,0.0559862,-0.075063,0.0556539,0.0636461,-0.0919257,0.145624,-0.125766,-0.0822652,0.0087738,0.0187302,0.0242615,0.0189972,0.00831604,0.0127792,0.0242233,0.028038,-9.97986,0.0104523,-0.00301361,0.0153351,0.00896454,0.0189209,-0.00617981,0.0140381,0.00782013
25,8,7.5002,0.00213623,0.000305176,-2.42684,0.0550706,-0.0729268,0.054128,0.0709703,-0.0919257,0.145318,-0.123935,-0.0828756,0.00930786,0.0210953,0.0233841,0.0230408,0.0107193,0.0125122,0.0255203,0.030365,-9.97986,0.0126648,-0.00305176,0.0193787,0.0056839,0.0218964,0.00179291,0.0165558,0.00785828
25,9,9.14632,0.000610352,0.000762939,-2.42714,0.0541551,-0.0744527,0.055959,0.0923326,-0.0900947,0.145013,-0.124851,-0.0844015,0.00732422,0.0180054,0.0246811,0.0243759,0.00728607,0.0106049,0.0203323,0.0326157,-9.97986,0.0133896,-0.00217438,0.0174713,0.00270844,0.0147247,0.000953674,0.0123978,0.00831604
26,0,10.0097,0.000610352,0.00213623,-2.42776,0.0544603,-0.0759786,0.0535176,0.0956896,-0.0934516,0.143792,-0.126377,-0.0862325,0.00858307,0.0187683,0.0308609,0.018692,0.0136948,0.0109482,0.0206757,0.0365829,-9.97986,0.0142288,0.00038147,0.0157166,0.00492096,0.0180817,0.000839233,0.01194,0.00354767
26,1,10.0097,0.000610352,0.000457764,-2.42837,0.0538499,-0.0765889,0.0526021,0.0798204,-0.0961982,0.144098,-0.126377,-0.0871481,0.0117111,0.0130081,0.0283813,0.0145721,0.00835419,0.0120163,0.0205994,0.0299835,-9.97986,0.0116348,0.000953674,0.0131989,0.0056076,0.0172424,0.00179291,0.00968933,0.00492096
26,2,10.0097,0.000610352,-0.000152588,-2.42837,0.0541551,-0.075063,0.0513814,0.0724962,-0.0952827,0.143792,-0.127292,-0.0868429,0.0112152,0.00694275,0.0314331,0.00610352,0.0120163,0.0127029,0.018959,0.0233459,-9.97986,0.00549316,-0.0037384,0.0111771,0.00545502,0.0156403,-0.000610352,0.00850677,0.00576019
26,3,10.0097,0.000305176,-0.000610352,-2.42928,0.0544603,-0.0756734,0.0526021,0.0691393,-0.0949775,0.143182,-0.127292,-0.0877584,0.00984192,0.00858307,0.0412369,-0.014534,0.0130844,0.0115204,0.022316,0.0143051,-9.97986,0.00751495,-0.00244141,0.0115204,0.00404358,0.014267,0.000152588,0.0114059,0.00411987
26,4,10.0097,0.0012207,0,-2.42898,0.0535448,-0.0765889,0.0522969,0.0697496,-0.0980293,0.144098,-0.126682,-0.0886739,0.0124359,0.0151443,0.0490189,-0.037117,0.0123978,0.0117493,0.0186539,0.0094986,-9.97986,0.00511169,-0.00259399,0.014534,0.00534058,0.0173187,0.00209808,0.0121307,0.00617981
26,5,10.0097,0,0.000305176,-2.42867,0.0544603,-0.0753682,0.0532125,0.0682238,-0.094062,0.144708,-0.127598,-0.0859274,0.0161362,0.0157166,0.0457382,-0.0550461,0.0329971,0.0102997,0.0217819,0.0112915,-9.97986,0.00125885,-0.00087738,0.0115585,0.0101471,0.0191879,0.00614166,0.0101089,0.00862122
26,6,10.0097,0.000915527,-0.000610352,-2.42837,0.0538499,-0.0759786,0.0522969,0.0697496,-0.0937568,0.144403,-0.126072,-0.085317,0.013237,0.0211716,0.0498962,-0.0768661,0.0417709,0.00946045,0.0236893,0.0117874,-9.97986,0.00720978,0.00183105,0.0115585,0.0137711,0.0183868,0.0105667,0.00797272,0.00835419
26,7,10.0097,-0.000305176,-0.000457764,-2.42623,0.0538499,-0.0747579,0.054128,0.0694445,-0.0937568,0.144403,-0.125461,-0.0840963,0.00968933,0.0125122,0.0508499,-0.104103,0.0456619,0.00980377,0.021553,0.00190735,-9.97986,0.0069809,-0.00255585,0.0105667,0.00865936,0.0150299,0.0100708,0.0125885,0.00507355
26,8,10.0097,0.00274658,0,-2.42653,0.0550706,-0.0741475,0.0538228,0.0688341,-0.0931465,0.145013,-0.125766,-0.0837911,0.0156784,0.0252914,0.0549316,-0.135384,0.0489426,0.0139618,0.0267792,0.0044632,-9.97986,0.00583649,-0.00164032,0.0124359,0.0109863,0.022583,0.0159454,0.0108719,0.00614166
26,9,10.0097,0.000915527,-0.000305176,-2.42562,0.0559862,-0.0744527,0.0538228,0.0709703,-0.0925361,0.145624,-0.124851,-0.0831808,0.0114822,0.0398636,0.0502396,-0.181351,0.0455856,0.0111771,0.0203705,-0.001297,-9.97986,0.00865936,-0.0037384,0.0142288,0.0120926,0.014801,0.0130081,0.0101471,0.00507355
27,0,10.0097,0.00183105,0.000152588,-2.42562,0.0565965,-0.0741475,0.054128,0.0709703,-0.0919257,0.145624,-0.123935,-0.0819601,0.0115967,0.04776,0.0443268,-0.156097,0.0437927,0.00988007,0.0185394,0.00263214,-9.97986,0.00854492,-0.00175476,0.0120544,0.0102997,0.0180435,0.0156021,0.01091,0.00686646
27,1,10.0097,0.000610352,0,-2.42684,0.0553758,-0.0735371,0.0544332,0.0700548,-0.0922309,0.145929,-0.124851,-0.0810445,0.00999451,0.0485611,0.0406265,-0.100708,0.0414658,0.0127029,0.0253677,0.0019455,-9.97986,0.0102615,-0.00637054,0.0166702,0.00709534,0.0170517,0.0151062,0.0148392,0.00534058
27,2,10.0097,0.000305176,0,-2.42531,0.0547655,-0.0741475,0.0550435,0.0709703,-0.0916206,0.146234,-0.124546,-0.0810445,0.0117493,0.0504303,0.0351715,-0.0590134,0.0406647,0.0111008,0.0248718,-0.00465393,-9.97986,0.0145721,0.000839233,0.0133514,0.00556946,0.0195313,0.0087738,0.0151443,0.00415802
27,3,10.0097,0.000610352,-0.000762939,-2.42531,0.0562914,-0.0735371,0.0553487,0.0715807,-0.0919257,0.146539,-0.124851,-0.0807394,0.0128174,0.0618362,0.0365448,-0.0295258,0.0429916,0.010376,0.0226212,-0.00843048,-9.97986,0.016098,0.00190735,0.0157928,0.00862122,0.0173187,0.00484467,0.0139999,0.0075531
27,4,10.0097,0,-0.00106812,-2.42714,0.0569017,-0.0738423,0.054128,0.0416735,-0.095893,0.145318,-0.126987,-0.0822652,0.00743866,0.0559235,0.0286865,0.0146103,0.0351715,0.0116348,0.0223923,-0.0063324,-9.97986,0.0180817,-0.00400543,0.0134277,0.00640869,0.0177002,-0.000724792,0.0130463,0.00988007
27,5,8.28176,0.00152588,-0.0012207,-2.42501,0.0572069,-0.073232,0.0556539,0.04442,-0.0934516,0.146539,-0.126682,-0.0816549,0.0062561,0.0481033,0.0324249,0.0883865,0.0391769,0.00843048,0.0252914,-0.00350952,-9.97986,0.0252914,-0.00240326,0.0169754,0.00644684,0.0168991,-0.000457764,0.00972748,0.0094223
27,6,7.0461,0.000610352,-0.000915527,-2.42531,0.0550706,-0.0747579,0.0544332,0.0541857,-0.0925361,0.146844,-0.125766,-0.0819601,0.00892639,0.0410461,0.0342941,0.125656,0.0380325,0.00762939,0.0238419,0.00190735,-9.97986,0.0257111,-0.000305176,0.0137711,0.0088501,0.0153351,-0.00389099,0.0105667,0.00278473
27,7,6.86147,0.000610352,-0.000457764,-2.42684,0.0547655,-0.0744527,0.0544332,0.0648668,-0.0922309,0.146234,-0.125766,-0.0828756,0.00553131,0.0544357,0.0359344,0.145264,0.0363159,0.00709534,0.0211334,0.00938416,-9.97986,0.0225067,-0.00545502,0.013504,0.00534058,0.0165558,-0.0012207,0.0104904,0.00652313
27,8,7.07112,0.000305176,0.000305176,-2.42653,0.055681,-0.075063,0.0535176,0.0706652,-0.090705,0.144708,-0.124851,-0.0834859,0.00709534,0.0494003,0.0365448,0.174522,0.0302124,0.00572205,0.0222778,0.0119781,-9.97986,0.0315475,-0.00144958,0.0130844,0.00442505,0.0200653,-0.00640869,0.00812531,0.00595093
27,9,8.73769,0.00244141,0.000610352,-2.42714,0.0541551,-0.0741475,0.0544332,0.0932482,-0.0903999,0.144403,-0.124241,-0.0834859,0.00495911,0.0432587,0.0244522,0.189171,0.0272369,0.00724792,0.0208282,0.0133514,-9.97986,0.0333023,-0.00396729,0.0150299,0.00133514,0.0188065,-0.0117111,0.0121689,0.00514984
28,0,10.0097,0.00152588,0.00183105,-2.42776,0.0535448,-0.0756734,0.0535176,0.099962,-0.0928413,0.144403,-0.125766,-0.0859274,0.00278473,0.0543594,0.0186539,0.184822,0.0296783,0.00556946,0.0207901,0.0179291,-9.97986,0.0351334,-0.0075531,0.0179672,-0.00328064,0.0168991,-0.0156784,0.01194,0.00804901
28,1,10.0097,-0.000305176,0.000457764,-2.42867,0.0541551,-0.0753682,0.0522969,0.0795153,-0.095893,0.144403,-0.126072,-0.0868429,0.00434875,0.0580597,0.00648499,0.154953,0.0213242,0.0138474,0.0201416,0.0220108,-9.97986,0.0340271,-0.00785828,0.0167084,-0.00457764,0.0152969,-0.0162888,0.00991821,0.00995636
28,2,10.0097,0.000915527,0.000305176,-2.42837,0.0532396,-0.075063,0.0513814,0.0718859,-0.0946723,0.143792,-0.127903,-0.0868429,0.00530243,0.0534439,-0.0117493,0.113945,0.0209045,0.00511169,0.0183487,0.0197983,-9.97986,0.0348663,-0.0102997,0.015564,-0.001297,0.0183868,-0.0139618,0.0115204,0.0104141
28,3,10.0097,0.000610352,-0.000152588,-2.42745,0.0535448,-0.0768941,0.0522969,0.0700548,-0.0961982,0.142877,-0.126987,-0.0886739,0.00541687,0.0378418,-0.0269318,0.104332,0.0206757,0.00450134,0.0192261,0.0202942,-9.97986,0.0374222,-0.00431061,0.016098,-0.000534058,0.0164413,-0.00778198,0.010376,0.0069809
28,4,10.0097,-0.00244141,-0.000610352,-2.42867,0.0538499,-0.0756734,0.0535176,0.0697496,-0.095893,0.142572,-0.126987,-0.0880636,0.00648499,0.0178909,-0.045929,0.0999832,0.0206375,0.00286102,0.0167465,0.0200653,-9.97986,0.0344086,-0.00972748,0.0121689,-0.0131989,0.00816345,7.62939e-005,0.0113678,0.00679016
28,5,10.0097,-0.000610352,-0.0012207,-2.42928,0.0547655,-0.075063,0.0519917,0.0706652,-0.0931465,0.144403,-0.127292,-0.0859274,0.00488281,0.0145721,-0.0624847,0.0815964,0.0137329,0.00198364,0.0180817,0.0204468,-9.97986,0.0334549,-0.00370026,0.0113678,-0.0170517,0.0138092,-0.000305176,0.0130844,0.0056839
28,6,10.0097,0,0,-2.42684,0.0547655,-0.075063,0.0522969,0.0691393,-0.0937568,0.144098,-0.127598,-0.0859274,0.0063324,0.0117493,-0.0608826,0.0577927,0.0153351,0.00591278,0.0193024,0.0220108,-9.97986,0.0324249,-0.000228882,0.00984192,-0.0174713,0.0126266,0.0018692,0.0141525,0.00679016
28,7,10.0097,-0.000305176,0,-2.42684,0.0547655,-0.0753682,0.0535176,0.0691393,-0.0934516,0.145013,-0.126682,-0.0844015,0.00846863,0.0156403,-0.0514984,0.0503159,0.00911713,0.0031662,0.0228882,0.0260162,-9.97986,0.0330353,0.0075531,0.0151825,-0.0156784,0.0123978,-0.00408173,0.0114822,0.00511169
28,8,10.0097,0.0012207,0.000457764,-2.42592,0.0562914,-0.0753682,0.0535176,0.0697496,-0.0934516,0.145013,-0.125766,-0.0837911,0.00732422,0.0217438,-0.0501633,0.0486755,0.00923157,-0.000991821,0.0202179,0.0252914,-9.97986,0.0319672,0.00682831,0.0125504,-0.0140762,0.0162125,0.000724792,0.0148392,0.00904083
28,9,10.0097,0.00152588,0.000457764,-2.42562,0.0541551,-0.0741475,0.0550435,0.07036,-0.0931465,0.145318,-0.125461,-0.0822652,0.00743866,0.0177765,-0.0440598,0.0439453,0.0111008,-0.00118256,0.019722,0.0260544,-9.97986,0.0292587,0.00244141,0.0156784,-0.00598907,0.0115204,-0.000228882,0.0111771,0.0113678
29,0,10.0097,0.000610352,0.00152588,-2.4247,0.0565965,-0.0738423,0.0553487,0.072191,-0.0900947,0.146234,-0.124241,-0.0813497,0.00865936,0.00171661,-0.0369644,0.0383377,0.0108719,0.0012207,0.0178909,0.0229645,-9.97986,0.0252533,0.00457764,0.0187683,-0.00286102,0.0169754,-0.00038147,0.0153732,0.00671387
29,1,10.0097,0,-0.000305176,-2.42562,0.0547655,-0.0744527,0.0556539,0.0709703,-0.090705,0.145624,-0.123325,-0.0807394,0.00621796,-0.0137711,-0.0319672,0.0379944,0.0111389,0.00102997,0.014534,0.0227356,-9.97986,0.0292206,0.0131226,0.015564,0.00171661,0.0139618,-0.00766754,0.0146866,0.00549316
29,2,10.0097,0.00213623,0.000762939,-2.42623,0.0569017,-0.075063,0.0547383,0.0712755,-0.0925361,0.145624,-0.124241,-0.0813497,0.00827789,-0.00762939,-0.02388,0.0341034,0.00473022,-0.00198364,0.0178528,0.0224304,-9.97986,0.0217056,0.00293732,0.0152969,0.0124741,0.0146103,-0.0088501,0.0175858,0.00679016
29,3,10.0097,0.00183105,0.00137329,-2.42531,0.0581224,-0.0741475,0.0550435,0.0712755,-0.0922309,0.14776,-0.124546,-0.0804342,0.0102997,0.000953674,-0.0108337,0.0306702,0.00850677,0.00354767,0.021553,0.0241089,-9.97986,0.0263977,-0.00282288,0.015564,0.0205994,0.0188828,-0.00915527,0.0186157,0.00453949
29,4,10.0097,0.000305176,-0.000915527,-2.42623,0.0581224,-0.073232,0.0538228,0.0438097,-0.0955879,0.145013,-0.126682,-0.0831808,0.00823975,0.00736237,-0.00499725,0.0310898,0.00648499,0.00396729,0.0191879,0.0239182,-9.97986,0.0198364,-0.00484467,0.0173187,0.0198364,0.0136948,-0.0156784,0.0178528,0.00549316
29,5,8.46425,-0.000305176,-0.00152588,-2.42501,0.0590379,-0.0738423,0.0544332,0.0450304,-0.0946723,0.14776,-0.126072,-0.0816549,0.00488281,0.0109863,-0.000228882,0.0239182,0.00637054,0.000343323,0.023613,0.0183868,-9.97986,0.016098,-0.000267029,0.0163651,0.0289154,0.0154495,-0.0181198,0.014534,0.00591278
29,6,7.19899,-0.0012207,0.000305176,-2.42562,0.0562914,-0.0744527,0.0550435,0.0544908,-0.0931465,0.145929,-0.126682,-0.0813497,0.0100708,0.0154114,0.0104523,0.0221252,0.00923157,0.0037384,0.0267029,0.0199509,-9.97986,0.0184631,0.00160217,0.0159454,0.0368881,0.0185013,-0.0172424,0.0190735,0.00724792
29,7,7.02199,0.00152588,0.000305176,-2.42714,0.0526292,-0.0744527,0.0550435,0.0633409,-0.0922309,0.145624,-0.126377,-0.0828756,0.00934601,0.0230408,0.0152206,0.0152969,0.00816345,7.62939e-005,0.0234985,0.0210571,-9.97986,0.0179672,0.00133514,0.0194168,0.0368118,0.0155258,-0.0102234,0.0177765,0.00385284
29,8,7.24385,0,0.000610352,-2.42592,0.0553758,-0.075063,0.054128,0.07036,-0.0919257,0.145929,-0.126377,-0.0828756,0.00881195,0.0316238,0.0195313,0.0231171,0.00686646,0.00141144,0.0208664,0.0179291,-9.97986,0.0136566,0.00556946,0.0168991,0.0366974,0.0166321,-0.00953674,0.0201416,0.00385284
29,9,8.89729,-0.0299072,0.00152588,-2.42684,0.0544603,-0.075063,0.0538228,0.092943,-0.0897895,0.130365,-0.123935,-0.0840963,0.0108719,0.0344086,0.0251007,0.0423813,0.0101852,0.0037384,0.0203705,0.019722,-9.97986,0.0127792,0.00564575,0.0175095,0.0346756,0.0131226,-0.00514984,0.0157166,0.00522614
30,0,10.0097,-0.00274658,0.00259399,-2.42898,0.0526292,-0.0753682,0.0529073,0.0972155,-0.094062,0.137689,-0.125156,-0.0862325,0.00907898,0.0305939,0.0181961,0.039978,0.0038147,0.00400543,0.0195694,0.0250244,-9.97986,0.0115204,0.00450134,0.0125504,0.0416946,0.0153351,-0.00545502,0.0162506,0.00473022
30,1,10.0097,-0.000305176,0.000610352,-2.42898,0.0529344,-0.0771993,0.0526021,0.0795153,-0.0980293,0.140436,-0.127292,-0.0865377,0.0114822,0.0291824,0.0206757,0.0170517,0.00682831,0.00141144,0.0187683,0.0246429,-9.97986,0.0129318,0.00141144,0.0159836,0.0450516,0.0140762,-0.00427246,0.0164795,0.00686646
30,2,10.0097,0.00213623,-0.000457764,-2.42867,0.0532396,-0.0756734,0.0516866,0.0740221,-0.094062,0.141656,-0.127598,-0.0865377,0.0100708,0.0226593,0.0199509,0.00232697,0.0030899,0.00488281,0.0139236,0.0274658,-9.97986,0.0100708,0.0050354,0.0177383,0.0421906,0.0148392,0.00255585,0.0151443,0.00572205
30,3,10.0097,-0.000610352,-0.000915527,-2.42867,0.0553758,-0.0759786,0.0526021,0.0709703,-0.0955879,0.143487,-0.126987,-0.0871481,0.0101471,0.00240326,0.0191879,-0.00434875,0.00629425,0.00751495,0.0218964,0.0262451,-9.97986,0.0120163,0.00331879,0.0166321,0.0381088,0.0141144,0.00511169,0.0138855,0.00606537
30,4,10.0097,-0.000305176,-0.000915527,-2.42959,0.0602586,-0.0762837,0.0529073,0.0697496,-0.0968086,0.143792,-0.128208,-0.0877584,0.00961304,-0.00160217,0.0267029,-0.00171661,0.0111771,0.00663757,0.0175858,0.0279617,-9.97986,0.0128555,0,0.0170135,0.0397491,0.0137329,0.00965118,0.0149536,0.00595093
30,5,10.0097,0.000305176,-0.00137329,-2.42867,0.0544603,-0.075063,0.0522969,0.0688341,-0.094062,0.143792,-0.126682,-0.0862325,0.00888824,0.00492096,0.0195313,-0.0043869,0.00587463,0.00263214,0.0229645,0.0288773,-9.97986,0.00923157,-7.62939e-005,0.0141144,0.038414,0.0153732,0.0163269,0.0170135,0.0037384
30,6,10.0097,0.00183105,-0.000305176,-2.42714,0.0547655,-0.0753682,0.0538228,0.0697496,-0.0949775,0.145318,-0.126377,-0.085317,0.0131607,0.0128937,0.0246048,0.00411987,0.00713348,0.00953674,0.0234985,0.026474,-9.97986,0.0127029,0.00682831,0.0164032,0.0418472,0.0178528,0.0182343,0.0173187,0.00850677
30,7,10.0097,-0.000915527,0.000610352,-2.42776,0.0547655,-0.0747579,0.054128,0.0697496,-0.0989448,0.145013,-0.126072,-0.0850118,0.0139236,0.0151443,0.0283051,-0.00686646,0.00789642,0.00629425,0.0190353,0.0150681,-9.97986,0.0142288,0.000801086,0.0141144,0.0430298,0.0118637,0.0165939,0.0149155,0.00892639
30,8,10.0097,-0.000305176,0,-2.42653,0.0553758,-0.0756734,0.0526021,0.0706652,-0.0955879,0.146844,-0.125766,-0.0837911,0.01194,0.0217438,0.030899,-0.0165176,0.0112534,0.00675201,0.0270462,0.00709534,-9.97986,0.011673,0.00770569,0.0175476,0.0411606,0.0133896,0.0155258,0.0139999,0.00404358
30,9,10.0097,-0.000915527,-0.000305176,-2.42501,0.0547655,-0.0747579,0.054128,0.0709703,-0.0913154,0.146539,-0.125156,-0.0825704,0.0143051,0.0312042,0.034256,-0.0151825,0.0106049,0.00862122,0.021019,0.00980377,-9.97986,0.013237,0.00457764,0.0164032,0.0426483,0.00892639,0.0101471,0.014801,0.00507355
31,0,10.0097,-0.000610352,0.000152588,-2.42562,0.0587328,-0.0744527,0.0550435,0.0715807,-0.0900947,0.145929,-0.123325,-0.0816549,0.010376,0.030899,0.0218201,-0.00522614,0.0102615,0.00221252,0.0204468,0.0154495,-9.97986,0.0135803,0.000991821,0.0152969,0.0461578,0.016861,0.00766754,0.0144196,0.00762939
31,1,10.0097,0.000915527,-0.000152588,-2.42562,0.0559862,-0.0729268,0.0565694,0.0715807,-0.0879585,0.14776,-0.124546,-0.0810445,0.012207,0.0198746,0.0178909,-0.0129318,0.00667572,0.00492096,0.0211716,0.016861,-9.97986,0.00900269,0.00400543,0.0130081,0.04879,0.0171661,-0.00202179,0.0120163,0.00621796
31,2,10.0097,0.000915527,0,-2.42531,0.0547655,-0.0741475,0.0556539,0.0709703,-0.0916206,0.146234,-0.123325,-0.0810445,0.0114441,0.0108719,0.0193024,-0.0127411,0.0105667,0.00740051,0.0170898,0.0183868,-9.97986,0.0130081,0.000724792,0.0185013,0.0494766,0.0163269,-0.00457764,0.0162125,0.00743866
31,3,10.0097,-0.000610352,0.000457764,-2.4247,0.0614793,-0.0747579,0.0565694,0.0709703,-0.0946723,0.146234,-0.124241,-0.0804342,0.00926971,0.0214005,0.0229263,-0.0164413,0.0117874,0.00648499,0.0216675,0.0120163,-9.97986,0.0112534,-0.000152588,0.0140381,0.0457382,0.0121689,0.000686646,0.0153351,0.00423431
31,4,10.0097,0,-0.00198364,-2.42684,0.0553758,-0.0753682,0.0550435,0.0410631,-0.0983344,0.146844,-0.126072,-0.0825704,0.011673,0.0233078,0.0235367,-0.0122833,0.00606537,0.00839233,0.0247192,0.0106812,-9.97986,0.0111008,0.00156403,0.0157166,0.0406647,0.020256,0.00843048,0.0161362,0.00480652
31,5,8.24239,0.000610352,-0.00289917,-2.42501,0.0565965,-0.0741475,0.0532125,0.04442,-0.0937568,0.145624,-0.125766,-0.0813497,0.0144958,-7.62939e-005,0.0231171,-0.00961304,0.00728607,0.00747681,0.0237656,0.0101852,-9.97986,0.0123215,-0.0037384,0.0123978,0.0314713,0.0140762,0.00759125,0.0170898,0.0088501
31,6,7.01436,-0.000610352,-0.00152588,-2.42623,0.0501878,-0.0753682,0.0535176,0.054796,-0.0952827,0.145929,-0.126072,-0.0822652,0.0133514,-0.00999451,0.0234604,0.000228882,0.00965118,0.00335693,0.0226212,0.0163269,-9.97986,0.0162125,-0.000762939,0.00980377,0.0354767,0.0127411,0.00934601,0.0138855,0.00415802
31,7,6.84926,0.000610352,0.000152588,-2.42623,0.0538499,-0.075063,0.054128,0.0645616,-0.0965034,0.147149,-0.124851,-0.0831808,0.00938416,0.00297546,0.0305939,-0.00297546,0.0075531,0.00534058,0.0187683,0.0127792,-9.97986,0.017128,-0.00167847,0.0167084,0.0357437,0.0122833,0.0108719,0.019989,0.00602722
31,8,7.0757,0.000915527,-0.000305176,-2.42653,0.0538499,-0.0756734,0.0547383,0.0715807,-0.0916206,0.145013,-0.125156,-0.0825704,0.0102997,0.00968933,0.0366592,-0.001297,0.00968933,0.0075531,0.0143814,0.0164032,-9.97986,0.0131226,-0.00289917,0.0120544,0.0267792,0.012207,0.00892639,0.0193405,0.00564575
31,9,8.76088,-0.000610352,0.000305176,-2.42684,0.0495775,-0.0744527,0.0556539,0.0923326,-0.0876533,0.145624,-0.125156,-0.0840963,0.00911713,0.0183868,0.0331879,0.00240326,0.00747681,0.00926971,0.0189209,0.0203705,-9.97986,0.0140762,0.00183105,0.0164413,0.0279236,0.0174332,0.0140381,0.023613,0.00648499
32,0,10.0097,0.000305176,0.00183105,-2.42898,0.0541551,-0.075063,0.0522969,0.099962,-0.0986396,0.143792,-0.125766,-0.0859274,0.0117874,0.0133133,0.0272751,0.000190735,0.00812531,0.00312805,0.0187683,0.0213242,-9.97986,0.0133133,-0.00549316,0.0152588,0.019722,0.0156784,0.00911713,0.0210571,0.0056839
32,1,10.0097,-0.000305176,0,-2.42928,0.0538499,-0.0759786,0.0519917,0.0792101,-0.0955879,0.142877,-0.127292,-0.0880636,0.0118256,0.0198746,0.0201416,-0.00347137,0.0102234,0.00640869,0.0196457,0.0170898,-9.97986,0.0134659,-0.000343323,0.0173187,0.00995636,0.019722,0.00976563,0.0180435,0.0103378
32,2,10.0097,0.000610352,0,-2.42837,0.0587328,-0.0756734,0.0522969,0.072191,-0.0931465,0.145624,-0.127292,-0.0859274,0.0118256,0.0173187,0.0202942,-0.00465393,0.0131989,0.00766754,0.0218582,0.0225449,-9.97986,0.0149155,-0.00461578,0.0171661,0.00801086,0.0123596,0.00930786,0.0232697,0.0101471
32,3,10.0097,0.00152588,-0.000457764,-2.42989,0.0535448,-0.0762837,0.0526021,0.07036,-0.101386,0.142877,-0.127598,-0.0874532,0.0107956,0.0159454,0.0227737,-0.00732422,0.0130463,0.0030899,0.0234222,0.0208282,-9.97986,0.0150299,-0.000495911,0.0191498,0.0175858,0.0165558,0.00431061,0.0224304,0.0111008
32,4,10.0097,0.000610352,-0.000305176,-2.42867,0.0538499,-0.0762837,0.0526021,0.07036,-0.0952827,0.143487,-0.128513,-0.0874532,0.00900269,0.017662,0.0205231,-0.00297546,0.0124741,0.00385284,0.0203705,0.0193024,-9.97986,0.0147629,-0.00118256,0.0165558,0.0141907,0.015564,0.00328064,0.0233841,0.0115967
32,5,10.0097,0,-0.0012207,-2.42928,0.0535448,-0.0738423,0.0532125,0.0688341,-0.0949775,0.144708,-0.125156,-0.0868429,0.0111389,0.017395,0.0159073,-0.00488281,0.0123215,0.00362396,0.0251007,0.0224686,-9.97986,0.0139236,-0.00137329,0.0195694,0.001297,0.0144577,0.00545502,0.0208282,0.00934601
32,6,10.0097,0.000305176,-0.000457764,-2.42745,0.0550706,-0.0759786,0.0529073,0.0691393,-0.101081,0.146234,-0.126377,-0.0850118,0.0139999,0.0167465,0.0258255,-0.00473022,0.01194,0.000915527,0.0318146,0.0245285,-9.97986,0.00999451,-0.000839233,0.0134277,0.00198364,0.0171661,0.00347137,0.0204849,0.0118256
32,7,10.0097,0.000610352,-0.000915527,-2.42776,0.0547655,-0.0747579,0.0529073,0.07036,-0.0931465,0.145013,-0.126987,-0.0837911,0.0115967,0.0174713,0.0195694,-0.00713348,0.0119019,0.0075531,0.0350952,0.0238419,-9.97986,0.0101471,-0.00217438,0.0163651,-0.0056839,0.0191879,0.00415802,0.0204468,0.0127029
32,8,10.0097,-0.0012207,-0.000915527,-2.42714,0.0578172,-0.0747579,0.0535176,0.0715807,-0.0928413,0.145624,-0.125461,-0.0834859,0.0136566,0.014534,0.0251007,-0.000686646,0.0111771,0.00537872,0.0373459,0.0257111,-9.97986,0.011673,-0.00362396,0.015564,-0.0117874,0.0205612,0.00514984,0.0182724,0.0115585
32,9,10.0097,-0.000305176,0.000305176,-2.42714,0.0553758,-0.0747579,0.0535176,0.07036,-0.0916206,0.146539,-0.125766,-0.0813497,0.00984192,0.0166702,0.0267792,-0.00305176,0.0108719,0.00602722,0.0304031,0.0295639,-9.97986,0.0108337,-0.00278473,0.0144196,-0.00988007,0.0207138,0.000572205,0.0165939,0.011673
33,0,10.0097,-0.000610352,-0.000457764,-2.42592,0.0569017,-0.0741475,0.0553487,0.0706652,-0.0910102,0.145624,-0.125156,-0.0822652,0.0120926,0.0171661,0.0258636,-0.00289917,0.0138092,0.0101852,0.0276184,0.0272369,-9.97986,0.0122833,0.00141144,0.0187683,-0.0115204,0.0194168,-0.00202179,0.018692,0.00823975
33,1,10.0097,0.00152588,-0.000305176,-2.4247,0.0541551,-0.0738423,0.0544332,0.0709703,-0.0910102,0.145929,-0.124546,-0.0816549,0.0142288,0.0162125,0.0261688,-0.00797272,0.0197983,0.00831604,0.0269699,0.0258636,-9.97986,0.0111389,-0.00087738,0.0191116,-0.0204086,0.021019,-0.00770569,0.0203323,0.00801086
33,2,10.0097,0.000915527,-0.000305176,-2.42592,0.0569017,-0.0735371,0.0550435,0.07036,-0.0852119,0.145624,-0.123935,-0.0813497,0.0134659,0.0102234,0.0304031,-0.0063324,0.0180817,0.00598907,0.0218201,0.0225067,-9.97986,0.0122452,-0.00221252,0.0211334,-0.0209808,0.0181961,-0.00652313,0.0168228,0.0109863
33,3,10.0097,0.00183105,0.000305176,-2.42501,0.0572069,-0.0738423,0.0544332,0.0718859,-0.0903999,0.145624,-0.124241,-0.0804342,0.0138474,0.0108337,0.0263977,-0.00236511,0.019989,0.00961304,0.0229263,0.0241089,-9.97986,0.0101471,0.00217438,0.0102615,-0.0104141,0.0202179,-0.0087738,0.0169373,0.0115204
33,4,10.0097,0.00152588,-0.000610352,-2.42653,0.0559862,-0.075063,0.0544332,0.0407579,-0.094062,0.145929,-0.126987,-0.0831808,0.0121689,0.0144577,0.0263596,-0.0105286,0.0138474,0.0018692,0.0270462,0.0234985,-9.97986,0.00865936,-0.00137329,0.0174332,-0.00732422,0.0198746,-0.00946045,0.0154114,0.00907898
33,5,8.16365,-0.000305176,-0.00167847,-2.42592,0.0562914,-0.0738423,0.054128,0.0431993,-0.088874,0.145624,-0.125461,-0.0810445,0.0169754,0.00709534,0.0283432,-0.0195313,0.0128555,0.0109863,0.0216675,0.0240707,-9.97986,0.00419617,-0.00156403,0.0138855,-0.00606537,0.0176239,-0.0120926,0.0170898,0.00637054
33,6,6.96157,0.000305176,-0.000915527,-2.42501,0.0559862,-0.0744527,0.0544332,0.0541857,-0.0925361,0.146234,-0.126072,-0.0807394,0.0160217,0.0075531,0.0354004,-0.0173187,0.0127792,0.00724792,0.0219727,0.0224304,-9.97986,0.00278473,-0.00427246,0.0141525,-0.00179291,0.0194168,-0.0025177,0.0196075,0.00816345
33,7,6.75893,-0.000610352,-0.000152588,-2.42592,0.0562914,-0.075063,0.0544332,0.0639513,-0.0925361,0.145013,-0.125461,-0.0816549,0.0161362,0.00873566,0.0340271,-0.0421524,0.0154877,0.00354767,0.0218201,0.0225067,-9.97986,0.00358582,-0.00213623,0.0141907,-0.00282288,0.0150299,0.00522614,0.0179291,0.00694275
33,8,6.98049,-0.000915527,-0.000610352,-2.42653,0.0559862,-0.0744527,0.0544332,0.0706652,-0.0894843,0.145318,-0.125156,-0.0844015,0.0142288,0.00526428,0.0302505,-0.0766373,0.0209045,0.00518799,0.0226974,0.018425,-9.97986,0.000190735,-0.00137329,0.017662,-0.0170898,0.0189972,-0.00106812,0.0194931,0.00720978
33,9,8.63851,0,-0.000152588,-2.42653,0.0553758,-0.0753682,0.0550435,0.0932482,-0.090705,0.146234,-0.125156,-0.0844015,0.0128174,0.00637054,0.0308609,-0.110626,0.016861,0.0094223,0.0267029,0.0143051,-9.97986,0.00518799,0.00286102,0.0178146,-0.0257492,0.020752,0.0025177,0.0191879,0.00766754
34,0,10.0097,0.000305176,0.00106812,-2.42806,0.0535448,-0.075063,0.0529073,0.099962,-0.0934516,0.141961,-0.124851,-0.0856222,0.0151825,0.00225067,0.0300598,-0.128365,0.0186539,0.00495911,0.019989,0.0172424,-9.97986,0.000457764,-0.00244141,0.0153351,-0.0422287,0.0201416,0.0018692,0.0234985,0.00816345
34,1,10.0097,0.000305176,-0.00106812,-2.42928,0.0544603,-0.0756734,0.0516866,0.0792101,-0.0955879,0.144098,-0.126072,-0.0868429,0.011673,0.0043869,0.0315094,-0.160141,0.0185394,0.0112534,0.0209045,0.0111389,-9.97986,0.00637054,-0.001297,0.0175476,-0.0469208,0.018959,-0.000762939,0.0208282,0.00843048
34,2,10.0097,-0.00152588,0.000305176,-2.42867,0.0538499,-0.0759786,0.0522969,0.072191,-0.0955879,0.143487,-0.126377,-0.0859274,0.0159073,0.0103378,0.0361252,-0.221062,0.0175858,0.00495911,0.0178909,0.00209808,-9.97986,-0.000915527,-0.00114441,0.0122833,-0.0397491,0.0145721,-0.00896454,0.0169754,0.00495911
34,3,10.0097,0.000610352,0.000152588,-2.42837,0.0550706,-0.0759786,0.0513814,0.0712755,-0.0946723,0.143792,-0.127292,-0.0874532,0.0128555,0.0189972,0.0375366,-0.236015,0.021553,0.00999451,0.0237656,0.00728607,-9.97986,0.0111389,3.8147e-005,0.015564,-0.0253677,0.0213623,-0.00705719,0.016861,0.00640869
34,4,10.0097,0,-0.000305176,-2.42928,0.0547655,-0.0747579,0.0522969,0.0709703,-0.0955879,0.145013,-0.126987,-0.0868429,0.0135803,0.0221252,0.0295258,-0.189323,0.0247574,0.00862122,0.0209808,0.00843048,-9.97986,-0.00320435,0.00175476,0.0159454,-0.0320816,0.021286,-0.0128937,0.0184631,0.00598907
34,5,10.0097,0.000610352,0.000305176,-2.42837,0.0535448,-0.0756734,0.0529073,0.0682238,-0.0946723,0.143792,-0.127598,-0.0865377,0.0192261,0.0270081,0.0394058,-0.187607,0.026474,0.00995636,0.021553,0.00843048,-9.97986,0.00232697,-0.00198364,0.013237,-0.0324631,0.0183105,-0.0218964,0.0186157,0.00709534
34,6,10.0097,-0.0012207,-0.000152588,-2.42776,0.0532396,-0.0753682,0.0538228,0.0694445,-0.0943672,0.145624,-0.126072,-0.0859274,0.0198364,0.0395203,0.0448608,-0.20752,0.0230789,0.0104523,0.02285,0.00377655,-9.97986,0.00621796,-0.000228882,0.0143433,-0.034523,0.0176239,-0.0260162,0.0143051,0.00492096
34,7,10.0097,0,0.000152588,-2.42776,0.0547655,-0.075063,0.0538228,0.0706652,-0.0897895,0.145624,-0.126682,-0.0844015,0.0164795,0.0430298,0.0490189,-0.113182,0.0245285,0.0113678,0.0279617,-0.00125885,-9.97986,0.00831604,-0.000152588,0.015831,-0.0370407,0.0194168,-0.018692,0.0190735,0.00724792
34,8,10.0097,0.0012207,0.00137329,-2.42531,0.0547655,-0.0741475,0.0544332,0.0691393,-0.0925361,0.144403,-0.126072,-0.0840963,0.00938416,0.0458145,0.0609207,0.0489044,0.0284195,0.0152588,0.0233459,0.00415802,-9.97986,0.0143051,-0.000419617,0.0173187,-0.0221634,0.0186157,-0.00679016,0.0205994,0.00576019
34,9,10.0097,0.000915527,0.000762939,-2.42562,0.0575121,-0.0741475,0.0544332,0.0694445,-0.0925361,0.147455,-0.125156,-0.0828756,0.00801086,0.05867,0.0669861,0.183792,0.0255203,0.0104904,0.0232315,0.00297546,-9.97986,0.0130081,-0.00270844,0.0162506,-0.0193405,0.0182343,0.00152588,0.0195694,0.00747681
35,0,10.0097,0.000915527,0.000457764,-2.42531,0.0559862,-0.0747579,0.0553487,0.0718859,-0.0882636,0.145624,-0.12363,-0.0822652,0.01091,0.0564957,0.0748444,0.298271,0.0262451,0.00919342,0.021019,0.00743866,-9.97986,0.018158,-0.00202179,0.0142288,-0.0164795,0.018692,0.00743866,0.0177765,0.00801086
35,1,10.0097,0.000610352,-0.000305176,-2.42501,0.0553758,-0.0741475,0.0544332,0.0706652,-0.0913154,0.145624,-0.12363,-0.0804342,0.00923157,0.0537872,0.0836945,0.321732,0.0274277,0.0111771,0.0214386,0.0121689,-9.97986,0.0219345,-0.00175476,0.0125504,-0.0252151,0.0200272,0.00953674,0.0214386,0.00717163
35,2,10.0097,0.000610352,-0.000610352,-2.42562,0.0517137,-0.0741475,0.0547383,0.0706652,-0.0922309,0.14776,-0.124546,-0.0810445,0.00804901,0.0719833,0.0923157,0.256004,0.0316238,0.0113678,0.0245285,0.0187683,-9.97986,0.0258255,-0.0025177,0.0145721,-0.0333023,0.0219727,0.0198364,0.019722,0.00793457
35,3,10.0097,0.00183105,0.000152588,-2.42409,0.0559862,-0.0738423,0.0556539,0.0718859,-0.090705,0.147149,-0.12363,-0.0807394,0.00114441,0.087471,0.0880814,0.237274,0.0299072,0.0157547,0.0278854,0.0223541,-9.97986,0.0297165,-0.00286102,0.0157166,-0.0403976,0.02388,0.0125122,0.0215149,0.00587463
35,4,10.0097,-0.000915527,-0.00106812,-2.42531,0.0569017,-0.0747579,0.0516866,0.0431993,-0.0955879,0.146234,-0.126987,-0.0819601,0.0103378,0.100403,0.0774002,0.2034,0.0281525,0.0113297,0.0256729,0.0212479,-9.97986,0.027504,-0.00179291,0.0146866,-0.0402451,0.0203705,0.00839233,0.0212479,0.00610352
35,5,8.19325,0.000915527,-0.00183105,-2.42684,0.0590379,-0.0729268,0.0553487,0.04442,-0.0931465,0.145929,-0.126072,-0.0816549,0.00801086,0.0996017,0.0580597,0.166016,0.0247574,0.0136948,0.0240707,0.0239563,-9.97986,0.0276184,-0.00156403,0.0178528,-0.0473785,0.020752,0.000190735,0.0223541,0.00858307
35,6,6.94203,0.000305176,-0.00167847,-2.42562,0.0550706,-0.0735371,0.054128,0.0523546,-0.0931465,0.146844,-0.125766,-0.0828756,0.00713348,0.103111,0.0271988,0.152359,0.029335,0.0111771,0.0254822,0.0237274,-9.97986,0.0288391,-0.00038147,0.0170135,-0.0509262,0.0196457,-0.00335693,0.0216675,0.00541687
35,7,6.75496,-0.000305176,-0.00167847,-2.42562,0.0544603,-0.0744527,0.0547383,0.0630358,-0.0913154,0.145013,-0.125766,-0.0828756,0.0094986,0.0796509,-0.0118256,0.13546,0.0230408,0.0112534,0.0270081,0.02388,-9.97986,0.0321198,-0.00621796,0.0156403,-0.0559235,0.0175476,-0.00602722,0.0225067,0.00720978
35,8,6.92281,-0.000915527,0.000305176,-2.42684,0.0547655,-0.0753682,0.0547383,0.0728014,-0.0919257,0.144403,-0.124546,-0.0837911,0.00785828,0.0590897,-0.0403595,0.125046,0.0188065,0.0101852,0.030365,0.0232315,-9.97986,0.028801,-0.00335693,0.0165176,-0.0572205,0.0163651,-0.00991821,0.0219727,0.00770569
35,9,8.59181,0.000610352,0.00137329,-2.42592,0.0541551,-0.0738423,0.0544332,0.0914171,-0.0897895,0.145013,-0.124241,-0.0834859,0.00827789,0.0439835,-0.0565338,0.111771,0.0196075,0.012207,0.0265503,0.0217056,-9.97986,0.0259399,0.000610352,0.0181198,-0.0540161,0.0187302,-0.0190353,0.0178528,0.00644684
36,0,10.0097,-0.000305176,0.00274658,-2.42837,0.0538499,-0.0756734,0.0535176,0.101183,-0.0922309,0.143487,-0.126682,-0.085317,0.00591278,0.0279999,-0.0646591,0.0970078,0.0192642,0.0138855,0.024147,0.0227356,-9.97986,0.0257111,0.000762939,0.0127792,-0.0476456,0.0199509,-0.0299454,0.019989,0.00881195
36,1,10.0097,0.000610352,0.000762939,-2.42928,0.0559862,-0.0756734,0.0519917,0.0801256,-0.095893,0.142877,-0.126682,-0.0874532,0.0107574,0.018959,-0.0676727,0.0895691,0.0184631,0.0135803,0.0221634,0.0182724,-9.97986,0.0252151,-0.00293732,0.0155258,-0.0566483,0.0185394,-0.0338745,0.0221634,0.0019455
36,2,10.0097,0.00213623,-0.000610352,-2.4305,0.0544603,-0.0747579,0.0522969,0.072191,-0.0965034,0.144403,-0.127292,-0.0871481,0.00892639,0.00705719,-0.0670624,0.0776672,0.0148773,0.0138092,0.0247192,0.0219345,-9.97986,0.022049,-0.00289917,0.014801,-0.0616455,0.0183868,-0.0212097,0.0198746,0.00591278
36,3,10.0097,0.00305176,-0.000305176,-2.42959,0.0523241,-0.0759786,0.0519917,0.0697496,-0.0949775,0.142267,-0.128513,-0.0874532,0.00858307,0.00171661,-0.0583649,0.0652695,0.0185394,0.0123215,0.0318527,0.0209808,-9.97986,0.0230789,0.000495911,0.0179291,-0.0678635,0.0208282,-0.0172806,0.0209427,0.00537872
36,4,10.0097,0.000610352,-0.00137329,-2.42806,0.0550706,-0.0759786,0.0532125,0.0691393,-0.0943672,0.143792,-0.127598,-0.0874532,0.0101089,0.00488281,-0.0447083,0.0577164,0.013504,0.0160599,0.029068,0.0246429,-9.97986,0.0220108,-0.00293732,0.0155258,-0.08358,0.019989,-0.00984192,0.0182343,0.00404358
36,5,10.0097,0,-0.00152588,-2.42806,0.0550706,-0.0765889,0.0526021,0.0715807,-0.0946723,0.143182,-0.127292,-0.0868429,0.0088501,0.00606537,-0.031395,0.0535202,0.018425,0.017395,0.0297165,0.0226593,-9.97986,0.0162506,0.000648499,0.013504,-0.0970078,0.0169754,-0.00915527,0.0191116,0.0044632
36,6,10.0097,0,-0.00152588,-2.42684,0.0544603,-0.075063,0.0538228,0.0694445,-0.0943672,0.145013,-0.125766,-0.085317,0.01091,0.00740051,-0.0163269,0.0459671,0.01297,0.0129318,0.0250244,0.0226974,-9.97986,0.018425,0.00228882,0.0151062,-0.100784,0.0170135,-0.00488281,0.0236893,0.00404358
36,7,10.0097,-0.000610352,-0.000457764,-2.42745,0.0544603,-0.075063,0.0538228,0.0706652,-0.0934516,0.145929,-0.124851,-0.0859274,0.0127792,0.00541687,-0.0156784,0.0364685,0.0155258,0.0164413,0.0233078,0.019722,-9.97986,0.0133133,0.00434875,0.0146484,-0.113983,0.0196075,0.00377655,0.0187683,-0.000762939
36,8,10.0097,0.000610352,-0.00152588,-2.42684,0.0550706,-0.075063,0.0538228,0.0712755,-0.0952827,0.144098,-0.126682,-0.0837911,0.00957489,0.0112915,-0.00537872,0.0301743,0.0172424,0.0154877,0.021553,0.0200653,-9.97986,0.0166321,-0.00190735,0.0163651,-0.12764,0.0204086,0.013504,0.0180817,0.00320435
36,9,10.0097,0,-0.000457764,-2.4247,0.0569017,-0.0729268,0.054128,0.07036,-0.0922309,0.147149,-0.125766,-0.0834859,0.011673,0.0125504,0.00167847,0.0266647,0.018692,0.013504,0.0244522,0.0211716,-9.97986,0.0127411,-0.00160217,0.0143051,-0.133133,0.0196075,0.0109482,0.0177002,0.00171661
37,0,10.0097,0.00305176,-0.000457764,-2.42714,0.0569017,-0.0738423,0.0550435,0.0724962,-0.0919257,0.146844,-0.124546,-0.0813497,0.0069809,0.0150299,0.00511169,0.0231171,0.0175858,0.0139236,0.0222778,0.0241852,-9.97986,0.0110245,-0.00228882,0.0189972,-0.130653,0.0210571,0.00484467,0.0192261,0.00324249
37,1,10.0097,-0.000610352,0.000610352,-2.42531,0.0565965,-0.0723164,0.0556539,0.0706652,-0.0897895,0.146844,-0.124851,-0.0813497,0.0120926,0.0205612,0.0142288,0.0180054,0.0209427,0.0181961,0.0298691,0.0259018,-9.97986,0.0187302,-0.000991821,0.0195313,-0.131721,0.0204849,0.00423431,0.0205994,0.00297546
37,2,10.0097,0.00152588,-0.000457764,-2.4247,0.0559862,-0.0717061,0.0556539,0.0712755,-0.0916206,0.146234,-0.124851,-0.0813497,0.00648499,0.0203705,0.0128174,0.00984192,0.013504,0.00720978,0.0205612,0.0185013,-9.97986,0.0134277,-0.000610352,0.0166321,-0.13504,0.0206375,0.000762939,0.0136185,0.00190735
37,3,10.0097,-0.00152588,0.000305176,-2.4244,0.055681,-0.0747579,0.0544332,0.0718859,-0.0928413,0.145624,-0.124241,-0.0816549,0.0146103,0.0286865,0.0189209,0.0114441,0.0174332,0.0123215,0.0246429,0.0253296,-9.97986,0.0170517,-0.000190735,0.0195313,-0.134888,0.0219727,0.00179291,0.0156021,0.0018692
37,4,10.0097,-0.000305176,0.000152588,-2.42592,0.0572069,-0.0729268,0.0535176,0.0413683,-0.0946723,0.145929,-0.126072,-0.0807394,0.00858307,0.0271225,0.0217438,0.00900269,0.015831,0.0139999,0.0236893,0.0244141,-9.97986,0.0143433,-0.000724792,0.0177383,-0.121422,0.0196838,-0.00465393,0.0141144,0.000801086
37,5,8.13832,0.000305176,-0.000762939,-2.42562,0.0578172,-0.0729268,0.0547383,0.0435045,-0.0925361,0.147455,-0.126377,-0.0807394,0.0108337,0.0262451,0.0205231,0.00545502,0.0142288,0.00991821,0.0222015,0.0178528,-9.97986,0.0132751,-0.00301361,0.0192642,-0.106354,0.0196838,-0.0119019,0.0153732,0.00385284
37,6,6.92769,-0.0012207,0.00167847,-2.42684,0.0559862,-0.0744527,0.0547383,0.0535753,-0.0919257,0.145318,-0.125156,-0.0819601,0.0118637,0.0284195,0.0172424,0.000953674,0.0131989,0.0122833,0.0204086,0.0152588,-9.97986,0.0153732,-0.000610352,0.0188065,-0.0821686,0.0196075,-0.0133133,0.0111389,0.00549316
37,7,6.73726,-0.000305176,0.00167847,-2.42592,0.0562914,-0.075063,0.0538228,0.0624254,-0.0922309,0.144708,-0.125766,-0.0825704,0.0141144,0.0281525,0.0162506,-0.000534058,0.0145721,0.0124359,0.0191879,0.0192261,-9.97986,0.00907898,-0.00419617,0.0180817,-0.0587845,0.0198746,-0.0131226,0.0126266,3.8147e-005
37,8,6.89199,-0.0012207,0.00228882,-2.42745,0.0553758,-0.0735371,0.0547383,0.072191,-0.0913154,0.145318,-0.126377,-0.0825704,0.0140381,0.0201035,0.0188065,-0.00526428,0.0127792,0.0136566,0.0216675,0.0167465,-9.97986,0.0161743,-0.00358582,0.0190353,-0.0426483,0.0204849,-0.0157928,0.0152588,0.0030899
37,9,8.58785,0,0.00320435,-2.42684,0.0514085,-0.0747579,0.0550435,0.0926378,-0.088874,0.142572,-0.123935,-0.0828756,0.0105286,0.0194168,0.0169754,-0.00835419,0.010643,0.00270844,0.0225449,0.0193024,-9.97986,0.0102997,-0.00267029,0.0140381,-0.0198746,0.0201035,-0.015831,0.0106812,0.00225067
38,0,10.0097,-0.000305176,0.00427246,-2.42714,0.0541551,-0.0768941,0.0535176,0.101488,-0.0937568,0.142877,-0.125156,-0.0847066,0.0114822,0.0180817,0.0224304,-0.00637054,0.0153732,0.0106049,0.0208282,0.0175476,-9.97986,0.017662,-0.00312805,0.0161362,-0.0062561,0.0198364,-0.00915527,0.0129318,0.00102997
38,1,10.0097,-0.00244141,0.00228882,-2.42989,0.0541551,-0.0765889,0.0513814,0.0798204,-0.0955879,0.142267,-0.127292,-0.0868429,0.010376,0.0129318,0.0228119,-0.0114059,0.01297,0.00865936,0.0182724,0.0244904,-9.97986,0.0187302,-0.000457764,0.0135422,0.0133896,0.0208282,-0.0115204,0.0118256,0.000953674
38,2,10.0097,0.000610352,0.00259399,-2.42776,0.0541551,-0.0765889,0.054128,0.0737169,-0.095893,0.14837,-0.126987,-0.0862325,0.0104523,0.00831604,0.0185013,-0.00869751,0.0138092,0.0123978,0.013237,0.0187302,-9.97986,0.0135422,-0.00350952,0.0137329,0.0370789,0.0170898,-0.0146866,0.0102615,0.00286102
38,3,10.0097,0.000305176,0.00259399,-2.42928,0.0529344,-0.0753682,0.0519917,0.0688341,-0.0974189,0.142877,-0.127292,-0.0859274,0.00823975,0.00843048,0.0193787,-0.0137711,0.0122833,0.0025177,0.0205994,0.0221634,-9.97986,0.0135422,0.00331879,0.0160217,0.0701523,0.0183868,-0.0164413,0.0147247,0.00370026
38,4,10.0097,0.000915527,0.00289917,-2.42898,0.0538499,-0.0787251,0.0519917,0.0694445,-0.0949775,0.144708,-0.127598,-0.0862325,0.00926971,0.0143433,0.0183105,-0.0135803,0.00598907,0.0062561,0.0202942,0.0241089,-9.97986,0.0137711,-0.00156403,0.0196838,0.100708,0.0146866,-0.0189209,0.0147247,0.00225067
38,5,10.0097,0.00244141,0.00152588,-2.42867,0.0535448,-0.0762837,0.0526021,0.0700548,-0.0949775,0.142572,-0.126377,-0.0859274,0.011673,0.0115967,0.0162888,-0.0156403,0.0135422,0.000915527,0.0178146,0.0286865,-9.97986,0.0136566,0.00297546,0.0167084,0.116882,0.021019,-0.0156784,0.0145721,0.00366211
38,6,10.0097,-0.0012207,0.00183105,-2.42776,0.0550706,-0.0744527,0.0532125,0.0697496,-0.0925361,0.145929,-0.128208,-0.0844015,0.0134277,0.0128937,0.0195694,-0.0138855,0.0117111,0.00278473,0.0210571,0.0324631,-9.97986,0.0202179,-0.00274658,0.0180435,0.136795,0.0201035,-0.0172806,0.0135422,0.0012207
38,7,10.0097,-0.000610352,0.00289917,-2.42714,0.0547655,-0.0756734,0.0544332,0.0697496,-0.094062,0.144098,-0.126072,-0.0837911,0.0125122,0.0128937,0.0198364,-0.0156784,0.01091,0.00144958,0.0221634,0.0312805,-9.97986,0.0175095,0.00202179,0.0193405,0.160561,0.0220871,-0.0171661,0.0143051,-0.00179291
38,8,10.0097,-0.000610352,0.00137329,-2.42806,0.055681,-0.0759786,0.0535176,0.07036,-0.0931465,0.145624,-0.125766,-0.0837911,0.0123596,0.0152206,0.0175476,-0.0155258,0.00797272,-0.00190735,0.0198364,0.0272751,-9.97986,0.010643,-0.0019455,0.0154495,0.167809,0.0179291,-0.0195313,0.0146866,0.00114441
38,9,10.0097,-0.000915527,0.00152588,-2.42623,0.0559862,-0.0741475,0.0547383,0.0700548,-0.0922309,0.145929,-0.125766,-0.0816549,0.0112915,0.0166321,0.0217438,-0.0167847,0.0114441,-0.00167847,0.0231552,0.02285,-9.97986,0.00823975,-0.0025177,0.0159454,0.177383,0.0186539,-0.0148773,0.0133133,0.00350952
39,0,10.0097,-0.000610352,0.00106812,-2.42501,0.0559862,-0.0747579,0.054128,0.0712755,-0.0922309,0.146539,-0.124241,-0.0810445,0.0105286,0.0157166,0.0244141,-0.0203705,0.00862122,-0.00305176,0.0201035,0.016861,-9.97986,0.0107574,-0.00175476,0.0144577,0.188484,0.0178909,-0.017662,0.0144958,0.00343323
39,1,10.0097,0.000305176,0.000610352,-2.42409,0.0559862,-0.0738423,0.0544332,0.0706652,-0.0919257,0.14898,-0.124851,-0.0804342,0.0119781,0.0150299,0.0241852,-0.0139236,0.0123596,-0.00831604,0.0174713,0.0167084,-9.97986,0.0109482,0.00167847,0.0176239,0.195122,0.0182724,-0.0137711,0.0126648,0.00442505
39,2,10.0097,0.00152588,0.000610352,-2.42562,0.0562914,-0.0735371,0.054128,0.0712755,-0.0913154,0.146539,-0.124546,-0.0807394,0.00770569,0.0180817,0.0251007,-0.0156784,0.00869751,-0.00808716,0.0204086,0.0141907,-9.97986,0.0121307,-0.00228882,0.0172806,0.20298,0.0220108,-0.0152206,0.0133896,0.00286102
39,3,10.0097,-0.000305176,0.000915527,-2.4247,0.0569017,-0.0720113,0.0565694,0.0709703,-0.0916206,0.147149,-0.123935,-0.0798238,0.00888824,0.0258636,0.0281525,-0.0115967,0.00827789,-0.0102997,0.0201035,0.01297,-9.97986,0.0102997,-0.00152588,0.0146103,0.217323,0.0237274,-0.0154114,0.0114822,0.00236511
39,4,10.0097,-0.000610352,-0.000152588,-2.42714,0.055681,-0.0738423,0.0532125,0.0407579,-0.0952827,0.146539,-0.126987,-0.0822652,0.0136948,0.0277328,0.0312805,-0.00850677,0.0124359,-0.0144577,0.022583,0.0261688,-9.97986,0.0146484,-0.00419617,0.0187302,0.224457,0.0229263,-0.0143051,0.0156403,3.8147e-005
39,5,8.11299,0.00213623,-0.00152588,-2.4247,0.0553758,-0.0738423,0.0538228,0.0441149,-0.0937568,0.146844,-0.125461,-0.0819601,0.0133514,0.0289154,0.0286102,-0.00534058,0.0087738,-0.0170898,0.0203323,0.0279617,-9.97986,0.00980377,-0.00400543,0.017128,0.225677,0.0191879,-0.0144196,0.0148773,0.00236511
39,6,6.85811,0,0,-2.42592,0.0565965,-0.0741475,0.0553487,0.052965,-0.0916206,0.146234,-0.125156,-0.0813497,0.0112534,0.0296021,0.0247574,-0.00751495,0.00999451,-0.0141907,0.0224304,0.0349045,-9.97986,0.00759125,-0.00160217,0.0191879,0.231209,0.0182724,-0.0117111,0.0124359,0.00160217
39,7,6.70034,-0.000305176,0.00137329,-2.42653,0.055681,-0.0741475,0.0556539,0.0630358,-0.0910102,0.14776,-0.125156,-0.0825704,0.0131226,0.03685,0.0348663,-0.00762939,0.0087738,-0.0163269,0.0224304,0.0396729,-9.97986,0.0062561,-0.000534058,0.0203705,0.249825,0.0178146,-0.0108719,0.0112915,0.00324249
39,8,6.90145,0.000305176,-0.000152588,-2.42684,0.0553758,-0.0744527,0.0550435,0.0712755,-0.0922309,0.145929,-0.125461,-0.0834859,0.0111008,0.0342941,0.0405502,-0.00404358,0.00724792,-0.0190735,0.0226974,0.0357437,-9.97986,0.00629425,-0.00595093,0.0206757,0.246201,0.0197601,-0.00869751,0.0138092,0.00274658
39,9,8.61257,0.000915527,-0.000305176,-2.42623,0.0547655,-0.0741475,0.0553487,0.0914171,-0.0900947,0.145929,-0.124241,-0.0840963,0.0151443,0.0352097,0.0346375,-0.00465393,0.0115585,-0.0178146,0.0206757,0.0365067,-9.97986,0.00370026,-0.000419617,0.0178146,0.212746,0.0222778,-0.00968933,0.00892639,0.00217438
40,0,10.0097,0.000915527,-0.000610352,-2.42928,0.0535448,-0.0762837,0.0529073,0.101183,-0.0916206,0.141961,-0.125156,-0.0868429,0.0147247,0.0475693,0.0376129,-0.00492096,0.0117874,-0.0146103,0.0219345,0.031662,-9.97986,0.00495911,-0.000648499,0.0181198,0.177727,0.0230026,-0.00469208,0.012207,0.00259399
40,1,10.0097,-0.000305176,-0.00274658,-2.4302,0.0547655,-0.0762837,0.0513814,0.0795153,-0.0949775,0.143487,-0.127292,-0.0874532,0.0123596,0.0619125,0.0450134,-0.0158691,0.0125504,-0.0177765,0.0268173,0.0278473,-9.97986,0.000648499,-0.00152588,0.018425,0.151024,0.0233459,-0.00915527,0.013237,0.00038147
40,2,10.0097,-0.000915527,-0.00244141,-2.42928,0.0535448,-0.0762837,0.0532125,0.0734117,-0.0949775,0.145318,-0.126682,-0.0865377,0.0102997,0.0708771,0.0550842,-0.0118256,0.00709534,-0.0174713,0.030365,0.0204849,-9.97986,0.0012207,-0.00679016,0.0155258,0.128403,0.0228119,-0.00663757,0.0125122,0.000495911
40,3,10.0097,-0.0012207,-0.00137329,-2.42867,0.0535448,-0.0759786,0.0516866,0.0709703,-0.0968086,0.142877,-0.127903,-0.0883688,0.0108337,0.0710297,0.0537109,-0.00934601,0.0146484,-0.0181198,0.025177,0.018692,-9.97986,0.00377655,-0.000190735,0.0162888,0.115356,0.0180817,-0.00732422,0.00995636,0.000457764
40,4,10.0097,0.00213623,-0.00167847,-2.42898,0.0541551,-0.0759786,0.0519917,0.0688341,-0.0937568,0.141961,-0.127292,-0.0868429,0.012207,0.0511551,0.0605392,-0.00564575,0.0157166,-0.0206375,0.027504,0.018425,-9.97986,0.00370026,-0.000686646,0.020752,0.100708,0.0214005,-0.00591278,0.012207,0.00152588
40,5,10.0097,0.000915527,-0.000915527,-2.42867,0.0541551,-0.075063,0.0535176,0.0712755,-0.094062,0.143182,-0.126987,-0.0862325,0.0106049,0.0193787,0.0624466,-0.00953674,0.0112915,-0.0139618,0.0259018,0.00427246,-9.97986,0.00339508,0.00106812,0.0133514,0.103951,0.0230789,-0.00274658,0.0110245,0.00282288
