
Devices
1200
,,BP Load cell - Voltage,String Length - Voltage,Clutch Active - Voltage,#7 iPecs - Voltage,,,,,,,,,EMG 1-8 Left - Voltage,,,,,,,,Pylon Force - Voltage,EMG 9-16 Right - Voltage,,,,,,,,
Frame,Sub Frame,BP Load Cell,String Length,From Arduino Logic,A45,A135,A225,A315,S0,S90,S180,S270,ZSum,EMG 1 Glut Max,EMG 2 Glut Med,EMG 3 Biceps Femoris Long,EMG 4 Rectus Femoris,EMG 5 Vastus Medialis,EMG 6 Tib Ant,EMG 7 Med Gas,EMG 8 Soleus,Pylon volts,EMG 9 Glut Max,EMG 10 Glut Med,EMG 11 Biceps Femoris Long,EMG 12 Rectus Femoris,EMG 13 Vastus Medialis,EMG 14 Tib Ant,EMG 15 Med Gas,EMG 16 Soleus
,,V,V,V,V,V,V,V,V,V,V,V,V,V,V,V,V,V,V,V,V,V,V,V,V,V,V,V,V,V
1,0,1.69606,0.000610352,0.00198364,-2.42806,0.0538499,-0.0768941,0.0547383,0.152757,-0.0894843,0.143182,-0.120578,-0.0840963,-0.0253296,0.0300598,0.0215912,0.013504,0.0101089,0.0162125,0.0156784,0.0257111,-9.97986,0.0295639,0.00617981,-3.8147e-005,0.35759,0.0271225,-0.00919342,-0.00553131,0.00869751
1,1,8.96657,0.000915527,0.000915527,-2.42959,0.0538499,-0.0753682,0.0544332,0.158861,-0.0916206,0.143182,-0.120884,-0.0865377,-0.0373459,0.0294876,0.0225449,0.0117874,0.00808716,0.0242233,0.0157928,0.022049,-9.97986,0.00656128,0.00293732,0.0166702,0.328407,0.0269699,-0.00888824,-0.00148773,0.00854492
1,2,10.0097,-0.000915527,-0.00152588,-2.43142,0.0520189,-0.0775044,0.0501607,0.111559,-0.0949775,0.141961,-0.125461,-0.0908102,-0.0291443,0.0238419,0.0190735,0.0125122,-0.00278473,0.0249863,0.00900269,0.0131989,-9.97986,0.000343323,0.00370026,0.0529861,0.276451,0.0246811,-0.0106049,-0.00366211,0.0088501
1,3,10.0097,0.00183105,-0.00411987,-2.43081,0.0541551,-0.0762837,0.0522969,0.0856188,-0.0983344,0.143182,-0.126377,-0.0883688,-0.0222397,0.0276566,0.0211716,0.0149155,-0.00442505,0.026474,0.0114822,0.0145721,-9.97986,0.00198364,0.00816345,0.0815582,0.216446,0.0214767,-0.00934601,-0.0056076,0.00740051
1,4,10.0097,0.0012207,-0.00457764,-2.42928,0.0550706,-0.0762837,0.0522969,0.0779894,-0.0955879,0.143792,-0.125766,-0.0883688,-0.00858307,0.0303268,0.0219345,0.0108337,-0.0094223,0.0355911,0.0147629,0.00801086,-9.97986,0.0101471,0.00930786,0.108871,0.170784,0.0151825,-0.00911713,-0.0038147,0.0087738
1,5,10.0097,0.0012207,-0.00366211,-2.42867,0.0547655,-0.0753682,0.0513814,0.0743273,-0.0943672,0.144098,-0.126072,-0.0874532,0.0348663,0.0261688,0.0157928,0.0122833,-0.0100327,0.0388336,0.0171661,0.00888824,-9.97986,0.0030899,0.00389099,0.12001,0.119743,0.0149536,-0.00843048,-0.00717163,0.0116348
1,6,10.0097,0.000915527,-0.00457764,-2.42745,0.0550706,-0.0741475,0.0529073,0.0706652,-0.0946723,0.145318,-0.126072,-0.0880636,0.0545883,0.0347137,0.0193787,0.00961304,-0.0133514,0.0482559,0.0135803,0.0157166,-9.97986,-0.018959,0.00488281,0.12104,0.0693512,0.0130844,-0.0116348,-0.00514984,0.0122452
1,7,10.0097,0.000610352,-0.00442505,-2.42653,0.0553758,-0.075063,0.0535176,0.0700548,-0.0937568,0.144708,-0.125766,-0.0862325,0.0422668,0.0337601,0.0162125,0.0113297,-0.01091,0.0488663,0.0130844,0.0138855,-9.97986,-0.0267792,0.00236511,0.113144,0.0166702,0.00553131,-0.010376,-0.0075531,0.0102615
1,8,10.0097,0.000305176,-0.00488281,-2.42714,0.0565965,-0.0744527,0.0532125,0.0709703,-0.0928413,0.144098,-0.124546,-0.0837911,0.0292587,0.0255585,0.0201416,0.0119019,-0.0106812,0.0588226,0.0186539,0.018158,-9.97986,-0.0426102,0.00217438,0.104294,-0.0304794,0.00492096,-0.00881195,-0.00469208,0.0167847
1,9,10.0097,0.00152588,-0.00427246,-2.4244,0.0559862,-0.0744527,0.0538228,0.07036,-0.0928413,0.147149,-0.124546,-0.0828756,-0.00667572,0.0234985,0.0204468,0.0107574,-0.0154114,0.0602722,0.0125504,0.0133514,-9.97986,-0.04879,0.000534058,0.0931549,-0.0779343,0.00564575,-0.0117874,-0.00312805,0.0135803
2,0,10.0097,0.0012207,-0.00473022,-2.42226,0.0559862,-0.0741475,0.0544332,0.0706652,-0.0919257,0.147149,-0.124546,-0.0825704,-0.0260925,0.0217438,0.0139618,0.00839233,-0.0100708,0.0685501,0.0170898,0.0212479,-9.97986,-0.0575638,0.000953674,0.0870514,-0.129242,0,-0.00865936,-0.00617981,0.0128555
2,1,10.0097,0.000305176,-0.0062561,-2.42684,0.0562914,-0.075063,0.0522969,0.0264147,-0.0980293,0.145013,-0.128208,-0.0844015,-0.0259018,0.0188828,0.00930786,0.00865936,-0.013237,0.0725174,0.013504,0.024147,-9.97986,-0.0640106,-0.000839233,0.0810242,-0.183563,-0.00598907,-0.0117493,-0.00679016,0.0102234
2,2,3.80757,0.00183105,-0.00900269,-2.42684,0.0581224,-0.0747579,0.0513814,-0.0184462,-0.100471,0.145624,-0.130039,-0.0831808,-0.024147,0.0166321,0.0134659,0.00801086,-0.0134277,0.0746536,0.017128,0.0239182,-9.97986,-0.0469208,-0.000152588,0.0778198,-0.230255,-0.00431061,-0.00904083,-0.00205994,0.00335693
2,3,-4.1569,-0.000305176,-0.00961304,-2.42318,0.0569017,-0.0738423,0.0538228,-0.0169203,-0.0983344,0.146844,-0.130344,-0.0837911,0.000343323,0.0183868,0.0094223,0.00793457,-0.0153732,0.0780106,0.017662,0.0260925,-9.97986,-0.00862122,0.00175476,0.0728989,-0.276108,-0.00270844,-0.0156403,-0.00133514,-0.00534058
2,4,-9.99003,0.00244141,-0.00869751,-2.42501,0.0562914,-0.073232,0.0550435,-0.0016615,-0.0925361,0.147455,-0.128208,-0.0810445,0.0185776,0.0138855,0.00656128,0.00282288,-0.0121689,0.079155,0.0153732,0.0374222,-9.97986,0.0246811,0.00209808,0.064621,-0.313416,-0.00545502,-0.0125504,-0.0038147,-0.0168991
2,5,-9.99003,-0.000915527,-0.00534058,-2.4244,0.0572069,-0.0744527,0.0565694,0.0377062,-0.088874,0.145929,-0.125156,-0.0810445,0.018959,0.0144196,0.0120544,0.00476837,-0.0160217,0.0828934,0.0175476,0.0358582,-9.97986,0.0385284,0.00419617,0.0479126,-0.34481,-0.0257111,-0.00591278,-0.000724792,-0.0279999
2,6,-9.99003,-0.000915527,-0.00518799,-2.42714,0.0562914,-0.0744527,0.0547383,0.0563219,-0.0910102,0.146539,-0.126377,-0.0825704,0.0256348,0.0154877,0.00900269,0.0114441,-0.0127411,0.0827026,0.0159073,0.0327682,-9.97986,0.0455475,0.00225067,0.0390244,-0.385437,-0.0257492,-0.00656128,0.00164032,-0.0382233
2,7,-9.99003,0.00152588,-0.00442505,-2.42684,0.0541551,-0.0744527,0.0550435,0.0615099,-0.0900947,0.145318,-0.125461,-0.0831808,0.0386429,0.0131989,0.00549316,0.0075531,-0.0125885,0.0881958,0.0170135,0.0301361,-9.97986,0.0660706,0.00301361,0.03582,-0.423317,-0.0279617,-0.00541687,0.000114441,-0.0411987
2,8,-9.99003,0.000915527,-0.00320435,-2.42592,0.0550706,-0.0756734,0.0547383,0.0850084,-0.0894843,0.144708,-0.124241,-0.0831808,0.0350952,0.0110626,0.00770569,0.00740051,-0.0101471,0.0915909,0.0185013,0.0228119,-9.97986,0.0877762,-0.00156403,0.0296021,-0.456696,-0.0204849,-0.00717163,-0.00404358,-0.0442505
2,9,-5.49235,0.000305176,0.00152588,-2.42837,0.0550706,-0.0741475,0.0556539,0.138414,-0.0882636,0.144098,-0.121494,-0.0844015,0.0354767,0.0150681,0.00965118,0.0111389,-0.011673,0.0913239,0.0212479,0.0203323,-9.97986,0.109406,-0.000953674,0.0331497,-0.481339,-0.0136566,-0.0056839,-0.00118256,-0.0385284
3,0,1.87459,0.000915527,0.00198364,-2.42684,0.0532396,-0.0753682,0.0535176,0.152452,-0.0885688,0.142877,-0.120273,-0.0859274,0.00766754,0.0129318,0.0115967,0.00938416,-0.00961304,0.0882339,0.0177765,0.0258636,-9.97986,0.105247,0.00038147,0.028038,-0.504532,-0.00637054,-0.00476837,-0.000534058,-0.0369644
3,1,9.07277,0.000305176,0.00183105,-2.42837,0.0535448,-0.0756734,0.0547383,0.157945,-0.088874,0.143182,-0.121189,-0.0874532,-0.0106049,0.0157166,0.0121689,0.0111389,-0.00640869,0.0914764,0.0164795,0.0284195,-9.97986,0.0945663,0.00278473,0.0246429,-0.520554,-0.00682831,-0.00904083,-0.00133514,-0.0296021
3,2,10.0097,0.000915527,0.000152588,-2.43111,0.0532396,-0.0771993,0.04894,0.110033,-0.0965034,0.142572,-0.124851,-0.0892843,-0.0192642,0.0111771,0.0165558,0.0102234,-0.00999451,0.0902176,0.0221634,0.0208282,-9.97986,0.0808716,-0.0018692,0.0232697,-0.53093,-0.00671387,-0.00576019,-0.00648499,-0.0272369
3,3,10.0097,0.000305176,-0.000915527,-2.43081,0.0538499,-0.0771993,0.050771,0.0862291,-0.0971137,0.142877,-0.126072,-0.0889791,-0.0303268,0.0178146,0.0160599,0.0150299,-0.00408173,0.092659,0.020752,0.0201416,-9.97986,0.0563049,0.00202179,0.0261307,-0.539436,-0.00450134,-0.0056839,0.000572205,-0.0216675
3,4,10.0097,-0.000610352,-0.00137329,-2.42959,0.0550706,-0.0744527,0.0513814,0.0758531,-0.0952827,0.143792,-0.126682,-0.0877584,-0.0125885,0.0172806,0.00988007,0.00988007,-0.00453949,0.0861359,0.0166702,0.0207901,-9.97986,0.0336456,0.000991821,0.0239182,-0.548058,-0.0102615,-0.00823975,-0.0019455,-0.0230789
3,5,10.0097,0.000610352,-0.000915527,-2.42898,0.0544603,-0.0747579,0.0522969,0.0728014,-0.0937568,0.144403,-0.126377,-0.0859274,0.00682831,0.0185776,0.0153351,0.0173187,-0.00362396,0.0879288,0.0202179,0.0187302,-9.97986,0.0187683,-0.00038147,0.025444,-0.550842,-0.00774384,-0.00701904,-0.00423431,-0.0223923
3,6,10.0097,-0.000610352,-0.00137329,-2.42714,0.0541551,-0.075063,0.0532125,0.0728014,-0.0931465,0.144708,-0.126072,-0.0850118,0.0157547,0.0138474,0.00976563,0.0131989,-0.00244141,0.0836945,0.0183105,0.02388,-9.97986,0.0116348,-0.00209808,0.0228119,-0.561562,-0.00869751,-0.0087738,-0.00431061,-0.0215912
3,7,10.0097,0.00152588,0.000305176,-2.42745,0.0553758,-0.0753682,0.0553487,0.0700548,-0.0943672,0.145013,-0.125461,-0.0837911,0.0278473,0.0138855,0.014267,0.0133896,-0.00110626,0.0794601,0.0174713,0.0272369,-9.97986,0.00534058,7.62939e-005,0.0193024,-0.549583,-0.00396729,-0.00843048,-0.00343323,-0.0183105
3,8,10.0097,-0.0012207,0.0012207,-2.42684,0.0553758,-0.0735371,0.0550435,0.0712755,-0.0925361,0.145318,-0.124851,-0.0822652,0.0362778,0.0131989,0.0120544,0.0162125,0.000762939,0.0749207,0.0135803,0.0305939,-9.97986,0.000152588,-0.0043869,0.0209427,-0.531235,-0.00621796,-0.0120926,-0.00865936,-0.0227356
3,9,10.0097,0.000305176,0.000762939,-2.42562,0.0559862,-0.0729268,0.054128,0.0724962,-0.0919257,0.145318,-0.12363,-0.0819601,0.0572586,0.0104141,0.0113678,0.014801,-0.00137329,0.0667953,0.0160599,0.0286865,-9.97986,-0.00240326,-0.00358582,0.0225067,-0.528259,-0.00133514,-0.0138474,-0.00907898,-0.0204468
4,0,10.0097,0.00183105,0.000152588,-2.42501,0.0565965,-0.0747579,0.0538228,0.072191,-0.0913154,0.148065,-0.124546,-0.0819601,0.0692749,0.00831604,0.00598907,0.00881195,-0.000152588,0.0641251,0.0205994,0.0367737,-9.97986,0.00934601,-0.00328064,0.02285,-0.527725,0.00511169,-0.0138092,-0.00759125,-0.0227737
4,1,10.0097,-0.00213623,-0.00152588,-2.42806,0.0553758,-0.0744527,0.0519917,0.0276354,-0.0983344,0.145013,-0.127598,-0.0844015,0.0774002,0.0109482,0.0106049,0.0149536,0.00343323,0.0607681,0.0153351,0.0358963,-9.97986,0.0278473,0.000801086,0.0245667,-0.536919,0.00774384,-0.0155258,-0.00858307,-0.0204468
4,2,3.70687,-0.000610352,-0.00350952,-2.42623,0.0559862,-0.0756734,0.0519917,-0.0163099,-0.101386,0.146539,-0.13187,-0.0828756,0.0798416,0.00846863,0.0121689,0.0094223,0.00125885,0.0539017,0.0134659,0.0333023,-9.97986,0.0559235,3.8147e-005,0.0295258,-0.516624,0.00362396,-0.0147629,-0.0112915,-0.0154114
4,3,-4.21641,0.000915527,-0.00198364,-2.42623,0.0565965,-0.0729268,0.0535176,-0.0202772,-0.0968086,0.147149,-0.129734,-0.0813497,0.0725174,0.00480652,0.00907898,0.0126266,0.00751495,0.0527573,0.0170898,0.0350189,-9.97986,0.0585175,0.00392914,0.0345612,-0.480461,0.00530243,-0.0127029,-0.0110626,-0.00835419
4,4,-9.99003,0.000610352,-0.00259399,-2.42379,0.0575121,-0.0726216,0.0553487,-0.00135633,-0.0931465,0.146539,-0.129123,-0.0804342,0.0604248,0.00473022,0.00610352,0.0131226,0.00858307,0.0493622,0.0123596,0.0339127,-9.97986,0.0525665,0.000495911,0.0428391,-0.453148,0.00370026,-0.0101471,-0.0121689,-0.00038147
4,5,-9.99003,0.00152588,-0.000152588,-2.42379,0.0562914,-0.0738423,0.0568746,0.0364855,-0.0897895,0.146539,-0.126377,-0.080129,0.0431442,0.0114059,0.00663757,0.00957489,0.00873566,0.0445938,0.0138474,0.0362778,-9.97986,0.0361252,0.00259399,0.0615692,-0.442505,-0.0209045,-0.00915527,-0.0128937,0.00972748
4,6,-9.99003,-0.000915527,0.000915527,-2.42531,0.0547655,-0.075063,0.0556539,0.054796,-0.0910102,0.145318,-0.124851,-0.0807394,0.0333405,0.0130463,0.011673,0.00862122,0.0112152,0.0388718,0.0120544,0.0318146,-9.97986,0.0167465,0,0.0818253,-0.428772,-0.0223923,-0.00640869,-0.0149536,0.021553
4,7,-9.99003,0.00213623,0.00137329,-2.42867,0.055681,-0.0735371,0.0556539,0.0636461,-0.0922309,0.146234,-0.126072,-0.0819601,0.0191879,0.0117874,0.0139236,0.0127792,0.00972748,0.0302124,0.0157166,0.031395,-9.97986,0.0123978,-0.00102997,0.0937271,-0.412941,-0.0259399,-0.00850677,-0.0135422,0.0371552
4,8,-9.99003,-0.00213623,0.00289917,-2.42592,0.0541551,-0.075063,0.0553487,0.0843981,-0.0891792,0.146234,-0.124851,-0.0822652,-0.00835419,0.0115204,0.01194,0.00911713,0.0113297,0.0283813,0.0172043,0.0316238,-9.97986,0.0186157,0.000152588,0.0976181,-0.39093,-0.00450134,-0.013504,-0.0192642,0.0486755
4,9,-5.50303,0.000610352,0.0062561,-2.42745,0.0541551,-0.0762837,0.0547383,0.135668,-0.0885688,0.143792,-0.121799,-0.0834859,-0.0275803,0.0185013,0.0179291,0.0120926,0.0139236,0.0148392,0.0141907,0.0283051,-9.97986,0.0170898,0.00488281,0.0920105,-0.36499,0.000648499,-0.0107956,-0.0196075,0.0640488
5,0,1.84926,0,0.00610352,-2.42714,0.0541551,-0.0747579,0.0544332,0.153368,-0.0891792,0.143487,-0.121494,-0.0850118,-0.0370789,0.0151443,0.0211334,0.0140381,0.0141907,0.0130081,0.0171661,0.029068,-9.97986,0.0265884,0.00488281,0.076828,-0.349846,0.00247955,-0.00839233,-0.0239182,0.0752258
5,1,9.06789,0.00183105,0.00671387,-2.42806,0.0535448,-0.0756734,0.0522969,0.157945,-0.0891792,0.143792,-0.120273,-0.0847066,-0.0367355,0.0176239,0.0216675,0.0160217,0.0128555,0.0107193,0.0182724,0.0297928,-9.97986,0.0289154,0.00652313,0.0437546,-0.321159,0.00602722,-0.0104904,-0.0274658,0.0868225
5,2,10.0097,0.0012207,0.00396729,-2.43081,0.0532396,-0.0771993,0.0495503,0.111254,-0.0949775,0.146539,-0.126072,-0.0886739,-0.0349426,0.0227737,0.0202179,0.0144196,0.0170135,0.00827789,0.0149918,0.0274658,-9.97986,0.0400162,-0.000801086,0.0118256,-0.301971,0.00808716,-0.00835419,-0.0296783,0.0989151
5,3,10.0097,-0.000610352,0.00274658,-2.42959,0.0544603,-0.0768941,0.04894,0.0843981,-0.0974189,0.142572,-0.126987,-0.0877584,-0.0343323,0.019455,0.0217819,0.0125504,0.017128,0.00404358,0.0143433,0.0310135,-9.97986,0.0383759,-0.0018692,-0.0215149,-0.285149,0.0124741,-0.0102997,-0.0321579,0.105896
5,4,10.0097,0.000915527,0.00259399,-2.42898,0.0532396,-0.0759786,0.0526021,0.0776842,-0.0952827,0.144708,-0.126987,-0.0859274,-0.0209045,0.0193787,0.0230789,0.00926971,0.0168228,0.00175476,0.0205231,0.032692,-9.97986,0.0306702,-0.00179291,-0.0511169,-0.244865,0.0143051,-0.00331879,-0.0320816,0.11116
5,5,10.0097,0.0012207,0.00320435,-2.42867,0.0538499,-0.0765889,0.0519917,0.0740221,-0.0949775,0.145929,-0.127598,-0.0847066,-0.00930786,0.0227737,0.0278091,0.0167465,0.0167084,-0.00297546,0.0182724,0.0242615,-9.97986,0.0221634,0.000152588,-0.0865936,-0.207558,0.0188446,-0.0019455,-0.0344467,0.112534
5,6,10.0097,0.000915527,0.00259399,-2.42684,0.0541551,-0.0753682,0.0522969,0.0718859,-0.0928413,0.145013,-0.126682,-0.0837911,0.00240326,0.0225449,0.0244141,0.0163651,0.016861,-0.00839233,0.0214767,0.0270844,-9.97986,0.0199127,0.00469208,-0.119133,-0.180702,0.022583,-0.0106049,-0.0416946,0.117645
5,7,10.0097,0.00274658,0.00320435,-2.42776,0.0547655,-0.0753682,0.0529073,0.0715807,-0.094062,0.145318,-0.124851,-0.0831808,0.0141525,0.0188065,0.0281143,0.0141144,0.0172806,-0.0100327,0.0218964,0.0258636,-9.97986,0.0139236,0.0030899,-0.149269,-0.149078,0.0291443,-0.0152969,-0.039711,0.114212
5,8,10.0097,-0.000305176,0.00366211,-2.42745,0.0550706,-0.0744527,0.0532125,0.0712755,-0.0916206,0.145624,-0.126072,-0.0822652,0.0275803,0.0238419,0.0268555,0.0135803,0.0203705,-0.0118256,0.0224304,0.0285339,-9.97986,0.0117493,-0.00114441,-0.180283,-0.119247,0.030632,-0.0141907,-0.0430298,0.11528
5,9,10.0097,-0.000305176,0.00366211,-2.4244,0.0562914,-0.0744527,0.054128,0.0709703,-0.0916206,0.145929,-0.12363,-0.0813497,0.0290298,0.0232315,0.0259399,0.0131607,0.0134659,-0.0219727,0.0205612,0.0227737,-9.97986,0.0114822,0.000686646,-0.201416,-0.0743103,0.03685,-0.0141144,-0.0479126,0.111046
6,0,10.0097,-0.000610352,0.00335693,-2.42501,0.0565965,-0.0747579,0.0556539,0.072191,-0.0919257,0.146234,-0.124851,-0.0807394,0.014801,0.0170135,0.0220871,0.00934601,0.0166702,-0.0205231,0.0221634,0.0288391,-9.97986,-0.00278473,-0.00339508,-0.220757,-0.04673,0.0317764,-0.00442505,-0.0513458,0.105705
6,1,10.0097,-0.0012207,0.000457764,-2.42806,0.0550706,-0.0735371,0.0519917,0.0245836,-0.0980293,0.145318,-0.127292,-0.0834859,-0.00835419,0.0216675,0.0275803,0.0115585,0.0120544,-0.0245285,0.0240707,0.0255966,-9.97986,0.000495911,-0.00358582,-0.233765,-0.0417328,0.0352097,0.000534058,-0.0597763,0.103493
6,2,3.66231,0,-0.00167847,-2.42714,0.0553758,-0.0747579,0.050771,-0.0184462,-0.100776,0.146844,-0.130954,-0.0828756,-0.0128555,0.0222015,0.0254822,0.0138474,0.0178146,-0.029068,0.0219727,0.02491,-9.97986,0.0157928,-0.00148773,-0.23735,-0.00816345,0.0349426,0.00610352,-0.059166,0.101357
6,3,-4.29728,-0.00183105,-0.00152588,-2.42714,0.0575121,-0.0738423,0.0532125,-0.019972,-0.0974189,0.145624,-0.129734,-0.0813497,-0.017395,0.022049,0.0278473,0.00904083,0.0157547,-0.0380707,0.0245285,0.0173569,-9.97986,0.0249481,-0.00686646,-0.25116,0.0242996,0.0337601,0.00274658,-0.0682831,0.098114
6,4,-9.99003,0,-0.0012207,-2.42562,0.0553758,-0.0729268,0.0556539,-0.000745974,-0.0931465,0.146844,-0.128513,-0.0804342,-0.0169373,0.0171661,0.026474,0.0107574,0.0191879,-0.0422287,0.0193024,0.0243378,-9.97986,0.0411987,-0.00190735,-0.243683,0.0548172,0.0394058,0.00835419,-0.0687408,0.09655
6,5,-9.99003,0.000305176,0.000305176,-2.42501,0.0562914,-0.073232,0.0574849,0.0386217,-0.0897895,0.147455,-0.126987,-0.0804342,-0.0191116,0.0205612,0.0251007,0.00705719,0.0191116,-0.0464249,0.019722,0.0218582,-9.97986,0.0491333,-0.00789642,-0.249023,0.0767517,0.0270462,0.0115585,-0.0753021,0.0891876
6,6,-9.99003,0.00274658,0.00137329,-2.42623,0.0553758,-0.073232,0.0556539,0.0572374,-0.0910102,0.145929,-0.125766,-0.0813497,-0.00488281,0.0203705,0.0242996,0.00995636,0.0161743,-0.0444412,0.0232697,0.0244141,-9.97986,0.0435257,-0.0102997,-0.24704,0.090065,0.0409698,0.00556946,-0.0737762,0.0857544
6,7,-9.99003,0.00213623,0.00167847,-2.42714,0.0541551,-0.0744527,0.0538228,0.0639513,-0.0903999,0.145624,-0.125156,-0.0813497,0.00976563,0.0181961,0.0255203,0.0130081,0.0178146,-0.0535965,0.0233078,0.0231934,-9.97986,0.0470352,-0.00915527,-0.244446,0.105438,0.0502396,-0.00267029,-0.0727081,0.0812531
6,8,-9.99003,0.000610352,0.00320435,-2.42653,0.0550706,-0.0738423,0.055959,0.0850084,-0.0894843,0.145624,-0.124546,-0.0819601,0.0164032,0.020752,0.0291824,0.0112915,0.0159454,-0.0548172,0.0239563,0.0179291,-9.97986,0.0547791,-0.00766754,-0.234642,0.139198,0.0761414,-0.00713348,-0.0586319,0.0724792
6,9,-5.34831,0.000610352,0.00610352,-2.42776,0.0541551,-0.0762837,0.0565694,0.136583,-0.0873481,0.144708,-0.121494,-0.0834859,0.0223541,0.0185776,0.0239182,0.0127029,0.0157547,-0.0540543,0.0213242,0.0228119,-9.97986,0.0553131,-0.0118637,-0.215111,0.16037,0.0798798,-3.8147e-005,-0.0400925,0.064888
7,0,1.97255,0.000305176,0.00671387,-2.42837,0.0547655,-0.0762837,0.0532125,0.154894,-0.0879585,0.143487,-0.122715,-0.085317,0.0234604,0.0221634,0.0282288,0.00812531,0.0183868,-0.0557327,0.0169373,0.0190735,-9.97986,0.0564957,-0.00656128,-0.203552,0.183678,0.07164,0.00419617,-0.0246429,0.062027
7,1,9.21132,-0.000305176,0.00701904,-2.42928,0.0532396,-0.0762837,0.0532125,0.159471,-0.0897895,0.142877,-0.120884,-0.0847066,0.0205231,0.0198364,0.0276184,0.00732422,0.0207901,-0.0650024,0.0177002,0.021019,-9.97986,0.0435257,-0.01297,-0.182571,0.214806,0.0656891,0.0116348,-0.00328064,0.0559616
7,2,10.0097,-0.00152588,0.00442505,-2.43081,0.0532396,-0.0781148,0.0513814,0.111254,-0.0971137,0.142267,-0.124851,-0.0880636,0.0250244,0.018425,0.0312042,0.00976563,0.019722,-0.0691986,0.0159454,0.0172806,-9.97986,0.0241852,-0.0142288,-0.172081,0.22831,0.0556564,0.0102615,0.00797272,0.0484848
7,3,10.0097,0.000610352,0.00335693,-2.43081,0.0529344,-0.0759786,0.0513814,0.0859239,-0.0968086,0.141656,-0.126682,-0.0868429,0.0210571,0.0232697,0.0289154,0.00995636,0.0210953,-0.0704193,0.0178528,0.0141525,-9.97986,0.0131989,-0.0138855,-0.152702,0.250664,0.0484085,0.00835419,0.0257492,0.0415802
7,4,10.0097,0.00152588,0.00213623,-2.42959,0.0538499,-0.0756734,0.0519917,0.0752428,-0.0965034,0.142877,-0.126072,-0.0865377,0.0218201,0.0188446,0.0269318,0.0127411,0.0192261,-0.0682449,0.0174713,0.0130081,-9.97986,0.000991821,-0.0110245,-0.140839,0.268822,0.0373077,0.0103378,0.0403214,0.0376511
7,5,10.0097,-0.000305176,0.00183105,-2.42806,0.0550706,-0.0753682,0.0526021,0.0724962,-0.0937568,0.143792,-0.127903,-0.0856222,0.0255966,0.0213242,0.026474,0.0122833,0.0139236,-0.0663757,0.0170898,0.00919342,-9.97986,-0.0116348,-0.00873566,-0.126724,0.288582,0.0257492,0.00881195,0.0563049,0.0311661
7,6,10.0097,0.000610352,0.00244141,-2.42776,0.0559862,-0.0744527,0.0547383,0.0712755,-0.0934516,0.144098,-0.125766,-0.0844015,0.0295258,0.0246811,0.0260162,0.00701904,0.0152588,-0.0716782,0.0166702,0.00968933,-9.97986,-0.0233078,-0.0128174,-0.11013,0.302582,0.0183487,0.00419617,0.0674057,0.032196
7,7,10.0097,0.00183105,0.00305176,-2.42745,0.0547655,-0.0744527,0.0547383,0.0706652,-0.0931465,0.144708,-0.125156,-0.0837911,0.0258255,0.0236511,0.0254822,0.0125885,0.0120926,-0.0644302,0.0139236,0.00648499,-9.97986,-0.0289154,-0.0124741,-0.0964355,0.323524,0.0111008,-0.000419617,0.0855637,0.0266266
7,8,10.0097,0.0012207,0.00244141,-2.42684,0.0553758,-0.0738423,0.0519917,0.07036,-0.0925361,0.144708,-0.125766,-0.0822652,0.0211716,0.0289917,0.0315857,0.00778198,0.0192642,-0.0643158,0.0165939,0.00492096,-9.97986,-0.0389862,-0.00930786,-0.0868225,0.354691,0.00804901,-0.00324249,0.0977325,0.021553
7,9,10.0097,0,0.00274658,-2.42592,0.0550706,-0.0741475,0.0562642,0.0709703,-0.0919257,0.145929,-0.124241,-0.0804342,0.0166321,0.02285,0.0294876,0.0131607,0.0186539,-0.0740051,0.0149536,0.00743866,-9.97986,-0.0429153,-0.0106812,-0.0749588,0.379753,0.00106812,-0.0038147,0.103989,0.0179672
8,0,10.0097,-0.0012207,0.00213623,-2.42592,0.0562914,-0.0729268,0.0547383,0.0724962,-0.0913154,0.145929,-0.124851,-0.0804342,0.0105286,0.0224304,0.0288773,0.0161362,0.0164795,-0.0802231,0.0121689,0.00343323,-9.97986,-0.0434494,-0.0120544,-0.0643921,0.397568,-0.00411987,-0.00514984,0.123978,0.0164795
8,1,10.0097,0.00305176,0.000762939,-2.42745,0.0559862,-0.0747579,0.0522969,0.0276354,-0.0980293,0.145318,-0.127292,-0.0837911,0.0111389,0.0206757,0.0312805,0.00930786,0.0144196,-0.0774384,0.0107956,0.00663757,-9.97986,-0.0446701,-0.0170898,-0.0580215,0.422096,-0.0111008,-0.00732422,0.155487,0.00823975
8,2,3.4966,0,-0.00228882,-2.42653,0.0569017,-0.0738423,0.0526021,-0.0184462,-0.0995551,0.145929,-0.130649,-0.0825704,0.0115585,0.0262833,0.0319672,0.0161743,0.0128174,-0.0820541,0.00598907,0.00431061,-9.97986,-0.0392151,-0.0125885,-0.0389099,0.441017,-0.0191498,-0.00904083,0.188675,0.00259399
8,3,-4.44652,0.00152588,-0.00305176,-2.42623,0.055681,-0.0729268,0.0526021,-0.0178358,-0.0955879,0.146844,-0.130649,-0.0810445,0.00965118,0.0256348,0.030632,0.0129318,0.0102997,-0.0756836,0.00701904,0.0111389,-9.97986,-0.0251007,-0.0139236,-0.0317383,0.456886,-0.0249863,-0.0127792,0.218124,-0.00556946
8,4,-9.99003,0.00152588,-0.00274658,-2.4244,0.0562914,-0.0741475,0.054128,-0.000440799,-0.0934516,0.147149,-0.129429,-0.0798238,0.00865936,0.0226974,0.0301743,0.0143814,0.0126266,-0.0710678,0.00415802,0.0094223,-9.97986,-0.00141144,-0.0147247,-0.016861,0.470123,-0.0362015,-0.0120163,0.239639,-0.00774384
8,5,-9.99003,0.00183105,-0.000152588,-2.42409,0.0559862,-0.0726216,0.0571797,0.0398424,-0.0891792,0.146234,-0.126682,-0.0804342,0.00324249,0.0225449,0.0279236,0.0167465,0.00953674,-0.0524139,0.00270844,0.0117493,-9.97986,0.0162506,-0.0189209,-0.00793457,0.483513,-0.0640869,-0.00259399,0.256729,-0.0111389
8,6,-9.99003,0.00183105,0.000762939,-2.42592,0.0559862,-0.075063,0.0547383,0.0575426,-0.0910102,0.145624,-0.126377,-0.0810445,-0.00270844,0.0231934,0.0244904,0.0146484,0.00675201,-0.0324631,-0.00202179,0.00629425,-9.97986,0.0351334,-0.0165176,0.000724792,0.498085,-0.0667191,-0.00827789,0.266075,-0.0151825
8,7,-9.99003,0.000610352,0.00213623,-2.42562,0.0547655,-0.0747579,0.0556539,0.0639513,-0.0910102,0.145013,-0.126072,-0.0813497,-0.0147247,0.0213242,0.0275421,0.0159073,0.00671387,0.00282288,-0.00404358,0.00766754,-9.97986,0.046196,-0.0161362,0.00282288,0.518761,-0.0743866,-0.00793457,0.27298,-0.0201416
8,8,-9.99003,0.000915527,0.00244141,-2.42592,0.0550706,-0.073232,0.0550435,0.0847032,-0.090705,0.146234,-0.124241,-0.0844015,-0.0130844,0.0206375,0.022583,0.0094986,0.00240326,0.0343323,-0.00339508,0.00709534,-9.97986,0.0489807,-0.0185776,0.00972748,0.534439,-0.0569916,-0.00728607,0.273209,-0.0201416
8,9,-5.43773,0.00183105,0.00549316,-2.42623,0.0547655,-0.0762837,0.0550435,0.135973,-0.0876533,0.144403,-0.121799,-0.0834859,-0.0102234,0.0175858,0.0276947,0.0112152,-0.00190735,0.0779343,-0.0031662,0.00804901,-9.97986,0.0482178,-0.0178146,0.00984192,0.545921,-0.0570679,-0.00549316,0.274277,-0.027771
9,0,1.89168,0.00152588,0.00595093,-2.42776,0.0544603,-0.0762837,0.0550435,0.153673,-0.0876533,0.143182,-0.120884,-0.0847066,-0.000267029,0.019455,0.0281525,0.0115204,0.000534058,0.116196,-0.00331879,0.00938416,-9.97986,0.0427628,-0.018959,0.00972748,0.562057,-0.0553894,0.00392914,0.27359,-0.0283813
9,1,9.08711,0.00183105,0.00595093,-2.42898,0.0535448,-0.0765889,0.0532125,0.15703,-0.0894843,0.144098,-0.121189,-0.085317,0.0249863,0.0198364,0.0245667,0.0136948,-0.00335693,0.157433,0.00183105,0.0112915,-9.97986,0.0355911,-0.0178146,0.0050354,0.565414,-0.0572205,0.00133514,0.262833,-0.0337601
9,2,10.0097,0.00152588,0.00427246,-2.43111,0.0538499,-0.0762837,0.0495503,0.110338,-0.0980293,0.141656,-0.124851,-0.0886739,0.0352097,0.0222778,0.0276184,0.013504,-0.00808716,0.186272,0.000953674,0.00728607,-9.97986,0.0392532,-0.0148773,0.010376,0.584488,-0.0579834,0.00358582,0.252113,-0.0327682
9,3,10.0097,0,0.00198364,-2.4302,0.0532396,-0.0765889,0.050771,0.0862291,-0.0971137,0.143792,-0.126987,-0.0892843,0.0308228,0.0165939,0.0275421,0.00984192,-0.00881195,0.215263,0.00221252,0.00911713,-9.97986,0.0333405,-0.0146484,0.00961304,0.592995,-0.0614166,0.00286102,0.251541,-0.0363159
9,4,10.0097,0.00274658,0.0012207,-2.42959,0.0535448,-0.0762837,0.0513814,0.075548,-0.0961982,0.144098,-0.127292,-0.0865377,0.0249481,0.0171661,0.0272369,0.0123978,-0.0130081,0.232086,0.00709534,0.00965118,-9.97986,0.0237656,-0.0131607,0.00850677,0.603638,-0.0590897,0.00354767,0.242081,-0.0382996
9,5,10.0097,-0.00183105,0.000305176,-2.42837,0.0541551,-0.0759786,0.0516866,0.0734117,-0.094062,0.143182,-0.126682,-0.0856222,0.0206375,0.021286,0.0263596,0.00946045,-0.0110245,0.249939,0.00915527,0.00709534,-9.97986,0.0200653,-0.0177002,0.0126648,0.620461,-0.0569916,0.00484467,0.235748,-0.0403214
9,6,10.0097,0.00213623,0.000915527,-2.42684,0.0553758,-0.0756734,0.0529073,0.0706652,-0.0946723,0.145929,-0.126377,-0.0840963,0.0214005,0.0205231,0.0234985,0.0158691,-0.0133514,0.262871,0.0203323,0.0127029,-9.97986,0.0175476,-0.0165176,0.0144196,0.632973,-0.054245,-0.00385284,0.231972,-0.0453949
9,7,10.0097,0,0.000915527,-2.42776,0.055681,-0.0744527,0.0538228,0.07036,-0.0925361,0.146234,-0.130954,-0.0844015,0.0169754,0.0201416,0.0250244,0.0117111,-0.0150299,0.262718,0.0206375,0.00667572,-9.97986,0.0143051,-0.0177383,0.0200272,0.646439,-0.053215,-0.00865936,0.225754,-0.0431824
9,8,10.0097,0.000305176,0.00183105,-2.42623,0.0553758,-0.0747579,0.0532125,0.0712755,-0.0931465,0.145318,-0.125156,-0.0825704,0.0196457,0.0230789,0.0295639,0.0183868,-0.0164032,0.260391,0.0233459,0.00919342,-9.97986,0.0088501,-0.0115204,0.020752,0.666237,-0.0531006,-0.00587463,0.214462,-0.0416565
9,9,10.0097,0,0.00183105,-2.42531,0.0569017,-0.0738423,0.0550435,0.0712755,-0.0922309,0.146539,-0.124241,-0.0813497,0.00709534,0.0181961,0.0254822,0.0142288,-0.0201797,0.259209,0.0310516,0.0102615,-9.97986,0.000801086,-0.0136948,0.0127411,0.679359,-0.0534058,-0.00694275,0.209732,-0.0428772
10,0,10.0097,0,0.0012207,-2.42501,0.0559862,-0.0744527,0.0556539,0.0715807,-0.0925361,0.147149,-0.123935,-0.0804342,0.0128555,0.0169373,0.0261307,0.012207,-0.0231552,0.248947,0.0288773,0.00488281,-9.97986,-0.00289917,-0.0113297,0.0124359,0.677567,-0.0560379,-0.0110626,0.197945,-0.0355148
10,1,10.0097,-0.000610352,-0.00167847,-2.42867,0.0565965,-0.0756734,0.0516866,0.0254991,-0.0977241,0.146844,-0.127903,-0.0831808,0.0127029,0.019722,0.026474,0.0114441,-0.0250626,0.236931,0.0337601,0.00282288,-9.97986,-0.000114441,-0.00938416,0.0160599,0.673561,-0.0656509,-0.0149155,0.183792,-0.0349045
10,2,3.32418,-0.000305176,-0.00427246,-2.42684,0.0562914,-0.0747579,0.0510762,-0.0172255,-0.100471,0.146844,-0.130649,-0.0840963,0.00324249,0.0205612,0.0257874,0.01297,-0.0270844,0.22686,0.0376511,0.00595093,-9.97986,-0.00495911,-0.00919342,0.0137711,0.672493,-0.0696564,-0.0187302,0.17292,-0.0336838
10,3,-4.60765,-0.000305176,-0.00518799,-2.42531,0.0562914,-0.0720113,0.0529073,-0.0202772,-0.0977241,0.147455,-0.129429,-0.0822652,-0.00801086,0.0207138,0.0252914,0.00972748,-0.0271225,0.214653,0.0452805,0.00419617,-9.97986,-0.000457764,-0.00816345,0.0149155,0.671158,-0.0824356,-0.0177765,0.159912,-0.0330353
10,4,-9.99003,0.000610352,-0.00518799,-2.42409,0.0575121,-0.0735371,0.0544332,-0.000440799,-0.0928413,0.146539,-0.128513,-0.0807394,-0.0162888,0.0162125,0.0276184,0.0122833,-0.0300598,0.197639,0.0392151,0.0050354,-9.97986,-0.00595093,-0.0124741,0.0222015,0.665779,-0.0960541,-0.0109482,0.151596,-0.0341034
10,5,-9.99003,-0.0012207,-0.00167847,-2.4247,0.0562914,-0.0738423,0.0565694,0.0404528,-0.0894843,0.147149,-0.126682,-0.080129,-0.0241852,0.0219727,0.0247574,0.0126648,-0.0291824,0.1894,0.0465012,0.00640869,-9.97986,-0.00240326,-0.0135803,0.026474,0.658455,-0.123177,-0.00656128,0.13649,-0.0304031
10,6,-9.99003,0.000915527,-0.000457764,-2.42562,0.0559862,-0.0747579,0.0550435,0.0569322,-0.0928413,0.145929,-0.125766,-0.0822652,-0.0198746,0.0187683,0.0251007,0.00865936,-0.0283432,0.17334,0.0453949,0.00743866,-9.97986,-0.00347137,-0.00892639,0.0355148,0.659409,-0.130653,0.00473022,0.125465,-0.027771
10,7,-9.99003,0,-0.000762939,-2.42684,0.0535448,-0.0747579,0.0556539,0.0633409,-0.0916206,0.145013,-0.125156,-0.0831808,-0.0118637,0.019722,0.0230408,0.0104141,-0.030098,0.158958,0.0476837,0.00778198,-9.97986,-0.0087738,-0.0110245,0.0400925,0.644035,-0.140228,0.01194,0.115585,-0.0239182
10,8,-9.99003,0.000610352,-0.000610352,-2.4247,0.055681,-0.0735371,0.0547383,0.0853136,-0.0885688,0.144708,-0.124241,-0.0837911,0.000190735,0.0200272,0.0204849,0.00705719,-0.0260925,0.146523,0.0524902,0.00926971,-9.97986,-0.0094986,-0.00736237,0.0421524,0.61779,-0.137482,0.0114822,0.0990295,-0.0270462
10,9,-5.57475,-0.000305176,0.00167847,-2.42806,0.0547655,-0.0762837,0.0550435,0.135362,-0.0885688,0.144403,-0.121799,-0.085317,0.00278473,0.0220871,0.0235748,0.0130844,-0.0240326,0.132179,0.0565338,0.00961304,-9.97986,-0.0149536,-0.00953674,0.0492096,0.598488,-0.133362,0.00324249,0.0862885,-0.0267792
11,0,1.74489,0.000610352,0.00289917,-2.42501,0.0541551,-0.0759786,0.0538228,0.151842,-0.0885688,0.144098,-0.121189,-0.0856222,0.00610352,0.0209808,0.0209427,0.00835419,-0.0241852,0.115509,0.0557327,0.00637054,-9.97986,-0.0173569,-0.00774384,0.0582123,0.577736,-0.134354,-0.000457764,0.0743484,-0.0249481
11,1,8.9391,0,0.00213623,-2.42867,0.0544603,-0.0756734,0.0532125,0.155809,-0.0900947,0.143487,-0.121799,-0.0859274,0.00576019,0.0230789,0.0179291,0.00488281,-0.0227737,0.107422,0.0569153,0.0105667,-9.97986,-0.016861,-0.000305176,0.0610352,0.558052,-0.136566,-0.00171661,0.0585938,-0.0242233
11,2,10.0097,0.0012207,0.000610352,-2.43142,0.0529344,-0.0775044,0.0495503,0.110033,-0.0974189,0.142572,-0.126072,-0.0880636,0.00404358,0.0210953,0.0168228,0.0107574,-0.0206375,0.0921631,0.0587845,0.00896454,-9.97986,-0.00881195,-0.0037384,0.0641632,0.536003,-0.136681,-0.00350952,0.0416946,-0.026207
11,3,10.0097,0.0012207,-0.00228882,-2.43233,0.0532396,-0.0762837,0.0501607,0.0837877,-0.0983344,0.143487,-0.126072,-0.0892843,0.00679016,0.0102615,0.0162888,0.0105286,-0.0297928,0.0751114,0.061264,0.00930786,-9.97986,-0.00209808,-0.010376,0.0701904,0.506821,-0.139275,-0.00209808,0.0275803,-0.0269699
11,4,10.0097,-0.000915527,-0.00350952,-2.42867,0.0535448,-0.0765889,0.0519917,0.0767687,-0.0965034,0.144098,-0.126682,-0.0871481,0.00717163,0.0199509,0.0192261,0.00846863,-0.0271988,0.0680923,0.0600433,0.00869751,-9.97986,0.00572205,-0.00991821,0.074501,0.475426,-0.137253,0.00106812,0.0107574,-0.0271225
11,5,10.0097,0.000915527,-0.00350952,-2.42867,0.0550706,-0.0747579,0.0526021,0.0728014,-0.0955879,0.143487,-0.126072,-0.0865377,0.0043869,0.017662,0.0177383,0.0100327,-0.0242996,0.0598526,0.0645065,0.00759125,-9.97986,0.0102997,-0.0038147,0.0746918,0.436134,-0.13073,0.00499725,-0.0114822,-0.0242996
11,6,10.0097,-0.000610352,-0.00228882,-2.42837,0.0553758,-0.0744527,0.0535176,0.0712755,-0.0931465,0.145013,-0.126377,-0.0862325,0.0168228,0.0150299,0.0263596,0.00701904,-0.0234604,0.044136,0.0616074,0.0088501,-9.97986,0.00865936,-0.00419617,0.0745392,0.40947,-0.124054,0.0105667,-0.0253677,-0.0239563
11,7,10.0097,-0.000305176,-0.00305176,-2.42714,0.0553758,-0.075063,0.0550435,0.0737169,-0.0937568,0.145929,-0.126682,-0.0850118,0.0371552,0.0222015,0.0240707,0.00869751,-0.0232697,0.0358582,0.0630569,0.0114822,-9.97986,0.0094223,-0.00198364,0.0837326,0.376663,-0.116615,0.010376,-0.0340652,-0.0234604
11,8,10.0097,-0.000915527,-0.00335693,-2.42623,0.0550706,-0.075063,0.0529073,0.0715807,-0.0928413,0.147149,-0.125461,-0.0834859,0.0370026,0.0143051,0.0215912,0.00976563,-0.0277328,0.0270081,0.0618362,0.0133896,-9.97986,0.0148773,-0.00442505,0.0872421,0.335922,-0.105591,0.0117111,-0.0518036,-0.018425
11,9,10.0097,0,-0.00335693,-2.42196,0.0565965,-0.0738423,0.0547383,0.072191,-0.0913154,0.14776,-0.124546,-0.0831808,0.0445557,0.023613,0.0212097,0.0087738,-0.0252151,0.0122452,0.067749,0.0159836,-9.97986,0.0176239,-0.000839233,0.0868225,0.301094,-0.0975037,0.00762939,-0.0721359,-0.0175858
12,0,10.0097,0.00183105,-0.00305176,-2.4247,0.0562914,-0.0735371,0.0553487,0.072191,-0.0916206,0.146539,-0.12363,-0.0822652,0.0374603,0.0239944,0.0177383,0.00896454,-0.0270844,-0.00354767,0.0678635,0.0143433,-9.97986,0.0186157,-0.00274658,0.0949478,0.263557,-0.0847626,0.00862122,-0.0851059,-0.0179291
12,1,10.0097,-0.000915527,-0.00579834,-2.42745,0.055681,-0.0753682,0.0526021,0.0273302,-0.0977241,0.145013,-0.127903,-0.0813497,0.0211334,0.0208282,0.0249863,0.0109863,-0.0282669,-0.0104141,0.0642395,0.0197983,-9.97986,0.0191498,0.00392914,0.0994492,0.226669,-0.0709915,0.00659943,-0.0968552,-0.0133133
12,2,3.32173,0.000305176,-0.00671387,-2.42867,0.0553758,-0.075063,0.0516866,-0.0187513,-0.100776,0.146539,-0.129734,-0.0844015,0.00793457,0.0232315,0.0196075,0.00995636,-0.0248337,-0.0143433,0.0640106,0.0231171,-9.97986,0.0237274,0.00240326,0.102959,0.200462,-0.0580597,-0.000114441,-0.104027,-0.0121307
12,3,-4.62047,-0.000305176,-0.00732422,-2.4247,0.0562914,-0.073232,0.0535176,-0.019972,-0.0971137,0.147455,-0.130649,-0.0819601,0.000305176,0.0230789,0.0206375,0.00713348,-0.0248337,-0.0277328,0.0659561,0.0180435,-9.97986,0.031395,0.00198364,0.112076,0.175858,-0.0405502,-0.00038147,-0.10807,-0.00839233
12,4,-9.99003,-0.000305176,-0.00839233,-2.4247,0.0565965,-0.0738423,0.0556539,-0.000135623,-0.0943672,0.146844,-0.127598,-0.0795187,0.0043869,0.0247955,0.0226974,0.0109863,-0.0244141,-0.0327682,0.0681305,0.0189209,-9.97986,0.0284576,0.00312805,0.115852,0.130424,-0.0324249,-0.00175476,-0.11013,-0.00984192
12,5,-9.99003,0.00183105,-0.00549316,-2.42776,0.0562914,-0.0738423,0.0580953,0.0383165,-0.0897895,0.146539,-0.126377,-0.0816549,0.00743866,0.0219727,0.0230408,0.0127792,-0.0268936,-0.0382996,0.0629044,0.021553,-9.97986,0.0206757,0.0025177,0.124931,0.0931168,-0.0395203,-0.00720978,-0.112267,-0.00663757
12,6,-9.99003,-0.000305176,-0.00457764,-2.42592,0.0541551,-0.0726216,0.0553487,0.0575426,-0.0900947,0.145318,-0.125156,-0.0831808,0.0133133,0.0263214,0.0230026,0.0132751,-0.0252533,-0.0369263,0.0580597,0.0205994,-9.97986,0.0190353,0.00209808,0.12989,0.0525665,-0.0286102,-0.0188446,-0.114441,-0.00259399
12,7,-9.99003,0.000610352,-0.00350952,-2.42684,0.0550706,-0.0753682,0.0538228,0.0639513,-0.0903999,0.146539,-0.126072,-0.0844015,0.0212479,0.0219727,0.0257492,0.01194,-0.0203323,-0.043335,0.0591278,0.0164032,-9.97986,0.0155258,0.00434875,0.142479,0.0218964,-0.0166321,-0.019455,-0.115585,-0.00530243
12,8,-9.99003,0.00274658,-0.00213623,-2.42379,0.0565965,-0.0756734,0.0553487,0.0871447,-0.0873481,0.144708,-0.124546,-0.0834859,0.0159454,0.0268555,0.0279999,0.0146484,-0.0179291,-0.0485229,0.0625229,0.0168991,-9.97986,0.0169373,0.00556946,0.152054,0.00335693,0.0137711,-0.0146866,-0.109253,-0.00152588
12,9,-5.26103,0,0.000762939,-2.42776,0.0547655,-0.0753682,0.054128,0.134752,-0.0876533,0.144403,-0.122715,-0.0850118,0.010643,0.027504,0.0242615,0.013504,-0.0169373,-0.0548172,0.0600052,0.0221252,-9.97986,0.0130463,0.00564575,0.158958,-0.0325775,0.0249863,-0.0164032,-0.10994,-0.00202179
13,0,2.11446,-0.0012207,0.00167847,-2.42745,0.0547655,-0.0753682,0.0544332,0.154283,-0.088874,0.143792,-0.121799,-0.0877584,0.00114441,0.0260544,0.0230408,0.0128174,-0.0114822,-0.0567627,0.061264,0.0222015,-9.97986,0.0102234,0.00255585,0.162315,-0.0559235,0.037384,-0.0193024,-0.107918,0.00087738
13,1,9.34377,0.0012207,0.00137329,-2.42959,0.0529344,-0.0753682,0.0529073,0.154588,-0.0903999,0.143792,-0.122104,-0.0862325,-0.00717163,0.0265503,0.0278091,0.0149918,-0.00904083,-0.066452,0.0570679,0.0175858,-9.97986,0.00946045,0.00167847,0.165787,-0.0938034,0.046196,-0.0160217,-0.106659,-0.00167847
13,2,10.0097,-0.000915527,-0.00137329,-2.4302,0.0529344,-0.0768941,0.0504659,0.110643,-0.0974189,0.143182,-0.125766,-0.0895895,-0.0249481,0.0298691,0.0302505,0.0187683,-0.00782013,-0.0724792,0.0607681,0.012207,-9.97986,0.00888824,-0.00156403,0.169182,-0.124893,0.0543213,-0.0160217,-0.107002,-0.00202179
13,3,10.0097,0.000610352,-0.00244141,-2.43081,0.0532396,-0.0765889,0.0504659,0.0843981,-0.0971137,0.143182,-0.126377,-0.0895895,-0.0215912,0.0275421,0.0268555,0.0177002,-0.00480652,-0.076561,0.0522232,0.0154114,-9.97986,0.0139618,0.00545502,0.171623,-0.154228,0.0645447,-0.0133133,-0.103989,-0.00137329
13,4,10.0097,-0.000915527,-0.00289917,-2.42898,0.0544603,-0.0753682,0.0513814,0.0770738,-0.0955879,0.144708,-0.126377,-0.0886739,-0.0143433,0.0243378,0.0286865,0.0170517,-0.00583649,-0.0806427,0.0547028,0.0149536,-9.97986,0.0249481,0.00457764,0.169983,-0.175552,0.0714493,-0.00545502,-0.102539,-0.00175476
13,5,10.0097,0.00152588,-0.00259399,-2.42806,0.0544603,-0.075063,0.0522969,0.0715807,-0.0937568,0.144403,-0.126072,-0.0862325,-0.00988007,0.0246048,0.0220871,0.0194168,-0.00511169,-0.087471,0.0509644,0.0188446,-9.97986,0.0194168,7.62939e-005,0.164986,-0.205154,0.0786972,-0.00358582,-0.102386,-0.00106812
13,6,10.0097,0,-0.00183105,-2.42745,0.0541551,-0.0759786,0.0526021,0.0712755,-0.094062,0.144403,-0.126072,-0.0844015,0.0018692,0.0218964,0.0227737,0.0152969,-0.00141144,-0.0886154,0.0498962,0.0193787,-9.97986,0.0245667,0.00209808,0.164261,-0.215492,0.0888062,0.0019455,-0.0981903,-0.00160217
13,7,10.0097,0.000610352,-0.00137329,-2.42562,0.0544603,-0.0744527,0.0526021,0.0718859,-0.094062,0.145929,-0.126072,-0.0856222,0.0234222,0.0252151,0.0203323,0.0197983,-0.00511169,-0.0938416,0.0495148,0.021553,-9.97986,0.0229645,0.00278473,0.157814,-0.237732,0.0934219,-0.00411987,-0.0976563,0.000724792
13,8,10.0097,0,-0.00167847,-2.42592,0.0544603,-0.0753682,0.0547383,0.0709703,-0.0931465,0.145013,-0.125461,-0.0837911,0.0362396,0.021286,0.0175858,0.0162888,0.00156403,-0.0989532,0.0489044,0.0218582,-9.97986,0.0101471,0.000648499,0.148697,-0.259361,0.0961685,0.00198364,-0.097084,-0.00114441
13,9,10.0097,0.00274658,-0.00183105,-2.42592,0.0578172,-0.0741475,0.0532125,0.0709703,-0.0916206,0.146539,-0.125156,-0.0831808,0.0336456,0.022049,0.0160217,0.0188446,0.00614166,-0.101852,0.044136,0.0230026,-9.97986,0.0102234,0.00137329,0.141335,-0.286598,0.106049,-0.00209808,-0.0915527,-0.00244141
14,0,10.0097,-0.000610352,-0.00244141,-2.42562,0.0569017,-0.073232,0.0556539,0.0709703,-0.0925361,0.145624,-0.123935,-0.0819601,0.0344467,0.0260925,0.0136948,0.0187683,0.00389099,-0.104103,0.0453186,0.024147,-9.97986,0.00328064,0.00156403,0.132103,-0.295944,0.112724,-0.00583649,-0.0908279,-0.00331879
14,1,10.0097,-0.000610352,-0.00396729,-2.42684,0.055681,-0.0747579,0.0513814,0.0279405,-0.0968086,0.146844,-0.127292,-0.0837911,0.0276184,0.0168228,0.0118256,0.0153351,0.00434875,-0.102654,0.0497055,0.02285,-9.97986,0.00846863,-0.00587463,0.123062,-0.312195,0.114021,0.00171661,-0.0873566,0.000610352
14,2,3.20973,0,-0.00640869,-2.42776,0.0559862,-0.0741475,0.050771,-0.0184462,-0.100776,0.145929,-0.130649,-0.0831808,0.0284195,0.0207138,0.0133514,0.0149155,0.0094986,-0.0988388,0.0457764,0.0233078,-9.97986,0.0112915,-0.00198364,0.111542,-0.329628,0.119934,0.00591278,-0.0846481,0.00362396
14,3,-4.76298,-0.000305176,-0.00595093,-2.42562,0.0559862,-0.0741475,0.0535176,-0.0184462,-0.095893,0.14776,-0.130344,-0.0825704,0.0232697,0.0205612,0.01194,0.0201797,0.0110245,-0.0934601,0.0404358,0.0233841,-9.97986,0.0227356,-0.0018692,0.101395,-0.341835,0.122147,0.0056839,-0.0757217,-0.00278473
14,4,-9.99003,-0.000305176,-0.00671387,-2.4244,0.0565965,-0.0738423,0.0553487,-0.000440799,-0.0937568,0.147149,-0.128818,-0.0810445,0.015564,0.0180054,0.0111008,0.017128,0.0133133,-0.0907135,0.0394821,0.0236511,-9.97986,0.0302887,-0.00038147,0.0954819,-0.358696,0.120392,0.00534058,-0.0738907,-0.0038147
14,5,-9.99003,-0.000305176,-0.00305176,-2.42501,0.0562914,-0.0738423,0.055959,0.0398424,-0.0903999,0.147149,-0.127292,-0.0804342,0.00961304,0.0184631,0.0087738,0.0223541,0.020256,-0.0824738,0.0402451,0.0249481,-9.97986,0.0343323,-0.000915527,0.0812912,-0.369453,0.10376,0.0100327,-0.0746918,0.00133514
14,6,-9.99003,0.00244141,-0.00183105,-2.4244,0.0544603,-0.0741475,0.0556539,0.0563219,-0.0903999,0.145013,-0.126072,-0.0822652,0.0118637,0.0172806,0.0075531,0.0203705,0.0221252,-0.0748825,0.0413895,0.0226593,-9.97986,0.0282669,-0.00301361,0.0718689,-0.386009,0.106277,0.00396729,-0.066452,-0.00507355
14,7,-9.99003,-0.000305176,-0.000610352,-2.42653,0.0544603,-0.075063,0.0544332,0.0633409,-0.0916206,0.145318,-0.125766,-0.0831808,0.0119781,0.0213623,0.00961304,0.018692,0.0285721,-0.0744247,0.0347519,0.0271225,-9.97986,0.0234222,-0.00289917,0.0668716,-0.388985,0.106621,0.00492096,-0.058136,-7.62939e-005
14,8,-9.99003,-0.000305176,-0.000152588,-2.42531,0.0550706,-0.075063,0.0550435,0.087755,-0.0897895,0.145318,-0.124546,-0.0831808,0.0128937,0.0207901,0.00514984,0.0208282,0.029068,-0.0685883,0.0355148,0.0265884,-9.97986,0.0218582,-0.00392914,0.0538254,-0.395966,0.120659,0.00644684,-0.0583649,-0.00160217
14,9,-5.36204,0,0.00350952,-2.42837,0.0532396,-0.0762837,0.0538228,0.134752,-0.0876533,0.144403,-0.122104,-0.0844015,0.0171661,0.0190735,0.00720978,0.019722,0.0321579,-0.0701523,0.0335312,0.0317764,-9.97986,0.02491,-0.00228882,0.0438309,-0.394592,0.125694,-0.00087738,-0.0533295,-0.00267029
15,0,1.93868,-0.000305176,0.00396729,-2.42806,0.0535448,-0.0756734,0.0544332,0.155504,-0.0882636,0.143792,-0.122104,-0.0844015,0.00431061,0.0231171,0.00812531,0.0192261,0.0370789,-0.0673676,0.032196,0.0328827,-9.97986,0.0342178,0.000152588,0.0374603,-0.39505,0.120087,0.00305176,-0.0496674,-0.0030899
15,1,9.13991,0.000915527,0.00488281,-2.42806,0.0541551,-0.0771993,0.0538228,0.155504,-0.0897895,0.144403,-0.121799,-0.085317,-0.00572205,0.0184631,0.01297,0.0230789,0.0444031,-0.0690842,0.0296783,0.0377655,-9.97986,0.0414658,0.000915527,0.0299072,-0.395927,0.120621,0.00812531,-0.0474167,-0.00175476
15,2,10.0097,0.000915527,0.00152588,-2.43142,0.0529344,-0.0768941,0.0492452,0.110033,-0.0971137,0.141656,-0.124851,-0.0886739,-0.00862122,0.0212479,0.00713348,0.0170135,0.042572,-0.0713348,0.0281143,0.0353622,-9.97986,0.0341415,-0.00579834,0.0275803,-0.394859,0.113831,0.00869751,-0.0505066,-0.00312805
15,3,10.0097,0.000915527,0.000457764,-2.43142,0.0541551,-0.0756734,0.0498555,0.0850084,-0.0977241,0.142267,-0.126377,-0.0880636,-0.00442505,0.0278473,0.00938416,0.0196838,0.0420761,-0.063324,0.0261307,0.0368118,-9.97986,0.0255203,-0.00289917,0.0235367,-0.39959,0.111656,0.0122833,-0.048027,0.00259399
15,4,10.0097,-0.000305176,-0.000152588,-2.42959,0.0547655,-0.0759786,0.0516866,0.0764635,-0.0952827,0.142572,-0.126072,-0.0862325,-0.00148773,0.0284195,0.00789642,0.020752,0.050087,-0.0622177,0.0257111,0.0428391,-9.97986,0.0131607,-0.0018692,0.0154877,-0.389214,0.111198,0.0102234,-0.0453186,0.00549316
15,5,10.0097,0.000305176,0.00106812,-2.42776,0.0541551,-0.0744527,0.0532125,0.0734117,-0.0943672,0.144403,-0.126072,-0.0856222,0.00331879,0.0222778,0.00171661,0.0172043,0.0489044,-0.0557327,0.019722,0.0400925,-9.97986,0.00808716,-0.000610352,0.0121307,-0.382996,0.10746,0.0154114,-0.0400162,0.00282288
15,6,10.0097,0.00152588,0.000305176,-2.42776,0.0565965,-0.0762837,0.0535176,0.0728014,-0.0928413,0.144403,-0.126987,-0.0847066,0.00648499,0.0276184,0.0062561,0.0174332,0.0466156,-0.0597382,0.0222397,0.0390244,-9.97986,0.00713348,0.00160217,0.00244141,-0.377884,0.105972,0.00694275,-0.041275,0.00530243
15,7,10.0097,0.00152588,0.000457764,-2.42653,0.0550706,-0.0747579,0.0526021,0.0709703,-0.0931465,0.144708,-0.126072,-0.0850118,-0.00873566,0.0241089,0.00808716,0.0205231,0.0452423,-0.0524521,0.0207901,0.0440216,-9.97986,0.0119781,0,0.00114441,-0.371704,0.10231,0.00679016,-0.0345993,0.00602722
15,8,10.0097,0.000610352,0.0012207,-2.42653,0.0541551,-0.0744527,0.0535176,0.0706652,-0.0925361,0.144708,-0.125461,-0.0825704,-0.0163269,0.0242615,0.0142288,0.0196457,0.0437164,-0.0517654,0.022049,0.0385284,-9.97986,0.0105667,-0.00228882,-0.00137329,-0.362663,0.109978,0.00431061,-0.0318146,0.00656128
15,9,10.0097,0,0.000457764,-2.42531,0.0562914,-0.0738423,0.0544332,0.0697496,-0.0919257,0.147149,-0.124241,-0.0813497,-0.0230408,0.0269318,0.012207,0.0180817,0.0462723,-0.0503922,0.0196457,0.0289917,-9.97986,0.0111771,0.00228882,-0.00377655,-0.355339,0.10601,0.00534058,-0.0305939,0.00904083
16,0,10.0097,0.00213623,0.00106812,-2.42531,0.0562914,-0.0741475,0.054128,0.0715807,-0.0913154,0.145624,-0.124851,-0.0810445,-0.0257874,0.0276566,0.0157928,0.0165939,0.0456238,-0.0508881,0.0214386,0.0289154,-9.97986,0.0205231,-0.000762939,-0.0141144,-0.34874,0.10952,0.00354767,-0.0234222,0.00957489
16,1,10.0097,0.000305176,-0.000610352,-2.42714,0.0569017,-0.0747579,0.0526021,0.0279405,-0.0980293,0.146539,-0.127903,-0.0825704,-0.00522614,0.0300598,0.0168228,0.0198364,0.0434875,-0.0497818,0.0162888,0.0252533,-9.97986,0.0217438,0.00495911,-0.00637054,-0.345726,0.108452,0.00171661,-0.0196457,0.0127411
16,2,3.10933,0.0012207,-0.00335693,-2.42684,0.0562914,-0.075063,0.0519917,-0.0175306,-0.0998603,0.145318,-0.130039,-0.0819601,0.00865936,0.0307083,0.0171661,0.0178146,0.0416946,-0.047226,0.0167465,0.0172806,-9.97986,0.0233841,0.00221252,-0.00831604,-0.333557,0.109482,-0.00270844,-0.0213242,0.00812531
16,3,-4.83073,0,-0.00534058,-2.42653,0.0559862,-0.0747579,0.0532125,-0.0187513,-0.0971137,0.147455,-0.130649,-0.0816549,0.0154495,0.0247192,0.0174713,0.018425,0.0392914,-0.0343323,0.0222778,0.0252151,-9.97986,0.024147,-0.00198364,-0.0140381,-0.327339,0.109673,-0.0100327,-0.0139999,0.00720978
16,4,-9.99003,0.0012207,-0.0038147,-2.42318,0.0565965,-0.073232,0.054128,0.000474729,-0.0925361,0.146539,-0.129734,-0.080129,0.0312424,0.027771,0.0110245,0.0222015,0.0382233,-0.0354004,0.0170135,0.0267029,-9.97986,0.0254059,0.000267029,-0.014267,-0.32032,0.0963593,-0.0114822,-0.0138855,0.0106812
16,5,-9.99003,0.000915527,-0.000610352,-2.4247,0.0550706,-0.0738423,0.0565694,0.0419786,-0.090705,0.146539,-0.126377,-0.0798238,0.0269318,0.0225449,0.0094223,0.0148392,0.0389099,-0.0309372,0.0122833,0.0320435,-9.97986,0.0265884,0.00255585,-0.0146484,-0.309944,0.0679398,-0.00415802,-0.0104523,0.0128937
16,6,-9.99003,0.000915527,0.000762939,-2.42531,0.0553758,-0.0744527,0.0556539,0.0569322,-0.088874,0.14776,-0.125766,-0.0819601,0.0171661,0.0241852,0.010643,0.0180435,0.0317001,-0.0265503,0.0185013,0.0330353,-9.97986,0.0242233,0.000572205,-0.0167847,-0.305443,0.064621,-0.00225067,-0.00637054,0.0124359
16,7,-9.99003,0.000915527,0.000610352,-2.42562,0.0559862,-0.0753682,0.0547383,0.0639513,-0.0913154,0.144708,-0.125156,-0.0825704,0.0169754,0.022049,0.00827789,0.0184631,0.0221634,-0.0226974,0.0150299,0.0317383,-9.97986,0.0278473,-0.00450134,-0.0152969,-0.288429,0.0504684,0.00289917,-0.00331879,0.0151062
16,8,-9.99003,0.00274658,0.00137329,-2.42592,0.0559862,-0.0723164,0.0550435,0.0889757,-0.0897895,0.145318,-0.124546,-0.0831808,0.0104141,0.0229263,0.0102615,0.0149536,0.0123596,-0.0136948,0.0155258,0.0268936,-9.97986,0.0276184,3.8147e-005,-0.018425,-0.282669,0.0621414,0.00904083,-0.0069046,0.0131989
16,9,-5.14079,0.000915527,0.00488281,-2.42745,0.0538499,-0.075063,0.0547383,0.135057,-0.0885688,0.142572,-0.122104,-0.0831808,0.00602722,0.0247955,0.0114441,0.014534,0.00911713,-0.0143433,0.0164032,0.030098,-9.97986,0.0272369,0.0018692,-0.0150681,-0.272369,0.0603104,0.0140381,-0.00240326,0.0150299
17,0,2.22035,-0.000305176,0.00595093,-2.42806,0.0538499,-0.0759786,0.0538228,0.153978,-0.0882636,0.143182,-0.121189,-0.0847066,0.00518799,0.0207901,0.00682831,0.00816345,0.000953674,-0.0173569,0.0094223,0.0289536,-9.97986,0.0156784,-0.000267029,-0.014534,-0.264702,0.0448608,0.00858307,-0.00358582,0.00946045
17,1,9.46065,0.000610352,0.00473022,-2.42806,0.0541551,-0.0759786,0.0535176,0.155809,-0.0897895,0.144708,-0.122104,-0.085317,0.0254059,0.0178909,0.00835419,0.0135803,-0.00492096,-0.00648499,0.0107574,0.0325394,-9.97986,0.0112152,0.00102997,-0.00938416,-0.253372,0.0401688,0.01297,0.00354767,0.013237
17,2,10.0097,-0.000305176,0.00320435,-2.43142,0.0526292,-0.0756734,0.0498555,0.109117,-0.0961982,0.142877,-0.124851,-0.0886739,0.0448227,0.0229645,0.00923157,0.0126266,-0.00858307,-0.00926971,0.00724792,0.0288391,-9.97986,0.0137711,0.00217438,-0.00904083,-0.24128,0.0304794,0.0111771,0.00339508,0.01194
17,3,10.0097,0,0.00213623,-2.43111,0.0538499,-0.0747579,0.050771,0.0853136,-0.0968086,0.141961,-0.126377,-0.0880636,0.0547409,0.0238419,0.0102615,0.00686646,-0.0144958,-0.0115967,0.0062561,0.0289154,-9.97986,0.0120926,0.000114441,-0.00831604,-0.221634,0.0248718,0.0147629,0.00724792,0.0132751
17,4,10.0097,0.00152588,0.00213623,-2.42898,0.0550706,-0.0771993,0.0532125,0.0770738,-0.0946723,0.139825,-0.126682,-0.0862325,0.0679016,0.0261688,0.0126648,0.0127029,-0.0119781,-0.00774384,0.00961304,0.0290298,-9.97986,0.0130081,-0.00106812,-0.00907898,-0.201912,0.0153732,0.0144196,0.00396729,0.0094223
17,5,10.0097,-0.0280762,0.00274658,-2.42867,0.0544603,-0.075063,0.054128,0.0724962,-0.0961982,0.129754,-0.126377,-0.0847066,0.0661469,0.0232697,0.0109863,0.0115585,-0.0131226,-0.00972748,0.011673,0.0273895,-9.97986,0.0140381,-0.00354767,-0.0107574,-0.186729,0.00923157,0.0187302,0.00465393,0.0109863
17,6,10.0097,-0.000610352,0.00152588,-2.42745,0.0544603,-0.0771993,0.0544332,0.0712755,-0.094062,0.139825,-0.126072,-0.0840963,0.0598907,0.0284195,0.0131226,0.00911713,-0.00797272,-0.0025177,0.0106049,0.0262833,-9.97986,0.0239944,0.000457764,-0.00782013,-0.164566,0.00652313,0.0214005,0.0062561,0.00808716
17,7,10.0097,0.00305176,0.00305176,-2.42745,0.0553758,-0.075063,0.0550435,0.0718859,-0.0934516,0.141656,-0.126072,-0.0831808,0.0374222,0.0270462,0.0115585,0.0118256,-0.00766754,-0.00247955,0.00694275,0.0231171,-9.97986,0.030632,-0.000152588,-0.0117111,-0.134811,-0.0019455,0.0217056,0.00804901,0.0117874
17,8,10.0097,-0.000305176,0.00228882,-2.42714,0.0562914,-0.0735371,0.054128,0.0718859,-0.0925361,0.144708,-0.124546,-0.0831808,0.0185394,0.0226593,0.00736237,0.00720978,-0.00160217,0.0019455,0.0113297,0.0248718,-9.97986,0.0170517,-0.00339508,-0.0183868,-0.111504,-0.00728607,0.0194931,0.00965118,0.0143051
17,9,10.0097,-0.000915527,0.00335693,-2.42501,0.0569017,-0.0744527,0.0544332,0.0709703,-0.0928413,0.145013,-0.12363,-0.0810445,0.0102997,0.0244522,0.0125122,0.0082016,0.00164032,-0.00144958,0.0109482,0.0208282,-9.97986,0.00919342,0.00205994,-0.0259018,-0.0812149,-0.015564,0.0236893,0.0109863,0.0124741
18,0,10.0097,-0.000305176,0.00274658,-2.42501,0.0559862,-0.0729268,0.0538228,0.0712755,-0.0931465,0.144708,-0.12363,-0.080129,-0.00484467,0.0245667,0.0133514,0.00144958,0.00961304,0.00263214,0.0118637,0.0220871,-9.97986,-7.62939e-005,0.0025177,-0.0312042,-0.051384,-0.0238419,0.0194168,0.0103378,0.0108337
18,1,10.0097,0.00152588,0.00152588,-2.42684,0.0565965,-0.0741475,0.0513814,0.0267198,-0.0974189,0.145624,-0.127598,-0.0822652,-0.00247955,0.0263596,0.0149536,0.00339508,0.0151062,0.00354767,0.0102997,0.0219345,-9.97986,0.00247955,0.00347137,-0.0319672,-0.0193787,-0.0294495,0.0104904,0.0105667,0.0069809
18,2,2.95918,0.000610352,-0.00106812,-2.42714,0.0572069,-0.0747579,0.0519917,-0.0190565,-0.0995551,0.146539,-0.131565,-0.0828756,0.00167847,0.0259018,0.020752,0.00461578,0.0204849,0.0133133,0.00267029,0.0260925,-9.97986,0.00587463,0.00301361,-0.039444,0.0145721,-0.0310135,0.00953674,0.0125504,0.00911713
18,3,-4.95555,-0.000610352,-0.00106812,-2.42562,0.0572069,-0.0707906,0.0532125,-0.0202772,-0.0983344,0.146844,-0.129734,-0.0816549,-0.00598907,0.0231552,0.0181961,0.00328064,0.0269318,0.0157928,0.00663757,0.022583,-9.97986,-0.00259399,0.00465393,-0.0422287,0.0502777,-0.0308609,0.0056839,0.0125885,0.00701904
18,4,-9.99003,-0.000915527,-0.00137329,-2.42379,0.0565965,-0.073232,0.055959,0.000779904,-0.0919257,0.146234,-0.129734,-0.0795187,-0.0133514,0.0274277,0.0142288,0.00453949,0.0268173,0.0201035,0.00774384,0.0251007,-9.97986,-0.00576019,0.00362396,-0.0494766,0.0779724,-0.0338364,0.000991821,0.0175858,0.00595093
18,5,-9.99003,-0.000610352,0.00213623,-2.4247,0.0559862,-0.0741475,0.0562642,0.0395372,-0.0891792,0.145624,-0.126377,-0.0798238,-0.014534,0.0260162,0.0165558,-0.000152588,0.0313187,0.0193787,0.0043869,0.0231934,-9.97986,-0.0107193,0.00102997,-0.0570297,0.107994,-0.0459671,-0.0012207,0.0160599,0.00865936
18,6,-9.99003,0.000610352,0.00274658,-2.42409,0.0559862,-0.0735371,0.0535176,0.0572374,-0.0916206,0.145624,-0.125766,-0.0810445,-0.0252914,0.0299454,0.0146866,0.000228882,0.0394821,0.0263977,0.00408173,0.0228882,-9.97986,-0.00953674,0.00545502,-0.0540161,0.138016,-0.0366974,-0.00164032,0.0150681,0.00797272
18,7,-9.99003,0.000610352,0.00320435,-2.42684,0.0559862,-0.0744527,0.0553487,0.0633409,-0.090705,0.145624,-0.125766,-0.0819601,-0.0212097,0.0257111,0.0127411,-0.00190735,0.0382996,0.0271606,0.00480652,0.0193405,-9.97986,0.00411987,0.0025177,-0.0554657,0.16468,-0.0327301,-0.00240326,0.0131607,0.00675201
18,8,-9.99003,0.000915527,0.00335693,-2.42592,0.0572069,-0.0720113,0.0553487,0.0892809,-0.088874,0.145624,-0.125156,-0.0816549,-0.00175476,0.0246048,0.0159454,-0.000724792,0.0473404,0.0234985,0.0119019,0.0246048,-9.97986,0.0239563,0.0056076,-0.0551224,0.194855,-0.00247955,-0.00137329,0.0157166,0.00411987
18,9,-5.22624,0.000610352,0.00701904,-2.42592,0.0541551,-0.075063,0.0550435,0.136278,-0.0867378,0.145013,-0.12241,-0.0831808,0.00953674,0.0257874,0.0156784,0.00228882,0.045166,0.0300598,0.00240326,0.0204849,-9.97986,0.0429916,0.000457764,-0.0510406,0.217018,0.0204086,-0.00228882,0.0177002,0.00720978
19,0,2.05678,0.0012207,0.00717163,-2.42806,0.0544603,-0.0762837,0.0544332,0.154283,-0.0876533,0.145013,-0.120884,-0.0844015,0.0133514,0.0209045,0.0168228,0.000686646,0.0477982,0.0251007,0.00747681,0.0188828,-9.97986,0.0463104,0.00301361,-0.0486374,0.240669,0.0294876,-0.00610352,0.0147247,0.00476837
19,1,9.29769,0.000305176,0.00549316,-2.42867,0.0538499,-0.0729268,0.0535176,0.155504,-0.0900947,0.143182,-0.121189,-0.0856222,0.0181198,0.0231171,0.018425,0.000190735,0.0498199,0.0340652,0.00808716,0.0201035,-9.97986,0.0647736,0.0025177,-0.0436401,0.248184,0.0469971,-0.00175476,0.0146484,0.00282288
19,2,10.0097,0.0012207,0.00167847,-2.43111,0.0529344,-0.0756734,0.0504659,0.109728,-0.0968086,0.141351,-0.125766,-0.0898946,0.0134659,0.0256729,0.0183105,0.001297,0.0519562,0.0350189,0.00900269,0.0136566,-9.97986,0.0647354,0.00396729,-0.0467682,0.212936,0.0626755,-0.000839233,0.0163269,0.00442505
19,3,10.0097,0,-0.00137329,-2.43081,0.0529344,-0.0762837,0.0501607,0.0843981,-0.0961982,0.141961,-0.126377,-0.0892843,0.0140762,0.0293732,0.0182343,-0.00331879,0.0462341,0.0382996,0.00892639,0.0162506,-9.97986,0.0484467,0.0056076,-0.0361252,0.188408,0.0764465,-0.00190735,0.0208664,0.00404358
19,4,10.0097,-0.000915527,-0.00289917,-2.42898,0.0544603,-0.0762837,0.0519917,0.0758531,-0.0955879,0.144708,-0.127292,-0.0874532,0.0102997,0.0292969,0.0191498,-0.00171661,0.0506973,0.0315475,0.00858307,0.0131607,-9.97986,0.0329971,0.00228882,-0.0263596,0.155678,0.0936127,-0.00038147,0.0152206,0.00530243
19,5,10.0097,0.000915527,-0.00442505,-2.42653,0.0553758,-0.0756734,0.0522969,0.072191,-0.0931465,0.144708,-0.126072,-0.0862325,0.0238037,0.0304031,0.0217056,0.000572205,0.0524902,0.0367737,0.0094986,0.0157928,-9.97986,0.0111771,0.00419617,-0.0262833,0.103493,0.10067,-0.000801086,0.0148773,0.0050354
19,6,10.0097,-0.000305176,-0.00488281,-2.42776,0.0547655,-0.0744527,0.0532125,0.0718859,-0.0943672,0.145013,-0.125766,-0.0871481,0.0550461,0.0295639,0.0191498,0.000839233,0.0605774,0.0382614,0.0165176,0.0179291,-9.97986,-0.00644684,0.00301361,-0.0240326,0.0452423,0.107422,-0.00267029,0.0175476,0.00610352
19,7,10.0097,0.000610352,-0.00518799,-2.42684,0.0550706,-0.0735371,0.0538228,0.0706652,-0.0919257,0.145318,-0.125156,-0.085317,0.0527191,0.0311661,0.0169373,-0.00301361,0.0584793,0.0342941,0.0118256,0.0133514,-9.97986,-0.0182724,0.00125885,-0.0188446,-0.0173187,0.118065,0.0025177,0.0191116,0.00175476
19,8,10.0097,-0.000610352,-0.00473022,-2.42592,0.0550706,-0.0741475,0.0538228,0.0700548,-0.0922309,0.145013,-0.124851,-0.0844015,0.0431442,0.0315094,0.0168991,-0.00423431,0.0587845,0.0336838,0.0127411,0.0141144,-9.97986,-0.0274277,0.00385284,-0.0114822,-0.0680161,0.124588,-0.00125885,0.0205612,0.0056839
19,9,10.0097,0.000305176,-0.00427246,-2.42501,0.0565965,-0.0741475,0.0550435,0.0700548,-0.0931465,0.145929,-0.124851,-0.0828756,0.0165558,0.031395,0.0210571,-0.000190735,0.0589752,0.0315094,0.0126648,0.0105286,-9.97986,-0.0476074,0.00610352,0.00301361,-0.111961,0.126343,0.00198364,0.0194931,0.00255585
20,0,10.0097,-0.000305176,-0.00289917,-2.42501,0.0562914,-0.0738423,0.0550435,0.0712755,-0.0916206,0.146539,-0.124851,-0.0819601,-0.0155258,0.028801,0.0206375,-0.00125885,0.0617981,0.0340652,0.0149918,0.00816345,-9.97986,-0.0566864,0.00125885,0.00759125,-0.139313,0.122871,0.00537872,0.0186539,0.00305176
20,1,10.0097,0,-0.00427246,-2.42745,0.0562914,-0.073232,0.0516866,0.027025,-0.0968086,0.145013,-0.128513,-0.0837911,-0.0312042,0.0263977,0.0157928,-0.00244141,0.0604248,0.0327682,0.0114822,0.0120926,-9.97986,-0.0511551,0.00408173,0.00766754,-0.156898,0.118141,0.0069046,0.0215912,0.00621796
20,2,2.97414,0.000305176,-0.00549316,-2.42684,0.0562914,-0.0744527,0.0519917,-0.018141,-0.100165,0.146234,-0.130649,-0.0850118,-0.0307846,0.0264359,0.0171661,-0.00270844,0.0600052,0.0308228,0.0140381,0.0106812,-9.97986,-0.043869,0.00534058,0.0110245,-0.181198,0.118332,0.00675201,0.0177383,0.00492096
20,3,-4.92503,0.00335693,-0.00701904,-2.42531,0.0572069,-0.0729268,0.0538228,-0.0196669,-0.0977241,0.145624,-0.129123,-0.0831808,-0.0274277,0.0259018,0.0164795,-0.00362396,0.0628281,0.0310898,0.0143814,0.0134659,-9.97986,-0.0250244,0.00110626,0.0150299,-0.208702,0.120163,0.0063324,0.0175476,0.00289917
20,4,-9.99003,0.0012207,-0.00564575,-2.4244,0.0569017,-0.0735371,0.0556539,0.00352649,-0.0937568,0.14776,-0.128513,-0.0810445,-0.0214767,0.0269699,0.0159454,-0.0056839,0.0616074,0.0318909,0.0104904,0.0151443,-9.97986,-0.000534058,0.00370026,0.0169373,-0.218773,0.113411,0.00789642,0.0174713,0.00225067
20,5,-9.99003,-0.000915527,-0.00274658,-2.42501,0.055681,-0.0735371,0.0565694,0.0413683,-0.088874,0.143182,-0.126682,-0.0804342,-0.00785828,0.0242615,0.0196457,-0.00442505,0.0623322,0.0262833,0.0152206,0.0136566,-9.97986,0.0207901,0.000457764,0.0182343,-0.219841,0.0894165,0.00606537,0.0214005,0.00415802
20,6,-9.99003,-0.000915527,-0.00106812,-2.42562,0.0544603,-0.0741475,0.0553487,0.0587633,-0.090705,0.144403,-0.126682,-0.0825704,0.0195694,0.0257492,0.016098,-0.00396729,0.0615311,0.027771,0.0130463,0.00495911,-9.97986,0.0468826,0.00209808,0.0283051,-0.224648,0.083847,0.00453949,0.0242996,0.00171661
20,7,-9.99003,0.00152588,-0.000915527,-2.42653,0.0544603,-0.0753682,0.0550435,0.0639513,-0.0916206,0.146234,-0.125766,-0.0825704,0.0426483,0.0296021,0.0144196,-0.00240326,0.0584793,0.0265503,0.0142288,0.00534058,-9.97986,0.0643539,0.00682831,0.0377274,-0.227394,0.0805283,0.00396729,0.0261307,0.000724792
20,8,-9.99003,-0.000305176,0.000457764,-2.42501,0.0559862,-0.0738423,0.0556539,0.0911119,-0.0879585,0.146234,-0.12363,-0.0825704,0.0540543,0.0232315,0.0179672,-0.000915527,0.0517273,0.0260925,0.0151825,0.00652313,-9.97986,0.0748444,0.000953674,0.0421524,-0.225716,0.101891,0.00110626,0.0238419,0.00102997
20,9,-4.99095,-0.000305176,0.0038147,-2.42714,0.0541551,-0.0747579,0.0535176,0.134142,-0.0882636,0.144403,-0.122104,-0.0850118,0.067215,0.0269318,0.0162506,-0.00164032,0.0519943,0.0240707,0.0136948,0.00377655,-9.97986,0.0588226,0.00167847,0.053978,-0.220032,0.103683,0.000228882,0.0261307,-0.0037384
21,0,2.32198,0,0.00427246,-2.42776,0.0547655,-0.0768941,0.0538228,0.152757,-0.0879585,0.143792,-0.121494,-0.0850118,0.0827026,0.0252151,0.0207138,0.00160217,0.0452042,0.0274658,0.0138474,-0.00167847,-9.97986,0.0402832,-0.00114441,0.0633621,-0.219116,0.102882,0.00675201,0.0259781,-0.0043869
21,1,9.59371,-0.000610352,0.00457764,-2.42684,0.0550706,-0.0756734,0.0532125,0.153368,-0.0913154,0.143487,-0.121799,-0.0862325,0.0740814,0.0268173,0.019722,0.000343323,0.0448608,0.027504,0.0154495,-0.00797272,-9.97986,0.0294876,0.00110626,0.0628281,-0.216446,0.104446,0.00747681,0.0283051,-0.00679016
21,2,10.0097,-0.000915527,0.00259399,-2.43172,0.0535448,-0.0775044,0.0492452,0.106981,-0.0983344,0.142877,-0.125156,-0.0889791,0.0350952,0.0271988,0.0171661,0.00278473,0.046463,0.0286865,0.018425,-0.0172043,-9.97986,0.00411987,-0.00167847,0.0590897,-0.208817,0.101585,0.0147247,0.0234604,-0.00873566
21,3,10.0097,-0.000305176,0.000915527,-2.43081,0.0523241,-0.0762837,0.0495503,0.0834825,-0.0977241,0.142267,-0.126682,-0.0889791,-0.00087738,0.0260162,0.0196457,0.00190735,0.049057,0.0291061,0.0148392,-0.0191498,-9.97986,-0.00865936,-0.00305176,0.0592422,-0.198479,0.0955963,0.0191879,0.0261688,-0.0128555
21,4,10.0097,0.000610352,0.00152588,-2.42989,0.0532396,-0.0762837,0.0516866,0.0764635,-0.0974189,0.145013,-0.125766,-0.0868429,-0.0212479,0.0286484,0.0183105,0.00606537,0.0402451,0.0270081,0.0119781,-0.0238419,-9.97986,-0.00102997,-7.62939e-005,0.0583649,-0.179443,0.0937653,0.0111771,0.0257874,-0.016098
21,5,10.0097,0.000915527,0.00106812,-2.42898,0.0553758,-0.0741475,0.0535176,0.0740221,-0.0931465,0.143182,-0.126072,-0.0859274,-0.0225067,0.021553,0.0144958,0.00366211,0.0479126,0.0330734,0.0154495,-0.0252914,-9.97986,-0.000801086,-0.00213623,0.0582123,-0.163879,0.0928879,-0.000305176,0.0276566,-0.0193024
21,6,10.0097,-0.000305176,0.00213623,-2.42592,0.0541551,-0.0759786,0.0538228,0.0718859,-0.0949775,0.143487,-0.125461,-0.0844015,-0.0180054,0.0194931,0.0151825,0.00579834,0.0445557,0.0250626,0.0195313,-0.0209808,-9.97986,-0.000419617,-0.00152588,0.0525665,-0.141754,0.0894547,-0.0104904,0.0286102,-0.020256
21,7,10.0097,0.00335693,0.00213623,-2.42745,0.0559862,-0.0756734,0.0535176,0.0694445,-0.0946723,0.143792,-0.126377,-0.0831808,-0.0108337,0.0254822,0.00827789,0.00457764,0.0444031,0.0257492,0.0190735,-0.0114441,-9.97986,-0.00549316,-0.000839233,0.0502014,-0.12661,0.0804138,-0.0195313,0.026474,-0.0246811
21,8,10.0097,0.000305176,0.00167847,-2.42623,0.0550706,-0.0741475,0.0535176,0.07036,-0.0922309,0.146539,-0.124851,-0.0822652,-0.00629425,0.0209808,0.00846863,0.00331879,0.0429535,0.0254822,0.0178909,-0.0119019,-9.97986,-0.0200653,0.00137329,0.0505447,-0.106659,0.0753403,-0.0147629,0.0224304,-0.0278473
21,9,10.0097,-0.0012207,0.00152588,-2.42562,0.0559862,-0.0741475,0.0562642,0.072191,-0.0919257,0.145624,-0.124546,-0.0810445,-0.00614166,0.0158691,0.0094986,0.00205994,0.0413895,0.0183105,0.0235748,-0.00984192,-9.97986,-0.0411606,-0.000152588,0.0522995,-0.0951767,0.0666046,-0.00720978,0.0307083,-0.0323868
22,0,10.0097,-0.000610352,0.000610352,-2.42501,0.0565965,-0.0741475,0.054128,0.07036,-0.0937568,0.146844,-0.124851,-0.0810445,-0.0157547,0.0230026,0.00869751,0.00221252,0.0418854,0.0157166,0.0242615,-0.00770569,-9.97986,-0.0570679,0.00167847,0.0460815,-0.0931168,0.0554657,-0.00656128,0.0288773,-0.036087
22,1,10.0097,-0.0012207,-0.00167847,-2.42653,0.0553758,-0.075063,0.0526021,0.0273302,-0.0974189,0.144098,-0.126987,-0.0828756,-0.0219345,0.0225449,0.0122833,0.00240326,0.0394058,0.0134659,0.0265121,-0.00595093,-9.97986,-0.04776,-0.000419617,0.044136,-0.0907135,0.0479507,-0.000495911,0.0323105,-0.0391388
22,2,2.84596,0.00213623,-0.00350952,-2.42684,0.0569017,-0.0735371,0.0526021,-0.0175306,-0.100165,0.147149,-0.130954,-0.0834859,-0.027771,0.0160217,0.00991821,-0.000572205,0.0421524,0.0125885,0.0210571,-0.00270844,-9.97986,-0.0239563,-0.000190735,0.0353241,-0.0839615,0.0439453,0.00583649,0.0318146,-0.042038
22,3,-5.05504,0.000610352,-0.00442505,-2.42653,0.0575121,-0.0735371,0.0538228,-0.0187513,-0.0971137,0.147149,-0.129734,-0.0813497,-0.0231171,0.0182724,0.00862122,0.00637054,0.0389862,0.0105667,0.02491,-0.0075531,-9.97986,0.0037384,0.00282288,0.032196,-0.0857925,0.0391769,0.00411987,0.0331116,-0.0429535
22,4,-9.99003,0.000610352,-0.0038147,-2.42409,0.0581224,-0.0726216,0.0556539,0.00261096,-0.0928413,0.146539,-0.129429,-0.080129,-0.00652313,0.0130081,0.01194,0.000228882,0.0384521,0.0114441,0.0276566,-0.00221252,-9.97986,0.0329971,0.00301361,0.0357056,-0.0807953,0.0268936,0.00587463,0.0335312,-0.0432968
22,5,-9.99003,0,-0.0012207,-2.4244,0.0569017,-0.0741475,0.0562642,0.0404528,-0.0910102,0.145318,-0.126682,-0.0798238,0.0177765,0.0170135,0.0119019,0.00183105,0.0391769,0.0112534,0.0259781,-0.00419617,-9.97986,0.0502777,0.000610352,0.0329208,-0.0722122,0.00350952,-0.0037384,0.0357056,-0.0475311
22,6,-9.99003,0.00213623,0.000457764,-2.42562,0.0565965,-0.0729268,0.0553487,0.0572374,-0.0910102,0.145318,-0.126987,-0.0795187,0.0284576,0.0170898,0.00682831,0.00770569,0.0362778,0.0119781,0.0366211,-0.00881195,-9.97986,0.0559998,0.0012207,0.0263596,-0.063591,0.00427246,-0.00259399,0.0341797,-0.0470352
22,7,-9.99003,0,0.000305176,-2.4244,0.055681,-0.0744527,0.054128,0.0627306,-0.0916206,0.146234,-0.125156,-0.0825704,0.0153732,0.0201416,0.0147629,0.00728607,0.0394058,0.00175476,0.034523,-0.0104523,-9.97986,0.0559616,-0.00480652,0.0259781,-0.0583649,-0.00511169,-0.00743866,0.0341034,-0.0494003
22,8,-9.99003,-0.000915527,0.000915527,-2.42501,0.0541551,-0.0747579,0.0556539,0.0923326,-0.0891792,0.145929,-0.123325,-0.0822652,0.00705719,0.0222778,0.0187302,0.00930786,0.0381088,0.00705719,0.0341034,-0.00911713,-9.97986,0.0514984,0.0037384,0.0266266,-0.0566864,0.017128,-0.000801086,0.0372696,-0.0481415
22,9,-4.9232,0.0012207,0.00534058,-2.42623,0.0532396,-0.0759786,0.0544332,0.135668,-0.0870429,0.144403,-0.122104,-0.0834859,0.00770569,0.0233078,0.0162125,0.0114059,0.0362778,0.0087738,0.0346375,-0.00846863,-9.97986,0.0522614,-0.00225067,0.0212479,-0.0483322,0.0165939,0.00141144,0.0382996,-0.0465012
23,0,2.42696,0,0.00488281,-2.42867,0.0529344,-0.0753682,0.054128,0.15642,-0.088874,0.143487,-0.121189,-0.0856222,0.00274658,0.0214767,0.0173187,0.0113297,0.031929,0.00450134,0.0331879,-0.0063324,-9.97986,0.0588226,-0.001297,0.0193024,-0.043869,0.00442505,0.00671387,0.0351334,-0.0497055
23,1,9.70815,0.00152588,0.00534058,-2.42837,0.0541551,-0.0762837,0.0529073,0.156114,-0.0891792,0.143182,-0.121189,-0.0862325,0.00324249,0.0259399,0.0178146,0.00617981,0.0369644,0.00663757,0.0315475,-0.0019455,-9.97986,0.0709152,0.000724792,0.0175095,-0.0434494,7.62939e-005,0.0101089,0.0296021,-0.0490189
23,2,10.0097,-0.000610352,0.00274658,-2.43172,0.0526292,-0.0756734,0.0498555,0.107591,-0.0974189,0.140741,-0.126072,-0.0886739,-0.00495911,0.0259018,0.0180054,0.00621796,0.033493,-0.000305176,0.0323868,-0.00331879,-9.97986,0.0794983,0.00137329,0.0166321,-0.0408936,7.62939e-005,0.00740051,0.0336456,-0.0459671
23,3,10.0097,0.00152588,0.000915527,-2.42867,0.0538499,-0.0747579,0.0510762,0.0850084,-0.0968086,0.142572,-0.126987,-0.0874532,-0.00843048,0.0213623,0.0154114,0.00904083,0.0262451,0.00354767,0.0310135,-0.00637054,-9.97986,0.0815964,0.00038147,0.0161743,-0.0334167,-0.00236511,0.000419617,0.0312042,-0.0453186
23,4,10.0097,0.000915527,0.000915527,-2.42989,0.0544603,-0.0756734,0.0516866,0.0740221,-0.0955879,0.142877,-0.126682,-0.0868429,0.00343323,0.0272751,0.0239182,0.0108719,0.0287628,0.00740051,0.0326157,-0.00450134,-9.97986,0.074234,-0.00244141,0.0143051,-0.0218964,-0.00991821,-0.0069809,0.0354385,-0.0458145
23,5,10.0097,0,0.000152588,-2.42745,0.0544603,-0.0756734,0.0513814,0.0718859,-0.0943672,0.144708,-0.126072,-0.0840963,0.00209808,0.0275421,0.020256,0.00984192,0.0274277,0.00087738,0.0318909,-0.000839233,-9.97986,0.0523376,-0.00183105,0.0115585,-0.0185776,-0.0123978,-0.015564,0.0302505,-0.0436783
23,6,10.0097,0.000610352,0.0012207,-2.42745,0.0547655,-0.0747579,0.0535176,0.0715807,-0.0937568,0.144098,-0.125766,-0.0840963,-0.00762939,0.0237656,0.0215149,0.00995636,0.0278854,0.00324249,0.0309753,-0.00839233,-9.97986,0.0356674,-0.000152588,0.0185013,-0.00507355,-0.0138092,-0.0173569,0.0295258,-0.0409317
23,7,10.0097,0.00244141,0.00106812,-2.42684,0.0559862,-0.0744527,0.054128,0.0712755,-0.0928413,0.145013,-0.125461,-0.0844015,0.0125122,0.0252914,0.0253296,0.0118637,0.029068,-0.000114441,0.0304413,-0.00648499,-9.97986,0.0177765,-0.000495911,0.0121307,0.00141144,-0.0127029,-0.0211716,0.0328827,-0.0397491
23,8,10.0097,-0.000305176,0.000610352,-2.42714,0.055681,-0.0747579,0.054128,0.0709703,-0.0925361,0.145624,-0.124851,-0.0844015,0.0393677,0.0244141,0.0244141,0.013237,0.0283432,0.00167847,0.0328445,-0.00511169,-9.97986,0.00888824,-0.00236511,0.0169754,-0.00301361,-0.0122833,-0.0246429,0.0294876,-0.0346756
23,9,10.0097,0.000610352,-0.00137329,-2.42562,0.0559862,-0.0741475,0.0532125,0.072191,-0.0903999,0.146539,-0.125156,-0.0831808,0.0444412,0.0254059,0.0261688,0.015831,0.026474,-0.00110626,0.0273895,-0.00572205,-9.97986,0.0075531,-0.00263214,0.0204468,-0.0297546,-0.0116348,-0.0232315,0.0287628,-0.0284576
24,0,10.0097,-0.000610352,-0.00152588,-2.42653,0.0553758,-0.073232,0.0553487,0.07036,-0.090705,0.147149,-0.123935,-0.0813497,0.0427628,0.0263596,0.021553,0.0105667,0.0288773,0.000762939,0.0301743,-0.00495911,-9.97986,0.00289917,-0.00846863,0.0254822,-0.0484085,-0.0160217,-0.0247192,0.0270462,-0.0272751
24,1,10.0097,0.00183105,-0.00289917,-2.42562,0.0550706,-0.0738423,0.0526021,0.0267198,-0.0974189,0.145318,-0.128818,-0.0840963,0.0448608,0.026741,0.0249863,0.0156784,0.0260162,-0.00183105,0.0304031,-0.00648499,-9.97986,0.00350952,0.00160217,0.0269699,-0.0533676,-0.0169754,-0.0238037,0.0254059,-0.0200272
24,2,2.65828,-0.000610352,-0.00442505,-2.42714,0.0565965,-0.0738423,0.0513814,-0.0187513,-0.0989448,0.146234,-0.130649,-0.0834859,0.0453949,0.0258636,0.0255203,0.0159454,0.025444,0.00278473,0.0292206,-0.00370026,-9.97986,0.0116348,-0.00293732,0.0363159,-0.0561523,-0.0140762,-0.0308609,0.0223923,-0.0181961
24,3,-5.21892,0.0012207,-0.00488281,-2.42592,0.0578172,-0.073232,0.0535176,-0.0202772,-0.0977241,0.146844,-0.130649,-0.0816549,0.0410461,0.0231934,0.0219727,0.0125885,0.0237274,0.00350952,0.0296783,0.00125885,-9.97986,0.0146866,-0.00202179,0.0379562,-0.0531769,-0.0110245,-0.0315857,0.0234222,-0.014267
24,4,-9.99003,-0.000305176,-0.00457764,-2.42379,0.0565965,-0.0726216,0.0547383,0.00230578,-0.0934516,0.146539,-0.127598,-0.0798238,0.0259018,0.0214005,0.017662,0.00892639,0.0205231,-0.000686646,0.0273514,0.00442505,-9.97986,0.0118256,0.00228882,0.0401688,-0.0514603,-0.0124741,-0.0300598,0.0211334,-0.0120163
24,5,-9.99003,-0.000610352,-0.00183105,-2.42531,0.0562914,-0.0735371,0.0562642,0.0404528,-0.0900947,0.147455,-0.126072,-0.0804342,0.0196838,0.0231171,0.0203323,0.0115967,0.0228882,0.000305176,0.0295639,-0.00457764,-9.97986,-0.00164032,0.000190735,0.0477982,-0.0468063,-0.0268936,-0.0299454,0.0203323,-0.00328064
24,6,-9.99003,0.00183105,-0.000610352,-2.42623,0.0553758,-0.075063,0.0562642,0.0584581,-0.090705,0.144708,-0.123325,-0.0819601,0.0167847,0.0232315,0.0202179,0.0125885,0.021019,0.00511169,0.0252914,0.00476837,-9.97986,-0.000839233,0.00400543,0.0533295,-0.047493,-0.0291061,-0.0312042,0.0189209,0.00434875
24,7,-9.99003,0.000915527,0.000457764,-2.42592,0.0553758,-0.0741475,0.0550435,0.0642565,-0.0922309,0.145624,-0.125766,-0.0825704,0.0141144,0.0201797,0.015831,0.0094223,0.0180054,0.00434875,0.0239563,0.00350952,-9.97986,7.62939e-005,0.00240326,0.0518036,-0.046196,-0.0289536,-0.0278854,0.021286,0.00354767
24,8,-9.99003,0.000610352,0.000762939,-2.42592,0.0544603,-0.0753682,0.0565694,0.0911119,-0.0879585,0.145624,-0.124241,-0.0828756,0.0101471,0.0200653,0.0239563,0.0115204,0.0197601,0.000534058,0.0279999,0.00114441,-9.97986,0.00156403,0.00347137,0.0550079,-0.0414658,-0.00591278,-0.0276184,0.0230408,0.00724792
24,9,-4.93236,-0.000305176,0.0050354,-2.42714,0.0541551,-0.0756734,0.0544332,0.137804,-0.0858222,0.143792,-0.123935,-0.0847066,0.00854492,0.0221634,0.0188828,0.011673,0.0193405,-0.000915527,0.0329208,0.00427246,-9.97986,0.015564,0.00228882,0.0557327,-0.0312042,0.0025177,-0.0283432,0.0242615,0.0150299
25,0,2.4056,0.00183105,0.0050354,-2.42776,0.0538499,-0.0756734,0.054128,0.153978,-0.0882636,0.143792,-0.121189,-0.0840963,0.0107956,0.0226974,0.0168228,0.0130081,0.0171661,0.00629425,0.0282288,0.00244141,-9.97986,0.0254822,-0.00106812,0.0523758,-0.02285,0.00141144,-0.0294495,0.0180435,0.0170135
25,1,9.65993,0.00183105,0.00534058,-2.42959,0.0535448,-0.0759786,0.0538228,0.152757,-0.0910102,0.144403,-0.120884,-0.0847066,0.0138092,0.0233841,0.0192261,0.0159073,0.0166702,0.00171661,0.0276566,0.00343323,-9.97986,0.0362015,0.001297,0.0522614,-0.0185013,0.0019455,-0.0252533,0.0204468,0.0213242
25,2,10.0097,-0.000610352,0.00320435,-2.43111,0.0523241,-0.0759786,0.0492452,0.109117,-0.0961982,0.141656,-0.126377,-0.0877584,0.0150681,0.0270462,0.0203705,0.0094223,0.0146103,0.00610352,0.0258636,0.000991821,-9.97986,0.0343704,-0.00160217,0.0575256,-0.0154495,0.00339508,-0.0187302,0.019722,0.0226974
25,3,10.0097,-0.000305176,0.00106812,-2.4305,0.0538499,-0.0765889,0.0492452,0.0843981,-0.0983344,0.142572,-0.126377,-0.0880636,0.0175095,0.0247574,0.0232697,0.0141144,0.0146103,0.00431061,0.0222778,-0.00141144,-9.97986,0.029335,-0.00350952,0.0580597,-0.00217438,0.00301361,-0.0108337,0.02285,0.0223923
25,4,10.0097,0.000305176,0.000610352,-2.42928,0.0541551,-0.075063,0.0519917,0.075548,-0.0946723,0.144403,-0.125766,-0.0868429,0.0189972,0.0221634,0.0230789,0.0193405,0.00984192,0.0063324,0.0268936,0.000114441,-9.97986,0.020256,-0.000534058,0.0524521,-0.000419617,0.00328064,-0.0108719,0.0194168,0.026207
25,5,10.0097,-0.000610352,0.000152588,-2.42806,0.0532396,-0.0747579,0.0526021,0.0718859,-0.0946723,0.143792,-0.127598,-0.0859274,0.0224686,0.0230026,0.0218201,0.0127411,0.0139999,0.00713348,0.0257492,0.00366211,-9.97986,0.0100708,0.00415802,0.0540543,0.00808716,0.000572205,-0.00644684,0.0188828,0.0270081
25,6,10.0097,-0.000915527,0.000762939,-2.42714,0.0550706,-0.0747579,0.0529073,0.0718859,-0.0934516,0.143792,-0.127292,-0.0844015,0.0144958,0.0244904,0.0219727,0.014267,0.0140381,0.00595093,0.0257492,0.00480652,-9.97986,0.00598907,-0.00133514,0.051384,0.0128937,0.00164032,-0.00797272,0.0206757,0.0292969
25,7,10.0097,0.000610352,0.00106812,-2.42806,0.0550706,-0.0747579,0.0526021,0.0706652,-0.0931465,0.144708,-0.126377,-0.0844015,0.00400543,0.0253296,0.0151062,0.0159836,0.0100327,0.00911713,0.0231171,0.00419617,-9.97986,0.00137329,-0.00133514,0.0486374,0.0204849,-0.00225067,-0.00488281,0.0180817,0.029068
25,8,10.0097,-0.000915527,0.000762939,-2.42592,0.0562914,-0.0729268,0.0544332,0.0706652,-0.0925361,0.146539,-0.124851,-0.0822652,-0.00728607,0.0218964,0.0248718,0.0148392,0.0130463,0.00385284,0.0255203,0.00202179,-9.97986,-0.00164032,-0.000648499,0.0418091,0.0239944,-0.00278473,-0.00610352,0.0183868,0.0269318
25,9,10.0097,-0.000305176,0.000915527,-2.4247,0.0562914,-0.0744527,0.0550435,0.0706652,-0.0928413,0.145929,-0.123935,-0.0813497,-0.0127029,0.0226593,0.0195313,0.0168991,0.00980377,0.00644684,0.019989,0.00102997,-9.97986,-0.00850677,-0.00202179,0.0435257,0.031395,-0.00144958,-0.00709534,0.0200653,0.0294876
26,0,10.0097,0.000610352,0.000610352,-2.4247,0.055681,-0.073232,0.0544332,0.072191,-0.0919257,0.145318,-0.124851,-0.0810445,-0.0144958,0.0264359,0.0182724,0.0178146,0.0141907,0.0101089,0.0190735,0.00217438,-9.97986,-0.00919342,-0.00461578,0.0413895,0.0371933,-0.00675201,-0.00507355,0.016098,0.0300598
26,1,10.0097,0.0012207,-0.00137329,-2.42745,0.0559862,-0.075063,0.0519917,0.0291613,-0.0977241,0.144708,-0.127903,-0.0825704,-0.0188065,0.0255203,0.0223541,0.0156403,0.00812531,0.00606537,0.0252533,0.0105286,-9.97986,-0.00862122,-0.00183105,0.0360489,0.0460434,-0.00747681,-0.00995636,0.0167847,0.0323868
26,2,2.71932,0.00244141,-0.00366211,-2.42623,0.0562914,-0.073232,0.0526021,-0.018141,-0.09925,0.147455,-0.130344,-0.0828756,-0.0315475,0.0284195,0.0211334,0.0199127,0.011673,0.0114822,0.0230789,0.00473022,-9.97986,-0.00228882,0.00289917,0.0426102,0.0484085,-0.0106049,-0.0088501,0.0192642,0.0350571
26,3,-5.1118,0.000915527,-0.00473022,-2.42531,0.0562914,-0.073232,0.0532125,-0.0190565,-0.0977241,0.145929,-0.129734,-0.0819601,-0.0234985,0.0272369,0.021553,0.0169754,0.00686646,0.00854492,0.0180054,0.0038147,-9.97986,-0.00133514,-0.0025177,0.036087,0.0486755,-0.0119019,-0.0136185,0.0191879,0.0299454
26,4,-9.99003,-0.0012207,-0.00366211,-2.4247,0.0569017,-0.0735371,0.0556539,0.00413684,-0.0928413,0.146234,-0.128513,-0.0807394,-0.00671387,0.0271988,0.0216293,0.0196075,0.0136566,0.0100708,0.0245667,0.00759125,-9.97986,0.00862122,0.00286102,0.0362778,0.0598145,-0.0170135,-0.00778198,0.0189209,0.0363922
26,5,-9.99003,0.0012207,-0.00152588,-2.4244,0.0559862,-0.0744527,0.0568746,0.0401476,-0.0894843,0.146234,-0.126682,-0.0813497,0.0038147,0.0270081,0.0236511,0.0154114,0.00701904,0.00904083,0.021553,0.00431061,-9.97986,0.0102234,0.00312805,0.0348282,0.0594711,-0.0392151,-0.010376,0.018425,0.0378799
26,6,-9.99003,0.000305176,0.000762939,-2.42745,0.0572069,-0.0741475,0.0565694,0.0563219,-0.0916206,0.145318,-0.126682,-0.0819601,-0.000228882,0.0273895,0.0245667,0.0166702,0.0108337,0.0104904,0.0242615,0.00709534,-9.97986,0.00793457,0.00038147,0.0336838,0.0658417,-0.0415802,-0.00591278,0.0193787,0.0385666
26,7,-9.99003,0,0.000610352,-2.42562,0.0541551,-0.0759786,0.0550435,0.0633409,-0.0910102,0.145929,-0.126377,-0.0825704,0.00495911,0.0239944,0.0242233,0.0165176,0.00999451,0.0106049,0.0230789,0.00911713,-9.97986,0.0031662,-0.00213623,0.0302887,0.0701523,-0.0400162,-0.00259399,0.0167084,0.0352478
26,8,-9.99003,-0.000915527,0.00183105,-2.42653,0.0541551,-0.0744527,0.0550435,0.0938585,-0.088874,0.146234,-0.124241,-0.0828756,0.00999451,0.0277328,0.0198746,0.0124359,0.00663757,0.00961304,0.0195313,0.00850677,-9.97986,0.00392914,-0.00171661,0.0269699,0.0780106,-0.0195313,-0.00915527,0.0154114,0.0374222
26,9,-4.7169,0.000915527,0.00473022,-2.42714,0.0535448,-0.0771993,0.0550435,0.135057,-0.0879585,0.144708,-0.122715,-0.0847066,0.0141907,0.0259781,0.0185776,0.0126648,0.00705719,0.00865936,0.0175095,0.00965118,-9.97986,0.00198364,-0.0025177,0.0238419,0.0874329,-0.0170898,-0.0157166,0.0161743,0.0402069
27,0,2.64485,0,0.00534058,-2.42928,0.0535448,-0.0756734,0.0544332,0.155199,-0.0882636,0.144403,-0.121799,-0.085317,0.0216293,0.0232697,0.0235748,0.0144577,0.0123596,0.01194,0.0158691,0.0145721,-9.97986,0.00301361,-0.00274658,0.0224304,0.0922775,-0.0177765,-0.0178528,0.0132751,0.0416946
27,1,9.94771,0.000915527,0.00518799,-2.42806,0.0544603,-0.075063,0.0532125,0.152452,-0.0916206,0.144403,-0.121494,-0.0862325,0.0182724,0.0221634,0.0211334,0.0157547,0.0158691,0.00682831,0.018158,0.0108337,-9.97986,0.0209427,-0.00301361,0.0185013,0.100594,-0.0174713,-0.0202179,0.0138092,0.0418472
27,2,10.0097,0.000610352,0.00259399,-2.42928,0.0526292,-0.0762837,0.0486348,0.106676,-0.0977241,0.143182,-0.125766,-0.0886739,0.0298691,0.0230408,0.0222778,0.0136948,0.0144577,0.00873566,0.0192261,0.0162125,-9.97986,0.0172424,-0.00488281,0.0167084,0.102386,-0.0140762,-0.0175476,0.0151062,0.0383759
27,3,10.0097,0.000610352,0.0012207,-2.42959,0.0538499,-0.0775044,0.0510762,0.0871447,-0.0971137,0.142877,-0.127292,-0.0889791,0.0307846,0.0231552,0.0203323,0.0192642,0.0157547,0.01091,0.0160217,0.0165176,-9.97986,0.00637054,-0.001297,0.0104904,0.104866,-0.0163651,-0.0185394,0.017395,0.0412369
27,4,10.0097,0.000610352,0.000457764,-2.42928,0.0541551,-0.0771993,0.0510762,0.0761583,-0.0968086,0.144708,-0.125766,-0.0874532,0.0199509,0.0268555,0.0187683,0.0173569,0.00888824,0.00762939,0.0174332,0.0206757,-9.97986,-0.000267029,-0.00225067,0.00804901,0.11322,-0.0142288,-0.0131989,0.0152969,0.0402451
27,5,10.0097,0.000610352,0.000762939,-2.42745,0.0550706,-0.075063,0.0526021,0.0737169,-0.0946723,0.144098,-0.126072,-0.0862325,0.0146484,0.0260544,0.018692,0.0165939,0.0116348,0.0104141,0.0127792,0.0164413,-9.97986,-0.00522614,-0.00701904,0.00572205,0.11795,-0.0179291,-0.0131226,0.0146866,0.0395203
27,6,10.0097,0.000305176,0.000305176,-2.42684,0.0559862,-0.0741475,0.0522969,0.0715807,-0.094062,0.145013,-0.126682,-0.0850118,0.0160217,0.0247955,0.0191116,0.0202179,0.0144958,0.0102997,0.0167847,0.0178146,-9.97986,-0.00614166,-0.00675201,0.00350952,0.123444,-0.0132751,-0.00679016,0.0142288,0.0374985
27,7,10.0097,-0.000610352,0.0012207,-2.42776,0.0544603,-0.075063,0.0544332,0.0718859,-0.094062,0.144708,-0.126072,-0.0840963,0.0256729,0.0271606,0.0198364,0.0157166,0.0137711,0.00808716,0.0149536,0.017395,-9.97986,7.62939e-005,-0.0019455,-3.8147e-005,0.12249,-0.0143051,-0.00259399,0.0129318,0.040741
27,8,10.0097,0.000915527,0.000457764,-2.42745,0.0569017,-0.0735371,0.0532125,0.072191,-0.0919257,0.144403,-0.124241,-0.0831808,0.0299835,0.0247955,0.0228882,0.0154114,0.0094223,0.00816345,0.0126648,0.0197983,-9.97986,0.0204086,-0.00442505,-0.000572205,0.124741,-0.0143433,-0.0019455,0.0139999,0.0358963
27,9,10.0097,0.00152588,0.000762939,-2.4244,0.0550706,-0.0741475,0.0556539,0.072191,-0.0919257,0.145929,-0.12302,-0.0816549,0.0299072,0.0205231,0.0165176,0.0134277,0.0114059,0.0108719,0.0111389,0.0200653,-9.97986,0.0292969,-0.00183105,-0.00423431,0.129128,-0.0117493,-0.00473022,0.0180054,0.0339508
28,0,10.0097,0.000305176,0.000305176,-2.42409,0.0578172,-0.073232,0.0547383,0.07036,-0.0922309,0.145624,-0.124241,-0.0813497,0.0364685,0.0265121,0.020256,0.0185013,0.0113297,0.013237,0.00915527,0.0247955,-9.97986,0.0306702,-0.00274658,-0.00480652,0.131264,-0.0107956,0.000457764,0.0156784,0.0327682
28,1,10.0097,0.00213623,-0.00305176,-2.42653,0.0559862,-0.0747579,0.0535176,0.0294664,-0.0977241,0.145929,-0.127598,-0.0828756,0.0341797,0.0226974,0.016861,0.0187302,0.0101471,0.00858307,0.0128555,0.0232315,-9.97986,0.047493,0.001297,-0.00465393,0.131264,-0.000762939,0.000305176,0.0206375,0.0346375
28,2,2.53438,-0.000610352,-0.00427246,-2.42623,0.0562914,-0.0738423,0.0522969,-0.0184462,-0.0998603,0.146539,-0.129429,-0.0831808,0.0258636,0.0257874,0.0169754,0.0120926,0.010376,0.00411987,0.00740051,0.0183105,-9.97986,0.0405121,-0.00209808,-0.0118637,0.133629,-0.0105667,0.00125885,0.0135422,0.0279999
28,3,-5.2476,0.00183105,-0.00427246,-2.42653,0.0562914,-0.0735371,0.054128,-0.0196669,-0.0968086,0.147149,-0.129734,-0.0813497,0.0225449,0.0212479,0.0203705,0.0177002,0.01297,0.00602722,0.00923157,0.0267792,-9.97986,0.032196,-0.000228882,-0.0112152,0.140495,-0.00572205,0.00335693,0.0218964,0.032959
28,4,-9.99003,0.000915527,-0.00488281,-2.42501,0.0569017,-0.0741475,0.0547383,0.00108508,-0.0934516,0.146234,-0.128818,-0.0804342,0.0138092,0.0256348,0.0161743,0.0147247,0.0136566,0.0075531,0.00629425,0.0285339,-9.97986,0.0173569,-0.00289917,-0.0130081,0.139084,-0.00968933,0.00762939,0.0191879,0.0279236
28,5,-9.99003,-0.000915527,-0.0012207,-2.4244,0.0559862,-0.0741475,0.0556539,0.0407579,-0.0897895,0.147455,-0.126072,-0.0804342,0.0038147,0.0253296,0.0220871,0.0133514,0.0118256,0.00667572,0.00740051,0.0296021,-9.97986,0.00774384,0,-0.0113678,0.142441,-0.0285339,0.00701904,0.0184631,0.0263214
28,6,-9.99003,0.000305176,-0.000915527,-2.42623,0.055681,-0.075063,0.0553487,0.0578478,-0.0903999,0.145318,-0.126377,-0.0822652,-0.0175476,0.0270462,0.0185013,0.0148392,0.0105667,0.0082016,0.00217438,0.0277328,-9.97986,0.00667572,-0.00305176,-0.00587463,0.143814,-0.0310135,0.00614166,0.01091,0.02491
28,7,-9.99003,0.000610352,-0.000152588,-2.42684,0.0553758,-0.0744527,0.054128,0.0642565,-0.0919257,0.145929,-0.125461,-0.0822652,-0.0180435,0.026474,0.0201416,0.0165176,0.00999451,0.0069046,0.00495911,0.0305939,-9.97986,0.0105667,-0.0019455,-0.00469208,0.140266,-0.0286102,0.00606537,0.0182724,0.0270081
28,8,-9.99003,0.00152588,0.000915527,-2.42531,0.0550706,-0.0744527,0.0556539,0.0926378,-0.0879585,0.145013,-0.124241,-0.0834859,-0.0113297,0.026741,0.0191116,0.0138092,0.0130844,0.00457764,-0.000839233,0.0283813,-9.97986,0.0137711,0.00213623,-0.00679016,0.143127,-0.00270844,0.00652313,0.0147247,0.0220108
28,9,-4.70653,0.000305176,0.00350952,-2.42714,0.0535448,-0.0768941,0.0556539,0.135973,-0.0885688,0.144403,-0.12241,-0.0840963,0.000305176,0.0253677,0.0186539,0.0164413,0.0104523,0.00415802,0.0025177,0.0323868,-9.97986,0.0189209,0.00137329,-0.00804901,0.145454,0,0.00286102,0.0127411,0.0263596
29,0,2.64882,-0.000915527,0.00427246,-2.42714,0.0532396,-0.075063,0.0544332,0.153978,-0.0873481,0.144403,-0.121799,-0.0847066,0.0163269,0.0258255,0.0182724,0.0147247,0.0104904,0.00366211,-0.00289917,0.0260162,-9.97986,0.0158691,-0.00213623,-0.00530243,0.138359,0.00190735,-0.0063324,0.0137711,0.0195313
29,1,9.95748,-0.000305176,0.0050354,-2.42837,0.0541551,-0.075063,0.0532125,0.152452,-0.090705,0.142572,-0.121799,-0.0850118,0.0301361,0.0287628,0.0225067,0.0163269,0.0111008,0.00225067,-0.00343323,0.0246811,-9.97986,0.0212097,-0.00087738,0.00205994,0.139732,0.000686646,-0.00385284,0.0178909,0.0193787
29,2,10.0097,0.0012207,0.00213623,-2.43142,0.0535448,-0.0762837,0.0498555,0.106371,-0.0961982,0.142877,-0.126377,-0.0877584,0.0341034,0.0251007,0.0228119,0.0176239,0.0130844,0.00213623,-0.0031662,0.0262451,-9.97986,0.016861,0.00312805,-0.00415802,0.136948,0.00423431,-0.00797272,0.0157547,0.0156784
29,3,10.0097,-0.000915527,0.000610352,-2.43111,0.0535448,-0.0762837,0.050771,0.0847032,-0.0977241,0.142572,-0.127292,-0.0880636,0.0330353,0.0243378,0.0172424,0.0164032,0.0102615,0.00473022,-0.00686646,0.0274658,-9.97986,0.0195694,-7.62939e-005,-0.00488281,0.136833,0.00328064,-0.0132751,0.0152969,0.0143051
29,4,10.0097,-0.000915527,-0.000152588,-2.42867,0.0535448,-0.0753682,0.0498555,0.0758531,-0.095893,0.143792,-0.126072,-0.0868429,0.0062561,0.0251389,0.0194168,0.0180817,0.0148392,0.00507355,-0.00465393,0.0180435,-9.97986,0.0255585,0.00221252,-0.00377655,0.128822,0.00961304,-0.00976563,0.0154495,0.0180054
29,5,10.0097,0,0,-2.42867,0.0538499,-0.0756734,0.0526021,0.072191,-0.0952827,0.144403,-0.126987,-0.0859274,-0.016098,0.0257111,0.0157928,0.0127411,0.0149536,0.00232697,-0.00759125,0.023613,-9.97986,0.0315094,-0.000572205,-0.00255585,0.128784,0.010643,-0.0131989,0.0153351,0.0117874
29,6,10.0097,0.000610352,-0.000610352,-2.42653,0.0553758,-0.075063,0.0544332,0.0724962,-0.0937568,0.144403,-0.126072,-0.0850118,-0.0237656,0.0195313,0.0164413,0.0124359,0.0146103,-0.000152588,-0.00602722,0.0191879,-9.97986,0.0299454,0.00400543,-0.00236511,0.120811,0.00946045,-0.0153351,0.0123978,0.0118256
29,7,10.0097,-0.000305176,-0.000305176,-2.42653,0.0550706,-0.0753682,0.0538228,0.07036,-0.0931465,0.145013,-0.126072,-0.0850118,-0.0303268,0.0214005,0.0135803,0.0140381,0.0122833,0.0031662,-0.00953674,0.0200272,-9.97986,0.0123596,-0.00450134,0.00247955,0.116043,0.00892639,-0.0133514,0.0139999,0.00720978
29,8,10.0097,0.000610352,-0.000152588,-2.42592,0.0562914,-0.0735371,0.0550435,0.0718859,-0.0934516,0.145929,-0.125156,-0.0828756,-0.0101471,0.0166321,0.0179672,0.0166702,0.0118256,0.000724792,-0.01297,0.0262833,-9.97986,-0.00404358,-0.0050354,0.00205994,0.114212,0.0069046,-0.00724792,0.0128937,0.00957489
29,9,10.0097,0.000610352,-0.000610352,-2.42531,0.0559862,-0.0741475,0.054128,0.0700548,-0.0922309,0.145624,-0.124241,-0.0816549,0.0104904,0.0201416,0.0182343,0.0138092,0.0109482,0.00411987,-0.0150299,0.0277328,-9.97986,-0.0214386,-0.00537872,0.00457764,0.10952,0.00350952,-0.00686646,0.0121689,0.0104523
30,0,10.0097,-0.000915527,0.000305176,-2.42531,0.0569017,-0.0741475,0.0544332,0.0715807,-0.090705,0.148675,-0.125461,-0.0816549,0.0175858,0.0154877,0.013237,0.0108337,0.0144196,0.00339508,-0.0141907,0.0304794,-9.97986,-0.0215149,-0.00404358,0.00545502,0.107689,0.0088501,-0.0106812,0.00778198,0.0102615
30,1,10.0097,-0.000305176,-0.00152588,-2.42745,0.0559862,-0.075063,0.0522969,0.0300768,-0.0980293,0.145318,-0.127292,-0.0822652,0.0269699,0.0147247,0.0160217,0.0115585,0.0152969,0.00415802,-0.0144958,0.0269318,-9.97986,-0.0107574,-0.00591278,0.00312805,0.105438,0.00423431,-0.00617981,0.016098,0.00713348
30,2,2.48952,-0.000305176,-0.0050354,-2.42653,0.0565965,-0.0735371,0.0516866,-0.0160048,-0.0989448,0.146844,-0.130039,-0.0825704,0.030098,0.0178528,0.0141525,0.0121307,0.0141907,0.00476837,-0.0198746,0.0239944,-9.97986,0.0126648,-0.00392914,0.00240326,0.0996399,0.00038147,-0.00427246,0.0135803,0.0117874
30,3,-5.29277,0.00213623,-0.00534058,-2.42592,0.055681,-0.0735371,0.0544332,-0.0193617,-0.0968086,0.147455,-0.130039,-0.0825704,0.0281906,0.0183487,0.0143814,0.0154877,0.0150299,0.0069809,-0.0170517,0.0263596,-9.97986,0.0185776,-0.00167847,0.00411987,0.0956345,0.00110626,-0.00614166,0.0111389,0.00953674
30,4,-9.99003,0.000610352,-0.00457764,-2.42409,0.0565965,-0.0735371,0.0556539,0.00200061,-0.0931465,0.147455,-0.128513,-0.0807394,0.019989,0.0165176,0.00930786,0.00953674,0.0156784,0.0056839,-0.0157547,0.0276184,-9.97986,0.0114059,-0.00465393,0.00659943,0.0877762,-0.0030899,-0.00499725,0.01194,0.0100708
30,5,-9.99003,0.00152588,-0.00167847,-2.42531,0.0559862,-0.0738423,0.0565694,0.0404528,-0.0900947,0.146234,-0.126682,-0.080129,-0.00915527,0.0181961,0.0143433,0.0161362,0.015564,0.0088501,-0.0170517,0.0276566,-9.97986,0.0143814,-0.00247955,0.00682831,0.0886917,-0.0300217,-0.00350952,0.0130463,0.0100708
30,6,-9.99003,-0.000305176,-0.0012207,-2.42562,0.0547655,-0.0747579,0.0547383,0.0572374,-0.0897895,0.145013,-0.126682,-0.0822652,-0.0122833,0.0162888,0.0126648,0.0147629,0.0132751,0.00789642,-0.0170898,0.0246429,-9.97986,0.0202179,-0.00583649,0.00461578,0.0858307,-0.0324631,-0.00480652,0.012207,0.0125122
30,7,-9.99003,0.000915527,-0.000915527,-2.42623,0.0544603,-0.0738423,0.0550435,0.0639513,-0.0931465,0.145013,-0.126377,-0.0834859,0.000495911,0.0217819,0.0119781,0.0141144,0.0117493,0.00804901,-0.0156784,0.027504,-9.97986,0.0102615,-0.00236511,0.00476837,0.0759125,-0.0318527,-0.0094986,0.00953674,0.0110245
30,8,-9.99003,-0.000305176,-0.000305176,-2.42562,0.0550706,-0.075063,0.055959,0.0932482,-0.0879585,0.146234,-0.124546,-0.0828756,0.00301361,0.0186539,0.0126648,0.00831604,0.0165558,0.0130844,-0.0135803,0.0311279,-9.97986,0.00175476,-0.000610352,0.00267029,0.0754547,-0.0119019,-0.00724792,0.0104904,0.00904083
30,9,-4.64793,0,0.0038147,-2.42776,0.0523241,-0.075063,0.0544332,0.134752,-0.088874,0.143487,-0.12302,-0.0850118,0.00682831,0.019722,0.0137711,0.0101471,0.0178528,0.0120163,-0.0162125,0.0310135,-9.97986,-0.0114822,-0.00450134,0.00328064,0.0666428,-0.0109482,-0.00774384,0.013504,0.0111771
31,0,2.70406,0.000915527,0.0038147,-2.42806,0.0544603,-0.075063,0.0544332,0.154588,-0.0894843,0.145318,-0.122104,-0.0859274,0.00694275,0.0201035,0.0131226,0.0129318,0.015831,0.0127029,-0.0126648,0.026474,-9.97986,-0.0180817,-0.00667572,-0.00114441,0.0615311,-0.0178146,-0.00423431,0.00747681,0.0159836
31,1,10.0097,0,0.00427246,-2.42776,0.0538499,-0.0756734,0.0516866,0.150621,-0.090705,0.142877,-0.121799,-0.0862325,0.0191116,0.0187683,0.0152206,0.0104904,0.0175476,0.00812531,-0.0134277,0.0258636,-9.97986,0.00671387,-0.00377655,7.62939e-005,0.0574112,-0.0189972,3.8147e-005,0.00782013,0.0150299
31,2,10.0097,0.000610352,0.00137329,-2.43172,0.0532396,-0.0771993,0.0504659,0.107591,-0.0971137,0.142877,-0.125766,-0.0892843,0.0314331,0.0162506,0.0111771,0.0111771,0.00915527,0.0123978,-0.0125122,0.0325394,-9.97986,0.0306702,-0.0038147,0.00217438,0.0516891,-0.0159073,0.0115204,0.00911713,0.0182343
31,3,10.0097,0,0.000305176,-2.4305,0.0538499,-0.0756734,0.0501607,0.0840929,-0.0971137,0.142877,-0.126377,-0.0886739,0.0355911,0.0212097,0.0156403,0.0121307,0.0123215,0.0165176,-0.0105667,0.0331116,-9.97986,0.0426483,0.00255585,0.00354767,0.0523376,-0.0227356,0.0146866,0.0069809,0.017395
31,4,10.0097,0.000610352,-0.000610352,-2.42928,0.0544603,-0.0759786,0.0513814,0.0752428,-0.0961982,0.145318,-0.125461,-0.0868429,0.0349808,0.0204849,0.0107574,0.00926971,0.0128555,0.010376,-0.0116348,0.0214005,-9.97986,0.0495148,0.000762939,0.00263214,0.0429535,-0.0267792,0.0135803,0.00801086,0.0124741
31,5,10.0097,-0.000915527,-0.000610352,-2.42928,0.055681,-0.075063,0.0519917,0.0734117,-0.0946723,0.145013,-0.127292,-0.0859274,0.028038,0.0218201,0.0149918,0.0102234,0.0161362,0.0112534,-0.00320435,0.0255585,-9.97986,0.0574112,0.00366211,0.00732422,0.038147,-0.0292969,0.0183105,0.0134659,0.0187683
31,6,10.0097,0.000915527,-0.000762939,-2.42837,0.0553758,-0.0735371,0.0535176,0.0712755,-0.0934516,0.144403,-0.126377,-0.0850118,0.0195313,0.0218964,0.0162125,0.0146484,0.0142288,0.01297,-0.00946045,0.0264359,-9.97986,0.0396729,0.000724792,0.000114441,0.0400162,-0.0272369,0.00938416,0.0128555,0.0185394
31,7,10.0097,0.0012207,-0.000610352,-2.42653,0.0553758,-0.0759786,0.0522969,0.07036,-0.0934516,0.145318,-0.126682,-0.0847066,0.0182724,0.024147,0.0168228,0.0127792,0.0162125,0.0162506,-0.00675201,0.0278473,-9.97986,0.00991821,0.00244141,0.00442505,0.0287247,-0.0287247,0.00629425,0.0149155,0.0191116
31,8,10.0097,-0.000915527,0.000305176,-2.42653,0.0562914,-0.0738423,0.0535176,0.0724962,-0.0928413,0.146234,-0.125156,-0.0825704,0.0323105,0.0218201,0.0184631,0.00923157,0.0122833,0.0125504,-0.00808716,0.0291824,-9.97986,-0.0012207,-0.000305176,0.00392914,0.0272369,-0.0288773,0.00450134,0.0131607,0.0182343
31,9,10.0097,-0.000610352,-0.000610352,-2.4244,0.055681,-0.0744527,0.0538228,0.0712755,-0.0928413,0.145318,-0.124546,-0.0822652,0.0275421,0.0257492,0.0207901,0.0118256,0.0156021,0.0156021,-0.00038147,0.0184631,-9.97986,-0.0112915,-0.00244141,0.00759125,0.0189972,-0.0294495,-0.0113678,0.021019,0.0185013
32,0,10.0097,-0.000305176,-0.000610352,-2.42379,0.0559862,-0.0741475,0.0544332,0.0706652,-0.0916206,0.146234,-0.124546,-0.0813497,0.0133514,0.0232697,0.0222778,0.00873566,0.0178146,0.0214767,-0.00366211,0.0259399,-9.97986,-0.00968933,-0.00343323,0.0069046,0.0165176,-0.0287628,-0.0217819,0.0205994,0.018959
32,1,10.0097,0.000305176,-0.00259399,-2.42592,0.0559862,-0.0744527,0.0532125,0.0279405,-0.0968086,0.145929,-0.127903,-0.0834859,-0.00774384,0.0234222,0.0262451,0.012207,0.0111008,0.0204849,0.00263214,0.0244904,-9.97986,-0.00232697,-0.000953674,0.00659943,0.0112915,-0.0223923,-0.0288773,0.0211716,0.0196457
32,2,2.22859,0,-0.00534058,-2.42959,0.0565965,-0.0738423,0.0513814,-0.0172255,-0.0989448,0.146234,-0.130344,-0.0828756,-0.00587463,0.025444,0.026207,0.0104523,0.0120544,0.0202179,0.00110626,0.0182343,-9.97986,0.000953674,-0.00457764,0.00579834,-0.00274658,-0.0249481,-0.0266647,0.0205994,0.0177383
32,3,-5.61778,-0.000305176,-0.0062561,-2.42562,0.0565965,-0.0741475,0.0544332,-0.0193617,-0.0965034,0.146539,-0.130649,-0.0819601,0.00812531,0.0298309,0.0260544,0.0118256,0.0153732,0.0219345,0.00598907,0.02388,-9.97986,0.0087738,-0.00102997,0.0151443,-0.0143051,-0.0204468,-0.0199127,0.0230026,0.0190353
32,4,-9.99003,0.00183105,-0.00518799,-2.42379,0.0572069,-0.0729268,0.0562642,0.00200061,-0.0922309,0.146234,-0.128513,-0.0804342,0.0125504,0.0246048,0.0192642,0.00724792,0.0155258,0.0237274,0.00350952,0.0256729,-9.97986,0.00389099,-0.00118256,0.0109863,-0.0285339,-0.0277328,-0.00701904,0.0217438,0.0221634
32,5,-9.99003,0.000610352,-0.00259399,-2.42074,0.055681,-0.0741475,0.0562642,0.0431993,-0.0900947,0.145318,-0.127292,-0.0807394,0.0238419,0.0238419,0.0204086,0.0144196,0.0130081,0.0229263,0.0107193,0.028038,-9.97986,0.00164032,0.00190735,0.0125885,-0.03685,-0.0423813,0.00175476,0.0238037,0.0211334
32,6,-9.99003,0.000915527,-0.00167847,-2.42562,0.0541551,-0.0735371,0.0547383,0.0615099,-0.090705,0.144403,-0.125766,-0.0825704,0.0357437,0.0242615,0.0146484,0.0137711,0.0117874,0.0233078,0.0127029,0.0288773,-9.97986,-0.00453949,-0.00564575,0.0121307,-0.0534439,-0.0388336,0.0107956,0.0241852,0.021286
32,7,-9.99003,0.000610352,-0.000915527,-2.42562,0.0544603,-0.075063,0.0544332,0.0639513,-0.0910102,0.144098,-0.125766,-0.085317,0.0228882,0.0195313,0.0118256,0.0145721,0.0156784,0.0283051,0.0154877,0.0268936,-9.97986,-0.0157928,-0.00328064,0.01091,-0.0614929,-0.0436783,0.0201035,0.0260544,0.0209427
32,8,-9.99003,0.000610352,-0.000610352,-2.42714,0.055681,-0.0744527,0.0568746,0.0926378,-0.0882636,0.146234,-0.123935,-0.0828756,0.00385284,0.0259018,0.00804901,0.0118256,0.0122452,0.0215912,0.0175858,0.0301743,-9.97986,-0.0252151,0.00141144,0.00724792,-0.0671768,-0.0174713,0.0237274,0.0230789,0.0201797
32,9,-4.88444,0.0012207,0.00335693,-2.42714,0.0529344,-0.0765889,0.0556539,0.137193,-0.088874,0.143182,-0.122715,-0.0844015,-0.00141144,0.0251007,0.00751495,0.00976563,0.0154495,0.02285,0.0211716,0.0258255,-9.97986,-0.0309753,-0.00518799,0.00953674,-0.0744247,-0.00946045,0.0183868,0.0205612,0.0162888
33,0,2.49715,0.00152588,0.00366211,-2.42806,0.0547655,-0.075063,0.0535176,0.154283,-0.088874,0.144098,-0.121189,-0.0840963,-0.00938416,0.0214767,0.00770569,0.0104904,0.0154495,0.0263977,0.0229645,0.0211334,-9.97986,-0.0301361,0.000343323,0.00556946,-0.0782776,-0.00457764,0.0196838,0.0228882,0.0170898
33,1,9.82015,0.000610352,0.00366211,-2.42928,0.0541551,-0.0762837,0.0532125,0.150926,-0.0894843,0.145929,-0.121189,-0.0856222,-0.0124359,0.0216293,0.00812531,0.0121689,0.011673,0.0253296,0.0258255,0.0208664,-9.97986,-0.00923157,0.00087738,0.0178528,-0.0761414,-0.000801086,0.017662,0.019722,0.0167847
33,2,10.0097,0,0.00198364,-2.43081,0.0532396,-0.0771993,0.0504659,0.109422,-0.0977241,0.143487,-0.125461,-0.0892843,-0.0197601,0.0217819,0.00709534,0.0100327,0.0128174,0.0261688,0.0226593,0.0201797,-9.97986,0.0208282,-0.0025177,0.0152206,-0.0787735,0.00156403,0.0214005,0.0194931,0.0164795
33,3,10.0097,0.00152588,0.000762939,-2.4305,0.0538499,-0.0768941,0.0495503,0.0850084,-0.0971137,0.143792,-0.126682,-0.0874532,-0.0128937,0.0222397,0.0115585,0.0123978,0.0169754,0.026207,0.0249481,0.0247955,-9.97986,0.0602722,-0.00358582,0.00953674,-0.0754547,0.00591278,0.0169373,0.0157928,0.0104904
33,4,10.0097,0,0.000152588,-2.42806,0.0532396,-0.0753682,0.0526021,0.0776842,-0.0949775,0.144098,-0.126072,-0.0868429,-0.00415802,0.0250244,0.00843048,0.0104141,0.0196075,0.0220871,0.0299454,0.016861,-9.97986,0.0798798,0.000610352,0.0194168,-0.0747299,0.00808716,0.0140762,0.0180817,0.0094223
33,5,10.0097,-0.000915527,-0.000152588,-2.42714,0.0547655,-0.0762837,0.0513814,0.0724962,-0.0943672,0.143792,-0.126987,-0.0859274,0.00190735,0.019722,0.0149918,0.011673,0.0183868,0.0214386,0.0282669,0.0193787,-9.97986,0.0767517,-0.00236511,0.0196075,-0.0697708,0.00907898,0.0104523,0.0150681,0.00938416
33,6,10.0097,0.00213623,0.000457764,-2.42745,0.0553758,-0.0753682,0.0547383,0.07036,-0.0943672,0.144403,-0.126072,-0.0837911,0.000457764,0.0285721,0.0188446,0.0110245,0.0179291,0.0222778,0.0293732,0.0178909,-9.97986,0.0657272,-0.00183105,0.0229263,-0.0702667,0.0156021,0.000724792,0.0131226,0.00724792
33,7,10.0097,0.0012207,0.000152588,-2.42745,0.0547655,-0.0741475,0.0526021,0.0694445,-0.094062,0.144098,-0.126072,-0.0847066,-0.00408173,0.022049,0.0152588,0.0135422,0.017662,0.0167847,0.0346375,0.0164795,-9.97986,0.0418854,-0.00259399,0.0175476,-0.0669479,0.0130463,0.000686646,0.0149536,0.00999451
33,8,10.0097,0.00244141,0.000152588,-2.42562,0.0565965,-0.0744527,0.0535176,0.0715807,-0.0934516,0.146844,-0.125156,-0.0825704,-0.00926971,0.0225067,0.0159073,0.00686646,0.0199509,0.0181198,0.0333786,0.0190735,-9.97986,0.0232697,-0.00343323,0.0274277,-0.0688934,0.0175476,0.00148773,0.0136566,0.00621796
33,9,10.0097,-0.0012207,0.000305176,-2.42501,0.0569017,-0.0741475,0.0532125,0.0694445,-0.0919257,0.145624,-0.12363,-0.0813497,0.00301361,0.0215149,0.0117111,0.010376,0.0161743,0.00904083,0.0342178,0.0186157,-9.97986,0.0132751,0.00247955,0.022316,-0.0658798,0.0182724,0.00450134,0.0112915,0.0069809
34,0,10.0097,0.00183105,0,-2.42623,0.0572069,-0.0723164,0.0550435,0.0718859,-0.0913154,0.146539,-0.124241,-0.0813497,0.0281525,0.0214005,0.0151443,0.0101089,0.0177765,0.0138855,0.036087,0.0218582,-9.97986,0.0283432,0.00522614,0.0234222,-0.0621033,0.0259399,0.00282288,0.0117874,0.00911713
34,1,10.0097,0.000610352,-0.00183105,-2.42837,0.0550706,-0.0738423,0.0526021,0.0239733,-0.0980293,0.146844,-0.127903,-0.0828756,0.0281143,0.0226593,0.00827789,0.011673,0.0125504,0.00606537,0.0338364,0.0159454,-9.97986,0.0366974,-7.62939e-005,0.0203705,-0.0602722,0.0236893,0.00453949,0.0112915,0.00846863
34,2,2.15199,0.000915527,-0.0038147,-2.42562,0.0569017,-0.0738423,0.0519917,-0.0184462,-0.0989448,0.146844,-0.130039,-0.0828756,0.0209808,0.0200653,0.0152588,0.00743866,0.0175476,0.0111389,0.0312805,0.0172806,-9.97986,0.0473785,-0.000724792,0.0265121,-0.0519943,0.0285721,0.00621796,0.0142288,0.00541687
34,3,-5.61931,0.000305176,-0.00427246,-2.42501,0.0575121,-0.0747579,0.054128,-0.0184462,-0.0971137,0.147149,-0.130039,-0.0816549,0.038147,0.0189972,0.011673,0.00610352,0.0141144,0.0115204,0.032959,0.0203323,-9.97986,0.0473022,0.00152588,0.0185776,-0.0508881,0.0269699,0.0038147,0.0117493,0.00610352
34,4,-9.99003,0.00244141,-0.00366211,-2.42501,0.0569017,-0.0744527,0.0556539,0.00230578,-0.0925361,0.145318,-0.128818,-0.080129,0.0374985,0.0220108,0.0144577,0.00751495,0.0177383,0.0104904,0.0291824,0.0172424,-9.97986,0.0407028,0.000991821,0.0204849,-0.0489807,0.0240707,0.00461578,0.0123978,0.00572205
34,5,-9.99003,0,-0.00106812,-2.42379,0.0562914,-0.073232,0.0568746,0.0413683,-0.0894843,0.146844,-0.127292,-0.0810445,0.0231934,0.025177,0.017662,0.00957489,0.016861,0.00980377,0.0293732,0.0190353,-9.97986,0.043602,0.00465393,0.0213623,-0.0397491,0.00743866,0.00274658,0.0133133,0.00537872
34,6,-9.99003,0,-0.000457764,-2.42501,0.0553758,-0.0747579,0.0550435,0.0572374,-0.0916206,0.145929,-0.126377,-0.0819601,0.0133133,0.0200272,0.013504,0.00747681,0.0127792,0.0094223,0.0314331,0.0202179,-9.97986,0.030632,-0.000724792,0.0174713,-0.0368881,0.00572205,-0.00144958,0.0131989,0.00312805
34,7,-9.99003,-0.000305176,0.0012207,-2.42745,0.055681,-0.0747579,0.054128,0.0633409,-0.0913154,0.143792,-0.124851,-0.0825704,0.00385284,0.02285,0.0133133,0.00648499,0.0186539,0.0127029,0.0362396,0.0172806,-9.97986,0.0117493,0.00289917,0.0207901,-0.0378418,0.00434875,7.62939e-005,0.0113297,0.00289917
34,8,-9.99003,0.0012207,0.000457764,-2.42653,0.0544603,-0.0741475,0.0556539,0.0956896,-0.0885688,0.146234,-0.123325,-0.0825704,-0.00846863,0.0240326,0.0159073,0.0105667,0.0231934,0.0117874,0.0327301,0.0144958,-9.97986,0.01297,-0.000915527,0.0173187,-0.0372696,0.0299072,0.000114441,0.0106812,-0.000724792
34,9,-4.65312,0.00244141,0.00427246,-2.42806,0.0547655,-0.075063,0.0544332,0.135973,-0.0885688,0.144403,-0.12241,-0.0834859,-0.00278473,0.0247574,0.0232697,0.00923157,0.0168228,0.0117493,0.0372696,0.0141525,-9.97986,0.01194,0.00141144,0.0196457,-0.0357437,0.0366211,0.00480652,0.00892639,0.00259399
35,0,2.79347,0,0.00442505,-2.42867,0.0538499,-0.0768941,0.0532125,0.154283,-0.0879585,0.143792,-0.121189,-0.0850118,-0.0063324,0.0213242,0.0128174,0.00988007,0.0201797,0.0154114,0.0337601,0.0184631,-9.97986,0.0031662,-0.000343323,0.0167465,-0.0359344,0.0326157,0.0038147,0.00953674,0.00396729
35,1,10.0097,0.00183105,0.00473022,-2.42928,0.0541551,-0.0756734,0.0516866,0.150926,-0.0897895,0.144403,-0.121799,-0.0865377,0.00137329,0.027771,0.0131989,0.00869751,0.0164795,0.0159836,0.0356293,0.018425,-9.97986,0.000152588,-0.000724792,0.0194168,-0.03582,0.0349045,0.0056839,0.0123215,0.00385284
35,2,10.0097,0.000305176,0.00183105,-2.42989,0.0532396,-0.0771993,0.0492452,0.106066,-0.0983344,0.143792,-0.124851,-0.0883688,0.00762939,0.0201035,0.0143814,0.00854492,0.0191498,0.0169754,0.0336456,0.0196457,-9.97986,0.00164032,-0.000228882,0.014534,-0.0341034,0.037117,0.00850677,0.01297,0.00110626
35,3,10.0097,0.000610352,0.000305176,-2.42989,0.0538499,-0.075063,0.0504659,0.0874498,-0.0974189,0.143792,-0.127292,-0.0886739,0.016861,0.0231934,0.0146866,0.00457764,0.0204468,0.0125122,0.032692,0.0214386,-9.97986,0.0233078,0.000572205,0.0153351,-0.0325394,0.0350189,0.00286102,0.00759125,0.00328064
35,4,10.0097,0.0012207,0.0012207,-2.42867,0.0544603,-0.0747579,0.0510762,0.0761583,-0.095893,0.144098,-0.127292,-0.0865377,0.022316,0.0224304,0.0150299,0.00934601,0.0195313,0.0109482,0.0326538,0.0217438,-9.97986,0.0450134,-0.00740051,0.0180054,-0.0278091,0.0385666,0.00461578,0.0119019,0.00782013
35,5,10.0097,0.00183105,0.000305176,-2.42959,0.0532396,-0.0765889,0.0529073,0.0728014,-0.0931465,0.145624,-0.127598,-0.085317,0.017662,0.0222778,0.0178146,0.00766754,0.0200272,0.0114822,0.0310516,0.0252151,-9.97986,0.0470352,-0.00221252,0.00881195,-0.0284576,0.0340271,-0.000305176,0.0120163,0.00530243
35,6,10.0097,0.000915527,0.000457764,-2.42837,0.0544603,-0.0747579,0.0529073,0.0724962,-0.0946723,0.145013,-0.124851,-0.0856222,0.00488281,0.0216293,0.0193405,0.0062561,0.0171661,0.0107193,0.0317001,0.0234985,-9.97986,0.0377655,0.000724792,0.0115204,-0.0232315,0.0349045,0.000610352,0.0106049,0.00972748
35,7,10.0097,0,0.000610352,-2.42776,0.0541551,-0.075063,0.0532125,0.0724962,-0.0931465,0.144403,-0.124851,-0.0847066,0.00545502,0.0220108,0.0143051,0.0062561,0.0204468,0.0110245,0.0369644,0.0276947,-9.97986,0.0333023,-0.00102997,0.0151062,-0.0172043,0.0341797,0.00164032,0.0106812,0.00865936
35,8,10.0097,0,0.000610352,-2.42562,0.055681,-0.0747579,0.0544332,0.0712755,-0.0934516,0.145624,-0.125461,-0.0834859,0.018158,0.0230408,0.0188828,0.00888824,0.0204468,0.0174713,0.0352097,0.0222778,-9.97986,0.030365,-0.00167847,0.014801,-0.0183868,0.033493,-0.0012207,0.00778198,0.00854492
35,9,10.0097,0.000915527,0.000152588,-2.42623,0.0569017,-0.0741475,0.0553487,0.0718859,-0.0903999,0.146234,-0.123935,-0.0816549,0.0360489,0.0234985,0.0188446,0.00675201,0.0245667,0.0139236,0.0370789,0.0264359,-9.97986,0.0226593,-0.0056076,0.0114441,-0.0147629,0.0312424,0.000915527,0.00858307,0.00743866
36,0,10.0097,0.00152588,0.000152588,-2.4244,0.0562914,-0.0735371,0.0544332,0.0718859,-0.0910102,0.146844,-0.124241,-0.0819601,0.0476837,0.0236893,0.0178528,0.00858307,0.0203705,0.0107574,0.0382614,0.0272369,-9.97986,0.0187302,-0.00175476,0.0122833,-0.0167465,0.0327301,-0.00484467,0.00892639,0.00663757
36,1,10.0097,-0.00244141,-0.00213623,-2.42714,0.0559862,-0.0744527,0.0504659,0.0273302,-0.0971137,0.146234,-0.126682,-0.0825704,0.0460434,0.0234985,0.0204468,0.00816345,0.0231934,0.0143433,0.0421143,0.0227737,-9.97986,0.00640869,-0.00400543,0.0146484,-0.01091,0.0313568,-0.0112915,0.0106049,0.0069809
36,2,2.05251,-0.000610352,-0.00427246,-2.42531,0.0559862,-0.0738423,0.0538228,-0.0166151,-0.09925,0.146234,-0.130954,-0.0819601,0.0372696,0.0239182,0.0222778,0.00587463,0.0238419,0.0127792,0.0398636,0.0211716,-9.97986,-0.010643,-0.00305176,0.0137711,-0.00396729,0.0298309,-0.0136948,0.00968933,0.0102615
36,3,-5.69011,-0.00183105,-0.00411987,-2.42531,0.0565965,-0.073232,0.0526021,-0.019972,-0.0980293,0.146234,-0.130039,-0.0816549,0.0354004,0.0262833,0.0212097,0.0117111,0.0257492,0.0149155,0.0437927,0.0160599,-9.97986,-0.0135803,-0.00038147,0.0211334,-0.00282288,0.0323486,-0.0107574,0.00629425,0.00915527
36,4,-9.99003,0.00244141,-0.00473022,-2.42409,0.0565965,-0.0738423,0.0553487,0.00261096,-0.0931465,0.146844,-0.128818,-0.0822652,0.0161362,0.0262451,0.020256,0.00930786,0.0231552,0.00705719,0.0472641,0.00549316,-9.97986,-0.0112915,-0.00183105,0.0127792,-0.00717163,0.0177002,-0.01194,0.00751495,0.0050354
36,5,-9.99003,0.00152588,-0.00167847,-2.4247,0.0550706,-0.0738423,0.0580953,0.0407579,-0.0894843,0.145624,-0.126072,-0.0810445,0.0213623,0.0205994,0.0218201,0.00976563,0.0225449,0.0128174,0.049057,0.015564,-9.97986,-0.00087738,-0.00350952,0.0137711,-0.00854492,-0.000343323,-0.00312805,0.00663757,0.00659943
36,6,-9.99003,0.000610352,-0.000915527,-2.42623,0.0547655,-0.0741475,0.0547383,0.0587633,-0.0910102,0.146844,-0.124546,-0.0816549,0.0239182,0.0296402,0.0273895,0.00995636,0.0255966,0.0120163,0.0520325,0.0162506,-9.97986,0.00808716,-0.00377655,0.0117874,-0.00507355,0.000724792,0.00038147,0.00976563,-0.00125885
36,7,-9.99003,0.000610352,0.000305176,-2.42623,0.0559862,-0.0744527,0.0547383,0.0639513,-0.0919257,0.145013,-0.125461,-0.0825704,0.0257492,0.027504,0.0256348,0.00968933,0.0219345,0.0137329,0.0525665,0.0191498,-9.97986,0.0279999,0.000267029,0.012207,-0.000267029,-0.00282288,0.00156403,0.0143814,0.00038147
36,8,-9.99003,-0.0012207,0.00167847,-2.4247,0.055681,-0.0738423,0.0538228,0.0966051,-0.0882636,0.144403,-0.123935,-0.0834859,0.0111771,0.0272369,0.0222778,0.00736237,0.0247955,0.0178146,0.0509262,0.0226593,-9.97986,0.0419617,-0.00297546,0.0102997,-0.000267029,0.022049,-0.00144958,0.0111008,0.00179291
36,9,-4.54173,0.000610352,0.00457764,-2.42714,0.0544603,-0.0756734,0.055959,0.134447,-0.0882636,0.145318,-0.12241,-0.0840963,0.0018692,0.0243759,0.0242615,0.00423431,0.0246811,0.0131989,0.0532532,0.0224304,-9.97986,0.0411606,0.000152588,0.0100327,0.00164032,0.0299835,-0.00553131,0.00892639,-0.00167847
37,0,2.86794,-0.000610352,0.0050354,-2.42714,0.0538499,-0.0753682,0.0535176,0.154283,-0.0876533,0.143792,-0.120578,-0.0847066,-0.0222015,0.0204849,0.0200272,0.0087738,0.0231171,0.0148773,0.0501633,0.0226974,-9.97986,0.0433731,0.000152588,0.0124741,0.0044632,0.029335,-0.00492096,0.00961304,0.000648499
37,1,10.0097,0,0.00473022,-2.4305,0.0535448,-0.0759786,0.0522969,0.152147,-0.0910102,0.142877,-0.121799,-0.0856222,-0.0349426,0.0235367,0.0183868,0.00732422,0.0219727,0.0120926,0.0485992,0.0252151,-9.97986,0.0428009,-0.00114441,0.0149536,0.00617981,0.0312042,0.00228882,0.0109482,0.00255585
37,2,10.0097,0.000305176,0.00244141,-2.43081,0.0538499,-0.0765889,0.050771,0.10454,-0.0965034,0.142267,-0.124851,-0.0880636,-0.0307846,0.0245667,0.0217438,0.0056839,0.0240707,0.0123215,0.0450516,0.0181961,-9.97986,0.0299072,-0.00205994,0.0144196,0.00675201,0.0294113,0.00312805,0.0113678,0.00312805
37,3,10.0097,0.00183105,0.000152588,-2.4305,0.0535448,-0.0759786,0.0498555,0.0840929,-0.0968086,0.143487,-0.126072,-0.0886739,-0.0173569,0.022049,0.0249481,0.00953674,0.0238037,0.0193405,0.0457382,0.0215149,-9.97986,0.0255966,-0.00392914,0.014534,0.00858307,0.0384903,0.00343323,0.0128555,0.00431061
37,4,10.0097,-0.000610352,0.000305176,-2.42928,0.0538499,-0.0756734,0.050771,0.0767687,-0.0961982,0.144098,-0.126072,-0.0874532,-0.00396729,0.0267792,0.0193787,0.0122833,0.0232697,0.0214386,0.0460815,0.0231171,-9.97986,0.027504,-0.000152588,0.014534,0.00892639,0.0329971,0.001297,0.0129318,0.000762939
37,5,10.0097,0.00213623,0.000152588,-2.42898,0.0541551,-0.0759786,0.0526021,0.0731066,-0.0937568,0.143487,-0.126987,-0.0859274,0.0141525,0.0289917,0.0224686,0.0115204,0.0271988,0.0187302,0.0486755,0.0217056,-9.97986,0.0349426,-0.00347137,0.017395,0.00846863,0.0321198,0.0030899,0.00770569,0.00175476
37,6,10.0097,0.00152588,-0.000152588,-2.42714,0.0547655,-0.0744527,0.0532125,0.072191,-0.094062,0.145013,-0.124851,-0.0850118,0.0338745,0.02388,0.0252533,0.0125885,0.0218964,0.0207901,0.0440979,0.0172424,-9.97986,0.0314713,-0.00183105,0.0173569,0.00602722,0.0319672,-0.000114441,0.00881195,0.00358582
37,7,10.0097,-0.000305176,0.000457764,-2.42714,0.0547655,-0.0753682,0.0544332,0.0697496,-0.0937568,0.145318,-0.125766,-0.0834859,0.0244904,0.0241852,0.0237274,0.00774384,0.0268555,0.0196075,0.0439072,0.0164795,-9.97986,0.0218201,-0.00156403,0.0160599,0.00793457,0.0347137,0.00301361,0.00907898,0.000572205
37,8,10.0097,0.0012207,0.000152588,-2.42653,0.055681,-0.0741475,0.0522969,0.0709703,-0.0922309,0.145624,-0.125156,-0.0822652,0.0109863,0.0286865,0.0249863,0.00793457,0.0270462,0.0183487,0.0407028,0.0178528,-9.97986,0.0111771,-0.00213623,0.0196838,0.0037384,0.0411606,0.000190735,0.0101471,0.00492096
37,9,10.0097,0.0012207,-0.000305176,-2.42501,0.0572069,-0.0747579,0.0544332,0.0712755,-0.0910102,0.145318,-0.12363,-0.0810445,0.00743866,0.0270081,0.0241852,0.00873566,0.023613,0.0190353,0.0373459,0.0154877,-9.97986,0.0050354,-0.00255585,0.0193787,0.0037384,0.0352097,-0.0102615,0.0120163,-0.000648499
38,0,10.0097,-0.000915527,-0.000762939,-2.42379,0.0572069,-0.0744527,0.054128,0.0706652,-0.0922309,0.147149,-0.125156,-0.0804342,0.00434875,0.0310516,0.0257111,0.0114059,0.0250244,0.0223923,0.0357056,0.0130463,-9.97986,-0.000915527,-0.00175476,0.0156403,0.000839233,0.034523,-0.0113678,0.0103378,-0.000305176
38,1,10.0097,-0.000915527,-0.00259399,-2.42684,0.0559862,-0.0741475,0.0513814,0.0285509,-0.0968086,0.145624,-0.127292,-0.0831808,-0.00232697,0.029068,0.0261307,0.0131226,0.0223923,0.0231552,0.0299835,0.00888824,-9.97986,-0.00286102,0.00102997,0.0182724,-0.00183105,0.0367355,-0.0112915,0.0110245,-0.00144958
38,2,1.93532,-0.000305176,-0.00457764,-2.42562,0.0569017,-0.0741475,0.0522969,-0.0175306,-0.100165,0.144708,-0.13126,-0.0831808,-0.0164032,0.0271606,0.0235748,0.012207,0.023613,0.022316,0.0324249,0.0157166,-9.97986,-0.0012207,-0.00137329,0.0149155,-0.00507355,0.0355911,-0.0129318,0.0126266,-0.00167847
38,3,-5.77525,0,-0.0050354,-2.42684,0.0572069,-0.0738423,0.0535176,-0.0187513,-0.0977241,0.145929,-0.130344,-0.0822652,-0.02388,0.0282288,0.0268555,0.00892639,0.0217819,0.0236511,0.0261307,0.0123596,-9.97986,0.000953674,-0.00202179,0.0174332,-0.000839233,0.0350571,-0.00827789,0.0107574,-0.00278473
38,4,-9.99003,0.00152588,-0.00442505,-2.42562,0.0553758,-0.0738423,0.0556539,0.00230578,-0.0928413,0.146539,-0.128818,-0.0804342,-0.00999451,0.0250626,0.0262833,0.0115967,0.0221252,0.0233459,0.0260925,0.0132751,-9.97986,0.00740051,-0.00202179,0.0136948,-0.00518799,0.0254059,-0.00114441,0.0147629,-0.00358582
38,5,-9.99003,0.000610352,-0.00152588,-2.4244,0.0569017,-0.0747579,0.0568746,0.0428942,-0.0891792,0.146844,-0.126377,-0.0798238,0.000724792,0.0268936,0.0267792,0.0102615,0.0140762,0.022316,0.0319672,0.018959,-9.97986,0.0100327,0.00038147,0.0187683,-0.000648499,0.00656128,-0.00133514,0.0128555,-0.00259399
38,6,-9.99003,0.00335693,-0.000152588,-2.42684,0.0553758,-0.0747579,0.0553487,0.0593737,-0.0910102,0.145624,-0.126072,-0.0822652,0.00705719,0.0239563,0.0267792,0.0123215,0.0195694,0.0226974,0.0325394,0.0175858,-9.97986,0.0117874,-0.00816345,0.0150681,0.00732422,0.00640869,-0.0101089,0.0114441,-0.00377655
38,7,-9.99003,0.00213623,0,-2.42592,0.0547655,-0.0759786,0.0526021,0.0654772,-0.090705,0.145929,-0.125156,-0.0831808,0.0105667,0.0286484,0.0244904,0.014534,0.018959,0.0128937,0.0411987,0.0156403,-9.97986,0.00946045,-0.00305176,0.0135803,0.00831604,0.00411987,-0.00377655,0.0131607,0.000724792
38,8,-9.99003,0,0.0012207,-2.42592,0.0559862,-0.075063,0.0556539,0.0978258,-0.0867378,0.145929,-0.122715,-0.0819601,0.0192642,0.0305176,0.0225449,0.015564,0.0231552,0.0168991,0.0490952,0.00812531,-9.97986,0.00873566,-0.00530243,0.0114822,0.0136185,0.0233459,-0.0025177,0.0146103,0.000343323
38,9,-4.6403,0.000610352,0.00427246,-2.42745,0.0529344,-0.0759786,0.0544332,0.133837,-0.0876533,0.144098,-0.122104,-0.0844015,0.0292969,0.0279999,0.0231934,0.0137711,0.0195313,0.0159073,0.0507355,0.0175476,-9.97986,0.0149155,-0.000953674,0.0183487,0.0176239,0.0254059,-0.00274658,0.0177383,-0.00133514
39,0,2.79592,0.000305176,0.0050354,-2.42745,0.0538499,-0.0747579,0.0532125,0.155199,-0.0882636,0.142572,-0.120884,-0.0850118,0.0235367,0.0258255,0.0231171,0.00846863,0.0157928,0.0173569,0.0518417,0.0190735,-9.97986,0.0173187,-0.0043869,0.012207,0.022316,0.023613,-0.00205994,0.0146103,0.00217438
39,1,10.0097,0,0.00564575,-2.42959,0.0535448,-0.0765889,0.0522969,0.150011,-0.0910102,0.143182,-0.121799,-0.0862325,0.0279236,0.0285721,0.0217438,0.0143814,0.0169373,0.0183487,0.0559998,0.0183105,-9.97986,0.0186539,-0.00167847,0.0175476,0.025177,0.0300217,0.000495911,0.0182343,0.0018692
39,2,10.0097,0.000610352,0.00228882,-2.43172,0.0532396,-0.0762837,0.0501607,0.106066,-0.0974189,0.143487,-0.125461,-0.0886739,0.0205231,0.0262451,0.0205994,0.0149155,0.0180435,0.00907898,0.0516891,0.0136948,-9.97986,0.00541687,-0.00205994,0.0150681,0.0273895,0.027504,-0.00179291,0.0184631,-0.000495911
39,3,10.0097,0.000915527,0.00106812,-2.42959,0.0535448,-0.0759786,0.0538228,0.0828722,-0.0971137,0.142572,-0.127903,-0.0874532,0.00926971,0.0273895,0.0247955,0.0125122,0.0169373,0.0156784,0.0533676,0.0166702,-9.97986,-0.00522614,-0.00141144,0.0144196,0.0302124,0.0218201,0.0062561,0.0174332,0.000267029
39,4,10.0097,0.00152588,-0.000457764,-2.42837,0.0562914,-0.0753682,0.0516866,0.0764635,-0.0946723,0.145013,-0.125766,-0.0868429,0.00572205,0.0245667,0.0175476,0.0109863,0.0107574,0.0151443,0.0512314,0.0152588,-9.97986,-0.0169373,-0.000610352,0.0100327,0.0341415,0.0164795,0.00648499,0.0196075,-0.000114441
39,5,10.0097,0.000610352,0.000762939,-2.42837,0.0544603,-0.0741475,0.0522969,0.0731066,-0.0943672,0.144708,-0.126377,-0.085317,0.0220108,0.0290298,0.0247955,0.0149918,0.0149536,0.0137711,0.0538635,0.0162125,-9.97986,-0.0202179,-0.00465393,0.0107574,0.0370407,0.00984192,0.00640869,0.015564,-0.00335693
39,6,10.0097,0.00152588,0.000457764,-2.42653,0.0544603,-0.075063,0.0486348,0.072191,-0.0928413,0.145013,-0.126682,-0.0847066,0.0239944,0.0256348,0.0177002,0.016098,0.0133133,0.0168228,0.0572205,0.0223923,-9.97986,-0.0190735,-0.00713348,0.012207,0.0419998,0.0191116,0.00659943,0.018959,-0.00179291
39,7,10.0097,0.000610352,0.000457764,-2.42684,0.055681,-0.075063,0.0532125,0.0715807,-0.0931465,0.146234,-0.124851,-0.0840963,0.0235748,0.0245285,0.0214767,0.0112152,0.0111771,0.013237,0.0574493,0.0177765,-9.97986,-0.0121307,-0.00434875,0.01297,0.0435257,0.017662,0.000190735,0.0182343,-0.00171661
39,8,10.0097,-0.000305176,0,-2.42562,0.0575121,-0.0738423,0.0535176,0.0715807,-0.0913154,0.146234,-0.125461,-0.0822652,0.0190353,0.0232697,0.0205612,0.0114441,0.016098,0.0100327,0.0556946,0.0180435,-9.97986,0.00766754,-0.00675201,0.0139999,0.0436401,0.0208664,0.00389099,0.0202179,-0.00164032
39,9,10.0097,0.000915527,0.000305176,-2.42562,0.0559862,-0.0738423,0.0550435,0.072191,-0.0928413,0.147149,-0.123935,-0.0819601,0.00888824,0.0243759,0.0204086,0.0102997,0.0151062,0.0133896,0.047493,0.0195313,-9.97986,0.0265121,-0.00328064,0.0124359,0.0512314,0.0244141,0.0101089,0.0187302,0.00278473
40,0,10.0097,0.00183105,-0.000305176,-2.42562,0.055681,-0.0729268,0.0550435,0.0715807,-0.0922309,0.146234,-0.125156,-0.0810445,0.00549316,0.0275421,0.0193787,0.0148773,0.0151062,0.0104141,0.0496292,0.0234604,-9.97986,0.0346375,-0.0025177,0.0148773,0.0504303,0.0254059,0.0043869,0.0190353,0.00347137
40,1,10.0075,0.000610352,-0.0012207,-2.42592,0.0553758,-0.0744527,0.0522969,0.0279405,-0.0946723,0.145624,-0.127292,-0.0834859,0.0147247,0.0234604,0.021019,0.0117111,0.0165558,0.0122833,0.0497055,0.0167084,-9.97986,0.0499344,-0.00450134,0.0149918,0.0507736,0.02491,0.00392914,0.018158,0.00480652
40,2,1.82851,-0.0012207,-0.00473022,-2.42592,0.0569017,-0.0738423,0.0535176,-0.0141737,-0.0989448,0.146234,-0.130039,-0.0828756,0.0187302,0.022583,0.0179672,0.0113297,0.0156021,0.00774384,0.0499344,0.014534,-9.97986,0.0526047,-0.00305176,0.0140762,0.0477982,0.0255585,-0.000267029,0.0243378,0.00385284
40,3,-5.87962,0.000305176,-0.00518799,-2.42592,0.0575121,-0.0744527,0.0544332,-0.0178358,-0.0961982,0.145929,-0.130649,-0.0825704,0.0216293,0.0254822,0.020256,0.0144577,0.0170898,0.0112915,0.0457001,0.0211334,-9.97986,0.0486374,0.001297,0.0163651,0.0501251,0.0283432,-0.00408173,0.0219345,0.00534058
