
Devices
1200
,,BP Load cell - Voltage,String Length - Voltage,Clutch Active - Voltage,#7 iPecs - Voltage,,,,,,,,,EMG 1-8 Left - Voltage,,,,,,,,Pylon Force - Voltage,EMG 9-16 Right - Voltage,,,,,,,,
Frame,Sub Frame,BP Load Cell,String Length,From Arduino Logic,A45,A135,A225,A315,S0,S90,S180,S270,ZSum,EMG 1 Glut Max,EMG 2 Glut Med,EMG 3 Biceps Femoris Long,EMG 4 Rectus Femoris,EMG 5 Vastus Medialis,EMG 6 Tib Ant,EMG 7 Med Gas,EMG 8 Soleus,Pylon volts,EMG 9 Glut Max,EMG 10 Glut Med,EMG 11 Biceps Femoris Long,EMG 12 Rectus Femoris,EMG 13 Vastus Medialis,EMG 14 Tib Ant,EMG 15 Med Gas,EMG 16 Soleus
,,V,V,V,V,V,V,V,V,V,V,V,V,V,V,V,V,V,V,V,V,V,V,V,V,V,V,V,V,V
1,0,-9.99003,0.0012207,-0.000610352,-2.42592,0.0562914,-0.0744527,0.0556539,0.0593737,-0.0928413,0.146539,-0.126377,-0.0828756,0.0136948,0.0239563,0.0260925,0.00774384,0.0136185,0.0114441,0.0211334,0.0150299,-9.97986,0.0115967,-0.00328064,0.0107193,0.00602722,-0.0106049,-0.00663757,0.0151825,0.00667572
1,1,-9.99003,-0.000305176,0,-2.42653,0.0550706,-0.075063,0.054128,0.0639513,-0.0913154,0.145318,-0.125766,-0.0831808,0.0112915,0.0236511,0.0202179,0.0119781,0.0150299,0.00869751,0.0235748,0.0163269,-9.97986,0.0170135,0.00354767,0.0159073,0.00892639,-0.0101852,-0.00320435,0.0165939,0.00556946
1,2,-9.99003,0.000305176,0.00137329,-2.42501,0.0544603,-0.0744527,0.0562642,0.117052,-0.0852119,0.145624,-0.12241,-0.0825704,0.0117493,0.0220871,0.0120544,0.0101852,0.0163651,0.0087738,0.0230408,0.0193787,-9.97986,0.0165558,0.00267029,0.0185013,0.00667572,0.0112534,0.00190735,0.0180817,0.0043869
1,3,-2.8889,-0.000915527,0.0038147,-2.42714,0.0550706,-0.0753682,0.0550435,0.136278,-0.088874,0.144098,-0.12363,-0.0856222,0.0094986,0.0214767,0.00598907,0.0134659,0.0156021,0.0115967,0.0186539,0.0183868,-9.97986,0.0152969,0.00255585,0.0119781,0.00785828,0.0150299,0.0056839,0.0132751,0.00614166
1,4,4.32729,0.000915527,0.00488281,-2.42653,0.0541551,-0.0753682,0.054128,0.153368,-0.0891792,0.144098,-0.121799,-0.0856222,0.01297,0.0233459,0.0109482,0.0133896,0.0205231,0.0135803,0.0244522,0.0198364,-9.97986,0.0179672,-0.00423431,0.0139236,0.00434875,0.0144577,0.00526428,0.0145721,0.00518799
1,5,10.0097,-0.000610352,0.00442505,-2.42837,0.0532396,-0.0762837,0.0526021,0.148485,-0.0919257,0.143487,-0.122104,-0.0862325,0.0148392,0.0252914,0.0157547,0.00873566,0.0172043,0.0125885,0.0177383,0.0177002,-9.97986,0.0169754,-0.00457764,0.0124359,0.0069809,0.0164032,0.00904083,0.0125885,0.0063324
1,6,10.0097,0.000610352,0.00167847,-2.43142,0.0535448,-0.0771993,0.0504659,0.0990465,-0.0974189,0.141961,-0.125156,-0.0883688,0.0118637,0.0233841,0.0162506,0.00896454,0.0132751,0.00724792,0.0164032,0.0233459,-9.97986,0.0119019,-0.000953674,0.0108337,0.00476837,0.0153351,0.00835419,0.0130844,0.00411987
1,7,10.0097,0.000610352,0.000762939,-2.42867,0.0538499,-0.0759786,0.0510762,0.0810411,-0.0971137,0.144403,-0.126987,-0.0883688,0.0145721,0.0202179,0.0155258,0.01297,0.021019,0.0115967,0.0209808,0.018425,-9.97986,0.0189209,-0.00431061,0.0166321,0.00740051,0.0179672,0.00759125,0.0160217,0.00736237
1,8,10.0097,-0.000915527,0.000305176,-2.42867,0.0547655,-0.0765889,0.0529073,0.0752428,-0.0955879,0.143182,-0.126987,-0.0874532,0.00957489,0.0188065,0.0165558,0.0136948,0.0167084,0.0111771,0.0235748,0.018692,-9.97986,0.0139236,-0.000839233,0.0162888,0.00518799,0.0168991,0.00297546,0.0133133,0.00431061
1,9,10.0097,-0.0012207,0.000152588,-2.42776,0.0550706,-0.0753682,0.0532125,0.0728014,-0.094062,0.145318,-0.126987,-0.0865377,0.0106049,0.0206375,0.0146866,0.00797272,0.0170898,0.00911713,0.0253677,0.0181198,-9.97986,0.0167465,0.000457764,0.0120163,0.00583649,0.0135422,3.8147e-005,0.0156403,0.00541687
2,0,10.0097,0.000915527,0.000152588,-2.42776,0.0547655,-0.0753682,0.0529073,0.0709703,-0.0931465,0.144098,-0.125766,-0.0844015,0.0126648,0.020256,0.0185394,0.00743866,0.0170517,0.00812531,0.0192261,0.0225449,-9.97986,0.0159073,-0.00473022,0.0112152,0.00476837,0.0152969,-0.00423431,0.0117493,0.00534058
2,1,10.0097,-0.000610352,0,-2.42623,0.0559862,-0.0747579,0.054128,0.0706652,-0.0943672,0.145013,-0.124546,-0.0837911,0.00675201,0.0252151,0.0199509,0.0138092,0.0112915,0.0104141,0.0201416,0.0261307,-9.97986,0.0180435,-0.000762939,0.016098,0.00904083,0.0182343,-0.00717163,0.0125885,0.00507355
2,2,10.0097,0,0.000152588,-2.42653,0.0553758,-0.0744527,0.0547383,0.0731066,-0.0913154,0.145624,-0.125156,-0.0813497,0.010643,0.0207138,0.0189209,0.0120544,0.013237,0.00968933,0.019455,0.0284576,-9.97986,0.0140762,-0.0025177,0.0138474,0.00644684,0.0170898,-0.00511169,0.01297,0.00495911
2,3,10.0097,0,0.000305176,-2.42501,0.0559862,-0.075063,0.0535176,0.0712755,-0.0928413,0.145624,-0.124851,-0.0816549,0.0124359,0.0227737,0.0193024,0.0101471,0.0185394,0.00740051,0.0170135,0.0295258,-9.97986,0.0149918,-0.00038147,0.0127029,0.00858307,0.0189972,-0.00270844,0.0145721,0.00812531
2,4,10.0097,0.000915527,0,-2.42501,0.0550706,-0.0738423,0.0544332,0.065172,-0.0928413,0.146234,-0.123935,-0.0810445,0.00751495,0.0274658,0.016861,0.00980377,0.0199127,0.0112534,0.0207901,0.0295639,-9.97986,0.0123978,-0.000343323,0.0151443,0.0044632,0.0134277,-0.00530243,0.0134277,0.00518799
2,5,8.86708,0.000610352,-0.00244141,-2.42653,0.0565965,-0.0738423,0.0516866,0.0261095,-0.0961982,0.144708,-0.127598,-0.0831808,0.0126266,0.0225449,0.0209808,0.0130463,0.0146866,0.0087738,0.022049,0.0316238,-9.97986,0.017128,0.00106812,0.0128937,0.00843048,0.0155258,-0.00827789,0.014534,0.00453949
2,6,0.22481,-0.000915527,-0.00488281,-2.42623,0.0572069,-0.073232,0.0544332,-0.00684949,-0.0974189,0.147455,-0.129734,-0.0813497,0.0102234,0.0184631,0.016861,0.0138092,0.0198746,0.00740051,0.0181961,0.027504,-9.97986,0.0126266,0.0044632,0.010376,0.00682831,0.0178528,-0.00507355,0.0162125,0.00770569
2,7,-6.63493,0.00152588,-0.00457764,-2.42592,0.0559862,-0.0735371,0.0532125,-0.0144789,-0.0974189,0.146539,-0.130039,-0.0813497,0.0112915,0.0205994,0.0188828,0.00995636,0.0214767,0.0118637,0.021019,0.0244904,-9.97986,0.0120926,0.000801086,0.0105286,0.00709534,0.0196075,-0.0144196,0.0130844,0.0075531
2,8,-9.99003,0.000915527,-0.00366211,-2.42501,0.0562914,-0.0738423,0.055959,0.00810412,-0.094062,0.145929,-0.127598,-0.0807394,0.0111008,0.0222015,0.0180817,0.0136185,0.014801,0.00976563,0.0197601,0.0205231,-9.97986,0.0148392,-0.00377655,0.0140381,0.00968933,0.00835419,-0.00701904,0.0136185,0.00255585
2,9,-9.99003,0.000610352,-0.00198364,-2.42531,0.0569017,-0.0753682,0.0553487,0.0431993,-0.0913154,0.146234,-0.126987,-0.0804342,0.00751495,0.0222397,0.0195313,0.00812531,0.0183487,0.00873566,0.0218201,0.0160217,-9.97986,0.0128555,-0.00297546,0.0106049,0.00858307,-0.0117493,-0.00404358,0.0202942,0.00789642
3,0,-9.99003,-0.000610352,0,-2.4247,0.0553758,-0.0747579,0.0544332,0.0584581,-0.0913154,0.145013,-0.125766,-0.0834859,0.00907898,0.0199509,0.0198364,0.0140762,0.0200272,0.0117493,0.0213623,0.0101471,-9.97986,0.0102615,-0.0102997,0.00953674,0.00656128,-0.00812531,-0.00141144,0.0163651,0.00598907
3,1,-9.99003,0.00213623,-0.000610352,-2.42684,0.0553758,-0.075063,0.0538228,0.065172,-0.0922309,0.145929,-0.126072,-0.0828756,0.00953674,0.019989,0.0213623,0.0124741,0.0183487,0.00934601,0.0251389,0.00476837,-9.97986,0.0141525,-0.00400543,0.0162506,0.00915527,-0.00793457,-0.00556946,0.0150681,0.00865936
3,2,-9.99003,0.000305176,0.0012207,-2.42562,0.0553758,-0.0738423,0.0577901,0.117052,-0.0864326,0.145318,-0.121494,-0.0810445,0.00965118,0.0242996,0.0164032,0.0141144,0.0194168,0.00743866,0.022316,-0.00728607,-9.97986,0.0145721,0.000648499,0.0151062,0.00930786,0.0162125,-0.0037384,0.0150681,0.00854492
3,3,-3.20323,0.00274658,0.0038147,-2.42653,0.0544603,-0.0753682,0.0550435,0.140245,-0.0879585,0.144098,-0.121494,-0.0844015,0.0107956,0.0267029,0.0205612,0.0111008,0.0214386,0.00915527,0.0225449,-0.000495911,-9.97986,0.010643,-0.00335693,0.0149155,0.0111008,0.0157928,-0.00286102,0.0163269,0.00663757
3,4,4.45699,0.000915527,0.00488281,-2.42837,0.0526292,-0.0759786,0.054128,0.153673,-0.0891792,0.143792,-0.120578,-0.0850118,0.0130463,0.0311279,0.0170135,0.0135422,0.0166321,0.00988007,0.0216293,0.0094986,-9.97986,0.013237,-0.00377655,0.0175095,0.0102234,0.0168228,-0.00335693,0.0151443,0.0069809
3,5,10.0097,-0.000610352,0.0050354,-2.42837,0.0526292,-0.0759786,0.0532125,0.150621,-0.0910102,0.143792,-0.12241,-0.0865377,0.013504,0.0389481,0.0175858,0.0136566,0.0192642,0.00946045,0.021553,0.00972748,-9.97986,0.0137711,-0.00682831,0.0112534,0.00606537,0.0164795,-0.00350952,0.0162888,0.00267029
3,6,10.0097,0.00183105,0.00183105,-2.43081,0.0532396,-0.0753682,0.0492452,0.0987413,-0.0980293,0.142572,-0.125461,-0.0880636,0.0106812,0.0322723,0.0170517,0.0114441,0.0169754,0.00961304,0.0206757,0.0146103,-9.97986,0.0123215,-0.00141144,0.0140381,0.00999451,0.0184631,-0.0038147,0.0150299,0.00648499
3,7,10.0097,0.000915527,0.000762939,-2.42928,0.0541551,-0.0759786,0.0504659,0.0798204,-0.0977241,0.143792,-0.126072,-0.0877584,0.0135422,0.0244141,0.0199127,0.0114822,0.0200653,0.00759125,0.0181198,0.0138855,-9.97986,0.0148392,-0.00431061,0.0121689,0.00720978,0.0148392,-0.00457764,0.0137711,0.00526428
3,8,10.0097,0,0.000305176,-2.42806,0.0535448,-0.0756734,0.0513814,0.0752428,-0.095893,0.144098,-0.126377,-0.0871481,0.0130844,0.0242615,0.014534,0.0115967,0.0185776,0.0112915,0.0206757,0.0172043,-9.97986,0.0152206,-0.00259399,0.0139236,0.00534058,0.0183105,-0.00335693,0.0175476,0.00759125
3,9,10.0097,-0.000305176,0.000152588,-2.42776,0.0553758,-0.075063,0.0532125,0.0728014,-0.0946723,0.144098,-0.126682,-0.085317,0.00892639,0.0176239,0.0151825,0.00968933,0.019455,0.0088501,0.0204468,0.0135422,-9.97986,0.0169754,-0.00133514,0.00965118,0.00839233,0.0177002,-0.00576019,0.0174713,0.00411987
4,0,10.0097,0.00213623,0.000152588,-2.42714,0.0538499,-0.075063,0.0532125,0.0712755,-0.0925361,0.145624,-0.125461,-0.085317,0.0127411,0.0218964,0.0183868,0.0117111,0.015831,0.0075531,0.0198364,0.018692,-9.97986,0.0153732,-0.00160217,0.0120163,0.00507355,0.0165176,-0.00812531,0.0133133,0.00324249
4,1,10.0097,0.000915527,0.000457764,-2.42684,0.0544603,-0.0762837,0.0532125,0.0724962,-0.0934516,0.146539,-0.124546,-0.0840963,0.0110626,0.0202942,0.0162888,0.00999451,0.0157547,0.0130844,0.0201416,0.0175476,-9.97986,0.0170517,-0.000457764,0.00904083,0.0122452,0.0192261,-0.013237,0.0157166,0.00541687
4,2,10.0097,-0.000610352,0.000305176,-2.42562,0.0565965,-0.0744527,0.0553487,0.0715807,-0.0928413,0.147149,-0.124546,-0.0825704,0.00816345,0.0265884,0.0160217,0.0087738,0.0149536,0.00862122,0.0185394,0.0192642,-9.97986,0.019722,-0.00133514,0.0147629,0.00770569,0.0187683,-0.0178146,0.0153351,0.00526428
4,3,10.0097,0.000305176,0.000152588,-2.42562,0.0569017,-0.0738423,0.054128,0.0718859,-0.0916206,0.146844,-0.124241,-0.0819601,0.00968933,0.0279617,0.018425,0.01194,0.0213623,0.0122833,0.0253677,0.0203705,-9.97986,0.0139999,-0.00102997,0.013504,0.00572205,0.0170898,-0.0141525,0.0139999,0.00694275
4,4,10.0097,0.000610352,0.000457764,-2.42653,0.0559862,-0.0744527,0.054128,0.0666979,-0.0922309,0.146539,-0.124546,-0.0807394,0.00843048,0.0310516,0.0190353,0.0100708,0.0222397,0.00984192,0.0185013,0.0138474,-9.97986,0.0130081,0.000724792,0.0144577,0.00659943,0.0174713,-0.00442505,0.0197601,0.00785828
4,5,8.93422,0.000305176,-0.00228882,-2.42653,0.0559862,-0.0738423,0.0535176,0.0248888,-0.095893,0.146539,-0.126682,-0.0822652,0.00732422,0.0316238,0.0190735,0.0135803,0.022049,0.0138855,0.0217819,0.0147629,-9.97986,0.0139618,-0.000610352,0.0122833,0.00385284,0.0119781,-0.00282288,0.0131226,0.00495911
4,6,0.365191,0,-0.00488281,-2.42562,0.0569017,-0.0738423,0.0535176,-0.00745984,-0.0961982,0.146539,-0.130039,-0.0825704,0.013504,0.0318909,0.0198364,0.0118256,0.0148392,0.00778198,0.0220108,0.0129318,-9.97986,0.0177765,-0.000190735,0.0145721,0.00751495,0.0178909,0.0075531,0.0174332,0.00679016
4,7,-6.63951,0,-0.00473022,-2.42623,0.0569017,-0.0738423,0.0544332,-0.0147841,-0.0955879,0.146234,-0.128208,-0.0813497,0.0113297,0.0265503,0.0182343,0.00968933,0.0185394,0.0117111,0.0227356,0.0116348,-9.97986,0.0141907,-0.00331879,0.0117874,0.00350952,0.0159836,0.00930786,0.0147247,0.00419617
4,8,-9.99003,0.000610352,-0.00305176,-2.42501,0.0572069,-0.073232,0.0553487,0.00810412,-0.0916206,0.145624,-0.128818,-0.0810445,0.0087738,0.0399017,0.0212097,0.0138092,0.0174332,0.0128555,0.0231171,0.0200272,-9.97986,0.0139236,-0.00270844,0.0129318,0.00873566,0.0115204,0.0163269,0.0182343,0.00644684
4,9,-9.99003,0.000305176,-0.00213623,-2.4244,0.0575121,-0.0744527,0.055959,0.0453356,-0.0903999,0.146234,-0.127903,-0.0810445,0.0119019,0.0194168,0.0189972,0.0120163,0.0143433,0.0103378,0.0210571,0.0202942,-9.97986,0.0155258,-0.00160217,0.0138092,0.0063324,-0.00789642,0.0130844,0.0173187,0.00576019
5,0,-9.99003,0.0012207,0.000152588,-2.42592,0.055681,-0.0747579,0.0547383,0.0578478,-0.0903999,0.144403,-0.126072,-0.0819601,0.0136948,0.00766754,0.0164795,0.011673,0.0195313,0.0128937,0.0239563,0.0180435,-9.97986,0.0176239,-0.00209808,0.011673,0.00499725,-0.00980377,0.00579834,0.0157928,0.00614166
5,1,-9.99003,0.000305176,-0.00106812,-2.42714,0.0550706,-0.075063,0.0532125,0.0642565,-0.0928413,0.144403,-0.125766,-0.0837911,0.00907898,0.0189972,0.0150299,0.0118256,0.0205231,0.0106049,0.0216675,0.0190735,-9.97986,0.0183487,0.000762939,0.014267,0.00675201,-0.00831604,0.00453949,0.021019,0.0037384
5,2,-9.99003,0.000915527,0.00137329,-2.42562,0.0553758,-0.0747579,0.0568746,0.115221,-0.0861274,0.146539,-0.123325,-0.0825704,0.00934601,0.0196838,0.0167084,0.00988007,0.0175476,0.0104904,0.022583,0.0168228,-9.97986,0.0128555,-0.00411987,0.014534,0.0056076,0.018692,-0.00038147,0.0180435,0.00972748
5,3,-3.31859,0.00213623,0.00320435,-2.42714,0.0541551,-0.0756734,0.055959,0.13994,-0.0879585,0.144098,-0.121494,-0.0834859,0.011673,0.02388,0.0162125,0.012207,0.0213623,0.00785828,0.0226974,0.0157547,-9.97986,0.0124359,-0.00312805,0.0152588,0.00782013,0.0171661,-0.00236511,0.0161743,0.0100327
5,4,4.33095,0.000305176,0.00442505,-2.42867,0.0535448,-0.0762837,0.0532125,0.153368,-0.0891792,0.143792,-0.121189,-0.0847066,0.0106049,0.0260925,0.0185013,0.0123596,0.0202179,0.0130844,0.0242233,0.0195694,-9.97986,0.0139236,-0.000915527,0.0150299,0.00476837,0.0157928,-0.00797272,0.0154495,0.00522614
5,5,10.0097,0.000915527,0.0050354,-2.42867,0.0529344,-0.0756734,0.0538228,0.149095,-0.0916206,0.143487,-0.122104,-0.0871481,0.0120926,0.0226212,0.0226974,0.0105286,0.0216293,0.0103378,0.0241852,0.0170898,-9.97986,0.0151062,-0.00171661,0.0199509,0.00656128,0.0183105,-0.00675201,0.0181961,0.00656128
5,6,10.0097,0.000305176,0.000762939,-2.4302,0.0535448,-0.0768941,0.0504659,0.0990465,-0.0961982,0.142877,-0.126072,-0.0886739,0.00843048,0.027504,0.0204849,0.00957489,0.0175476,0.0113678,0.0218582,0.0224686,-9.97986,0.0157547,-0.00293732,0.0136566,0.0094223,0.0142288,-0.0143051,0.0160599,0.0043869
5,7,10.0097,-0.00213623,0.000152588,-2.4305,0.0538499,-0.0759786,0.0513814,0.0813463,-0.0968086,0.143487,-0.126987,-0.0877584,0.0112534,0.0315094,0.0205231,0.0107193,0.0178528,0.0100708,0.0269318,0.0201797,-9.97986,0.0131607,-0.00534058,0.0159454,0.00770569,0.0156403,-0.00671387,0.0154114,0.00770569
5,8,10.0097,-0.00152588,0,-2.42806,0.0535448,-0.0768941,0.0522969,0.0752428,-0.0949775,0.144708,-0.126377,-0.0868429,0.00961304,0.0270462,0.0242615,0.0137329,0.0201035,0.011673,0.0252533,0.0227737,-9.97986,0.0166321,-0.00297546,0.0177002,0.00972748,0.0128174,-0.000991821,0.0157166,0.00484467
5,9,10.0097,0.0012207,0.000152588,-2.42806,0.0550706,-0.0765889,0.0519917,0.0734117,-0.0946723,0.144708,-0.126682,-0.0850118,0.00858307,0.0244904,0.0199127,0.0105286,0.0128937,0.00953674,0.0211716,0.0233459,-9.97986,0.0134277,-0.00354767,0.013504,0.00740051,0.0185394,-0.000305176,0.0149155,0.00743866
6,0,10.0097,0.000610352,0.000305176,-2.42684,0.0562914,-0.0741475,0.0526021,0.0715807,-0.0931465,0.144098,-0.126072,-0.0856222,0.00862122,0.0265503,0.0169373,0.0113678,0.0174332,0.0110245,0.0268173,0.019455,-9.97986,0.0186157,-0.00320435,0.0138474,0.00606537,0.0172043,0.001297,0.0147247,0.00904083
6,1,10.0097,0.000610352,0.000457764,-2.42653,0.0550706,-0.0747579,0.0529073,0.0709703,-0.0937568,0.144708,-0.126377,-0.0840963,0.0087738,0.0243759,0.0191879,0.00713348,0.0138092,0.00965118,0.0250244,0.0289536,-9.97986,0.0151825,-0.00354767,0.0159454,0.00865936,0.0154114,0.000152588,0.0188446,0.00274658
6,2,10.0097,0,0.000152588,-2.42592,0.0569017,-0.0735371,0.0529073,0.0712755,-0.0931465,0.146539,-0.125156,-0.0822652,0.00919342,0.0164032,0.022583,0.00831604,0.0212479,0.0108337,0.0199509,0.0279999,-9.97986,0.0112152,-0.00167847,0.0175476,0.00247955,0.0176239,0.000228882,0.0157166,0.0043869
6,3,10.0097,0,0.000915527,-2.42531,0.055681,-0.0744527,0.055959,0.0715807,-0.0913154,0.14776,-0.12363,-0.0816549,0.01297,0.0158691,0.0206757,0.0125122,0.0183105,0.0124741,0.0218582,0.0240707,-9.97986,0.017128,-0.00148773,0.0133896,0.00720978,0.0191498,0.0019455,0.0160217,0.00522614
6,4,10.0097,0,0.000457764,-2.42592,0.0559862,-0.0747579,0.0544332,0.0679186,-0.0919257,0.145624,-0.124546,-0.0816549,0.014267,0.0187302,0.0181961,0.00671387,0.016098,0.013504,0.0244904,0.0242615,-9.97986,0.0137329,-0.00328064,0.015831,0.00610352,0.0136566,-0.00278473,0.0151443,0.00957489
6,5,9.07796,0.000305176,-0.00183105,-2.42623,0.0562914,-0.0744527,0.0535176,0.0273302,-0.0971137,0.147455,-0.127598,-0.0822652,0.0132751,0.0176239,0.0196838,0.0110626,0.0180435,0.012207,0.0269318,0.0239944,-9.97986,0.0166702,-0.00205994,0.0134659,0.00686646,0.0152969,-0.00911713,0.0162506,0.00724792
6,6,0.386858,0.00305176,-0.00473022,-2.42562,0.0565965,-0.073232,0.0526021,-0.00868054,-0.0968086,0.147149,-0.128818,-0.0825704,0.0102997,0.0197983,0.0174713,0.0121307,0.0160217,0.00846863,0.024147,0.0216675,-9.97986,0.0154495,-0.0043869,0.0128174,0.00144958,0.0184631,-0.00736237,0.0133896,0.00904083
6,7,-6.52934,0.000915527,-0.00518799,-2.42531,0.0565965,-0.0726216,0.0550435,-0.0138685,-0.0961982,0.146539,-0.130039,-0.0822652,0.0114059,0.0199509,0.0200653,0.014534,0.017662,0.0130844,0.0217056,0.0183105,-9.97986,0.0138855,-0.00213623,0.0123978,0.0025177,0.0161743,-0.00614166,0.0185776,0.00961304
6,8,-9.99003,0.0012207,-0.00335693,-2.42409,0.0559862,-0.0735371,0.0556539,0.00871447,-0.0922309,0.145929,-0.129123,-0.0810445,0.00839233,0.0216293,0.0173187,0.0108719,0.0161362,0.0119781,0.0273132,0.018692,-9.97986,0.0170517,-0.000457764,0.0193405,0.00751495,0.0164032,-0.000228882,0.0185394,0.00431061
6,9,-9.99003,0.00305176,-0.00167847,-2.4244,0.055681,-0.0747579,0.0565694,0.0438097,-0.0897895,0.145929,-0.126072,-0.0810445,0.00812531,0.0192261,0.0167847,0.00934601,0.0138474,0.0112915,0.0251007,0.0122452,-9.97986,0.0131607,-0.00087738,0.0122833,0.00404358,-0.00862122,-0.000610352,0.0159073,0.00549316
7,0,-9.99003,-0.000305176,-0.000915527,-2.42562,0.0550706,-0.0747579,0.0547383,0.0590685,-0.0919257,0.146234,-0.125766,-0.0819601,0.0110245,0.0138855,0.0210571,0.0115204,0.0139236,0.00907898,0.0230026,0.00804901,-9.97986,0.0169754,0.00148773,0.0139618,0.0056076,-0.00869751,0.00171661,0.0158691,0.00526428
7,1,-9.99003,0.000610352,0,-2.42562,0.0541551,-0.075063,0.054128,0.0645616,-0.090705,0.144708,-0.126072,-0.0828756,0.0113297,0.0156784,0.0181961,0.0102234,0.0183868,0.00930786,0.0212097,0.00484467,-9.97986,0.0153732,0.00354767,0.0127792,0.00492096,-0.00736237,0.00461578,0.0164795,0.00663757
7,2,-9.99003,-0.000305176,0.000610352,-2.42531,0.0550706,-0.075063,0.0565694,0.116136,-0.0873481,0.146234,-0.12302,-0.0825704,0.00804901,0.0159073,0.0205994,0.0115204,0.0167465,0.013504,0.0193405,0.00995636,-9.97986,0.012207,-0.00228882,0.0130463,0.00556946,0.0170517,0.00247955,0.0170135,0.00469208
7,3,-2.70518,0.00152588,0.00427246,-2.42776,0.0538499,-0.0747579,0.0547383,0.136583,-0.0882636,0.144403,-0.122715,-0.0850118,0.0115204,0.0206375,0.0175858,0.00965118,0.0170517,0.00934601,0.0214386,0.0132751,-9.97986,0.0138474,-0.00144958,0.0154495,0.0025177,0.0226212,3.8147e-005,0.0163269,0.00694275
7,4,4.50765,-0.000610352,0.00396729,-2.42867,0.0535448,-0.0756734,0.0547383,0.155809,-0.0897895,0.143487,-0.120578,-0.0847066,0.00782013,0.0217819,0.0221252,0.0102615,0.0150681,0.00675201,0.0233459,0.00980377,-9.97986,0.0102615,-0.000534058,0.0126648,0.00396729,0.017395,-0.0105286,0.0164032,0.00362396
7,5,10.0097,0.0012207,0.00457764,-2.42928,0.0541551,-0.0762837,0.0522969,0.147875,-0.0913154,0.142267,-0.122715,-0.0862325,0.0104904,0.0232697,0.0159836,0.0131607,0.0187683,0.0114441,0.0271988,0.0159454,-9.97986,0.0188446,0.00133514,0.0139618,0.00473022,0.0177002,-0.0103378,0.0156021,0.00476837
7,6,10.0097,0.000610352,0.00183105,-2.43081,0.0529344,-0.0759786,0.050771,0.0984362,-0.0968086,0.142572,-0.126987,-0.0886739,0.0109482,0.0227356,0.0208664,0.0133896,0.0162506,0.0118637,0.0182724,0.0114059,-9.97986,0.0170898,-0.00431061,0.0121307,0.00556946,0.0182724,-0.00720978,0.017395,0.00652313
7,7,10.0097,0.0012207,-0.000152588,-2.4302,0.0532396,-0.0762837,0.0513814,0.0816515,-0.0965034,0.143182,-0.126072,-0.0883688,0.00740051,0.0215912,0.021286,0.0119019,0.0153732,0.0143433,0.0221634,0.0206757,-9.97986,0.0180817,-0.00289917,0.0127029,0.00362396,0.0160217,-0.00259399,0.0135803,0.00526428
7,8,10.0097,0.000915527,0,-2.42898,0.0535448,-0.075063,0.0522969,0.075548,-0.0949775,0.144098,-0.126987,-0.0865377,0.010376,0.0189209,0.0191116,0.00835419,0.0165176,0.0107574,0.0230408,0.0131607,-9.97986,0.0112152,-0.000953674,0.0154495,0.00907898,0.017395,0.00312805,0.012207,0.00724792
7,9,10.0097,0,-0.000457764,-2.42776,0.0550706,-0.0753682,0.0522969,0.0715807,-0.0949775,0.144098,-0.127598,-0.0856222,0.0102234,0.0218964,0.0195694,0.0131226,0.0154495,0.00900269,0.0181198,0.0216293,-9.97986,0.01297,-0.00392914,0.0127029,0.00370026,0.0178909,-0.000419617,0.0172806,0.00984192
8,0,10.0097,0.000915527,-0.000152588,-2.42714,0.0547655,-0.0753682,0.0519917,0.0712755,-0.0949775,0.145013,-0.126072,-0.0840963,0.0104141,0.0191879,0.0160217,0.00843048,0.0166321,0.0126266,0.0248337,0.0188065,-9.97986,0.018425,0.00179291,0.0122833,-0.000991821,0.0183487,0.00812531,0.0173187,0.00537872
8,1,10.0097,0.000610352,0.000762939,-2.42745,0.055681,-0.0747579,0.0532125,0.0709703,-0.0928413,0.145013,-0.127292,-0.0844015,0.0113678,0.0243759,0.0191879,0.012207,0.016098,0.00976563,0.022049,0.0156021,-9.97986,0.0161362,-0.00228882,0.0123215,0.00602722,0.019989,0.0109863,0.0151443,0.00640869
8,2,10.0097,0.000610352,0.000152588,-2.42623,0.0547655,-0.0735371,0.0535176,0.0718859,-0.0928413,0.146234,-0.124851,-0.0822652,0.0113297,0.0217819,0.0192261,0.012207,0.0177765,0.00766754,0.0274658,0.0183868,-9.97986,0.0199127,-0.00362396,0.0152588,0.00434875,0.0173187,0.00782013,0.0183868,0.00843048
8,3,10.0097,-0.000610352,0.000305176,-2.42531,0.0562914,-0.0744527,0.0535176,0.0709703,-0.0916206,0.146844,-0.123935,-0.0813497,0.0112915,0.0248718,0.0189209,0.0129318,0.0150299,0.010376,0.0209808,0.0157166,-9.97986,0.0126648,-0.00659943,0.0128937,0.00637054,0.0145721,0.00221252,0.0156784,0.00343323
8,4,10.0097,0.0012207,0.000152588,-2.4247,0.0553758,-0.0738423,0.0544332,0.0663927,-0.0922309,0.147149,-0.124241,-0.0816549,0.0113678,0.0218201,0.0226974,0.0112534,0.0175476,0.0126648,0.0195694,0.0195694,-9.97986,0.0157928,-0.00240326,0.0165176,0.00621796,0.0185776,0.00167847,0.017662,0.00648499
8,5,8.9446,0.000915527,-0.00289917,-2.42562,0.0575121,-0.0741475,0.0538228,0.0267198,-0.0974189,0.146539,-0.127903,-0.0825704,0.0133133,0.0247955,0.0205231,0.00953674,0.0165176,0.00617981,0.0192642,0.0138855,-9.97986,0.0180054,-0.00488281,0.00774384,0.00617981,0.0193024,-0.00213623,0.0196457,0.00629425
8,6,0.371599,0.00183105,-0.00442505,-2.42501,0.0569017,-0.0738423,0.0529073,-0.00807019,-0.0974189,0.146844,-0.129429,-0.0822652,0.0109863,0.0257874,0.0217438,0.00839233,0.0135422,0.010643,0.0197983,0.0177383,-9.97986,0.0172806,-0.00564575,0.0133896,0.00705719,0.0183868,-0.00270844,0.0178528,0.00904083
8,7,-6.61235,0,-0.00518799,-2.42531,0.0572069,-0.0735371,0.0547383,-0.0126478,-0.0955879,0.14837,-0.130344,-0.0822652,0.0101089,0.0265884,0.0179291,0.0094986,0.0111008,0.0123596,0.0189209,0.0168228,-9.97986,0.0150299,-0.000457764,0.0153351,0.00652313,0.0208282,-0.0037384,0.0162506,0.00682831
8,8,-9.99003,-0.000915527,-0.00335693,-2.4247,0.0575121,-0.0735371,0.0556539,0.0084093,-0.0931465,0.146844,-0.130039,-0.0816549,0.0117874,0.0230026,0.0225449,0.00713348,0.0154495,0.0082016,0.0212479,0.0146866,-9.97986,0.0167084,0.00087738,0.0171661,0.00843048,0.0101852,-0.00473022,0.0131989,0.00469208
8,9,-9.99003,0.000915527,-0.00137329,-2.42409,0.0562914,-0.073232,0.0562642,0.0438097,-0.0897895,0.145929,-0.126377,-0.0816549,0.0115585,0.0253677,0.0193787,0.014534,0.0172043,0.0115204,0.0244522,0.0196838,-9.97986,0.0149918,0.000686646,0.0151062,0.00747681,-0.0050354,-0.00274658,0.0185013,0.00854492
9,0,-9.99003,-0.000305176,-0.00106812,-2.42623,0.0553758,-0.075063,0.0553487,0.0584581,-0.090705,0.146539,-0.126377,-0.0828756,0.0146103,0.0265503,0.0150299,0.00946045,0.0156784,0.00843048,0.0223541,0.0168228,-9.97986,0.0127792,0.00144958,0.0145721,0.00713348,-0.00553131,-0.00637054,0.0151062,0.00705719
9,1,-9.99003,-0.000610352,0.000610352,-2.42653,0.0544603,-0.075063,0.0535176,0.0633409,-0.0910102,0.144708,-0.126987,-0.0831808,0.0123596,0.0285721,0.02491,0.0126648,0.0241089,0.0088501,0.0289536,0.021019,-9.97986,0.0184631,-0.00236511,0.0156021,0.00843048,-0.00305176,-0.00724792,0.0146103,0.0105667
9,2,-9.99003,0.00183105,0.00152588,-2.4244,0.055681,-0.0738423,0.0577901,0.115221,-0.0870429,0.143792,-0.122715,-0.0822652,0.00896454,0.0259018,0.00934601,0.00740051,0.0145721,0.00694275,0.0193787,0.0170898,-9.97986,0.0111389,0.00038147,0.0139618,0.00267029,0.0185394,-0.0124359,0.0133133,0.00778198
9,3,-3.42631,0,0.00305176,-2.42776,0.0538499,-0.0762837,0.0556539,0.138109,-0.0885688,0.144708,-0.121799,-0.0850118,0.00892639,0.0255966,0.0193024,0.0112534,0.019722,0.0108719,0.0226593,0.0149155,-9.97986,0.014534,-0.00183105,0.00984192,0.00457764,0.018158,-0.01091,0.0137329,0.00591278
9,4,4.21865,0.000305176,0.00411987,-2.42745,0.0538499,-0.0753682,0.0529073,0.153673,-0.0879585,0.144403,-0.120578,-0.0844015,0.0127029,0.0259781,0.0229263,0.0133133,0.0210953,0.0119781,0.0209427,0.0186157,-9.97986,0.0153732,0.00350952,0.0186157,0.00385284,0.0207138,-0.0121689,0.0162506,0.00682831
9,5,10.0097,-0.000305176,0.00442505,-2.4305,0.0526292,-0.0759786,0.0522969,0.147569,-0.0910102,0.143792,-0.121494,-0.0868429,0.0125504,0.0204849,0.0180435,0.0115585,0.0179672,0.0100708,0.0242996,0.020256,-9.97986,0.0177002,7.62939e-005,0.0156403,0.00385284,0.0165939,-0.0101471,0.0141907,0.00801086
9,6,10.0097,-0.000305176,0.00167847,-2.42989,0.0547655,-0.0768941,0.0513814,0.0990465,-0.0971137,0.142572,-0.124851,-0.0883688,0.0100327,0.0270844,0.0206375,0.0119781,0.0173569,0.0111008,0.0209808,0.0164032,-9.97986,0.0128174,-0.00461578,0.014801,0.00331879,0.0192261,-0.00476837,0.0138092,0.00579834
9,7,10.0097,0,0.000610352,-2.42928,0.0532396,-0.0756734,0.0516866,0.0813463,-0.0971137,0.142877,-0.126682,-0.0877584,0.0149536,0.0231171,0.0242615,0.012207,0.0171661,0.00934601,0.0216675,0.0181198,-9.97986,0.0170135,0.00179291,0.0126648,0.00610352,0.0217438,-0.00324249,0.0135422,0.0069046
9,8,10.0097,-0.000305176,0.000152588,-2.42837,0.0544603,-0.0753682,0.0516866,0.075548,-0.0955879,0.144403,-0.125766,-0.0856222,0.0119781,0.0234222,0.019455,0.0133133,0.0159836,0.0050354,0.0238037,0.0204086,-9.97986,0.0186539,0.00144958,0.0147629,0.00724792,0.0186157,-0.00427246,0.0144958,0.00743866
9,9,10.0097,0,0.000305176,-2.42684,0.0559862,-0.0768941,0.0532125,0.072191,-0.094062,0.145013,-0.126072,-0.0847066,0.00930786,0.0313187,0.0196838,0.0146866,0.01297,0.0112534,0.0244522,0.0201797,-9.97986,0.0167847,-0.00404358,0.0172806,0.00244141,0.0185013,0.00148773,0.0165176,0.00610352
10,0,10.0097,-0.000305176,0.000305176,-2.42653,0.0547655,-0.0753682,0.0535176,0.072191,-0.094062,0.145318,-0.125766,-0.0850118,0.0109863,0.0232697,0.0191498,0.0106049,0.0177002,0.0138092,0.0219727,0.0194931,-9.97986,0.0155258,0.00167847,0.016098,0.00835419,0.0191498,0.00488281,0.0157928,0.00484467
10,1,10.0097,0.00152588,0.000152588,-2.42806,0.055681,-0.0741475,0.0526021,0.0709703,-0.094062,0.144708,-0.125766,-0.0847066,0.00972748,0.0268936,0.0197601,0.00888824,0.0188828,0.00759125,0.0214386,0.0156403,-9.97986,0.0162125,0.00125885,0.0178146,0.00709534,0.0171661,0.0043869,0.0141525,0.00362396
10,2,10.0097,-0.000305176,0.000305176,-2.42592,0.0562914,-0.073232,0.0547383,0.072191,-0.0913154,0.145318,-0.125461,-0.0822652,0.0104141,0.0296402,0.0157166,0.0110626,0.0182343,0.0100327,0.0224686,0.0180435,-9.97986,0.0140762,-0.0012207,0.0150299,0.0044632,0.0180054,0.00747681,0.0159073,0.00457764
10,3,10.0097,0.000610352,0.000457764,-2.42501,0.0575121,-0.0735371,0.0550435,0.0718859,-0.0916206,0.147149,-0.124546,-0.0813497,0.0119781,0.0234222,0.0169754,0.0100708,0.0144958,0.00450134,0.0191879,0.0197601,-9.97986,0.014801,-0.000457764,0.0178146,0.00511169,0.017662,0.00621796,0.0168991,0.00839233
10,4,10.0097,0.000610352,-0.000305176,-2.42531,0.055681,-0.0753682,0.0550435,0.0676134,-0.0919257,0.146844,-0.124851,-0.0816549,0.0102997,0.0226593,0.0182343,0.0142288,0.0173569,0.0112915,0.0259018,0.0189972,-9.97986,0.0169754,0,0.0162125,0.00541687,0.0177002,0.00289917,0.0135803,0.00732422
10,5,9.00716,0.0012207,-0.00183105,-2.42714,0.0559862,-0.0735371,0.0522969,0.027025,-0.0961982,0.145929,-0.127903,-0.0831808,0.00915527,0.0206757,0.015831,0.0115204,0.0162888,0.00961304,0.0195694,0.0209427,-9.97986,0.0135803,-0.00404358,0.0180435,0.00640869,0.0191116,0.00152588,0.0179291,0.00881195
10,6,0.470171,-0.0012207,-0.00442505,-2.42653,0.0575121,-0.0741475,0.0516866,-0.00868054,-0.0971137,0.146234,-0.130039,-0.0816549,0.0104904,0.0194931,0.0191498,0.0117874,0.0154495,0.00892639,0.025444,0.0213242,-9.97986,0.0136566,-0.00148773,0.0128555,0.00663757,0.0159454,0.000267029,0.0150299,0.00831604
10,7,-6.48356,0.000305176,-0.00442505,-2.42501,0.0562914,-0.0738423,0.054128,-0.0141737,-0.0943672,0.146539,-0.129734,-0.0816549,0.0113297,0.0231934,0.0194168,0.0113678,0.0146484,0.0132751,0.0223541,0.0203323,-9.97986,0.0127029,-0.00576019,0.0149155,0.00659943,0.0149155,0.001297,0.0168991,0.0101089
10,8,-9.99003,0.00152588,-0.00335693,-2.4244,0.0562914,-0.0744527,0.0556539,0.00749377,-0.0922309,0.147455,-0.129123,-0.0810445,0.0125122,0.0228882,0.0217438,0.00946045,0.0166702,0.00907898,0.0182724,0.018425,-9.97986,0.015564,-0.000686646,0.0181961,0.00679016,0.0100708,-0.00202179,0.0159454,0.0082016
10,9,-9.99003,0.000915527,-0.00152588,-2.4244,0.0565965,-0.0738423,0.0562642,0.04442,-0.0903999,0.145624,-0.126072,-0.0804342,0.0094986,0.0242996,0.0165176,0.00888824,0.0150299,0.00812531,0.0180435,0.0168228,-9.97986,0.0157547,-0.000457764,0.0167084,0.00617981,-0.00865936,0.00305176,0.0141525,0.00659943
11,0,-9.99003,0,-0.000610352,-2.42531,0.0547655,-0.0738423,0.0556539,0.0572374,-0.0919257,0.146234,-0.126377,-0.0825704,0.0116348,0.0215149,0.0181961,0.0128555,0.0218201,0.01091,0.0205231,0.0141907,-9.97986,0.0180054,-0.0019455,0.0162125,0.00385284,-0.0103378,0.00740051,0.0122452,0.00873566
11,1,-9.99003,-0.000915527,-0.000457764,-2.42653,0.0553758,-0.0747579,0.0550435,0.0627306,-0.0925361,0.145318,-0.126072,-0.0831808,0.0115204,0.0265121,0.0204086,0.0139999,0.0164795,0.00923157,0.0217438,0.0180435,-9.97986,0.0165176,-0.00141144,0.016098,0.00682831,-0.00946045,0.00202179,0.0164795,0.00740051
11,2,-9.99003,0.000610352,0.000915527,-2.42501,0.055681,-0.0735371,0.0568746,0.114,-0.0852119,0.145624,-0.12241,-0.0822652,0.00957489,0.0218201,0.0167847,0.0107574,0.0189209,0.00736237,0.0234604,0.0175095,-9.97986,0.0150681,-0.00335693,0.0111008,0.00343323,0.0132751,-0.00179291,0.0132751,0.00289917
11,3,-3.45592,-0.000305176,0.00335693,-2.42837,0.0535448,-0.0744527,0.054128,0.139635,-0.088874,0.145318,-0.12302,-0.0844015,0.0125122,0.0307465,0.0210571,0.0152206,0.0196457,0.00865936,0.0226212,0.0183487,-9.97986,0.017662,-0.000839233,0.0119781,0.00896454,0.0187683,0.00137329,0.0156784,0.00823975
11,4,4.16616,0.000305176,0.00473022,-2.42776,0.0535448,-0.0762837,0.0532125,0.155199,-0.0885688,0.145318,-0.121494,-0.0837911,0.0112915,0.0337601,0.015831,0.0145721,0.0164413,0.00869751,0.017662,0.0170135,-9.97986,0.012207,-0.000152588,0.0142288,0.00610352,0.0162125,-0.00297546,0.0144958,0.00759125
11,5,10.0097,0.000915527,0.0038147,-2.42867,0.0532396,-0.0759786,0.0526021,0.147569,-0.0913154,0.143792,-0.121799,-0.0865377,0.00900269,0.0330734,0.0188828,0.0152969,0.0214767,0.0125122,0.0233841,0.0192261,-9.97986,0.0129318,0.000419617,0.0135803,0.00400543,0.0114441,-0.00610352,0.0166321,0.00720978
11,6,10.0097,0.000305176,0.00167847,-2.42959,0.0538499,-0.0762837,0.0495503,0.100267,-0.0974189,0.143182,-0.125156,-0.0880636,0.0135803,0.0292587,0.0143433,0.0147247,0.016861,0.00988007,0.0195313,0.0180817,-9.97986,0.00995636,0.00293732,0.0143814,0.00549316,0.0167465,-0.00923157,0.0182724,0.00911713
11,7,10.0097,0,0.000457764,-2.4302,0.0550706,-0.0768941,0.050771,0.0813463,-0.0968086,0.143792,-0.127292,-0.0886739,0.0143433,0.0269318,0.0169373,0.0157547,0.0170135,0.0134659,0.020752,0.019989,-9.97986,0.0128555,0.00137329,0.0141907,0.00511169,0.014267,-0.00751495,0.017662,0.00980377
11,8,10.0097,-0.000610352,-0.000305176,-2.42837,0.0532396,-0.075063,0.0516866,0.0746324,-0.0949775,0.143487,-0.126987,-0.0868429,0.0151825,0.0265121,0.0141525,0.0104523,0.016861,0.0101852,0.0226593,0.0202179,-9.97986,0.0143051,-0.0050354,0.0147247,0.00728607,0.0169754,-0.00991821,0.0144577,0.00526428
11,9,10.0097,-0.000915527,-0.000305176,-2.42837,0.0547655,-0.075063,0.0519917,0.0737169,-0.0931465,0.145013,-0.126682,-0.085317,0.0116348,0.0251389,0.0191879,0.012207,0.017662,0.00728607,0.0202179,0.0206375,-9.97986,0.016098,-0.00282288,0.0169373,0.00236511,0.0193405,-0.00583649,0.0172424,0.00747681
12,0,10.0097,0.000915527,0.000305176,-2.42684,0.0550706,-0.0744527,0.0529073,0.0709703,-0.0937568,0.145318,-0.125766,-0.0847066,0.0127029,0.0279999,0.0183487,0.0109863,0.0199509,0.0119781,0.0215912,0.0154495,-9.97986,0.0151062,0.00038147,0.0138855,0.00507355,0.0135422,-0.00274658,0.0126648,0.0043869
12,1,10.0097,0.000610352,0.000152588,-2.42684,0.0550706,-0.0747579,0.0532125,0.0715807,-0.0931465,0.145624,-0.125766,-0.0847066,0.0140762,0.0247574,0.020752,0.0138855,0.0196075,0.0135803,0.0212479,0.0165939,-9.97986,0.0155258,-0.00190735,0.0159454,0.00926971,0.0177765,0.00167847,0.0190735,0.00648499
12,2,10.0097,0.000915527,0,-2.4247,0.0562914,-0.0741475,0.054128,0.0709703,-0.0931465,0.145929,-0.125766,-0.0822652,0.0131989,0.0251007,0.0197983,0.0185776,0.020256,0.0112534,0.0233459,0.0160599,-9.97986,0.0136185,-0.00354767,0.0141144,0.00579834,0.0162125,-0.00137329,0.0186157,0.00904083
12,3,10.0097,0.000915527,0,-2.4244,0.0553758,-0.0744527,0.0547383,0.0718859,-0.0916206,0.145318,-0.124546,-0.0816549,0.00976563,0.0291443,0.0168991,0.0134277,0.0175476,0.00785828,0.0251007,0.0149918,-9.97986,0.0199127,-0.00038147,0.016098,0.00930786,0.016861,-0.00221252,0.0177383,0.00900269
12,4,10.0097,0.000915527,0,-2.42501,0.055681,-0.0756734,0.0553487,0.0679186,-0.0934516,0.146539,-0.124546,-0.0807394,0.0137329,0.0313568,0.0195313,0.00934601,0.0152588,0.00999451,0.0226212,0.0205231,-9.97986,0.0197601,-0.00335693,0.00915527,0.00331879,0.0191498,-0.00732422,0.0153351,0.0056076
12,5,9.16188,0.00152588,-0.00228882,-2.42592,0.0553758,-0.0735371,0.0522969,0.0267198,-0.0952827,0.147149,-0.126377,-0.0828756,0.00743866,0.030899,0.0191879,0.0104523,0.0188828,0.00961304,0.015831,0.0168228,-9.97986,0.0171661,0.00133514,0.016098,0.00709534,0.0194931,-0.00270844,0.0152588,0.00488281
12,6,0.594378,-0.000610352,-0.00457764,-2.42592,0.0569017,-0.0729268,0.0532125,-0.00837537,-0.0971137,0.147455,-0.129123,-0.0828756,0.00782013,0.0304031,0.0206375,0.016861,0.0151825,0.0110626,0.0219345,0.0205231,-9.97986,0.0142288,0.00148773,0.0138092,0.00392914,0.0152969,-0.00339508,0.0169373,0.00564575
12,7,-6.45244,0,-0.00427246,-2.42409,0.0569017,-0.0741475,0.0535176,-0.0141737,-0.0952827,0.148065,-0.129123,-0.0810445,0.0128555,0.0296783,0.018425,0.0146103,0.0173187,0.00984192,0.0191498,0.0173569,-9.97986,0.0163651,0.000457764,0.0118256,0.00255585,0.0129318,-0.00652313,0.0162888,0.00526428
12,8,-9.99003,0.000305176,-0.00396729,-2.42501,0.055681,-0.0726216,0.0550435,0.00871447,-0.0931465,0.146234,-0.128513,-0.0810445,0.00804901,0.0265884,0.0198364,0.0117874,0.0214386,0.00980377,0.0236893,0.0181198,-9.97986,0.0165558,-0.00160217,0.0149536,0.00442505,0.0126648,-0.00209808,0.0156784,0.00801086
12,9,-9.99003,0.000305176,-0.00137329,-2.42379,0.0562914,-0.0744527,0.0562642,0.0447252,-0.0894843,0.146844,-0.126987,-0.0804342,0.0123215,0.0282669,0.0207901,0.0136185,0.016098,0.00869751,0.021019,0.0150299,-9.97986,0.0122833,-0.00087738,0.0120926,0.0101089,-0.00926971,-0.0037384,0.0140762,0.0109482
13,0,-9.99003,0.000610352,-0.000610352,-2.42592,0.0553758,-0.075063,0.0553487,0.0578478,-0.0903999,0.146234,-0.125766,-0.0828756,0.0106812,0.0242615,0.0233459,0.011673,0.0181961,0.00816345,0.0256348,0.0201416,-9.97986,0.0140762,-0.00232697,0.0134277,0.00881195,-0.0110626,-0.0082016,0.0147629,0.00587463
13,1,-9.99003,-0.000610352,0.000305176,-2.42684,0.0559862,-0.0747579,0.0535176,0.0621202,-0.0922309,0.145318,-0.126072,-0.0834859,0.0126648,0.0239944,0.0196075,0.0112915,0.0168991,0.0141907,0.0250626,0.0184631,-9.97986,0.0149155,0.000228882,0.0167084,0.0100327,-0.00793457,-0.00282288,0.0177002,0.00640869
13,2,-9.99003,0.00183105,0.00106812,-2.42592,0.0559862,-0.0738423,0.0562642,0.114305,-0.0858222,0.146539,-0.121799,-0.0813497,0.00869751,0.0267792,0.0170135,0.0119019,0.0140762,0.0101089,0.0252914,0.0164413,-9.97986,0.0165558,-0.00244141,0.014267,0.00572205,0.0123215,-0.0106049,0.0121689,0.00282288
13,3,-2.96977,0.00213623,0.00396729,-2.42714,0.0538499,-0.075063,0.0538228,0.138414,-0.088874,0.144098,-0.12241,-0.0847066,0.00946045,0.0219345,0.017395,0.01091,0.0154877,0.00534058,0.0231934,0.0191879,-9.97986,0.0170135,0.00038147,0.0144958,0.0056839,0.0188446,-0.00740051,0.0128555,0.00232697
13,4,4.31966,0,0.00488281,-2.42837,0.0544603,-0.0753682,0.0532125,0.153673,-0.0900947,0.143792,-0.121799,-0.0850118,0.0124359,0.0232697,0.0180817,0.0101852,0.0158691,0.0151825,0.0228119,0.0214005,-9.97986,0.018425,0.00427246,0.0164032,0.00827789,0.0208282,-0.0102997,0.0156403,0.00900269
13,5,10.0097,-0.00183105,0.00473022,-2.42959,0.0535448,-0.0765889,0.0535176,0.149095,-0.0919257,0.143487,-0.122104,-0.0865377,0.0108719,0.0179291,0.010376,0.0111008,0.0134659,0.00968933,0.0227356,0.0159836,-9.97986,0.0151825,0.0103378,0.0154495,0.00804901,0.0156021,-0.00610352,0.01297,0.00522614
13,6,10.0097,0.000610352,0.00137329,-2.4302,0.0541551,-0.0765889,0.0513814,0.0993517,-0.0977241,0.143792,-0.125461,-0.0883688,0.0127029,0.0162888,0.011673,0.0112915,0.0104523,0.0123978,0.0260162,0.0156021,-9.97986,0.0165558,0.0044632,0.0149918,0.00404358,0.016861,-0.00961304,0.0143433,0.00408173
13,7,10.0097,-0.0012207,0.000457764,-2.43142,0.0544603,-0.0753682,0.0513814,0.0816515,-0.0968086,0.142267,-0.127292,-0.0880636,0.011673,0.0171661,0.016098,0.0114059,0.0136566,0.0121307,0.0268555,0.0170517,-9.97986,0.0154114,0.00907898,0.0138855,0.00862122,0.0153351,-0.0043869,0.0157928,0.00209808
13,8,10.0097,-0.00152588,-0.000152588,-2.42928,0.0538499,-0.0759786,0.0516866,0.0749376,-0.0952827,0.144098,-0.126987,-0.0868429,0.014534,0.0173569,0.0172806,0.0135422,0.018425,0.01091,0.018959,0.0164413,-9.97986,0.0175858,0.010643,0.0129318,0.00656128,0.0141144,-0.00717163,0.0136185,0.00404358
13,9,10.0097,0,0.000152588,-2.42806,0.0547655,-0.0753682,0.0519917,0.0718859,-0.0937568,0.145624,-0.126072,-0.0865377,0.013504,0.016861,0.0190735,0.0139236,0.0162125,0.00915527,0.0210571,0.0181961,-9.97986,0.0141907,0.0037384,0.0120926,0.00839233,0.018158,-0.0062561,0.0175476,0.00408173
14,0,10.0097,0,0,-2.42684,0.0559862,-0.075063,0.0535176,0.0715807,-0.0937568,0.145013,-0.125156,-0.0847066,0.00705719,0.0242996,0.0191879,0.0106049,0.0183868,0.00854492,0.0221634,0.0162506,-9.97986,0.0176239,0.00221252,0.0127792,0.00869751,0.0159836,-0.0110245,0.0145721,0.00408173
14,1,10.0097,0.0012207,0,-2.42745,0.0547655,-0.0741475,0.0535176,0.0715807,-0.0922309,0.144708,-0.126072,-0.0850118,0.0128937,0.0193787,0.0181961,0.00816345,0.0157547,0.0131989,0.022316,0.0187302,-9.97986,0.0110245,-0.00396729,0.0141144,0.00915527,0.0178909,-0.00652313,0.0125504,0.00720978
14,2,10.0097,-0.000610352,0.000915527,-2.42592,0.0562914,-0.0735371,0.054128,0.0709703,-0.0916206,0.146539,-0.124851,-0.0816549,0.01297,0.0223541,0.0189972,0.00881195,0.0166321,0.0114441,0.0202942,0.0173569,-9.97986,0.0148392,-0.0123596,0.0125504,0.0094223,0.0190735,-0.00682831,0.0161743,0.00629425
14,3,10.0097,0.000305176,0.000305176,-2.42562,0.0565965,-0.075063,0.054128,0.0700548,-0.0913154,0.147149,-0.124241,-0.0810445,0.0101471,0.0228882,0.015564,0.0115204,0.0167847,0.0118256,0.0227737,0.0205994,-9.97986,0.0140381,-0.013237,0.0139999,0.00495911,0.0151062,-0.00770569,0.0145721,0.00541687
14,4,10.0097,0.000915527,0.000305176,-2.42714,0.0550706,-0.0738423,0.0547383,0.0679186,-0.0919257,0.146234,-0.124851,-0.0810445,0.0123596,0.0149918,0.0187302,0.0108719,0.0169754,0.0104904,0.0218964,0.0183105,-9.97986,0.0149155,-0.0075531,0.0133896,0.00801086,0.0151825,-0.0116348,0.0141144,0.00431061
14,5,9.01479,0.000610352,-0.00213623,-2.42623,0.0572069,-0.0744527,0.0532125,0.0264147,-0.0961982,0.147149,-0.128208,-0.0828756,0.0137329,0.0205612,0.0193024,0.00770569,0.0178909,0.0137711,0.0233841,0.0169754,-9.97986,0.0170898,-0.00217438,0.0130081,0.00606537,0.0149918,-0.0110626,0.0166702,0.00606537
14,6,0.531512,-0.000305176,-0.00457764,-2.42592,0.0569017,-0.0729268,0.0544332,-0.00837537,-0.0977241,0.145929,-0.129429,-0.0828756,0.01194,0.0227356,0.0198746,0.0146103,0.0188446,0.0144196,0.0231552,0.0193024,-9.97986,0.0130844,-0.00541687,0.0144958,0.00915527,0.0160599,-0.00610352,0.0185013,0.00972748
14,7,-6.44847,0.00244141,-0.00427246,-2.42592,0.055681,-0.0738423,0.0544332,-0.0150892,-0.0961982,0.146844,-0.130039,-0.0816549,0.00862122,0.0177383,0.0161743,0.00576019,0.0125504,0.0120544,0.0213623,0.0157547,-9.97986,0.0115204,-0.00751495,0.0105667,0.00644684,0.0116348,-0.00762939,0.0139618,0.00370026
14,8,-9.99003,0.000610352,-0.00350952,-2.42348,0.0572069,-0.0744527,0.0556539,0.00932483,-0.0922309,0.146234,-0.128513,-0.0804342,0.00759125,0.0210953,0.0209427,0.0152969,0.0168228,0.0174713,0.0184631,0.0188446,-9.97986,0.0144958,-0.00366211,0.0107193,0.00717163,0.00785828,-0.00389099,0.0174713,0.00514984
14,9,-9.99003,0.000610352,-0.00167847,-2.4244,0.055681,-0.0741475,0.0556539,0.0435045,-0.0897895,0.146234,-0.127292,-0.0810445,0.0128174,0.0232697,0.0230408,0.00602722,0.0174332,0.00961304,0.0244141,0.0181198,-9.97986,0.0173187,-0.00396729,0.0165558,0.00953674,-0.0131989,-0.00461578,0.016098,0.00396729
15,0,-9.99003,0.000915527,0,-2.42592,0.0538499,-0.0753682,0.0556539,0.058153,-0.0913154,0.146234,-0.126072,-0.0822652,0.0112915,0.0210571,0.0195694,0.00988007,0.0186539,0.0118256,0.0204468,0.0150299,-9.97986,0.0117111,-0.00400543,0.0144577,0.00816345,-0.00671387,0.00087738,0.0199127,0.00774384
15,1,-9.99003,0.00274658,0.000152588,-2.42653,0.0544603,-0.0741475,0.0547383,0.065172,-0.0925361,0.144403,-0.126072,-0.0831808,0.00801086,0.0226974,0.0203323,0.00976563,0.0175858,0.0138092,0.0210571,0.0144196,-9.97986,0.0157928,-0.0031662,0.0134277,0.00965118,-0.0094223,0.00572205,0.018692,0.00652313
15,2,-9.99003,0.000610352,0.00167847,-2.4244,0.0559862,-0.0744527,0.0571797,0.11339,-0.0873481,0.145624,-0.122715,-0.0831808,0.00915527,0.020752,0.0193405,0.00495911,0.0176239,0.0152206,0.0233459,0.0165558,-9.97986,0.0152206,-0.0012207,0.0147247,0.00793457,0.00812531,0.00812531,0.0167465,0.00404358
15,3,-3.50474,0.000305176,0.00366211,-2.42745,0.0538499,-0.0756734,0.0556539,0.137804,-0.0891792,0.144403,-0.12241,-0.0834859,0.0105286,0.021019,0.0179672,0.0088501,0.0194168,0.0139618,0.0182343,0.0163269,-9.97986,0.0140381,-0.00556946,0.015564,0.0038147,0.0168228,0.00328064,0.0154114,0.00431061
15,4,4.03401,0.000305176,0.00366211,-2.42592,0.0541551,-0.0753682,0.0550435,0.153673,-0.0882636,0.142877,-0.121799,-0.0847066,0.0082016,0.0234222,0.0192642,0.0127792,0.0239182,0.0117493,0.0199509,0.0183105,-9.97986,0.0144577,-0.00209808,0.0156403,0.00782013,0.0125504,0.00564575,0.017395,0.00511169
15,5,10.0097,0.000305176,0.00488281,-2.42867,0.0538499,-0.0762837,0.0538228,0.146654,-0.0919257,0.143182,-0.122715,-0.0862325,0.0113678,0.021553,0.0176239,0.0087738,0.0173569,0.00911713,0.0178146,0.0150299,-9.97986,0.0151062,-0.000534058,0.0159836,0.00797272,0.0137711,-0.000457764,0.0167465,0.00453949
15,6,10.0097,0,0.00167847,-2.43081,0.0532396,-0.0768941,0.050771,0.100572,-0.0974189,0.142877,-0.125461,-0.0889791,0.0100708,0.0201797,0.0151443,0.0131226,0.0185776,0.0109863,0.018425,0.0225449,-9.97986,0.0188446,3.8147e-005,0.0162506,0.00892639,0.0165176,0.00217438,0.0148392,0.0088501
15,7,10.0097,0.00152588,0.000305176,-2.42959,0.0523241,-0.0762837,0.0510762,0.0822618,-0.0965034,0.143487,-0.126377,-0.0883688,0.0118256,0.0207138,0.0191498,0.00858307,0.0135803,0.0102997,0.0220108,0.0177765,-9.97986,0.0146103,-0.00492096,0.0124741,0.00621796,0.0158691,0.000267029,0.015831,0.00423431
15,8,10.0097,0,0.000305176,-2.42928,0.0553758,-0.0744527,0.0522969,0.075548,-0.0943672,0.143792,-0.126987,-0.0868429,0.00782013,0.0204086,0.0178909,0.00694275,0.0178909,0.00999451,0.0218964,0.018959,-9.97986,0.0165558,-0.00453949,0.0172806,0.00621796,0.0135803,-0.000419617,0.0183487,0.00629425
15,9,10.0097,-0.000610352,-0.00137329,-2.42745,0.0550706,-0.0759786,0.0532125,0.0737169,-0.0937568,0.144403,-0.125766,-0.0850118,0.00961304,0.0202179,0.0173187,0.00518799,0.0151062,0.00953674,0.0178909,0.0164413,-9.97986,0.0153351,-0.00640869,0.00946045,0.00743866,0.0122452,-0.00427246,0.0139999,0.00366211
16,0,10.0097,0.000915527,0,-2.42745,0.0553758,-0.075063,0.0532125,0.0709703,-0.0931465,0.145929,-0.126682,-0.0847066,0.0118256,0.0240707,0.017662,0.0109482,0.0165558,0.0121307,0.0234985,0.0125885,-9.97986,0.0151443,-0.0025177,0.013504,0.00789642,0.0139618,-0.00293732,0.0155258,0.00602722
16,1,10.0097,-0.000610352,-0.000152588,-2.42684,0.0553758,-0.0744527,0.0544332,0.0715807,-0.0925361,0.144403,-0.125461,-0.0844015,0.00980377,0.0205612,0.0150299,0.0112534,0.0118637,0.0112534,0.0194931,0.0162125,-9.97986,0.0159454,-0.00343323,0.0142288,0.00648499,0.0148773,-0.000610352,0.0136566,0.00934601
16,2,10.0097,0.00183105,0.000610352,-2.42623,0.0559862,-0.0729268,0.0544332,0.0715807,-0.0916206,0.146234,-0.125156,-0.0828756,0.00904083,0.0248718,0.0157166,0.0125122,0.0172806,0.0139618,0.0249481,0.0200272,-9.97986,0.0138092,-0.00160217,0.0156403,0.00728607,0.0147247,0.000114441,0.0165939,0.00762939
16,3,10.0097,-0.0012207,0.000305176,-2.42501,0.0565965,-0.0741475,0.0547383,0.0709703,-0.0931465,0.146539,-0.123935,-0.0819601,0.00652313,0.0226212,0.0179672,0.00843048,0.0161362,0.010376,0.0212479,0.0169373,-9.97986,0.0158691,-0.00411987,0.0131989,0.00518799,0.017128,-0.00289917,0.0172806,0.00587463
16,4,10.0097,0,-0.000152588,-2.42531,0.0562914,-0.0744527,0.0538228,0.0715807,-0.0916206,0.146844,-0.124241,-0.0804342,0.00789642,0.0231934,0.0143814,0.0113297,0.0152206,0.0101089,0.0170898,0.0193405,-9.97986,0.0135803,-0.00114441,0.0144196,0.00740051,0.0159836,0.00190735,0.0178528,0.00686646
16,5,9.36818,0.000610352,-0.00289917,-2.42592,0.0559862,-0.0735371,0.0532125,0.0288561,-0.0955879,0.146844,-0.126377,-0.0822652,0.00892639,0.0205612,0.0160217,0.00984192,0.017128,0.0110245,0.0229645,0.0182343,-9.97986,0.012207,0.00160217,0.0127792,0.00694275,0.0153351,-0.00171661,0.0131989,0.00408173
16,6,0.855608,0.000915527,-0.00411987,-2.42623,0.055681,-0.0741475,0.0526021,-0.0102064,-0.0983344,0.146844,-0.129734,-0.0825704,0.00972748,0.0204086,0.0203323,0.0162506,0.0153732,0.0107193,0.021286,0.0153732,-9.97986,0.0133133,-0.001297,0.0108719,0.00858307,0.0177002,0.0012207,0.0146866,0.00263214
16,7,-6.20982,-0.000305176,-0.00473022,-2.42501,0.0569017,-0.0741475,0.0538228,-0.0132582,-0.095893,0.146844,-0.130039,-0.0813497,0.00465393,0.0224686,0.0151443,0.00652313,0.0183105,0.0113678,0.0239944,0.018959,-9.97986,0.0122452,-0.00301361,0.0104141,0.00499725,0.0107956,0.0018692,0.0147629,0.00530243
16,8,-9.99003,0.00213623,-0.00320435,-2.42562,0.0572069,-0.0744527,0.0556539,0.0084093,-0.094062,0.147149,-0.128513,-0.0807394,0.00766754,0.0247574,0.0177383,0.00972748,0.0193405,0.00999451,0.026207,0.0184631,-9.97986,0.0149536,-0.00198364,0.0164795,0.00919342,0.0146866,0.00408173,0.0179291,0.00652313
16,9,-9.99003,-0.0012207,-0.00198364,-2.42348,0.055681,-0.073232,0.0565694,0.0419786,-0.0894843,0.145929,-0.126987,-0.0810445,0.0124359,0.0237274,0.0220108,0.0125504,0.0209427,0.0146866,0.0259781,0.0204086,-9.97986,0.0190353,0.00354767,0.0144577,0.0088501,-0.0115585,0.00167847,0.0148392,0.0069046
17,0,-9.99003,0.000305176,0,-2.42592,0.0553758,-0.0747579,0.0562642,0.0566271,-0.0919257,0.145929,-0.126072,-0.0834859,0.00629425,0.0200272,0.0205612,0.012207,0.0159836,0.0069809,0.0190735,0.0130081,-9.97986,0.0117111,0.000152588,0.0156021,0.0069809,-0.0110626,0.00263214,0.0169754,0.0056076
17,1,-9.99003,0.00213623,-0.000305176,-2.42714,0.0550706,-0.0759786,0.054128,0.0636461,-0.0922309,0.145013,-0.126987,-0.0834859,0.0119781,0.0245667,0.0169373,0.0117874,0.014534,0.0136948,0.0193787,0.0212097,-9.97986,0.0133133,0.0120544,0.0125122,0.00679016,-0.0120163,-0.00324249,0.0141144,0.00682831
17,2,-9.99003,0.000915527,0.0012207,-2.42531,0.0553758,-0.0744527,0.0565694,0.11461,-0.0849067,0.145624,-0.121799,-0.0822652,0.00934601,0.0260162,0.0201416,0.00984192,0.0157547,0.0116348,0.0216293,0.0154495,-9.97986,0.0148773,0.00888824,0.0172806,0.00701904,0.0161362,-0.0101089,0.016861,0.00476837
17,3,-3.22825,0.00183105,0.00350952,-2.42714,0.0538499,-0.075063,0.0553487,0.139025,-0.0882636,0.144708,-0.122104,-0.0847066,0.0130463,0.0220871,0.0167465,0.0138474,0.0153732,0.0128174,0.0183868,0.0202942,-9.97986,0.013504,0.00930786,0.0123215,0.00926971,0.0154114,-0.0108719,0.0135803,0.00579834
17,4,4.33248,0.000610352,0.00442505,-2.42714,0.0538499,-0.0756734,0.054128,0.153673,-0.0882636,0.144098,-0.122104,-0.0840963,0.00980377,0.028038,0.0198746,0.0144577,0.017128,0.0136948,0.0178528,0.0176239,-9.97986,0.0172043,0.0101471,0.0129318,0.00843048,0.0146103,-0.00656128,0.0168228,0.00209808
17,5,10.0097,0.000610352,0.00442505,-2.42928,0.0532396,-0.0765889,0.0526021,0.147875,-0.090705,0.143487,-0.12241,-0.0862325,0.0135803,0.0208282,0.0193024,0.0125504,0.0150681,0.0124359,0.0206757,0.0163269,-9.97986,0.0120163,-0.00343323,0.013504,0.00793457,0.0131607,-0.00392914,0.0141144,0.00545502
17,6,10.0097,-0.00244141,0.00183105,-2.42928,0.0526292,-0.0765889,0.0498555,0.0987413,-0.0977241,0.142877,-0.125461,-0.0883688,0.0151062,0.0255585,0.0163269,0.0121689,0.015564,0.0114059,0.0206757,0.0167084,-9.97986,0.0164795,-0.00556946,0.00862122,0.00900269,0.0161743,0.0044632,0.0139618,0.00476837
17,7,10.0097,0.00152588,0.000152588,-2.42928,0.0538499,-0.0762837,0.0510762,0.0813463,-0.0961982,0.143487,-0.126682,-0.0883688,0.0142288,0.0270462,0.0179291,0.0119781,0.0151443,0.00965118,0.0205231,0.0176239,-9.97986,0.0162506,-0.00473022,0.0178909,0.00682831,0.0152588,0.0106049,0.0203323,0.00507355
17,8,10.0097,0.0012207,-0.000610352,-2.42898,0.055681,-0.0759786,0.0513814,0.075548,-0.0949775,0.144403,-0.127292,-0.0865377,0.00999451,0.0276947,0.018692,0.0129318,0.0185013,0.00961304,0.020752,0.0178909,-9.97986,0.0134659,-0.0056076,0.0172424,0.00793457,0.0154495,0.00457764,0.0177765,0.00125885
17,9,10.0097,0.000610352,0.000305176,-2.42806,0.0541551,-0.075063,0.0532125,0.0724962,-0.0961982,0.144403,-0.126072,-0.085317,0.0130463,0.0261688,0.0184631,0.0131989,0.0177002,0.0116348,0.021553,0.0193787,-9.97986,0.0194168,-0.00415802,0.0162506,0.0107193,0.0144196,0.00564575,0.0167084,0.0043869
18,0,10.0097,0.000305176,-0.000152588,-2.42867,0.0538499,-0.0753682,0.0526021,0.0712755,-0.0949775,0.145318,-0.125766,-0.0850118,0.0138092,0.0214005,0.0193024,0.0165176,0.0159836,0.00976563,0.0206375,0.019989,-9.97986,0.0146484,-0.00602722,0.0130463,0.00545502,0.0126266,-0.00370026,0.0162506,0.00377655
18,1,10.0097,0,0.000305176,-2.42714,0.0550706,-0.075063,0.0532125,0.07036,-0.0934516,0.145318,-0.126072,-0.0834859,0.0125885,0.0254059,0.0221252,0.0105667,0.0197601,0.0101471,0.0215912,0.0170517,-9.97986,0.0153351,-0.00339508,0.0146866,0.0101852,0.0135803,-0.00797272,0.0177002,0.00808716
18,2,10.0097,0.000305176,0.000457764,-2.4247,0.0562914,-0.0729268,0.0535176,0.0712755,-0.0913154,0.146844,-0.124241,-0.0822652,0.0114059,0.0274658,0.0181961,0.0162125,0.0147247,0.0114441,0.0212479,0.0161743,-9.97986,0.0162506,-0.000953674,0.0151443,0.00892639,0.0165176,-0.00621796,0.018692,0.00972748
18,3,10.0097,-0.000305176,-0.000457764,-2.42531,0.0569017,-0.0747579,0.054128,0.0715807,-0.0928413,0.148065,-0.124851,-0.0810445,0.00926971,0.0280762,0.0163269,0.0119019,0.0173187,0.0117111,0.0207138,0.0172806,-9.97986,0.0166702,-0.00434875,0.0138855,0.00854492,0.0185013,-0.00610352,0.0142288,0.00610352
18,4,10.0097,0.000915527,0.000152588,-2.42562,0.055681,-0.0744527,0.0529073,0.0691393,-0.0922309,0.146234,-0.124851,-0.0810445,0.0134659,0.0304794,0.0221634,0.0122833,0.0201035,0.0143814,0.0243759,0.0192261,-9.97986,0.0151443,0.000267029,0.0188065,0.00492096,0.0181198,-0.00610352,0.0117111,0.0082016
18,5,9.22353,0.000915527,-0.00244141,-2.42592,0.0562914,-0.073232,0.0526021,0.0279405,-0.0952827,0.145624,-0.125766,-0.0828756,0.0138855,0.0178146,0.0162888,0.00671387,0.0177765,0.0102997,0.0232697,0.017395,-9.97986,0.0190353,0.000305176,0.0169373,0.00629425,0.0183868,-0.00408173,0.0178528,0.00782013
18,6,0.758257,0.00152588,-0.00427246,-2.42623,0.0575121,-0.0738423,0.0535176,-0.0092909,-0.0980293,0.145318,-0.129734,-0.0822652,0.0139618,0.0164795,0.0133133,0.0107193,0.0210953,0.00514984,0.0225067,0.0186539,-9.97986,0.018425,-0.00385284,0.0123215,0.00717163,0.0133514,-0.00328064,0.0168991,0.0088501
18,7,-6.2855,0.000915527,-0.00457764,-2.42531,0.0562914,-0.0729268,0.0553487,-0.0141737,-0.0961982,0.144708,-0.130344,-0.0822652,0.0118637,0.0189972,0.0205994,0.0111771,0.0175476,0.0136185,0.0197983,0.0192261,-9.97986,0.017128,-0.000991821,0.0125122,0.00827789,0.0176239,-0.00144958,0.0162506,0.00667572
18,8,-9.99003,0.000610352,-0.00396729,-2.4244,0.0569017,-0.0735371,0.0556539,0.00810412,-0.0922309,0.146844,-0.128208,-0.0807394,0.0101852,0.020256,0.0182724,0.0127029,0.0204849,0.00900269,0.0202179,0.0183868,-9.97986,0.0178146,0.000953674,0.0160217,0.00423431,0.0164032,0.00156403,0.0149155,0.00511169
18,9,-9.99003,0.000305176,-0.0012207,-2.42348,0.0550706,-0.0738423,0.0565694,0.0419786,-0.0894843,0.146539,-0.127598,-0.0810445,0.01091,0.0213242,0.0201416,0.0104141,0.018692,0.00778198,0.0274658,0.0178146,-9.97986,0.0157547,0.00301361,0.0151825,0.00221252,-0.0109482,-0.0102234,0.019722,0.00831604
19,0,-9.99003,0.000915527,-0.000610352,-2.42592,0.0559862,-0.0744527,0.054128,0.0578478,-0.090705,0.144403,-0.126377,-0.0822652,0.0109863,0.0254059,0.0172424,0.0128937,0.0191498,0.0109863,0.0204849,0.0199509,-9.97986,0.0167084,-0.000724792,0.0159836,0.00415802,-0.00961304,-0.0124359,0.0157928,0.00667572
19,1,-9.99003,-0.000610352,-0.000152588,-2.42684,0.0559862,-0.0753682,0.054128,0.0642565,-0.0931465,0.144403,-0.126987,-0.0834859,0.00946045,0.0233841,0.0186157,0.0101089,0.0185013,0.0139618,0.0176239,0.0178909,-9.97986,0.0193787,-0.000762939,0.0153351,0.00423431,-0.00869751,-0.00976563,0.0151062,0.00827789
19,2,-9.99003,0.000915527,0.0012207,-2.4244,0.0550706,-0.0747579,0.0556539,0.112779,-0.0861274,0.145624,-0.122104,-0.0822652,0.00713348,0.0254059,0.0175858,0.01297,0.0152588,0.00980377,0.0202942,0.0164413,-9.97986,0.0154495,-0.000610352,0.020256,0.00549316,0.0149155,-0.00835419,0.0140762,0.0075531
19,3,-3.37474,0.000915527,0.00350952,-2.42837,0.0535448,-0.0762837,0.0547383,0.139025,-0.0885688,0.144098,-0.122104,-0.0844015,0.0126648,0.0241852,0.0149536,0.0170135,0.0141144,0.0114059,0.0191498,0.0210953,-9.97986,0.0159836,0.00114441,0.0133514,0.00293732,0.0161743,-0.00152588,0.0156403,0.00816345
19,4,4.0392,0.000915527,0.00442505,-2.42806,0.0538499,-0.0759786,0.0544332,0.153978,-0.0894843,0.143487,-0.121494,-0.085317,0.0148773,0.0216293,0.0182343,0.0130081,0.018425,0.00976563,0.0201797,0.0194168,-9.97986,0.0170135,-0.000457764,0.0128174,0.00221252,0.0139236,0.0019455,0.01194,0.00759125
19,5,10.0097,0.000305176,0.00427246,-2.42898,0.0532396,-0.0765889,0.0519917,0.147875,-0.0910102,0.142877,-0.12241,-0.0859274,0.0119781,0.0217819,0.0168228,0.0114822,0.0163269,0.0131607,0.024147,0.0178528,-9.97986,0.0148392,0.00282288,0.0149155,0.00289917,0.0150681,0.000152588,0.0160599,0.00720978
19,6,10.0097,0.000915527,0.00183105,-2.4305,0.0523241,-0.0771993,0.04894,0.100572,-0.0986396,0.144098,-0.125461,-0.0883688,0.00980377,0.0195313,0.0138092,0.0120544,0.0128174,0.00843048,0.0208282,0.0155258,-9.97986,0.0139618,-0.000419617,0.0127792,0.0025177,0.0140762,0.00164032,0.0155258,0.00469208
19,7,10.0097,0.000305176,0.000915527,-2.42959,0.0532396,-0.0762837,0.0519917,0.0828722,-0.0961982,0.144403,-0.126987,-0.0877584,0.00980377,0.0138092,0.0178528,0.010376,0.0195313,0.0156784,0.0219727,0.0174332,-9.97986,0.0145721,-0.00106812,0.0136948,0.0012207,0.0188446,0.00377655,0.0167084,0.00663757
19,8,10.0097,0.000610352,0.000305176,-2.42806,0.0544603,-0.075063,0.0516866,0.0749376,-0.0955879,0.143792,-0.126682,-0.0865377,0.0135422,0.0196075,0.0181198,0.0121307,0.0231934,0.00988007,0.0206757,0.0177002,-9.97986,0.0147247,0.00160217,0.0126266,0.00362396,0.0166321,0.00537872,0.0131607,0.00106812
19,9,10.0097,-0.000305176,-0.000152588,-2.42714,0.0547655,-0.0747579,0.0529073,0.0731066,-0.0946723,0.144403,-0.126072,-0.0859274,0.00583649,0.0216293,0.0100708,0.0107574,0.0166702,0.00892639,0.0199509,0.0163651,-9.97986,0.0139236,3.8147e-005,0.0138092,0.00473022,0.0157547,-0.00198364,0.0178909,0.00564575
20,0,10.0097,-0.000305176,0,-2.42837,0.0541551,-0.0747579,0.0529073,0.0706652,-0.0943672,0.145318,-0.126682,-0.0850118,0.0118637,0.0235367,0.0166702,0.0150299,0.015831,0.00976563,0.0218964,0.0198364,-9.97986,0.0164795,0.000228882,0.0131607,0.0037384,0.0178528,0.00465393,0.0111008,0.00469208
20,1,10.0097,-0.000915527,0.000457764,-2.42745,0.0547655,-0.0744527,0.0529073,0.0709703,-0.0937568,0.145318,-0.125461,-0.0837911,0.0115967,0.0236893,0.0163269,0.0146103,0.0136185,0.0109863,0.0210571,0.0179672,-9.97986,0.0128174,-0.00205994,0.0130081,0.00415802,0.0179291,0.00293732,0.0170135,0.00686646
20,2,10.0097,-0.000915527,0.000762939,-2.42409,0.0565965,-0.0738423,0.0556539,0.0706652,-0.0919257,0.145624,-0.124851,-0.0825704,0.012207,0.0217438,0.0181198,0.0113678,0.0154877,0.0123215,0.0194168,0.0183868,-9.97986,0.0173569,0.00297546,0.0138855,0.00232697,0.016861,0.00270844,0.0146866,0.00907898
20,3,10.0097,0.000915527,0,-2.42562,0.0565965,-0.0738423,0.054128,0.0715807,-0.0913154,0.146234,-0.12302,-0.0807394,0.0141525,0.0196457,0.0170135,0.0134659,0.0150681,0.0110626,0.0238037,0.0200272,-9.97986,0.0151443,0.00354767,0.0125122,0.00370026,0.0160599,0.000305176,0.0128174,0.0110626
20,4,10.0097,-0.000915527,0,-2.42653,0.0550706,-0.0741475,0.0550435,0.0688341,-0.0928413,0.146539,-0.123935,-0.0816549,0.0116348,0.0203323,0.0171661,0.011673,0.0163269,0.0122833,0.0249863,0.0154114,-9.97986,0.0172424,0.00152588,0.0147629,0.00778198,0.0154495,-7.62939e-005,0.0201035,0.00648499
20,5,9.22841,-0.000610352,-0.00259399,-2.42592,0.0569017,-0.0741475,0.0538228,0.0267198,-0.0971137,0.145929,-0.127903,-0.0822652,0.00656128,0.0197601,0.0164795,0.00858307,0.0135422,0.00965118,0.0193024,0.0164795,-9.97986,0.0171661,-0.00148773,0.0145721,0.00682831,0.0164795,-0.00171661,0.0156021,0.0056839
20,6,0.732317,0.0012207,-0.00518799,-2.42653,0.0565965,-0.0738423,0.0526021,-0.00807019,-0.0974189,0.14776,-0.129429,-0.0813497,0.0103378,0.0203323,0.0193405,0.0122452,0.0194168,0.00995636,0.0242996,0.0150681,-9.97986,0.014801,-0.00209808,0.0143433,-0.000991821,0.0172806,0.00137329,0.0133896,0.00843048
20,7,-6.32914,0.000305176,-0.00442505,-2.42501,0.0562914,-0.073232,0.0535176,-0.0144789,-0.0961982,0.147455,-0.130954,-0.0807394,0.00907898,0.0247192,0.021019,0.0112915,0.0130463,0.0102234,0.0216293,0.0214386,-9.97986,0.0179291,-0.00102997,0.0163269,0.00602722,0.0140381,-0.00190735,0.0169373,0.0063324
20,8,-9.99003,0.000610352,-0.00396729,-2.4244,0.0562914,-0.0744527,0.0553487,0.0084093,-0.0922309,0.145929,-0.127903,-0.0810445,0.0111771,0.024147,0.0198364,0.0111771,0.0177765,0.0113297,0.0252533,0.0162125,-9.97986,0.0156021,0,0.0152969,0.00125885,0.0139999,-0.00148773,0.019722,0.00812531
20,9,-9.99003,0,-0.00213623,-2.42501,0.055681,-0.0738423,0.0565694,0.0447252,-0.0900947,0.145318,-0.126682,-0.0798238,0.0088501,0.0236893,0.015831,0.0117111,0.0197601,0.0119781,0.0244904,0.0203323,-9.97986,0.0183105,-7.62939e-005,0.013237,0.00198364,-0.0062561,-0.00202179,0.016098,0.00640869
21,0,-9.99003,0.00183105,0.000610352,-2.42653,0.0547655,-0.0744527,0.0550435,0.0596788,-0.0897895,0.145624,-0.126072,-0.0822652,0.0125122,0.0240326,0.0167084,0.0121689,0.0216293,0.0132751,0.0236893,0.0157928,-9.97986,0.0165558,0.00270844,0.0136566,0.00545502,-0.00801086,-0.00541687,0.0178146,0.00450134
21,1,-9.99003,0.0012207,-0.000152588,-2.42592,0.0550706,-0.073232,0.0538228,0.0633409,-0.0931465,0.146234,-0.126377,-0.0831808,0.00953674,0.024147,0.0202942,0.01091,0.0191879,0.0118256,0.0226593,0.0144958,-9.97986,0.0168991,0.000305176,0.0117111,0.0019455,-0.0107956,-0.0075531,0.0189972,0.00434875
21,2,-9.99003,-0.000610352,0.00183105,-2.42501,0.0541551,-0.075063,0.0562642,0.110338,-0.0858222,0.146234,-0.12363,-0.0816549,0.0114441,0.0253296,0.0175858,0.0130844,0.0174713,0.0088501,0.0242615,0.018692,-9.97986,0.0134659,0.00038147,0.0108337,-0.00247955,0.017395,-0.000762939,0.0170135,0.00743866
21,3,-3.52885,0.0012207,0.00442505,-2.42806,0.0541551,-0.0747579,0.0553487,0.138414,-0.0873481,0.145013,-0.12241,-0.0837911,0.013237,0.0297546,0.0260925,0.0187683,0.021286,0.0138092,0.0276947,0.0218201,-9.97986,0.0232315,0.00595093,0.0188446,0.0100708,0.0230789,0.00350952,0.0232315,0.00984192
21,4,3.98183,0.000610352,0.00366211,-2.42806,0.0535448,-0.0759786,0.0538228,0.154894,-0.088874,0.144098,-0.121189,-0.085317,0.0043869,0.0201035,0.0151062,0.00648499,0.0075531,0.00244141,0.019455,0.0149536,-9.97986,0.01297,-0.00709534,0.00934601,-0.00217438,0.0117874,-0.00858307,0.0128174,0.000724792
21,5,10.0097,0.000610352,0.00534058,-2.42898,0.0535448,-0.0775044,0.0519917,0.148485,-0.0910102,0.144098,-0.122104,-0.0859274,0.0143433,0.0245667,0.0213242,0.0157928,0.0206375,0.0148392,0.0273132,0.0212097,-9.97986,0.019455,0.0012207,0.0152969,0.00854492,0.0219345,-0.00358582,0.0185013,0.0114822
21,6,10.0097,-0.000305176,0.00137329,-2.4305,0.0535448,-0.0768941,0.0510762,0.100572,-0.0980293,0.142572,-0.125766,-0.0892843,0.0127792,0.0214386,0.0172424,0.0118256,0.0176239,0.0111008,0.0238419,0.0166702,-9.97986,0.0173569,0.000495911,0.0145721,0.00354767,0.0151825,-0.00682831,0.0163269,0.00465393
21,7,10.0097,0.000305176,0.000762939,-2.4305,0.0532396,-0.0765889,0.0510762,0.0834825,-0.0968086,0.143792,-0.127292,-0.0874532,0.0146866,0.0259018,0.0213242,0.0094986,0.0161743,0.0102615,0.0190735,0.0177002,-9.97986,0.0154495,-0.00278473,0.0122452,0.00709534,0.0193405,7.62939e-005,0.0198746,0.00976563
21,8,10.0097,-0.000915527,-0.000152588,-2.42928,0.0541551,-0.0759786,0.0513814,0.0761583,-0.0949775,0.143182,-0.126682,-0.0871481,0.00961304,0.0246429,0.0179672,0.00629425,0.0130463,0.00888824,0.0199127,0.0141144,-9.97986,0.0142288,-0.00259399,0.0146866,0.00648499,0.0181961,-0.00499725,0.0140762,0.00476837
21,9,10.0097,0.000305176,0.000457764,-2.42867,0.0541551,-0.0744527,0.0535176,0.0731066,-0.094062,0.144708,-0.125461,-0.0859274,0.00873566,0.0297546,0.0194168,0.0119781,0.0151825,0.0109863,0.0266266,0.0157928,-9.97986,0.0202179,0.000610352,0.0158691,0.00862122,0.0180435,-0.00358582,0.0159454,0.00648499
22,0,10.0097,0,0.000152588,-2.42776,0.0550706,-0.0756734,0.0516866,0.0715807,-0.0928413,0.144708,-0.126072,-0.085317,0.00961304,0.0269318,0.0197601,0.0114441,0.0163269,0.0101471,0.0203705,0.0208282,-9.97986,0.0161743,-0.00110626,0.0147247,0.00267029,0.0180054,-0.00110626,0.0150299,0.0082016
22,1,10.0097,0.00152588,0,-2.42714,0.0562914,-0.0741475,0.0535176,0.07036,-0.0931465,0.145624,-0.126072,-0.0837911,0.0087738,0.0300217,0.0193787,0.0123215,0.0174332,0.0114441,0.0163651,0.018158,-9.97986,0.0159836,-0.00270844,0.0132751,0.00957489,0.0162506,-0.00362396,0.0152588,0.00743866
22,2,10.0097,-0.00183105,0.000305176,-2.42501,0.0562914,-0.0753682,0.0544332,0.0718859,-0.0934516,0.145318,-0.124851,-0.0819601,0.01297,0.0253677,0.0196075,0.0120163,0.0113297,0.00522614,0.0217056,0.0164413,-9.97986,0.018425,0.00175476,0.0159073,0.00919342,0.0197983,-0.00751495,0.0166702,0.00747681
22,3,10.0097,0.00244141,0,-2.42501,0.0569017,-0.073232,0.0553487,0.0712755,-0.0919257,0.146234,-0.12363,-0.0810445,0.00965118,0.0232315,0.0209808,0.0138855,0.0175858,0.00469208,0.0229645,0.015564,-9.97986,0.0168228,-0.00312805,0.0132751,0.0056076,0.0191879,-0.0130844,0.0180054,0.00629425
22,4,10.0097,-0.000305176,-0.000305176,-2.42562,0.0562914,-0.0741475,0.0538228,0.0715807,-0.0913154,0.148065,-0.124546,-0.0810445,0.00915527,0.0255966,0.0160217,0.0150299,0.0189209,0.0113678,0.0204849,0.0194168,-9.97986,0.0135422,-0.0044632,0.0103378,0.00499725,0.0179672,-0.0117874,0.0167084,0.00415802
22,5,9.36879,0.00183105,-0.00259399,-2.42653,0.0565965,-0.0735371,0.0522969,0.0276354,-0.095893,0.146234,-0.127292,-0.0825704,0.00976563,0.0270081,0.0211334,0.015564,0.0188446,0.0125885,0.0247574,0.0170135,-9.97986,0.0148392,-0.00198364,0.0110626,0.00751495,0.0185394,-0.00778198,0.0132751,0.00591278
22,6,0.949908,0.000610352,-0.00473022,-2.42501,0.0569017,-0.0741475,0.0538228,-0.0108168,-0.0989448,0.146844,-0.130039,-0.0828756,0.0119781,0.0231552,0.0204849,0.0146866,0.0227737,0.0117493,0.0192261,0.0180435,-9.97986,0.0178528,0.000801086,0.015831,0.00724792,0.0209427,-0.00301361,0.0131989,0.00671387
22,7,-6.19365,0.000305176,-0.00457764,-2.42653,0.0565965,-0.0735371,0.0535176,-0.0138685,-0.0965034,0.147455,-0.130344,-0.0819601,0.0128555,0.0279236,0.0198364,0.015564,0.0174332,0.00617981,0.0202942,0.0180054,-9.97986,0.0176239,-0.00339508,0.0169754,0.00465393,0.0196838,-0.00419617,0.0159836,0.00553131
22,8,-9.99003,-0.000305176,-0.00366211,-2.4244,0.0569017,-0.0723164,0.0550435,0.00749377,-0.0922309,0.147149,-0.128818,-0.080129,0.00896454,0.0223541,0.016098,0.0143814,0.0165558,0.00579834,0.0202179,0.0117874,-9.97986,0.0133514,-0.00377655,0.0122452,0.00850677,0.0183868,-0.00774384,0.01194,0.0043869
22,9,-9.99003,0.000915527,-0.00167847,-2.4247,0.055681,-0.0738423,0.0568746,0.0428942,-0.0900947,0.146539,-0.127598,-0.080129,0.00904083,0.0289536,0.0186539,0.0146103,0.0177765,0.0148773,0.022049,0.0186539,-9.97986,0.0140381,0.00450134,0.0151062,0.0087738,-0.00270844,-0.00274658,0.0203323,0.00553131
23,0,-9.99003,-0.000305176,-0.000457764,-2.42653,0.0559862,-0.0744527,0.0544332,0.058153,-0.0913154,0.146539,-0.126072,-0.0816549,0.0118256,0.0259781,0.0183868,0.0136185,0.0187683,0.00782013,0.0195694,0.0188828,-9.97986,0.0167465,0.00087738,0.0138474,0.00770569,-0.00530243,-0.00419617,0.0145721,0.00564575
23,1,-9.99003,0.000610352,-0.000610352,-2.42653,0.0547655,-0.0744527,0.0544332,0.0639513,-0.0919257,0.144403,-0.126987,-0.0840963,0.0107574,0.0226212,0.0180817,0.00926971,0.0199509,0.01091,0.0191498,0.0150681,-9.97986,0.0164413,-0.00450134,0.0152588,0.0102234,-0.00488281,-0.00965118,0.0154114,0.00614166
23,2,-9.99003,0.00213623,0.0012207,-2.42501,0.0550706,-0.0747579,0.0562642,0.111864,-0.0852119,0.145929,-0.12241,-0.0822652,0.00774384,0.0212097,0.017662,0.0121689,0.0178146,0.0139618,0.0234222,0.0199127,-9.97986,0.0152588,-0.00244141,0.0164413,0.00705719,0.0214767,-0.0107193,0.0193024,0.00659943
23,3,-3.55967,-0.000305176,0.00274658,-2.42776,0.0538499,-0.0762837,0.0547383,0.137804,-0.088874,0.144403,-0.12241,-0.0847066,0.0126648,0.0234222,0.0169754,0.0157547,0.0163269,0.00907898,0.0247192,0.0187683,-9.97986,0.0143051,-0.0012207,0.0157928,0.00553131,0.0219345,-0.0063324,0.0148773,0.00526428
23,4,3.90767,0,0.00427246,-2.42898,0.0535448,-0.0756734,0.0535176,0.153063,-0.0897895,0.142877,-0.121189,-0.0850118,0.0136185,0.0201797,0.0182343,0.0150299,0.0180817,0.00980377,0.017662,0.0183105,-9.97986,0.0117874,-0.00198364,0.01297,0.00488281,0.018692,-0.00514984,0.0159073,0.00453949
23,5,10.0097,0.000610352,0.00488281,-2.42776,0.0553758,-0.0765889,0.0526021,0.146959,-0.0916206,0.144098,-0.122104,-0.0865377,0.0107193,0.0239182,0.0183105,0.0112915,0.0172424,0.0117111,0.0209427,0.014534,-9.97986,0.0157928,0.0018692,0.0123978,0.0044632,0.0190353,-0.000267029,0.0155258,0.00934601
23,6,10.0097,-0.000305176,0.00198364,-2.43081,0.0541551,-0.0765889,0.0495503,0.0996569,-0.0980293,0.142877,-0.125461,-0.0886739,0.0131226,0.0265884,0.0198364,0.0125504,0.0207901,0.0105286,0.0229263,0.019989,-9.97986,0.015564,0.000686646,0.0131607,0.00839233,0.0157547,0.00354767,0.0181961,0.00694275
23,7,10.0097,0.0012207,0.000762939,-2.43081,0.0535448,-0.0756734,0.0504659,0.0822618,-0.0961982,0.143487,-0.126987,-0.0874532,0.00988007,0.02491,0.0194931,0.012207,0.0154114,0.00961304,0.0163651,0.0207138,-9.97986,0.0136566,0.00137329,0.0156784,0.00679016,0.0205612,0.00144958,0.0169754,0.00499725
23,8,10.0097,0.00152588,0.000305176,-2.42867,0.0547655,-0.0762837,0.0519917,0.0743273,-0.0952827,0.144708,-0.126987,-0.0871481,0.00904083,0.022049,0.0149918,0.010643,0.0218201,0.00827789,0.019722,0.0178146,-9.97986,0.0125504,0.00312805,0.0167847,0.00400543,0.0217819,0.00198364,0.01297,0.00709534
23,9,10.0097,0.000610352,-0.000305176,-2.42806,0.0541551,-0.0747579,0.0538228,0.0728014,-0.0952827,0.144708,-0.126987,-0.0850118,0.011673,0.0235748,0.0170898,0.0151062,0.0138092,0.00534058,0.0228882,0.0143433,-9.97986,0.0144958,-0.00236511,0.0154114,0.00793457,0.0198364,0.00293732,0.015831,0.00831604
24,0,10.0097,-0.000305176,0.000305176,-2.42745,0.0550706,-0.0747579,0.0532125,0.0709703,-0.0943672,0.145013,-0.126072,-0.0844015,0.00732422,0.0255585,0.0186157,0.0167847,0.0216675,0.00904083,0.0214005,0.0203323,-9.97986,0.014801,-0.00164032,0.0170135,0.00572205,0.0169373,-0.00175476,0.017662,0.00511169
24,1,10.0097,0.000915527,0.000610352,-2.42653,0.0553758,-0.0741475,0.054128,0.0709703,-0.0919257,0.145013,-0.126072,-0.0844015,0.0117111,0.0204849,0.0189972,0.0120544,0.0230789,0.00366211,0.0228119,0.0163269,-9.97986,0.0117111,-0.000457764,0.0120544,0.00484467,0.0172806,-0.000762939,0.0143433,0.00507355
24,2,10.0097,0.000915527,-0.000152588,-2.42592,0.055681,-0.075063,0.0544332,0.072191,-0.0925361,0.146539,-0.125461,-0.0837911,0.01091,0.019455,0.0168228,0.0133514,0.0201416,0.00862122,0.021286,0.0197601,-9.97986,0.0141144,0.00331879,0.0154877,0.00865936,0.0151443,-0.00217438,0.0156403,0.00400543
24,3,10.0097,0.00152588,0.000610352,-2.42562,0.0569017,-0.0738423,0.0535176,0.0712755,-0.0910102,0.14776,-0.124546,-0.0813497,0.00865936,0.0196838,0.0160217,0.0165176,0.0203323,0.00946045,0.0200653,0.0157547,-9.97986,0.0141525,0.00286102,0.0174332,0.00576019,0.0205231,0.000305176,0.0149155,0.00671387
24,4,10.0097,0.000610352,0.000457764,-2.42501,0.0562914,-0.0729268,0.0550435,0.0712755,-0.0913154,0.146539,-0.123325,-0.0816549,0.0130081,0.0191498,0.017395,0.01091,0.0176239,0.00789642,0.0224304,0.0175095,-9.97986,0.0146103,0.00179291,0.0151062,0.0104523,0.0180054,0.00205994,0.0163651,0.00343323
24,5,9.45363,0.00152588,-0.00244141,-2.42592,0.0559862,-0.0744527,0.0526021,0.0279405,-0.095893,0.147149,-0.128513,-0.0828756,0.0127411,0.0263596,0.0221634,0.0153351,0.020256,0.00965118,0.021019,0.0165939,-9.97986,0.014534,0.00427246,0.0152206,0.00591278,0.0183868,0.00324249,0.0190735,0.00774384
24,6,1.02498,0.00152588,-0.00488281,-2.42592,0.0565965,-0.0738423,0.0538228,-0.00959607,-0.0974189,0.146844,-0.130649,-0.0825704,0.0120544,0.0235367,0.0139236,0.0107574,0.0160599,0.0100708,0.0248718,0.0159073,-9.97986,0.0126648,-0.000114441,0.0141525,0.00526428,0.019455,0.00305176,0.0163269,0.00591278
24,7,-6.06059,0.000915527,-0.00473022,-2.42592,0.0572069,-0.0741475,0.054128,-0.012953,-0.0971137,0.146539,-0.129123,-0.0822652,0.0103378,0.0229263,0.0133133,0.0145721,0.0151443,0.00953674,0.0195694,0.0188065,-9.97986,0.0135803,-7.62939e-005,0.0144958,0.00518799,0.0152206,0.00267029,0.0138855,0.00602722
24,8,-9.99003,0.000610352,-0.00335693,-2.4244,0.0569017,-0.0744527,0.0553487,0.0084093,-0.0916206,0.146234,-0.127903,-0.0804342,0.0117111,0.0246048,0.0178909,0.00957489,0.0179291,0.0120926,0.0209045,0.0147247,-9.97986,0.0185013,-0.00156403,0.0130081,0.00431061,0.0204468,0.00343323,0.0191116,0.0094223
24,9,-9.99003,0.00183105,-0.00183105,-2.42409,0.0559862,-0.075063,0.055959,0.0416735,-0.0891792,0.146844,-0.125766,-0.0813497,0.0126648,0.0229263,0.0156403,0.0105286,0.0196457,0.00961304,0.0217056,0.0170135,-9.97986,0.0141144,-0.00213623,0.0126266,0.0101852,-0.0102997,-0.00564575,0.019455,0.00762939
25,0,-9.99003,0.000305176,-0.000152588,-2.42623,0.0547655,-0.0741475,0.055959,0.058153,-0.090705,0.146234,-0.127292,-0.0822652,0.00812531,0.020752,0.0190353,0.0100327,0.015564,0.00972748,0.0201416,0.0166702,-9.97986,0.0143051,-0.00484467,0.0165939,0.00869751,-0.00465393,-0.00358582,0.0173569,0.00831604
25,1,-9.99003,0,-0.000152588,-2.42653,0.0541551,-0.075063,0.0547383,0.0633409,-0.0919257,0.145013,-0.125461,-0.0819601,0.00881195,0.0204086,0.0169754,0.00923157,0.0141525,0.00835419,0.0242996,0.0190735,-9.97986,0.0114059,-0.00293732,0.0128937,0.00541687,-0.00854492,-0.00453949,0.0152588,0.00679016
25,2,-9.99003,0.000610352,0.0012207,-2.42531,0.055681,-0.0744527,0.0568746,0.111254,-0.0870429,0.146234,-0.123325,-0.0828756,0.00930786,0.0207901,0.0195313,0.0106812,0.0182724,0.01194,0.0191116,0.0160599,-9.97986,0.0107956,-0.0025177,0.0143051,0.0056839,0.0176239,0.00221252,0.0142288,0.00778198
25,3,-3.35856,0.00152588,0.00366211,-2.42806,0.0535448,-0.0762837,0.0547383,0.13933,-0.0876533,0.143792,-0.121494,-0.0847066,0.0115967,0.0221252,0.0170135,0.0104904,0.0172806,0.00968933,0.0214767,0.0164413,-9.97986,0.0159836,-0.000457764,0.0115967,0.00709534,0.0183105,0.000915527,0.0159836,0.00713348
25,4,4.03432,0.000305176,0.00442505,-2.42806,0.0538499,-0.0756734,0.054128,0.153978,-0.0891792,0.144708,-0.120578,-0.0850118,0.0122833,0.0216293,0.0210571,0.0110626,0.0219727,0.0118637,0.0282288,0.0162888,-9.97986,0.01194,0.00419617,0.0153351,0.00766754,0.0210953,0.00434875,0.0150299,0.00827789
25,5,10.0097,0,0.00427246,-2.42837,0.0547655,-0.0759786,0.0516866,0.14879,-0.0919257,0.144098,-0.122104,-0.0865377,0.00789642,0.0203705,0.0173569,0.00808716,0.0178528,0.00450134,0.0207138,0.0159836,-9.97986,0.0123978,-0.00164032,0.00747681,0.00255585,0.0141525,0.000457764,0.0111771,0.00476837
25,6,10.0097,0,0.00183105,-2.43081,0.0526292,-0.0762837,0.0495503,0.099962,-0.0968086,0.144403,-0.126377,-0.0892843,0.0112915,0.021019,0.0189209,0.0131989,0.0205612,0.00537872,0.0278854,0.0169754,-9.97986,0.0144577,0.00274658,0.0196075,0.00572205,0.0207901,0.0082016,0.0197983,0.0088501
25,7,10.0097,-0.000915527,0.0012207,-2.42898,0.0544603,-0.0762837,0.0504659,0.0834825,-0.0961982,0.143487,-0.126682,-0.0883688,0.00587463,0.0243759,0.0156784,0.0119019,0.0143814,0.00900269,0.0246811,0.0173187,-9.97986,0.0116348,0.000343323,0.0111771,0.00583649,0.0173187,-0.00549316,0.0152969,0.0063324
25,8,10.0097,0.000610352,0.000305176,-2.42928,0.0550706,-0.0759786,0.0516866,0.0749376,-0.0965034,0.144708,-0.126377,-0.0868429,0.01297,0.0193787,0.0200653,0.00865936,0.0163651,0.00873566,0.0224304,0.015564,-9.97986,0.016861,0.00865936,0.0130081,0.00747681,0.0161362,-0.0038147,0.0193787,0.00736237
25,9,10.0097,0.000610352,-0.000457764,-2.42714,0.0535448,-0.0756734,0.0529073,0.072191,-0.0952827,0.144098,-0.126072,-0.0856222,0.00881195,0.0167084,0.0185013,0.0146866,0.0188828,0.00450134,0.0249481,0.0190353,-9.97986,0.0160599,-0.000991821,0.014267,0.00831604,0.017395,-0.00102997,0.0193024,0.0069809
26,0,10.0097,-0.000610352,-0.000457764,-2.42806,0.0547655,-0.0756734,0.0522969,0.0718859,-0.0937568,0.145013,-0.125766,-0.0847066,0.00854492,0.0180054,0.0151443,0.0101471,0.0183487,0.0147629,0.0255585,0.0191879,-9.97986,0.0102615,-0.00457764,0.0136566,0.0031662,0.0177765,0.00164032,0.0153351,0.0069046
26,1,10.0097,0.00152588,0.000457764,-2.42714,0.0547655,-0.0735371,0.054128,0.0697496,-0.0943672,0.146234,-0.125156,-0.0837911,0.0112915,0.0214005,0.0182724,0.0102997,0.0170898,0.00858307,0.0257492,0.0159454,-9.97986,0.0147247,-0.000686646,0.0146484,0.00606537,0.0157928,0.00244141,0.0182343,0.00576019
26,2,10.0097,0.000610352,0.000610352,-2.42501,0.0562914,-0.0741475,0.0544332,0.072191,-0.0922309,0.146234,-0.123935,-0.0825704,0.0112152,0.0206375,0.0234985,0.0104141,0.0183868,0.00953674,0.0219727,0.0142288,-9.97986,0.0145721,0.000686646,0.0124359,0.00968933,0.0150681,0.00640869,0.0182343,0.00629425
26,3,10.0097,0.000610352,0,-2.42592,0.0565965,-0.0738423,0.0538228,0.0712755,-0.0910102,0.145929,-0.124546,-0.0813497,0.0147629,0.0227356,0.021286,0.00938416,0.0216293,0.0115585,0.0231934,0.019455,-9.97986,0.0102234,0.000953674,0.0152969,0.00785828,0.0134277,0.00816345,0.015564,0.00427246
26,4,10.0097,0.000305176,0.000305176,-2.42562,0.0562914,-0.0738423,0.0553487,0.0712755,-0.0913154,0.147455,-0.124851,-0.0822652,0.010643,0.0258255,0.0161362,0.0094986,0.0150681,0.010643,0.0177765,0.0170517,-9.97986,0.0110626,-0.00335693,0.0155258,0.00980377,0.0177765,0.0152969,0.0193024,0.00598907
26,5,9.51222,0.000915527,-0.00213623,-2.42714,0.0559862,-0.0741475,0.0529073,0.0279405,-0.095893,0.146844,-0.127598,-0.0828756,0.0126648,0.0180054,0.0134277,0.00804901,0.0160599,0.00610352,0.0203705,0.0180435,-9.97986,0.0150299,-0.00209808,0.0157928,0.0069046,0.0135422,0.00564575,0.0123978,0.0044632
26,6,1.0085,0.000305176,-0.00442505,-2.42562,0.0572069,-0.0735371,0.0547383,-0.0105116,-0.0961982,0.14776,-0.129734,-0.0819601,0.0094223,0.0209045,0.0154495,0.0105667,0.0177383,0.0119019,0.0242615,0.0191879,-9.97986,0.0122452,-0.000228882,0.0137711,0.00598907,0.0151825,0.00350952,0.0160217,0.00728607
26,7,-6.11491,0.00183105,-0.00411987,-2.42562,0.055681,-0.0735371,0.0544332,-0.0141737,-0.0952827,0.146234,-0.129429,-0.0816549,0.0115204,0.0237274,0.0181961,0.0120926,0.017662,0.00812531,0.0255585,0.0201797,-9.97986,0.0136948,-0.000724792,0.0122833,0.00812531,0.0164032,0.00205994,0.0173187,0.00865936
26,8,-9.99003,-0.000305176,-0.00305176,-2.42501,0.0569017,-0.0735371,0.0544332,0.00810412,-0.0934516,0.145929,-0.128818,-0.080129,0.0106812,0.0211334,0.018959,0.00793457,0.0203705,0.0094986,0.0247955,0.0152588,-9.97986,0.0120544,-0.00347137,0.0106812,0.00392914,0.0120544,-0.000457764,0.0127029,0.00743866
26,9,-9.99003,0.000915527,-0.00198364,-2.4244,0.0565965,-0.0735371,0.0547383,0.0410631,-0.0897895,0.146234,-0.127292,-0.0810445,0.0106812,0.0214767,0.0172043,0.012207,0.0157166,0.0121689,0.0217438,0.0202942,-9.97986,0.0144196,-0.00804901,0.0149918,0.00831604,-0.00915527,0.00595093,0.0177383,0.00659943
27,0,-9.99003,0.000305176,-0.000762939,-2.42623,0.0559862,-0.0741475,0.0547383,0.0584581,-0.0919257,0.145929,-0.126682,-0.0825704,0.0110245,0.0188446,0.0183868,0.00907898,0.0222778,0.00450134,0.0199127,0.0201035,-9.97986,0.0159836,-0.000915527,0.0155258,0.00663757,-0.00900269,0.00431061,0.0166702,0.00762939
27,1,-9.99003,0.000610352,0.000305176,-2.42806,0.0541551,-0.0756734,0.0544332,0.0645616,-0.0919257,0.145013,-0.126072,-0.0834859,0.0141525,0.02388,0.020752,0.0119781,0.0175858,0.00816345,0.0222015,0.0164413,-9.97986,0.01297,0.00411987,0.0141144,0.00343323,-0.00720978,0.00225067,0.0169754,0.0056076
27,2,-9.99003,0.000610352,0.00167847,-2.4247,0.0550706,-0.0744527,0.055959,0.110033,-0.0855171,0.145013,-0.12241,-0.0825704,0.0151062,0.0241089,0.0190735,0.0108719,0.0175858,0.00934601,0.0225067,0.0172424,-9.97986,0.0181961,0.00343323,0.0133896,0.00843048,0.0149918,-0.00190735,0.0164032,0.0050354
27,3,-3.5377,0.000305176,0.00305176,-2.42653,0.055681,-0.0762837,0.054128,0.138414,-0.0882636,0.144708,-0.122104,-0.0844015,0.0110626,0.0222778,0.0156784,0.0110245,0.021286,0.00915527,0.023613,0.0174332,-9.97986,0.0160599,0.00297546,0.0135422,0.0087738,0.0139618,-0.00579834,0.0143433,0.00583649
27,4,3.88448,0.0012207,0.00442505,-2.42745,0.0529344,-0.0765889,0.054128,0.154588,-0.0897895,0.143792,-0.121494,-0.085317,0.0147247,0.0156784,0.0180435,0.00991821,0.0152969,0.0102615,0.0232697,0.0175476,-9.97986,0.0118256,0.000991821,0.015564,0.0088501,0.0185013,-0.000534058,0.017395,0.00514984
27,5,10.0097,0.00213623,0.00442505,-2.42867,0.0532396,-0.0762837,0.0519917,0.14818,-0.0913154,0.142572,-0.121189,-0.0862325,0.01091,0.0172043,0.0204849,0.0128174,0.0182343,0.0112152,0.0199509,0.0163651,-9.97986,0.0166321,-0.000762939,0.0166702,0.00602722,0.0164413,0.0019455,0.0179672,0.00793457
27,6,10.0097,-0.0012207,0.00167847,-2.43111,0.0526292,-0.0771993,0.0501607,0.100878,-0.0974189,0.142877,-0.124851,-0.0883688,0.00896454,0.0205994,0.0198746,0.0113678,0.0170898,0.01194,0.0193405,0.0188065,-9.97986,0.0141525,-0.0019455,0.0125885,0.00793457,0.0153351,-0.000953674,0.0157928,0.00572205
27,7,10.0097,0.0012207,0.000457764,-2.42989,0.0529344,-0.0762837,0.0516866,0.080736,-0.0968086,0.143182,-0.125156,-0.0871481,0.0110245,0.0240707,0.0175476,0.0116348,0.0210953,0.0102615,0.0191498,0.0196457,-9.97986,0.0138092,-0.00995636,0.0162888,0.00694275,0.0148773,-0.00267029,0.0155258,0.0056839
27,8,10.0097,0,-0.000610352,-2.42806,0.0550706,-0.075063,0.0519917,0.0743273,-0.0968086,0.143487,-0.126987,-0.0871481,0.0122833,0.0236511,0.0151443,0.00839233,0.0177383,0.00907898,0.0216675,0.0185394,-9.97986,0.0131989,-0.00808716,0.0127792,0.00999451,0.0142288,0.000648499,0.015831,0.00629425
27,9,10.0097,0.0012207,0,-2.42898,0.0550706,-0.075063,0.0532125,0.072191,-0.094062,0.144708,-0.126987,-0.0856222,0.0105667,0.0235748,0.0145721,0.014801,0.0136948,0.0113678,0.0257111,0.0153732,-9.97986,0.0145721,-0.00850677,0.014267,0.00812531,0.0150299,0.00331879,0.0126648,0.00801086
28,0,10.0097,0.000305176,0.000152588,-2.42776,0.0553758,-0.0759786,0.0526021,0.0712755,-0.0946723,0.142877,-0.125766,-0.0840963,0.0141525,0.0225067,0.0151062,0.0133133,0.0122452,0.00774384,0.0209808,0.0168228,-9.97986,0.013504,-0.00331879,0.0163269,0.0062561,0.0151443,0.000419617,0.0151062,0.00606537
28,1,10.0097,0.000915527,0.000457764,-2.42684,0.0553758,-0.0747579,0.0529073,0.0712755,-0.0937568,0.145318,-0.125461,-0.0837911,0.0100708,0.0244522,0.0187302,0.0112915,0.014534,0.0117493,0.0218582,0.0184631,-9.97986,0.0134277,-0.00183105,0.0156021,0.00843048,0.0169754,-0.00415802,0.0165558,0.00644684
28,2,10.0097,-0.000610352,0.000457764,-2.42592,0.0562914,-0.0741475,0.0538228,0.0715807,-0.0922309,0.146234,-0.125156,-0.0822652,0.0103378,0.020752,0.0160599,0.0087738,0.0138474,0.00911713,0.019989,0.0193405,-9.97986,0.0147629,-0.00400543,0.0161362,0.00782013,0.0181198,-0.00175476,0.0167084,0.00804901
28,3,10.0097,0.00183105,0.000762939,-2.42592,0.0569017,-0.0738423,0.0544332,0.072191,-0.0928413,0.146539,-0.124546,-0.0819601,0.0112915,0.0201797,0.0187302,0.0107574,0.0151443,0.00919342,0.0241852,0.0218964,-9.97986,0.0122452,-0.00244141,0.0164032,0.00774384,0.013504,-0.00488281,0.0182724,0.00717163
28,4,10.0097,0.00183105,0,-2.42501,0.0565965,-0.0738423,0.0556539,0.0718859,-0.090705,0.147455,-0.123935,-0.0813497,0.00812531,0.0190353,0.0207901,0.0117493,0.0120544,0.0103378,0.0219345,0.0157928,-9.97986,0.0134277,-0.00526428,0.0160217,0.00484467,0.0138855,-0.00232697,0.0189209,0.00751495
28,5,9.55251,-0.000305176,-0.00350952,-2.42562,0.0569017,-0.073232,0.0538228,0.0285509,-0.0968086,0.145929,-0.127292,-0.0822652,0.00968933,0.0214767,0.0192261,0.00720978,0.017662,0.0159454,0.0216293,0.018692,-9.97986,0.0133514,-0.00278473,0.0156403,0.00366211,0.0156403,-0.00343323,0.0183105,0.00801086
28,6,1.14766,-0.000915527,-0.00534058,-2.42592,0.0572069,-0.073232,0.0516866,-0.0105116,-0.0974189,0.147149,-0.129429,-0.0822652,0.00705719,0.0195694,0.0195313,0.00850677,0.0159073,0.0125885,0.0247955,0.0183868,-9.97986,0.0123596,-0.00221252,0.0141525,0.00583649,0.0189972,-0.0105667,0.0133514,0.00675201
28,7,-5.98613,0.0012207,-0.00488281,-2.42501,0.0569017,-0.0741475,0.0553487,-0.0135634,-0.095893,0.147149,-0.129429,-0.0822652,0.00667572,0.0208282,0.017662,0.00965118,0.0128937,0.0136566,0.0232697,0.0212097,-9.97986,0.0120926,-0.00221252,0.0148392,0.0082016,0.0154877,-0.0134277,0.0151062,0.0069809
28,8,-9.99003,-0.000305176,-0.00335693,-2.42531,0.0559862,-0.0738423,0.0547383,0.00810412,-0.0919257,0.147149,-0.128513,-0.0804342,0.0139618,0.0212479,0.0227356,0.00980377,0.0103378,0.0105667,0.0211334,0.0187683,-9.97986,0.0132751,-0.0012207,0.0116348,0.0104141,0.0122833,-0.0136948,0.0167465,0.00480652
28,9,-9.99003,0.000610352,-0.00106812,-2.42531,0.0553758,-0.0735371,0.055959,0.0404528,-0.0897895,0.146539,-0.126987,-0.0810445,0.0087738,0.0222015,0.0187683,0.0062561,0.0172806,0.0120926,0.0204849,0.0150299,-9.97986,0.0143814,-0.00377655,0.0165939,0.00549316,-0.0121307,-0.0154114,0.0174332,0.00648499
29,0,-9.99003,0,-0.000305176,-2.42562,0.0550706,-0.0741475,0.0550435,0.0569322,-0.0910102,0.146234,-0.125156,-0.0816549,0.00450134,0.0223541,0.020256,0.0114822,0.0132751,0.0111389,0.0227356,0.0181961,-9.97986,0.0127792,-0.00137329,0.0156021,0.00518799,-0.00728607,-0.0107574,0.0141907,0.00720978
29,1,-9.99003,0.00213623,-0.000457764,-2.42684,0.055681,-0.0741475,0.054128,0.0639513,-0.0919257,0.145929,-0.126987,-0.0834859,0.0056839,0.0200653,0.016861,0.0117493,0.0156021,0.0139236,0.0211334,0.0149918,-9.97986,0.0157166,-0.00297546,0.0154495,0.00610352,-0.0119781,-0.0174332,0.0117111,0.00423431
29,2,-9.99003,0.000610352,0.00152588,-2.42623,0.055681,-0.0741475,0.0562642,0.111559,-0.0861274,0.145013,-0.122715,-0.0816549,0.00900269,0.025177,0.0146484,0.0110626,0.014534,0.0106049,0.0243759,0.0174332,-9.97986,0.0113678,-0.0037384,0.0139999,0.00328064,0.0180817,-0.020256,0.0161362,0.00743866
29,3,-3.20445,0,0.00427246,-2.42653,0.0538499,-0.0753682,0.0544332,0.139025,-0.0873481,0.144403,-0.122104,-0.0831808,0.00762939,0.0228882,0.0182724,0.0106049,0.0146866,0.0107574,0.0265121,0.0144196,-9.97986,0.0177383,-0.00335693,0.0146866,0.00556946,0.0160599,-0.0170898,0.0154495,0.00831604
29,4,4.15547,-0.000305176,0.00488281,-2.42806,0.0547655,-0.0759786,0.0544332,0.153978,-0.0894843,0.144708,-0.121189,-0.0850118,0.0111008,0.0241089,0.0157166,0.0128937,0.0133514,0.0102615,0.0233459,0.0191116,-9.97986,0.0125504,0.000915527,0.0138092,0.00659943,0.0125504,-0.017128,0.0166702,0.00541687
29,5,10.0097,-0.000610352,0.00457764,-2.42959,0.0544603,-0.0765889,0.0513814,0.146959,-0.0913154,0.143487,-0.122104,-0.0868429,0.0158691,0.0246429,0.0158691,0.0119019,0.0133896,0.0148773,0.0242996,0.0179672,-9.97986,0.0137711,-0.00499725,0.0138474,0.00835419,0.0175095,-0.0187683,0.0164795,0.00717163
29,6,10.0097,0.00274658,0.00137329,-2.43142,0.0529344,-0.0771993,0.0492452,0.0996569,-0.0968086,0.141656,-0.125766,-0.0886739,0.00957489,0.0220108,0.0191116,0.0120544,0.0166702,0.0108337,0.0226593,0.0196075,-9.97986,0.0159836,-0.00530243,0.0169754,0.00648499,0.0126266,-0.0167847,0.0122833,0.00808716
29,7,10.0097,0.000610352,0.000305176,-2.42928,0.0532396,-0.0762837,0.050771,0.0810411,-0.0961982,0.144098,-0.126682,-0.0871481,0.00759125,0.0224686,0.0183105,0.0123215,0.0183105,0.0148773,0.0247955,0.0161362,-9.97986,0.0120544,-0.00514984,0.0112534,0.00556946,0.0127792,-0.016861,0.0131989,0.00659943
29,8,10.0097,0,0,-2.42867,0.0547655,-0.0759786,0.0513814,0.0743273,-0.095893,0.143792,-0.126072,-0.0871481,0.0118637,0.0201035,0.0200653,0.0121689,0.0148392,0.010376,0.0243759,0.0179672,-9.97986,0.018692,-0.000343323,0.0143051,0.00823975,0.0167847,-0.0141525,0.0155258,0.00831604
29,9,10.0097,-0.000610352,-0.000152588,-2.42745,0.0553758,-0.075063,0.0532125,0.0724962,-0.0946723,0.145013,-0.127598,-0.0862325,0.00915527,0.0242233,0.0155258,0.0117874,0.0175858,0.0156403,0.02285,0.0154877,-9.97986,0.0102997,-0.000648499,0.0154495,0.00846863,0.0175858,-0.0125122,0.0148392,0.00541687
30,0,10.0097,0.00244141,-0.000610352,-2.42806,0.0550706,-0.0747579,0.0529073,0.07036,-0.0925361,0.145013,-0.125156,-0.0850118,0.0112915,0.0247955,0.019989,0.0133514,0.0191116,0.0117111,0.0236511,0.0203323,-9.97986,0.0180817,-0.00427246,0.0165176,0.00720978,0.0166702,-0.0094223,0.0165939,0.00915527
30,1,10.0097,0.000610352,0.000762939,-2.42745,0.055681,-0.0756734,0.0532125,0.0712755,-0.0934516,0.145318,-0.125766,-0.0850118,0.0128174,0.0232697,0.0185013,0.0117111,0.0199509,0.0109863,0.0228882,0.0155258,-9.97986,0.0168228,-0.0025177,0.0128937,0.00789642,0.0176239,-0.0159836,0.0157166,0.00892639
30,2,10.0097,0.000610352,0.000457764,-2.42562,0.0562914,-0.0729268,0.0544332,0.0728014,-0.0922309,0.146234,-0.125156,-0.0819601,0.00900269,0.0229263,0.0164413,0.0121307,0.0163269,0.0102997,0.0221634,0.0169373,-9.97986,0.0107956,-0.00335693,0.0153732,0.00923157,0.0151825,-0.0124359,0.014267,0.00782013
30,3,10.0097,0.000610352,0.000305176,-2.42592,0.0559862,-0.0744527,0.0547383,0.0718859,-0.0919257,0.145318,-0.124241,-0.0819601,0.0088501,0.0267029,0.0201416,0.0140381,0.0192261,0.0136566,0.0229645,0.016098,-9.97986,0.0156784,-0.00324249,0.0136948,0.00648499,0.015831,-0.00808716,0.0147629,0.00453949
30,4,10.0097,0.000305176,0,-2.42531,0.0572069,-0.0738423,0.054128,0.0715807,-0.0910102,0.147455,-0.125461,-0.0798238,0.00934601,0.0245667,0.016861,0.013237,0.0212479,0.0105286,0.0268936,0.0164795,-9.97986,0.0104904,0.00141144,0.0140381,0.00411987,0.0178909,-0.00736237,0.0125885,0.0043869
30,5,9.45333,0.00183105,-0.00335693,-2.42623,0.055681,-0.0729268,0.0532125,0.0285509,-0.0965034,0.145013,-0.126987,-0.0828756,0.0108337,0.0217438,0.0186157,0.0123596,0.016098,0.0127029,0.0261688,0.0164795,-9.97986,0.0128174,-0.0062561,0.0182724,0.0044632,0.018158,-0.00656128,0.0143433,0.00667572
30,6,1.12996,-0.000610352,-0.00427246,-2.42501,0.0562914,-0.0738423,0.0535176,-0.00990125,-0.0974189,0.147149,-0.129734,-0.0825704,0.00637054,0.0265884,0.0233078,0.014534,0.0218582,0.00988007,0.019722,0.015564,-9.97986,0.0136948,-0.000305176,0.0137329,0.0105286,0.0111008,-0.00793457,0.0138092,0.00850677
30,7,-6.085,0.000305176,-0.00457764,-2.42562,0.0572069,-0.0738423,0.0538228,-0.0132582,-0.0965034,0.147149,-0.129734,-0.0816549,0.0131226,0.0249863,0.0192261,0.013504,0.0179672,0.0113297,0.0212097,0.0140381,-9.97986,0.0172424,-0.000534058,0.0150299,0.00682831,0.0171661,-0.00347137,0.0154114,0.00762939
30,8,-9.99003,0.00183105,-0.00427246,-2.42501,0.0562914,-0.0735371,0.0556539,0.00932483,-0.0913154,0.147455,-0.128513,-0.080129,0.0133133,0.0275421,0.0216293,0.0151443,0.018158,0.00915527,0.0221634,0.0182724,-9.97986,0.0147629,0.00240326,0.0157166,0.0107193,0.0124741,-0.00038147,0.0183105,0.00865936
30,9,-9.99003,-0.000305176,-0.00228882,-2.4247,0.055681,-0.0738423,0.0562642,0.0422838,-0.0900947,0.146844,-0.125156,-0.0795187,0.00980377,0.0233459,0.0190735,0.0105667,0.0165176,0.0109863,0.0193405,0.0183868,-9.97986,0.00671387,-0.00473022,0.0101471,0.00354767,-0.0126266,-0.00110626,0.0163651,0.0056839
31,0,-9.99003,0.00213623,-0.0012207,-2.42562,0.0553758,-0.075063,0.055959,0.058153,-0.0900947,0.145929,-0.125766,-0.0819601,0.0108337,0.0260162,0.0162506,0.0118256,0.0211334,0.00854492,0.0247955,0.0170517,-9.97986,0.017128,-0.00152588,0.0129318,0.000572205,-0.00705719,0.000152588,0.017128,0.00701904
31,1,-9.99003,0.000610352,0.000152588,-2.42714,0.0553758,-0.0744527,0.0538228,0.0639513,-0.0934516,0.145624,-0.125766,-0.0834859,0.0128555,0.0239182,0.0174713,0.0111008,0.0156021,0.0128937,0.0218582,0.0183487,-9.97986,0.0144196,-0.000267029,0.0124359,0.00114441,-0.0111008,0.000228882,0.0148773,0.00476837
31,2,-9.99003,0.000610352,0.00106812,-2.42592,0.055681,-0.0747579,0.0562642,0.109422,-0.0879585,0.146234,-0.123325,-0.0822652,0.0114441,0.0229263,0.0157166,0.0147247,0.0156784,0.00988007,0.0232315,0.0147247,-9.97986,0.0136948,-0.00392914,0.0152969,0.00701904,0.0152206,0.00320435,0.0169373,0.00587463
31,3,-3.4785,0.000610352,0.00350952,-2.42684,0.0541551,-0.0756734,0.0556539,0.139025,-0.0885688,0.143487,-0.122715,-0.0840963,0.00724792,0.0257874,0.0210953,0.00991821,0.0162506,0.00919342,0.02491,0.017662,-9.97986,0.0129318,0.00137329,0.0136566,0.00679016,0.0193024,-0.00782013,0.0190353,0.00686646
31,4,3.94582,0,0.00442505,-2.42898,0.0541551,-0.0747579,0.0538228,0.154283,-0.088874,0.144403,-0.121494,-0.0859274,0.0119019,0.0238419,0.0201035,0.0128174,0.0156021,0.00720978,0.0182343,0.0190353,-9.97986,0.0139999,-0.0019455,0.0113297,0.00473022,0.0175095,-0.0125504,0.0193024,0.00789642
31,5,10.0097,0.00183105,0.00457764,-2.42959,0.0541551,-0.0756734,0.054128,0.14818,-0.0913154,0.143182,-0.121799,-0.0862325,0.01091,0.0229263,0.0207138,0.0156403,0.0194931,0.0136566,0.0247955,0.0196838,-9.97986,0.0163269,0.000839233,0.0114822,0.00869751,0.018425,-0.0180054,0.017128,0.00774384
31,6,10.0097,0.0012207,0.0012207,-2.43081,0.0523241,-0.0771993,0.0492452,0.0996569,-0.0980293,0.142572,-0.125156,-0.0883688,0.00720978,0.0227356,0.0191879,0.0119781,0.0172806,0.0143051,0.0211334,0.0147247,-9.97986,0.0151062,0.000114441,0.0128937,0.00720978,0.0185776,-0.0224304,0.0166702,0.00354767
31,7,10.0097,-0.000915527,0.000915527,-2.4302,0.0535448,-0.0759786,0.0513814,0.0813463,-0.0961982,0.144098,-0.126987,-0.0877584,0.0157547,0.021553,0.0184631,0.00869751,0.0189972,0.00907898,0.0227737,0.01297,-9.97986,0.0154114,0.00473022,0.0184631,0.00617981,0.0177765,-0.0194931,0.0229645,0.0062561
31,8,10.0097,-0.000305176,0.000152588,-2.42806,0.0547655,-0.0753682,0.0532125,0.077379,-0.0952827,0.145624,-0.126682,-0.0868429,0.0120544,0.0218582,0.0188828,0.0111389,0.0185776,0.00797272,0.0222397,0.0162506,-9.97986,0.017128,0.000724792,0.0152969,0.00770569,0.0164413,-0.0109482,0.0185013,0.00694275
31,9,10.0097,0.0012207,-0.000152588,-2.42837,0.0553758,-0.0756734,0.0526021,0.0728014,-0.094062,0.144098,-0.126072,-0.0847066,0.0108719,0.0262833,0.018959,0.0111771,0.0179291,0.00934601,0.0203323,0.014267,-9.97986,0.0157547,0.00282288,0.0120926,0.00926971,0.0162888,0.001297,0.0175858,0.00488281
32,0,10.0097,0.000305176,-0.000305176,-2.42745,0.0550706,-0.075063,0.0538228,0.0718859,-0.0943672,0.145013,-0.124851,-0.0844015,0.00778198,0.0250244,0.0185394,0.00694275,0.0144577,0.0140381,0.0244522,0.0188446,-9.97986,0.014801,0.00156403,0.0141525,0.00480652,0.013504,0.00782013,0.014534,0.00392914
32,1,10.0097,0,0.000457764,-2.42653,0.0541551,-0.0756734,0.054128,0.0715807,-0.0934516,0.145318,-0.125461,-0.0834859,0.0107574,0.0268555,0.0203705,0.0115204,0.0163651,0.0107574,0.0236511,0.0146866,-9.97986,0.018692,0.00133514,0.0187302,0.00865936,0.0166702,0.00988007,0.0174713,0.00526428
32,2,10.0097,0,0.000305176,-2.42501,0.0569017,-0.0744527,0.054128,0.0715807,-0.0919257,0.147455,-0.124851,-0.0822652,0.00766754,0.0234985,0.0191879,0.0128174,0.0177765,0.0101089,0.0227356,0.0159454,-9.97986,0.0187302,-0.000267029,0.0152588,0.00823975,0.0167847,0.0123596,0.0162888,0.0043869
32,3,10.0097,-0.000610352,0.000152588,-2.42623,0.0562914,-0.0747579,0.0556539,0.0724962,-0.0916206,0.146234,-0.124546,-0.0816549,0.0127792,0.0204086,0.0178528,0.0109482,0.0181961,0.00724792,0.0241852,0.020256,-9.97986,0.0113297,0.000839233,0.014801,0.00598907,0.0162888,0.0136566,0.0123215,0.00610352
32,4,10.0097,0.00183105,-0.000305176,-2.4247,0.0559862,-0.0741475,0.0547383,0.0709703,-0.0919257,0.147455,-0.123935,-0.0825704,0.0105286,0.0266647,0.019722,0.0122833,0.0191116,0.0117874,0.0240707,0.0179291,-9.97986,0.0156021,0.00141144,0.0146866,0.00747681,0.0174713,0.0112915,0.0158691,0.00869751
32,5,9.64406,0.00213623,-0.00244141,-2.42684,0.0550706,-0.0744527,0.0538228,0.0297716,-0.0968086,0.146234,-0.126987,-0.0822652,0.00782013,0.0242615,0.018692,0.0121307,0.0210953,0.0143814,0.0282669,0.0195313,-9.97986,0.0150299,-0.000762939,0.0159454,0.00644684,0.016098,0.00637054,0.0126266,0.00789642
32,6,1.18856,0.000610352,-0.00427246,-2.42562,0.0562914,-0.0735371,0.0522969,-0.0117323,-0.0977241,0.145929,-0.128818,-0.0816549,0.0132751,0.0210571,0.019989,0.0104141,0.0175858,0.0104523,0.0216293,0.018692,-9.97986,0.0159073,0.000686646,0.00965118,0.00705719,0.013504,0.00648499,0.0150299,0.00801086
32,7,-5.98552,-0.000610352,-0.00427246,-2.42531,0.0572069,-0.0744527,0.0529073,-0.0144789,-0.0961982,0.147149,-0.129123,-0.0810445,0.0117111,0.0256348,0.0189972,0.0128555,0.0192261,0.0152588,0.0195694,0.017128,-9.97986,0.0196838,-0.00286102,0.0148773,0.0103378,0.0189209,0.00789642,0.0205231,0.00640869
32,8,-9.99003,0,-0.00411987,-2.4244,0.0559862,-0.0738423,0.0556539,0.00810412,-0.0934516,0.146234,-0.128513,-0.080129,0.00873566,0.0222397,0.0182724,0.0112152,0.0150299,0.00873566,0.0135422,0.018425,-9.97986,0.0140381,-0.00320435,0.0124741,0.00705719,0.00934601,0.00202179,0.0145721,0.00621796
32,9,-9.99003,0.000305176,-0.00167847,-2.42348,0.0559862,-0.0741475,0.0571797,0.0413683,-0.088874,0.146844,-0.126682,-0.080129,0.0127029,0.0254822,0.0188828,0.0112152,0.0164032,0.0136948,0.0217056,0.014801,-9.97986,0.018158,0.00400543,0.0159454,0.0104523,-0.00724792,0.00320435,0.0204468,0.00705719
33,0,-9.99003,0.0012207,-0.00106812,-2.42592,0.0562914,-0.075063,0.0550435,0.0575426,-0.0919257,0.145624,-0.127598,-0.0816549,0.0101852,0.0230408,0.0178146,0.00705719,0.0156403,0.00732422,0.0201035,0.015831,-9.97986,0.017395,-0.000343323,0.0156403,0.00541687,-0.00858307,0.00110626,0.0146866,0.00415802
33,1,-9.99003,0,0.000610352,-2.42562,0.0547655,-0.075063,0.054128,0.065172,-0.0903999,0.145013,-0.126377,-0.0831808,0.0124359,0.0223923,0.0151825,0.00785828,0.0182724,0.0127029,0.0199509,0.0178146,-9.97986,0.014267,0.000114441,0.0155258,0.00370026,-0.00865936,0.00164032,0.0172424,0.00480652
33,2,-9.99003,0.00213623,0.000915527,-2.42592,0.0547655,-0.0756734,0.0562642,0.109117,-0.0876533,0.146539,-0.122715,-0.0825704,0.00999451,0.0207138,0.0180435,0.0135422,0.0183487,0.0111389,0.0217056,0.0212097,-9.97986,0.0120926,-0.00171661,0.0123215,0.0104141,0.0150681,0.00476837,0.0187683,0.00747681
33,3,-3.57768,-0.00183105,0.00320435,-2.42653,0.0544603,-0.075063,0.0544332,0.137804,-0.0882636,0.144098,-0.122715,-0.0844015,0.0131607,0.0214386,0.0172806,0.0109482,0.0149918,0.00644684,0.0234985,0.0208282,-9.97986,0.018158,-0.001297,0.0140381,0.00610352,0.0180817,0.00400543,0.0175476,0.0094986
33,4,3.76058,0.000610352,0.00488281,-2.42837,0.0523241,-0.0756734,0.0544332,0.153673,-0.0894843,0.143487,-0.121494,-0.085317,0.0108719,0.0239563,0.0211716,0.00915527,0.0162125,0.00774384,0.019455,0.0170898,-9.97986,0.0159454,-0.00286102,0.0136185,0.00286102,0.0193405,0.00179291,0.0145721,0.00610352
33,5,10.0097,-0.0012207,0.00457764,-2.42837,0.0541551,-0.0756734,0.0526021,0.14818,-0.090705,0.144403,-0.122104,-0.085317,0.0109482,0.0234222,0.0169754,0.0133896,0.0181961,0.00999451,0.020752,0.0157166,-9.97986,0.0174332,-0.000457764,0.0169754,0.00751495,0.0160217,0.00038147,0.0196838,0.00518799
33,6,10.0097,-0.000305176,0.00183105,-2.43081,0.0529344,-0.0768941,0.0504659,0.101183,-0.0980293,0.141656,-0.125766,-0.0886739,0.00881195,0.0189209,0.0209045,0.00900269,0.0210571,0.0119781,0.0256348,0.0161362,-9.97986,0.011673,-0.000762939,0.0144577,0.00812531,0.0204086,-0.000457764,0.0185394,0.00705719
33,7,10.0097,-0.000610352,0.000762939,-2.42989,0.0532396,-0.0756734,0.0513814,0.0819567,-0.0977241,0.144708,-0.126377,-0.0886739,0.0152588,0.0271225,0.0255203,0.015831,0.0206375,0.0119019,0.0253677,0.0211334,-9.97986,0.0128174,0.0031662,0.0149918,0.00484467,0.0188065,-3.8147e-005,0.0192261,0.00701904
33,8,10.0097,0.000915527,0.000152588,-2.42898,0.0538499,-0.0759786,0.0526021,0.0752428,-0.0955879,0.143182,-0.126682,-0.0859274,0.00854492,0.0254822,0.0149536,0.00797272,0.0182343,0.00873566,0.0171661,0.0159073,-9.97986,0.0131989,0.00167847,0.0133896,0.00205994,0.017662,-0.000495911,0.0138855,0.00717163
33,9,10.0097,-0.000305176,-0.000152588,-2.42806,0.0550706,-0.0747579,0.0526021,0.0724962,-0.0931465,0.145013,-0.126072,-0.0862325,0.0111008,0.0264359,0.0201035,0.0104523,0.0190735,0.0108719,0.020256,0.0171661,-9.97986,0.0162506,-0.00793457,0.0198746,0.000152588,0.0152206,-0.00236511,0.0138092,0.00465393
34,0,10.0097,0.00183105,-0.000152588,-2.42776,0.0547655,-0.0756734,0.0526021,0.0718859,-0.094062,0.145929,-0.126377,-0.0844015,0.0139618,0.0236511,0.0204086,0.0104523,0.0211716,0.0122833,0.0195313,0.0189209,-9.97986,0.0136566,-0.00110626,0.0102615,0.00759125,0.0166321,-0.00205994,0.0145721,0.00713348
34,1,10.0097,0.000915527,0.000305176,-2.42684,0.0547655,-0.0738423,0.0535176,0.0709703,-0.0925361,0.144403,-0.125461,-0.0837911,0.0100708,0.0234222,0.018158,0.0101089,0.0222778,0.00839233,0.0211716,0.0175858,-9.97986,0.0151825,0.000762939,0.0152588,0.00671387,0.018959,0.00038147,0.0157547,0.0063324
34,2,10.0097,0,0.000457764,-2.42501,0.0547655,-0.0747579,0.054128,0.0706652,-0.0925361,0.146234,-0.12363,-0.0819601,0.0103378,0.0220108,0.0189972,0.01091,0.0209427,0.0121689,0.0248337,0.0204086,-9.97986,0.0171661,-0.00183105,0.014267,0.00839233,0.0149536,-0.00118256,0.0139236,0.00774384
34,3,10.0097,-0.000610352,0.000610352,-2.42562,0.0565965,-0.0741475,0.0544332,0.0724962,-0.0922309,0.146234,-0.124241,-0.0813497,0.00827789,0.0211334,0.0183868,0.0082016,0.0165558,0.00686646,0.0207901,0.0165939,-9.97986,0.01194,-0.000267029,0.0147629,0.00617981,0.0154877,-0.00225067,0.0144577,0.00606537
34,4,10.0097,-0.000305176,0.000305176,-2.42379,0.0559862,-0.0741475,0.0553487,0.0712755,-0.0910102,0.147149,-0.123935,-0.0822652,0.01194,0.0236893,0.0177002,0.0133133,0.0203705,0.0111008,0.0154877,0.018692,-9.97986,0.0186539,-0.000495911,0.0179291,0.00705719,0.0185394,-0.000610352,0.0147629,0.0056076
34,5,9.55556,-0.000610352,-0.00274658,-2.42592,0.0559862,-0.0741475,0.0538228,0.0294664,-0.0968086,0.146539,-0.127292,-0.0825704,0.00782013,0.0218582,0.0170898,0.00930786,0.0178146,0.0101471,0.0198746,0.0150299,-9.97986,0.014801,-0.00389099,0.0167465,0.00537872,0.020752,0.00141144,0.0158691,0.0050354
34,6,1.17116,0.000915527,-0.00442505,-2.42562,0.0569017,-0.0738423,0.0535176,-0.0123427,-0.0983344,0.145624,-0.129734,-0.0822652,0.0135803,0.0237274,0.0146484,0.0106049,0.0179291,0.0112152,0.0209045,0.0188828,-9.97986,0.0166321,0.000534058,0.017662,0.00648499,0.020256,0.00476837,0.0161743,0.00675201
34,7,-5.98582,0,-0.00442505,-2.42562,0.0569017,-0.0726216,0.0532125,-0.012953,-0.095893,0.148065,-0.130039,-0.0822652,0.0132751,0.0218201,0.0156784,0.0130844,0.0174713,0.00263214,0.0254059,0.0202942,-9.97986,0.0115204,-0.000419617,0.015564,0.00576019,0.0152969,0.00694275,0.0136566,0.00499725
34,8,-9.99003,0.00152588,-0.00411987,-2.4244,0.0578172,-0.073232,0.0550435,0.00810412,-0.0925361,0.146234,-0.128818,-0.0807394,0.0111389,0.0234985,0.016098,0.0094986,0.0152588,0.00602722,0.0177383,0.0150299,-9.97986,0.0133514,-0.00190735,0.0135803,0.00450134,0.0155258,0.00461578,0.0111008,0.00911713
34,9,-9.99003,0.000305176,-0.00198364,-2.4244,0.0562914,-0.0735371,0.0562642,0.0419786,-0.0910102,0.145624,-0.126987,-0.0810445,0.00541687,0.0222778,0.0177383,0.0104141,0.019722,0.00743866,0.0203323,0.0173187,-9.97986,0.0139236,-0.00286102,0.0128555,0.00476837,-0.00598907,0.00492096,0.015831,0.00762939
35,0,-9.99003,-0.00274658,-0.000457764,-2.42531,0.0553758,-0.0744527,0.0553487,0.0578478,-0.0913154,0.145318,-0.125766,-0.0822652,0.00999451,0.0225067,0.0209427,0.00980377,0.0167465,0.00740051,0.0217438,0.0170517,-9.97986,0.0156021,-0.00286102,0.0153351,0.00507355,-0.00869751,7.62939e-005,0.0156403,0.00541687
35,1,-9.99003,0.000305176,0.000610352,-2.42653,0.0565965,-0.0753682,0.0544332,0.0633409,-0.0919257,0.145318,-0.127292,-0.0831808,0.0139236,0.026741,0.0182343,0.0175858,0.0188446,0.00923157,0.0217056,0.0139236,-9.97986,0.0139999,-0.00236511,0.0147629,0.00629425,-0.00495911,-0.00858307,0.0172424,0.00701904
35,2,-9.99003,-0.0012207,0.00137329,-2.42501,0.0547655,-0.0747579,0.0562642,0.106676,-0.0879585,0.145318,-0.122715,-0.0828756,0.0117874,0.0254059,0.0193787,0.0162125,0.01297,0.00961304,0.0243378,0.0180435,-9.97986,0.0161362,0.000457764,0.0137711,0.00720978,0.0177383,-0.0038147,0.0144196,0.00530243
35,3,-3.60057,0.000915527,0.00305176,-2.42653,0.0538499,-0.075063,0.0550435,0.137499,-0.0900947,0.143487,-0.12241,-0.0844015,0.0113678,0.0206375,0.0176239,0.0134277,0.0136185,0.00869751,0.0187683,0.0112915,-9.97986,0.0137329,-0.000534058,0.0128174,0.00541687,0.014801,-0.00236511,0.0192642,0.00507355
35,4,3.65926,0.000610352,0.00473022,-2.42653,0.0550706,-0.0765889,0.054128,0.154588,-0.088874,0.143487,-0.122104,-0.085317,0.0110245,0.0247192,0.0172424,0.0126648,0.0131226,0.0121307,0.0204849,0.018692,-9.97986,0.017662,-0.0062561,0.0146866,0.00301361,0.0124741,-0.00408173,0.0164032,0.00770569
35,5,10.0097,0.0012207,0.00457764,-2.42928,0.0541551,-0.0759786,0.0519917,0.14818,-0.090705,0.143182,-0.122715,-0.0856222,0.00946045,0.0246048,0.0137329,0.0163651,0.0151443,0.0113678,0.0215912,0.0179291,-9.97986,0.0160599,0.00102997,0.0182343,0.00602722,0.0144958,-0.00854492,0.0185013,0.00598907
35,6,10.0097,0.000610352,0.00198364,-2.43081,0.0532396,-0.0756734,0.050771,0.101183,-0.0980293,0.142877,-0.126682,-0.0889791,0.0156021,0.0244522,0.016098,0.0117111,0.0179672,0.00938416,0.0188446,0.0165939,-9.97986,0.0164032,-0.00396729,0.0118637,0.00415802,0.0172043,-0.00606537,0.0191116,0.00324249
35,7,10.0097,0.0012207,0.000305176,-2.42928,0.0547655,-0.0753682,0.0513814,0.0819567,-0.0971137,0.143182,-0.126987,-0.0889791,0.00923157,0.0197983,0.0191879,0.0137711,0.0178909,0.00762939,0.0217056,0.016098,-9.97986,0.0173187,-0.00377655,0.0174713,0.00579834,0.0165176,-0.000801086,0.0146484,0.00549316
35,8,10.0097,0.000305176,-0.000457764,-2.42806,0.0541551,-0.075063,0.0516866,0.075548,-0.0965034,0.143182,-0.125766,-0.0871481,0.00984192,0.0247192,0.0159073,0.0144196,0.0174332,0.00759125,0.0222015,0.0172424,-9.97986,0.0135803,-0.001297,0.0168228,0.00648499,0.0178909,0.00396729,0.0173187,0.0044632
35,9,10.0097,-0.000305176,0.000305176,-2.42806,0.0547655,-0.0753682,0.0529073,0.0709703,-0.0952827,0.143792,-0.126682,-0.0865377,0.0124359,0.0248337,0.0190353,0.00946045,0.0130844,0.0146866,0.0212097,0.0179672,-9.97986,0.0144196,0.000228882,0.0136185,0.00598907,0.0150681,0.00484467,0.0141144,0.00583649
36,0,10.0097,0,-0.000152588,-2.42684,0.0550706,-0.0753682,0.0526021,0.072191,-0.0937568,0.144708,-0.126377,-0.0847066,0.0134277,0.0262833,0.0173187,0.0122452,0.0132751,0.0100708,0.0180817,0.018425,-9.97986,0.0140381,0.000495911,0.0133133,0.00896454,0.0178528,0.00965118,0.0173187,0.0069046
36,1,10.0097,0,0.000152588,-2.42684,0.055681,-0.075063,0.0535176,0.0715807,-0.0931465,0.145318,-0.126682,-0.0840963,0.0134659,0.0237274,0.0150681,0.00953674,0.0187683,0.0101471,0.0201035,0.0173187,-9.97986,0.0157166,-0.00118256,0.0154877,0.00434875,0.0169754,0.00720978,0.0137329,0.00469208
36,2,10.0097,0.00274658,0.000610352,-2.42653,0.055681,-0.0741475,0.0547383,0.0709703,-0.0910102,0.146844,-0.124241,-0.0831808,0.0107574,0.02285,0.0183105,0.00774384,0.0152969,0.00873566,0.0227356,0.0196838,-9.97986,0.0137329,-0.00511169,0.0123596,0.00404358,0.0150299,0.00816345,0.0168991,0.00724792
36,3,10.0097,-0.0012207,0,-2.42623,0.0562914,-0.0735371,0.0556539,0.072191,-0.0919257,0.147455,-0.124851,-0.0816549,0.012207,0.0257111,0.0143814,0.0146866,0.016861,0.00759125,0.0220871,0.0168228,-9.97986,0.0151443,-0.00476837,0.0134277,0.00461578,0.0159836,0.00831604,0.0171661,0.00522614
36,4,10.0097,0.000610352,0,-2.42409,0.055681,-0.0735371,0.0547383,0.0728014,-0.0913154,0.147149,-0.12363,-0.0810445,0.0128174,0.0201035,0.0197601,0.0117111,0.0147247,0.0109482,0.0205231,0.0162125,-9.97986,0.0119019,-0.0038147,0.0132751,0.00228882,0.0165939,0.00263214,0.0154495,0.00522614
36,5,9.80275,0,-0.00259399,-2.42776,0.0553758,-0.0738423,0.0529073,0.0288561,-0.095893,0.146234,-0.126682,-0.0825704,0.0128937,0.0191116,0.0162506,0.0131226,0.0164413,0.0101471,0.0200272,0.0172424,-9.97986,0.0169373,-0.00118256,0.014267,0.0037384,0.0193405,0.000267029,0.0179291,0.00320435
36,6,1.39699,0.000915527,-0.00442505,-2.42684,0.0575121,-0.0735371,0.0532125,-0.0132582,-0.0986396,0.146844,-0.129734,-0.0828756,0.0114059,0.0271225,0.0202179,0.0134277,0.013504,0.0109482,0.0193024,0.017395,-9.97986,0.013504,0.00038147,0.0150299,0.00659943,0.017395,-0.000686646,0.014801,0.00427246
36,7,-5.81431,0.000305176,-0.00473022,-2.42531,0.0565965,-0.0744527,0.054128,-0.0141737,-0.0971137,0.146539,-0.130344,-0.0813497,0.0124741,0.0258255,0.0209045,0.0141525,0.0167084,0.00923157,0.0197601,0.016861,-9.97986,0.0189972,-0.00164032,0.0118256,0.00762939,0.0188446,-0.00225067,0.0180054,0.00576019
36,8,-9.99003,0.000915527,-0.00427246,-2.4244,0.0559862,-0.0723164,0.0544332,0.00810412,-0.0925361,0.147149,-0.127598,-0.0804342,0.0107193,0.0276566,0.0202942,0.0139618,0.018959,0.0100327,0.0214005,0.0198746,-9.97986,0.013504,0.00362396,0.0139236,0.00793457,0.0175476,-0.000915527,0.0175858,0.00301361
36,9,-9.99003,0.00183105,-0.00106812,-2.42501,0.0572069,-0.0747579,0.0550435,0.0395372,-0.090705,0.146539,-0.126682,-0.0810445,0.0133133,0.0251389,0.0168991,0.00923157,0.0168228,0.0107193,0.0243759,0.021019,-9.97986,0.0144958,0.0025177,0.014534,0.00770569,-0.01194,-0.00404358,0.0164413,0.00705719
37,0,-9.99003,0.0012207,-0.000305176,-2.42562,0.0550706,-0.0744527,0.0556539,0.0590685,-0.090705,0.145624,-0.126377,-0.0819601,0.00904083,0.0233841,0.019722,0.0152969,0.0145721,0.0156784,0.0206375,0.0169373,-9.97986,0.0162506,0.00545502,0.0160599,0.00549316,-0.00911713,-0.00461578,0.015831,0.00793457
37,1,-9.99003,0.00152588,-0.000305176,-2.42714,0.0553758,-0.0744527,0.0547383,0.0648668,-0.0916206,0.146539,-0.126377,-0.0831808,0.014534,0.0238037,0.0196075,0.0150299,0.015564,0.0087738,0.0168228,0.0124741,-9.97986,0.0165558,0.00659943,0.0125122,0.00976563,-0.00617981,-0.00694275,0.0180054,0.00846863
37,2,-9.99003,0.000305176,0.00167847,-2.4247,0.0559862,-0.0741475,0.0562642,0.108507,-0.0864326,0.146234,-0.12302,-0.0819601,0.0101471,0.0212479,0.0180817,0.00915527,0.0146103,0.0108337,0.0196457,0.0162888,-9.97986,0.0113297,0.00457764,0.0138092,0.00873566,0.0161743,-0.00602722,0.0193024,0.00518799
37,3,-3.42357,-0.00152588,0.00366211,-2.42714,0.0535448,-0.0756734,0.054128,0.138719,-0.0885688,0.144098,-0.121799,-0.0844015,0.00694275,0.0222397,0.0217819,0.0106049,0.0143051,0.0120926,0.0140762,0.0190353,-9.97986,0.0181961,0.00553131,0.0140381,0.00850677,0.0140381,-0.00717163,0.0154877,0.00656128
37,4,3.82527,0.000610352,0.00457764,-2.42837,0.0550706,-0.0765889,0.054128,0.152757,-0.0885688,0.144403,-0.12241,-0.0856222,0.0108337,0.0264359,0.0182343,0.013504,0.0188828,0.013504,0.0203705,0.0154495,-9.97986,0.015564,0.00652313,0.0139618,0.011673,0.0136566,-0.00179291,0.0171661,0.00740051
37,5,10.0097,0.000305176,0.00473022,-2.42867,0.0529344,-0.0756734,0.0535176,0.149095,-0.0900947,0.143182,-0.12241,-0.0859274,0.00946045,0.0242233,0.0143814,0.00858307,0.0141907,0.0104523,0.0239563,0.0177383,-9.97986,0.0136948,0.00270844,0.0111389,0.00801086,0.0154114,-0.00450134,0.0161743,0.00629425
37,6,10.0097,0.00152588,0.00106812,-2.43111,0.0535448,-0.0759786,0.0495503,0.100267,-0.0968086,0.142572,-0.125461,-0.0877584,0.0115585,0.0257111,0.0158691,0.00980377,0.0156784,0.00785828,0.0191116,0.0161362,-9.97986,0.0179291,0.000724792,0.0159454,0.00576019,0.0161362,-0.00244141,0.0212097,0.00923157
37,7,10.0097,0.000610352,0.00106812,-2.4302,0.0538499,-0.0756734,0.0501607,0.0810411,-0.0968086,0.143487,-0.126682,-0.0883688,0.0136185,0.02388,0.0169754,0.0124359,0.0154495,0.0094223,0.0251389,0.0175095,-9.97986,0.0163651,-0.0131989,0.0125122,0.00797272,0.0162506,-0.0031662,0.0191116,0.00553131
37,8,10.0097,-0.000915527,-0.000457764,-2.42867,0.0550706,-0.0756734,0.0516866,0.075548,-0.095893,0.142877,-0.126072,-0.0859274,0.0110626,0.022583,0.0147247,0.00961304,0.0129318,0.00801086,0.0207901,0.0214386,-9.97986,0.0109482,-0.0120163,0.0128937,0.00629425,0.0126648,-0.0044632,0.0163269,0.00991821
37,9,10.0097,0,0.000152588,-2.4305,0.0559862,-0.075063,0.0516866,0.0737169,-0.0943672,0.144098,-0.126377,-0.0862325,0.012207,0.018158,0.0142288,0.0100708,0.0170898,0.016098,0.0209808,0.0154495,-9.97986,0.0149918,-0.00778198,0.00934601,0.0110626,0.0164413,-0.00717163,0.0212479,0.00637054
38,0,10.0097,0.000305176,0.000305176,-2.42592,0.0550706,-0.075063,0.0532125,0.0712755,-0.0943672,0.145318,-0.125766,-0.0840963,0.00953674,0.0178528,0.017395,0.00919342,0.017662,0.0118637,0.0221252,0.018425,-9.97986,0.0167084,-0.00904083,0.0174332,0.00499725,0.0144196,-0.00282288,0.0157928,0.00873566
38,1,10.0097,0,-0.000152588,-2.42684,0.0553758,-0.0744527,0.0532125,0.0712755,-0.0931465,0.145013,-0.125156,-0.0837911,0.00991821,0.0180435,0.0167465,0.00965118,0.0144196,0.01194,0.0217438,0.016098,-9.97986,0.0166321,-0.00305176,0.0130463,0.00843048,0.0128174,-0.00274658,0.0184631,0.00469208
38,2,10.0097,0.000610352,0.000305176,-2.42592,0.0559862,-0.0744527,0.0550435,0.072191,-0.0928413,0.146234,-0.124241,-0.0825704,0.0113297,0.0234604,0.0177383,0.00972748,0.0176239,0.0101852,0.0205231,0.0162506,-9.97986,0.0200272,-0.00137329,0.0174713,0.00652313,0.0179291,-0.00591278,0.0156403,0.0056076
38,3,10.0097,0,-0.000152588,-2.42562,0.0572069,-0.0726216,0.0544332,0.0715807,-0.0916206,0.145929,-0.124546,-0.0822652,0.0124741,0.0185394,0.0191879,0.0134659,0.0211716,0.0138474,0.0204468,0.0180817,-9.97986,0.0157547,-0.00141144,0.0152588,0.00473022,0.0153732,-0.00724792,0.0180054,0.00770569
38,4,10.0097,0.000305176,0.000152588,-2.4247,0.0553758,-0.0726216,0.055959,0.0718859,-0.0916206,0.146234,-0.123935,-0.0813497,0.0110626,0.0216293,0.0180435,0.0115967,0.0169373,0.0115585,0.0245667,0.0180817,-9.97986,0.0150299,-3.8147e-005,0.0138092,0.00511169,0.0140762,-0.00705719,0.0157928,0.00526428
38,5,9.73195,-0.000915527,-0.00198364,-2.42592,0.0553758,-0.0744527,0.0532125,0.0288561,-0.0965034,0.146234,-0.127292,-0.0828756,0.00770569,0.0205994,0.0163269,0.0110626,0.0182724,0.0111008,0.0233459,0.0196457,-9.97986,0.0186539,0.001297,0.0102615,0.00675201,0.018158,-0.00995636,0.016861,0.00465393
38,6,1.51814,-0.00183105,-0.00396729,-2.4247,0.0578172,-0.0738423,0.054128,-0.0123427,-0.0977241,0.146539,-0.129123,-0.0819601,0.0124359,0.0240326,0.020752,0.0126648,0.0165939,0.0107193,0.0222015,0.0176239,-9.97986,0.0130844,0.0025177,0.0104141,0.00804901,0.0175858,-0.00759125,0.016861,0.0063324
38,7,-5.80943,0.00152588,-0.00427246,-2.42531,0.0559862,-0.073232,0.0538228,-0.0144789,-0.0965034,0.147455,-0.130039,-0.0816549,0.0116348,0.0257111,0.0200272,0.0116348,0.0170898,0.0167084,0.0228882,0.0165176,-9.97986,0.0161743,-0.000228882,0.0143814,0.00461578,0.0211334,-0.0120163,0.0181961,0.0043869
38,8,-9.99003,0.00183105,-0.00350952,-2.4244,0.0569017,-0.0735371,0.0556539,0.0084093,-0.0916206,0.146844,-0.127903,-0.0804342,0.01297,0.0184631,0.0180054,0.0152588,0.0154877,0.0140381,0.02491,0.0192642,-9.97986,0.0166702,-0.00232697,0.0111389,0.0056839,0.0170135,-0.00747681,0.0130844,0.00621796
38,9,-9.99003,0.0012207,-0.00167847,-2.4244,0.0572069,-0.0741475,0.0568746,0.0413683,-0.0903999,0.146234,-0.126072,-0.080129,0.0111771,0.0233841,0.0167847,0.0109482,0.0141907,0.0113678,0.0239563,0.0171661,-9.97986,0.0160217,-0.00225067,0.0179291,0.00621796,-0.00804901,-0.00396729,0.0208664,0.00591278
39,0,-9.99003,0.00183105,-0.000457764,-2.42623,0.0569017,-0.075063,0.0565694,0.0566271,-0.0903999,0.145929,-0.126072,-0.0819601,0.00751495,0.0244141,0.0218582,0.013237,0.0139618,0.0115204,0.0246811,0.0204468,-9.97986,0.0170898,0.000534058,0.0162125,0.00522614,-0.00869751,-0.00545502,0.0172806,0.00732422
39,1,-9.99003,0.00183105,-0.000762939,-2.42562,0.0559862,-0.0747579,0.0550435,0.0645616,-0.0922309,0.145318,-0.125766,-0.0834859,0.0082016,0.0240326,0.0225067,0.0118637,0.0201797,0.00892639,0.0214767,0.0173569,-9.97986,0.0164413,-7.62939e-005,0.0170517,0.00965118,-0.00717163,3.8147e-005,0.017395,0.00396729
39,2,-9.99003,0.000915527,0.0012207,-2.42592,0.0547655,-0.0747579,0.0565694,0.106066,-0.0873481,0.145624,-0.12302,-0.0828756,0.0126648,0.0251007,0.0198746,0.0112534,0.0150681,0.0107574,0.0200272,0.0217819,-9.97986,0.0205231,-0.000419617,0.0164413,0.0062561,0.0160217,0.00198364,0.0149536,0.00572205
39,3,-3.61064,0.000610352,0.00366211,-2.42714,0.0547655,-0.0747579,0.0547383,0.136583,-0.0879585,0.143487,-0.122104,-0.0847066,0.00881195,0.0285721,0.0197601,0.0112915,0.0141525,0.0106049,0.0185013,0.0191498,-9.97986,0.0190735,-0.00640869,0.0128555,0.00797272,0.0174332,0.000648499,0.0169373,0.00473022
39,4,3.5732,0.00183105,0.0050354,-2.42806,0.0544603,-0.0765889,0.0532125,0.153978,-0.0894843,0.143182,-0.121799,-0.0850118,0.0104523,0.0226212,0.019989,0.0103378,0.0139236,0.00595093,0.0189972,0.0166702,-9.97986,0.0129318,-0.00442505,0.0110626,0.00492096,0.0149536,7.62939e-005,0.0177002,0.00713348
39,5,10.0097,-0.000915527,0.00320435,-2.42928,0.0538499,-0.0753682,0.0535176,0.147569,-0.0922309,0.143182,-0.121494,-0.0862325,0.0130844,0.0243759,0.0165176,0.0156021,0.018158,0.0117493,0.0252151,0.0128555,-9.97986,0.0168228,-0.00423431,0.0166321,0.0075531,0.0191116,0.00179291,0.0151062,0.00579834
39,6,10.0097,-0.000305176,0.00152588,-2.42989,0.0535448,-0.0762837,0.04894,0.102709,-0.0965034,0.142877,-0.126377,-0.0886739,0.0119019,0.0213242,0.019722,0.0113297,0.0186157,0.00888824,0.024147,0.014267,-9.97986,0.0127029,-0.00385284,0.0123215,0.00984192,0.017395,0.000686646,0.0176239,0.00617981
39,7,10.0097,0.000915527,0.000305176,-2.4305,0.0535448,-0.0762837,0.0501607,0.082567,-0.0968086,0.144403,-0.127903,-0.0877584,0.00843048,0.0276947,0.0218582,0.0160599,0.0217819,0.0123978,0.0255966,0.0193787,-9.97986,0.0184631,-0.00209808,0.0101852,0.010376,0.016861,-0.000724792,0.0184631,0.00793457
39,8,10.0097,0.000305176,0.000305176,-2.42867,0.0535448,-0.0756734,0.0532125,0.0758531,-0.0949775,0.145013,-0.126987,-0.0865377,0.0102234,0.0198746,0.0175095,0.0117493,0.0162125,0.00637054,0.0196457,0.0153732,-9.97986,0.0138092,-0.00419617,0.0136566,0.00621796,0.017662,-0.00335693,0.0153732,0.00461578
39,9,10.0097,-0.000610352,0.000305176,-2.42837,0.0544603,-0.0747579,0.054128,0.0731066,-0.0943672,0.146539,-0.125156,-0.085317,0.00930786,0.0230026,0.0205994,0.0117874,0.0196075,0.0114822,0.0222015,0.0168228,-9.97986,0.0165939,-0.00240326,0.0143814,0.00431061,0.0206375,-0.0018692,0.0163651,0.00488281
40,0,10.0097,0.0012207,0.000305176,-2.42653,0.0541551,-0.0756734,0.0522969,0.0709703,-0.0934516,0.146234,-0.125766,-0.0850118,0.0118256,0.0274277,0.0173569,0.0102234,0.0192642,0.0115204,0.0202942,0.0175858,-9.97986,0.0156403,-0.00392914,0.0140762,0.0110245,0.0177765,-0.00213623,0.017128,0.00534058
40,1,10.0097,0.000610352,0,-2.42745,0.0541551,-0.0756734,0.0538228,0.07036,-0.094062,0.144708,-0.125461,-0.0837911,0.00938416,0.0261688,0.0165558,0.0114822,0.0159454,0.00579834,0.0219345,0.0151825,-9.97986,0.0163651,-0.00328064,0.0148773,0.00156403,0.0180054,-0.00343323,0.0158691,0.00556946
40,2,10.0097,-0.00183105,0.000152588,-2.42653,0.0559862,-0.0744527,0.0535176,0.0718859,-0.0928413,0.146234,-0.124851,-0.0828756,0.0154495,0.0268173,0.0204086,0.0142288,0.0185394,0.00850677,0.021286,0.0136948,-9.97986,0.0170898,-0.000953674,0.0167084,0.0075531,0.0204468,-0.00190735,0.0172806,0.00598907
40,3,10.0097,-0.000610352,0.000152588,-2.4247,0.0553758,-0.0744527,0.0547383,0.0718859,-0.0913154,0.145624,-0.123325,-0.0816549,0.0100327,0.021553,0.0150299,0.0141907,0.0197601,0.0107956,0.0234985,0.0139999,-9.97986,0.0146866,-0.00526428,0.0144958,0.00686646,0.0170135,-0.00102997,0.0180817,0.00804901
40,4,10.0097,0.000915527,-0.000305176,-2.42592,0.0559862,-0.0720113,0.0550435,0.0709703,-0.090705,0.146844,-0.124241,-0.0816549,0.0127411,0.0255966,0.0194931,0.00862122,0.0188065,0.00724792,0.0229645,0.018692,-9.97986,0.0165558,-0.00732422,0.0150681,0.00679016,0.0185394,-7.62939e-005,0.0196075,0.00682831
40,5,9.80245,0.0012207,-0.00259399,-2.42653,0.0562914,-0.0744527,0.0532125,0.027025,-0.0974189,0.145929,-0.126987,-0.0831808,0.0103378,0.0256729,0.0168228,0.0107193,0.0144958,0.00938416,0.0249863,0.0182343,-9.97986,0.0174713,-0.00114441,0.0125504,0.00747681,0.0151062,-0.00347137,0.0152969,0.00507355
40,6,1.45528,-0.00183105,-0.00518799,-2.42684,0.0559862,-0.0741475,0.0522969,-0.012953,-0.0980293,0.145318,-0.130039,-0.0831808,0.0102234,0.0282288,0.0170517,0.0115585,0.0185776,0.0105667,0.0241089,0.0194168,-9.97986,0.0123596,-0.00160217,0.0185776,0.00514984,0.0151825,0.000457764,0.0198746,0.00801086
