
Devices
1200
,,BP Load cell - Voltage,String Length - Voltage,Clutch Active - Voltage,#7 iPecs - Voltage,,,,,,,,,EMG 1-8 Left - Voltage,,,,,,,,Pylon Force - Voltage,EMG 9-16 Right - Voltage,,,,,,,,
Frame,Sub Frame,BP Load Cell,String Length,From Arduino Logic,A45,A135,A225,A315,S0,S90,S180,S270,ZSum,EMG 1 Glut Max,EMG 2 Glut Med,EMG 3 Biceps Femoris Long,EMG 4 Rectus Femoris,EMG 5 Vastus Medialis,EMG 6 Tib Ant,EMG 7 Med Gas,EMG 8 Soleus,Pylon volts,EMG 9 Glut Max,EMG 10 Glut Med,EMG 11 Biceps Femoris Long,EMG 12 Rectus Femoris,EMG 13 Vastus Medialis,EMG 14 Tib Ant,EMG 15 Med Gas,EMG 16 Soleus
,,V,V,V,V,V,V,V,V,V,V,V,V,V,V,V,V,V,V,V,V,V,V,V,V,V,V,V,V,V
1,0,9.64955,-0.0012207,0.00289917,-2.42928,0.0550706,-0.0741475,0.0565694,0.0709703,-0.0928413,0.146234,-0.124546,-0.0822652,-0.0951385,0.0383377,0.0455475,0.0156403,0.128059,-0.105515,0.0940704,0.0363922,-9.97986,-0.182266,-0.0201797,0.196495,0.22831,0.0924301,-0.0161743,0.0765991,0.123291
1,1,10.0097,-0.000610352,0.00335693,-2.42745,0.0547655,-0.0741475,0.0556539,0.0938585,-0.0882636,0.146539,-0.124546,-0.0825704,-0.0434494,0.0392151,0.0430679,0.0161362,0.121841,-0.107422,0.0811005,0.0234222,-9.97986,-0.212784,-0.0215149,0.21347,0.255547,0.10376,-0.0186539,0.0779724,0.0920486
1,2,10.0097,-0.000610352,0.00289917,-2.42837,0.0553758,-0.0762837,0.0532125,0.0831774,-0.0925361,0.142267,-0.126682,-0.0862325,0.0360489,0.0379944,0.0497055,0.0198364,0.120163,-0.104485,0.0655365,0.0124359,-9.97986,-0.195923,-0.0187302,0.244293,0.275764,0.124702,-0.0178528,0.0769806,0.0389099
1,3,10.0097,0.000305176,0.00152588,-2.42837,0.0547655,-0.075063,0.0526021,0.0752428,-0.0949775,0.143487,-0.126377,-0.0865377,0.0734329,0.0354767,0.0443268,0.0200653,0.0957108,-0.113792,0.0510025,-0.000839233,-9.97986,-0.122452,-0.0214767,0.260086,0.286446,0.150642,-0.01194,0.0708389,0.0154114
1,4,10.0097,-0.000610352,0.00259399,-2.42745,0.0535448,-0.0762837,0.0513814,0.0758531,-0.0943672,0.143792,-0.127598,-0.085317,0.0998306,0.0298691,0.0355911,0.0202942,0.0543976,-0.116234,0.0376892,-0.00602722,-9.97986,-0.0498199,-0.019455,0.255051,0.319023,0.174789,-0.0069809,0.0669861,0.0234604
1,5,10.0097,0,0.00137329,-2.42898,0.0532396,-0.0753682,0.0504659,0.0697496,-0.0946723,0.143487,-0.126987,-0.0874532,0.09552,0.0230408,0.0274277,0.0195694,0.0197601,-0.115128,0.0363922,0.00125885,-9.97986,-0.000457764,-0.0171661,0.195084,0.330276,0.187569,0.00713348,0.0649261,0.0448227
1,6,10.0097,0.00152588,-0.000762939,-2.42806,0.0532396,-0.0775044,0.0513814,0.07036,-0.0952827,0.143792,-0.127903,-0.0865377,0.0685501,0.0180817,0.0208282,0.016861,-0.011673,-0.100708,0.0337982,0.00545502,-9.97986,0.0608444,-0.01194,0.114098,0.314903,0.203209,0.00865936,0.0598526,0.0514984
1,7,10.0097,0.000915527,-0.000610352,-2.42837,0.0550706,-0.0753682,0.0498555,0.0697496,-0.0928413,0.144098,-0.126987,-0.0868429,0.0175858,0.0136185,0.0151062,0.0167084,-0.0408554,-0.0736237,0.0306702,0.0151825,-9.97986,0.122757,-0.0043869,0.0535965,0.313072,0.222664,0.00976563,0.053215,0.0442886
1,8,10.0097,0,-0.00137329,-2.42745,0.0529344,-0.0756734,0.0519917,0.0691393,-0.094062,0.143792,-0.125461,-0.0844015,-0.0185776,0.00740051,0.0119781,0.0178146,-0.0593567,-0.0473404,0.0266266,0.0163269,-9.97986,0.129318,-0.00541687,0.00858307,0.290794,0.232697,0.0110245,0.046196,0.0233459
1,9,10.0097,0.00183105,-0.00167847,-2.42714,0.0562914,-0.0756734,0.0535176,0.0718859,-0.0925361,0.145318,-0.126682,-0.0844015,-0.0062561,-0.00144958,0.000839233,0.0173569,-0.0605011,-0.0194168,0.0105286,0.0185394,-9.97986,0.140762,-0.00736237,-0.0157166,0.257301,0.250053,0.00484467,0.0436401,-0.000762939
2,0,10.0097,0.000610352,-0.00244141,-2.42592,0.0550706,-0.0741475,0.0538228,0.0697496,-0.0913154,0.146234,-0.125766,-0.0850118,0.0104904,0.00526428,-0.00629425,0.0152206,-0.0389481,0.00213623,-0.00888824,0.0180054,-9.97986,0.143471,-0.0127792,-0.0298691,0.227737,0.289078,0.00236511,0.0421906,-0.00953674
2,1,10.0097,0.0012207,-0.00198364,-2.42592,0.0553758,-0.0747579,0.0547383,0.0694445,-0.0913154,0.146844,-0.125461,-0.0828756,-0.000648499,0.00576019,0.00152588,0.0191116,-0.0285721,0.0201797,-0.0259399,0.0268555,-9.97986,0.103035,-0.0107574,-0.0463104,0.204353,0.322685,-0.00164032,0.0392532,-0.00221252
2,2,10.0097,0.00183105,-0.00259399,-2.42562,0.0565965,-0.0738423,0.054128,0.0709703,-0.0910102,0.14776,-0.124851,-0.0825704,-0.00152588,0.00347137,0.00198364,0.0172806,-0.0187302,0.0229645,-0.0396729,0.0324631,-9.97986,0.0753403,-0.00648499,-0.0526047,0.1688,0.331039,-0.000419617,0.0273514,0.00926971
2,3,10.0097,-0.0012207,-0.00457764,-2.4244,0.0562914,-0.073232,0.0550435,0.0697496,-0.0919257,0.146539,-0.124241,-0.0822652,0.0598526,-0.00305176,-0.000572205,0.0175095,0.016861,0.0270462,-0.0561905,0.0402832,-9.97986,0.0597,-0.00843048,-0.0484467,0.119858,0.324554,-0.0025177,0.016861,0.0139236
2,4,10.0097,0.00274658,-0.00366211,-2.4247,0.0569017,-0.0741475,0.055959,0.0718859,-0.090705,0.146234,-0.124241,-0.0822652,0.0986481,0.00442505,0.000915527,0.017395,0.0337219,0.0385284,-0.0479889,0.0447464,-9.97986,0.0452805,-0.0030899,-0.013237,0.081749,0.346222,0.00476837,0.00801086,0.00183105
2,5,10.0097,0.000915527,-0.00411987,-2.42562,0.0559862,-0.0735371,0.054128,0.0691393,-0.0916206,0.146539,-0.123935,-0.0819601,0.0858688,0.00865936,3.8147e-005,0.0168991,0.0593948,0.054512,-0.0486755,0.0460434,-9.97986,0.0094223,-0.0102997,0.00576019,0.0357437,0.35347,-0.0069046,0.000343323,-0.0208664
2,6,10.0097,-0.000610352,-0.00350952,-2.42623,0.0559862,-0.0744527,0.0529073,0.0569322,-0.0934516,0.146844,-0.126377,-0.0831808,0.0762177,0.0082016,0.00598907,0.0205231,0.0788116,0.0576019,-0.0452423,0.0465393,-9.97986,-0.0234222,-0.00991821,0.00404358,-0.001297,0.360794,-0.00965118,0.0018692,-0.00328064
2,7,10.0097,-0.000305176,-0.00457764,-2.42531,0.0565965,-0.0735371,0.0526021,0.0499132,-0.0928413,0.146844,-0.125766,-0.0840963,0.0541306,0.00686646,0.00614166,0.0180817,0.080452,0.0516891,-0.0422668,0.0384903,-9.97986,-0.0370789,-0.00713348,0.00499725,-0.0333786,0.34687,-0.0127411,-7.62939e-005,-0.0102234
2,8,9.41457,-0.0012207,-0.00411987,-2.42501,0.0565965,-0.0741475,0.054128,0.058153,-0.0913154,0.145318,-0.125156,-0.0834859,0.0736618,0.0161362,0.0134277,0.0223923,0.0740433,0.0457001,-0.0379944,0.0188446,-9.97986,-0.0227356,-0.00385284,-0.00320435,-0.0619507,0.321045,-0.00621796,-0.00301361,-0.0175095
2,9,9.36086,-0.000305176,-0.00335693,-2.42653,0.0553758,-0.0747579,0.054128,0.0660875,-0.0928413,0.144098,-0.126072,-0.0831808,0.104179,0.0163651,0.0104904,0.023613,0.0458908,0.0490952,-0.0445175,0.00495911,-9.97986,0.001297,-0.00640869,-0.0164795,-0.0948715,0.29705,-0.00225067,-0.015564,0.00682831
3,0,9.64711,0.000610352,-0.00274658,-2.42714,0.0547655,-0.075063,0.0510762,0.0737169,-0.0928413,0.146844,-0.125766,-0.0844015,0.0618744,0.0127411,0.0102234,0.0244904,-0.00606537,0.0449753,-0.0487518,0.00679016,-9.97986,0.0183868,-0.000305176,-0.0507736,-0.119858,0.280457,-7.62939e-005,-0.0322723,0.0455475
3,1,10.0097,0.000610352,-0.0012207,-2.42776,0.0550706,-0.0744527,0.0529073,0.0944689,-0.0916206,0.145624,-0.125156,-0.0847066,-0.00999451,0.0161362,0.0118256,0.0225449,-0.0587082,0.0447083,-0.0491333,0.0180054,-9.97986,0.0318909,-0.000953674,-0.0647354,-0.147171,0.257072,0.00392914,-0.0435638,0.0816727
3,2,10.0097,0.00213623,-0.00106812,-2.42745,0.0547655,-0.0765889,0.0526021,0.0822618,-0.0946723,0.144403,-0.126987,-0.0865377,-0.028801,0.0187683,0.0118256,0.0203705,-0.103302,0.0479889,-0.046196,0.0149536,-9.97986,0.0685501,0.0012207,-0.0833511,-0.162392,0.238495,0.00671387,-0.0458908,0.112801
3,3,10.0097,-0.000305176,-0.00152588,-2.42928,0.0538499,-0.0753682,0.050771,0.0718859,-0.0955879,0.144098,-0.126682,-0.0871481,-0.0320053,0.0217056,0.0212479,0.0251007,-0.112572,0.0356674,-0.0338745,0.0107193,-9.97986,0.0622559,0.00614166,-0.119705,-0.177917,0.224457,0.0101471,-0.0524139,0.116119
3,4,10.0097,-0.000610352,-0.000915527,-2.42806,0.0541551,-0.075063,0.0516866,0.0694445,-0.0949775,0.142877,-0.128513,-0.0874532,-0.0603485,0.0224686,0.0209808,0.0231552,-0.126915,0.0316238,-0.0268936,0.00171661,-9.97986,0.041008,-0.000839233,-0.153694,-0.183258,0.210915,0.00930786,-0.0580978,0.102501
3,5,10.0097,0.000305176,-0.00167847,-2.42867,0.0532396,-0.0753682,0.0519917,0.0685289,-0.094062,0.142572,-0.127903,-0.0874532,-0.0723648,0.0230026,0.0163269,0.0188065,-0.136833,0.032196,-0.0192261,0.00850677,-9.97986,0.033493,0.00118256,-0.159645,-0.19207,0.188866,0.0082016,-0.0694275,0.0918198
3,6,10.0097,-0.000610352,-0.00152588,-2.42867,0.0547655,-0.0759786,0.0519917,0.0697496,-0.0965034,0.142572,-0.128208,-0.0880636,-0.0593948,0.0226593,0.0181198,0.0236511,-0.133591,0.0321198,-0.0114441,0.0118256,-9.97986,0.0238419,-0.00202179,-0.169411,-0.205612,0.170746,0.00591278,-0.0681686,0.0743866
3,7,10.0097,0.000305176,-0.00137329,-2.42806,0.0544603,-0.0759786,0.0529073,0.0706652,-0.0934516,0.144098,-0.126987,-0.085317,-0.0152206,0.0266647,0.0200653,0.0281143,-0.111427,0.042038,-0.0115204,0.00778198,-9.97986,0.0294495,-0.00087738,-0.168419,-0.215225,0.160408,0.00923157,-0.0693512,0.0589752
3,8,10.0097,-0.000305176,-0.0012207,-2.42806,0.0553758,-0.0753682,0.054128,0.07036,-0.0931465,0.143487,-0.126377,-0.085317,0.0468445,0.0238037,0.0171661,0.0222397,-0.0735855,0.0424194,-0.00354767,0.00167847,-9.97986,0.0157928,0.00385284,-0.151062,-0.221786,0.154648,0.00347137,-0.0669861,0.03685
3,9,10.0097,0.000305176,-0.000610352,-2.42745,0.0529344,-0.0753682,0.0547383,0.0694445,-0.0925361,0.143792,-0.126072,-0.0844015,0.0754166,0.0231552,0.0167084,0.0232697,-0.0344086,0.04879,-0.000343323,-0.00225067,-9.97986,-0.00278473,0.0030899,-0.135422,-0.226822,0.15007,-0.00514984,-0.056572,-0.00495911
4,0,10.0097,-0.000305176,-0.000457764,-2.42776,0.0559862,-0.0753682,0.0538228,0.0697496,-0.0925361,0.143487,-0.124851,-0.0837911,0.057373,0.021553,0.0140381,0.0231171,-0.00442505,0.0435257,-0.00507355,-0.000610352,-9.97986,0.00770569,0.00366211,-0.117531,-0.236778,0.138359,-0.00553131,-0.0449371,-0.0426102
4,1,10.0097,-0.000610352,-0.000305176,-2.42562,0.0559862,-0.0717061,0.0547383,0.0709703,-0.0919257,0.146234,-0.125156,-0.0828756,0.0226593,0.0214767,0.0144958,0.0175858,0.0423813,0.0329208,0.00183105,0.0157166,-9.97986,0.0237656,0.00328064,-0.103493,-0.233383,0.133476,-0.0100708,-0.0131989,-0.0679398
4,2,10.0097,0.0012207,-0.000457764,-2.4247,0.0565965,-0.0738423,0.0556539,0.07036,-0.0922309,0.146234,-0.124241,-0.0813497,-0.0174332,0.021553,0.00968933,0.0156784,0.121727,0.0179291,0.00732422,0.0227356,-9.97986,0.0406647,0.00392914,-0.0937653,-0.243263,0.125732,-0.0159836,0.00679016,-0.0934601
4,3,10.0097,0.0012207,-0.000762939,-2.4247,0.0559862,-0.0735371,0.0556539,0.0709703,-0.0919257,0.145929,-0.126377,-0.0819601,-0.0619507,0.0258255,0.016861,0.0138092,0.182228,0.0143051,0.0170517,0.0319672,-9.97986,0.0644302,-0.00270844,-0.0827026,-0.251999,0.122452,-0.0191879,0.010643,-0.119362
4,4,10.0097,0.000610352,-0.00183105,-2.42684,0.0569017,-0.0735371,0.0553487,0.072191,-0.0919257,0.145929,-0.123325,-0.0810445,-0.0788879,0.0261688,0.0102997,0.0193405,0.209312,0.0138474,0.027504,0.0390244,-9.97986,0.0907898,0.00793457,-0.0794601,-0.26741,0.11776,-0.0139618,0.00839233,-0.131721
4,5,10.0097,0.00274658,-0.000305176,-2.42501,0.0572069,-0.0738423,0.0553487,0.072191,-0.0894843,0.147149,-0.12363,-0.0816549,-0.0304031,0.0231171,0.0143433,0.00789642,0.23243,0.00732422,0.0291443,0.0485229,-9.97986,0.0897598,0.00564575,-0.0905228,-0.281029,0.107079,-0.0113678,0.00789642,-0.128937
4,6,10.0097,0.000610352,-0.00106812,-2.42623,0.055681,-0.073232,0.0532125,0.0560167,-0.0943672,0.147149,-0.126072,-0.0822652,-0.0668716,0.0195313,0.00442505,0.0138855,0.23983,0.00812531,0.0287628,0.0522614,-9.97986,0.0569153,0.00198364,-0.113297,-0.288696,0.108261,-0.0123215,0.0114822,-0.0982666
4,7,10.0097,-0.000305176,-0.00244141,-2.42684,0.0562914,-0.075063,0.0526021,0.0493029,-0.0937568,0.145929,-0.125766,-0.0822652,-0.148621,0.0258636,0.0111008,0.0143051,0.220947,0.0141144,0.0314713,0.0370789,-9.97986,0.0293732,0.00659943,-0.14637,-0.302734,0.0973129,-0.0113297,0.0107193,-0.0423431
4,8,9.42464,-0.000915527,-0.00289917,-2.42653,0.055681,-0.0738423,0.0544332,0.0572374,-0.090705,0.145929,-0.125461,-0.0825704,-0.126801,0.0288773,0.0129318,0.0175476,0.197411,0.0102615,0.0309753,0.0240707,-9.97986,-0.0132751,0.00850677,-0.177383,-0.318718,0.100861,0.00171661,0.0285721,-0.0404739
4,9,9.30989,-0.000915527,-0.00228882,-2.42592,0.0553758,-0.0747579,0.0535176,0.0673082,-0.0910102,0.145318,-0.126072,-0.0834859,-0.0602341,0.0312424,0.0228119,0.0144196,0.157242,0.0157166,0.0329208,0.0117874,-9.97986,-0.0572968,0.00843048,-0.214233,-0.337029,0.0963211,0.0188446,0.0655365,-0.0632858
5,0,9.5699,0.000915527,-0.000915527,-2.42592,0.0544603,-0.0744527,0.0529073,0.0737169,-0.0910102,0.146234,-0.126072,-0.0831808,0.0299835,0.0366592,0.0276184,0.0196075,0.106392,0.0279617,0.0362778,-0.00576019,-9.97986,-0.0732803,0.00976563,-0.2565,-0.351524,0.0796509,0.0232315,0.0914001,-0.0430298
5,1,10.0097,0.000915527,-0.00106812,-2.42714,0.0550706,-0.0756734,0.0529073,0.094774,-0.0897895,0.143487,-0.124241,-0.0844015,0.0140762,0.0452423,0.0296402,0.0242615,0.0765228,0.0303268,0.0379562,-0.0162506,-9.97986,-0.0776672,0.00656128,-0.286789,-0.367393,0.0617599,0.0150681,0.104599,-0.0476837
5,2,10.0097,0.000305176,-0.00167847,-2.43111,0.0541551,-0.0759786,0.0516866,0.0804308,-0.0952827,0.142877,-0.127292,-0.0859274,-0.0223541,0.040741,0.0207901,0.0194931,0.0592422,0.028038,0.0423431,-0.00793457,-9.97986,-0.118713,0.0018692,-0.302467,-0.387039,0.0423813,-0.00152588,0.106544,-0.0912094
5,3,10.0097,0.000305176,-0.00106812,-2.42898,0.0532396,-0.0756734,0.0526021,0.0724962,-0.0943672,0.144403,-0.126682,-0.0874532,0.0727463,0.0409317,0.0224686,0.0246048,0.0391006,0.0309753,0.0520325,-0.00118256,-9.97986,-0.158806,0.00587463,-0.29583,-0.3899,0.0297546,-0.0125504,0.111465,-0.0817871
5,4,10.0097,0,-0.000915527,-2.42928,0.0550706,-0.0762837,0.0513814,0.0697496,-0.0946723,0.145318,-0.126377,-0.0862325,0.136261,0.0380325,0.0149918,0.0204849,0.0125504,0.0204468,0.0466537,-0.0114059,-9.97986,-0.192871,-0.00366211,-0.305443,-0.389977,0.00450134,-0.0221634,0.107498,-0.0392151
5,5,10.0097,0.000915527,-0.000915527,-2.42959,0.0547655,-0.0747579,0.0504659,0.0685289,-0.095893,0.144708,-0.127598,-0.0874532,0.11673,0.0378799,0.0170898,0.0186539,-0.0227356,0.0173569,0.0424957,-0.014267,-9.97986,-0.194321,-0.00404358,-0.319214,-0.389938,-0.0105286,-0.0215149,0.0988388,-0.0025177
5,6,10.0097,0.0012207,0.000152588,-2.42867,0.0535448,-0.0756734,0.0522969,0.0679186,-0.0955879,0.143792,-0.127292,-0.0877584,0.0584793,0.0359726,0.0193024,0.0202179,-0.0428772,0.0242615,0.0432205,-0.0196075,-9.97986,-0.168839,-0.0185013,-0.310783,-0.382271,-0.0120926,-0.0209427,0.0945282,0.00480652
5,7,10.0097,-0.0012207,0.000305176,-2.42837,0.0541551,-0.075063,0.0532125,0.07036,-0.095893,0.143182,-0.127598,-0.0859274,-0.00995636,0.034523,0.0123978,0.018959,-0.0796127,0.0192642,0.0484085,-0.00980377,-9.97986,-0.134811,-0.0152206,-0.285683,-0.370407,-0.00972748,-0.0143433,0.0951385,-0.00453949
5,8,10.0097,0.000305176,0.000305176,-2.42776,0.0550706,-0.0738423,0.0538228,0.0715807,-0.0931465,0.144403,-0.126682,-0.0844015,0.0094986,0.0288773,0.00331879,0.0107574,-0.105095,0.0197983,0.0475693,0.00343323,-9.97986,-0.0787735,-0.0169754,-0.262985,-0.371857,-0.0229263,-0.0130463,0.0875854,-0.0213242
5,9,10.0097,0.000915527,0.000915527,-2.42653,0.0541551,-0.0753682,0.0556539,0.0740221,-0.0931465,0.144708,-0.126072,-0.0844015,0.0753021,0.0213623,-0.0103378,0.0135422,-0.0915146,0.0234604,0.0428009,0.0154495,-9.97986,0.0496292,-0.00579834,-0.217247,-0.358162,-0.0212479,-0.0101852,0.0828552,-0.0392914
6,0,10.0097,-0.000305176,0.00213623,-2.42653,0.0562914,-0.0753682,0.0547383,0.0718859,-0.0934516,0.145929,-0.125766,-0.0834859,0.123215,0.0151443,-0.011673,0.00804901,-0.0920105,0.0260925,0.043335,0.0292969,-9.97986,0.130386,0.0056076,-0.161591,-0.343361,-0.0144577,-0.0108719,0.0765228,-0.0596237
6,1,10.0097,0.000610352,0.00152588,-2.4247,0.0565965,-0.0738423,0.0553487,0.0715807,-0.0913154,0.144403,-0.124546,-0.0825704,0.121918,0.0166702,-0.00816345,0.0118637,-0.101585,0.0310898,0.0434494,0.0274277,-9.97986,0.121689,0.0175476,-0.121994,-0.32589,-0.00957489,-0.0258636,0.0663376,-0.07267
6,2,10.0097,-0.000610352,0.0012207,-2.42531,0.0565965,-0.0744527,0.0547383,0.0709703,-0.0916206,0.146234,-0.124546,-0.0813497,0.0993729,0.015831,-0.00675201,0.00640869,-0.1054,0.0262451,0.0400162,0.0291443,-9.97986,0.102081,0.0226212,-0.0863647,-0.312958,0.00324249,-0.0340652,0.06073,-0.0744629
6,3,10.0097,0.000305176,0.00198364,-2.42531,0.0559862,-0.0735371,0.0562642,0.0682238,-0.0916206,0.146234,-0.12363,-0.0813497,0.063858,0.017662,-0.0127411,0.00469208,-0.0814438,0.0191116,0.0374222,0.0304031,-9.97986,0.0959015,0.0206757,-0.0379181,-0.297356,0.010643,-0.0323486,0.0579834,-0.0524902
6,4,10.0097,0.00183105,0.00228882,-2.4247,0.0553758,-0.0741475,0.0565694,0.0718859,-0.0943672,0.146539,-0.124546,-0.0804342,0.0221634,0.0206375,-0.00602722,0.00526428,-0.0458908,0.0105667,0.0335693,0.027771,-9.97986,0.131721,0.019989,0.0114822,-0.269699,0.0239182,-0.0256729,0.0553894,-0.0240326
6,5,10.0097,0,0.00320435,-2.42623,0.0565965,-0.0738423,0.0550435,0.072191,-0.0913154,0.147149,-0.125156,-0.080129,0.0268936,0.0229645,-0.00595093,0.0123215,-0.0271225,0.0144196,0.0339127,0.0236511,-9.97986,0.177574,0.0174713,0.0175095,-0.240135,0.0482559,-0.0192261,0.0520325,-0.0100708
6,6,10.0097,-0.000610352,0.00289917,-2.42653,0.0569017,-0.0744527,0.0550435,0.0587633,-0.0934516,0.146539,-0.124546,-0.0807394,0.0566101,0.0269318,0.0044632,0.0108719,-0.00759125,0.021553,0.0251007,0.0114059,-9.97986,0.183907,0.0119781,0.0118256,-0.215683,0.061264,-0.0136948,0.0484848,-0.021553
6,7,10.0097,0.000305176,0.00137329,-2.42653,0.0553758,-0.0741475,0.0535176,0.0508287,-0.0946723,0.145318,-0.125461,-0.0819601,0.0846863,0.0376129,0.0127411,0.01091,0.00747681,0.0360489,0.0278854,0.00476837,-9.97986,0.16468,0.00984192,0.00450134,-0.19001,0.0508118,-0.0105286,0.0418472,-0.0521088
6,8,9.55068,0.00213623,0.00228882,-2.42501,0.0550706,-0.0747579,0.0547383,0.0578478,-0.0925361,0.144708,-0.125156,-0.0810445,0.0770187,0.0458908,0.0176239,0.0204849,0.0138855,0.0485992,0.0227356,-0.0025177,-9.97986,0.124168,0.0149918,0.0114441,-0.153351,0.0388336,-0.00225067,0.030899,-0.0995636
6,9,9.50093,-0.000610352,0.00350952,-2.42653,0.0550706,-0.0744527,0.0544332,0.0639513,-0.0928413,0.142877,-0.125461,-0.0813497,0.0643539,0.0477982,0.0254822,0.0195694,0.0245285,0.0385666,0.0154495,-0.00900269,-9.97986,0.0632477,0.0167465,0.020256,-0.116463,0.0352478,0.00125885,0.0232315,-0.117493
7,0,9.77101,-0.000915527,0.00396729,-2.42653,0.0529344,-0.073232,0.0544332,0.0715807,-0.0922309,0.146539,-0.125461,-0.0825704,0.0440979,0.0486374,0.0276947,0.0187683,0.0447845,0.0320435,0.0175858,-0.0115967,-9.97986,0.00541687,0.0107193,0.0206757,-0.0871658,0.0321198,-0.000724792,0.0175858,-0.0804138
7,1,10.0097,0.00335693,0.00442505,-2.42653,0.0544603,-0.075063,0.055959,0.0950792,-0.0894843,0.145013,-0.124241,-0.0834859,0.0349045,0.0511551,0.0274658,0.0200272,0.0780106,0.0214386,0.0128555,-0.013237,-9.97986,-0.031929,0.00556946,0.0192261,-0.0535965,0.021553,0.00415802,0.0199127,-0.0531769
7,2,10.0097,-0.000610352,0.00305176,-2.42898,0.0535448,-0.0765889,0.0519917,0.0804308,-0.0934516,0.143792,-0.125156,-0.0856222,0.0613403,0.0511551,0.0286484,0.0177383,0.0937271,0.0126648,0.00923157,-0.0123215,-9.97986,-0.0380325,-0.00347137,0.0126266,-0.0232315,0.00114441,0.0127411,0.0151062,-0.0741959
7,3,10.0097,-0.000610352,0.00228882,-2.42928,0.0501878,-0.0747579,0.0510762,0.0737169,-0.0949775,0.142267,-0.127598,-0.085317,0.0648117,0.0490189,0.0307083,0.021553,0.0993729,0.014534,0.00473022,-0.00534058,-9.97986,-0.0177002,-0.00518799,-0.012207,0.00144958,-0.00968933,0.0195313,0.0129318,-0.104103
7,4,10.0097,0,0.00244141,-2.42867,0.0538499,-0.0756734,0.0522969,0.0706652,-0.0961982,0.143792,-0.127292,-0.0859274,0.0527191,0.0450134,0.025177,0.0194168,0.11097,0.00865936,-0.00141144,-0.00183105,-9.97986,0.0154877,-0.00301361,-0.00999451,0.0334167,-0.0144196,0.0252151,0.0201797,-0.12207
7,5,10.0097,0.00335693,0.00259399,-2.42867,0.0535448,-0.0768941,0.0532125,0.07036,-0.0943672,0.144098,-0.127598,-0.0865377,0.0224686,0.0406647,0.0214386,0.0143051,0.119171,-0.00221252,-0.00728607,0.00617981,-9.97986,0.0437546,0.00911713,0.0220108,0.0668335,-0.0191498,0.0343704,0.0143051,-0.118217
7,6,10.0097,-0.000305176,0.00335693,-2.42806,0.0532396,-0.0771993,0.0535176,0.0688341,-0.0946723,0.143792,-0.126682,-0.0859274,-0.0412369,0.0371552,0.0175476,0.0125122,0.106812,0.000610352,-0.0118256,0.00709534,-9.97986,0.057106,0.00492096,0.0443268,0.101318,-0.0206757,0.0352859,0.00835419,-0.0972748
7,7,10.0097,-0.000305176,0.00320435,-2.42928,0.0544603,-0.0744527,0.0522969,0.0688341,-0.0922309,0.145013,-0.126377,-0.085317,-0.0628281,0.0357437,0.0213623,0.0137711,0.0640106,0.0146103,-0.0204086,0.00724792,-9.97986,0.0611115,-0.000305176,0.050621,0.141525,-0.0143051,0.0360107,0.00450134,-0.087204
7,8,10.0097,0,0.00350952,-2.42776,0.0547655,-0.0753682,0.0529073,0.0709703,-0.0928413,0.145318,-0.127292,-0.0834859,-0.0524902,0.0318909,0.018158,0.0143814,-0.00564575,0.0102615,-0.0205231,0.000457764,-9.97986,0.0745773,0.00354767,0.0644684,0.180893,-0.018158,0.0358582,0.00724792,-0.0649261
7,9,10.0097,-0.000610352,0.00335693,-2.42745,0.0553758,-0.075063,0.0519917,0.0706652,-0.0919257,0.145318,-0.126377,-0.0834859,-0.0243759,0.0311279,0.00900269,0.0110626,-0.0973892,-0.00408173,-0.0204086,0.00579834,-9.97986,0.116043,0.0137329,0.0761414,0.218925,-0.021286,0.0391388,0.00999451,-0.0219727
8,0,10.0097,0.0012207,0.00396729,-2.42684,0.0547655,-0.0744527,0.0535176,0.07036,-0.0928413,0.145929,-0.126072,-0.0828756,0.00694275,0.0298309,0.0173187,0.0104904,-0.156021,-0.0135422,-0.022316,0.0192642,-9.97986,0.111885,0.00377655,0.0687408,0.260201,-0.0128937,0.0476456,0.0204468,-0.000724792
8,1,10.0097,-0.000305176,0.00335693,-2.42623,0.0559862,-0.0741475,0.0535176,0.0706652,-0.0919257,0.145929,-0.123935,-0.0816549,0.0180817,0.0332642,0.010643,0.00907898,-0.177193,-0.0175476,-0.0339127,0.0332642,-9.97986,0.0714874,-0.0147247,0.0634766,0.283241,-0.00934601,0.0470352,0.0403595,-0.0166702
8,2,10.0097,0.00152588,0.00183105,-2.4244,0.0553758,-0.0738423,0.0544332,0.07036,-0.0910102,0.145624,-0.124241,-0.0810445,0.0207901,0.0308228,0.0159836,0.00579834,-0.161171,-0.0213623,-0.0377655,0.0365067,-9.97986,0.056076,-0.0290298,0.0536728,0.29644,-0.0318909,0.0413132,0.049057,-0.0300598
8,3,10.0097,0.00152588,0.00137329,-2.4244,0.0569017,-0.0735371,0.0544332,0.0694445,-0.0922309,0.146844,-0.124851,-0.0792135,-0.0129318,0.037117,0.0205231,0.00740051,-0.136185,-0.0189972,-0.0477982,0.0392532,-9.97986,0.0437164,-0.0437927,0.0458908,0.314369,-0.0364304,0.0339508,0.0451279,-0.0379562
8,4,10.0097,-0.000610352,0.00137329,-2.4244,0.0550706,-0.0744527,0.0550435,0.0700548,-0.0928413,0.145929,-0.123325,-0.0813497,-0.0519562,0.0416946,0.0223923,0.00587463,-0.11219,-0.0111771,-0.0514603,0.035553,-9.97986,0.0341034,-0.0320816,0.0431442,0.333748,-0.0243759,0.0401306,0.0354767,-0.0469208
8,5,10.0097,0.0012207,0.00198364,-2.42562,0.0553758,-0.0741475,0.0553487,0.0700548,-0.094062,0.147455,-0.124546,-0.0804342,-0.107956,0.0431442,0.0310898,0.0124741,-0.0507736,0.00156403,-0.0608444,0.0298309,-9.97986,0.0265503,-0.01297,0.0547028,0.344887,-0.0255585,0.0496674,0.030365,-0.047493
8,6,10.0097,0.000305176,0.00198364,-2.42592,0.0559862,-0.0738423,0.0538228,0.0575426,-0.0937568,0.145929,-0.125461,-0.0804342,-0.248337,0.0483322,0.034523,0.0151825,-0.0146866,0.00793457,-0.0623703,0.0116348,-9.97986,0.0208664,0.00274658,0.0556946,0.36541,-0.02491,0.0533295,0.0314713,-0.0373459
8,7,10.0097,0.00152588,0.00167847,-2.42592,0.0559862,-0.0738423,0.054128,0.0508287,-0.0937568,0.145624,-0.125766,-0.0816549,-0.29747,0.0569534,0.0427628,0.0147629,-0.0182724,0.00183105,-0.0624847,-0.00957489,-9.97986,0.0445557,0.00514984,0.0558472,0.382957,-0.0194168,0.0560379,0.0422668,-0.0478363
8,8,9.68862,0.000305176,0.000610352,-2.42592,0.0538499,-0.075063,0.0562642,0.0596788,-0.0925361,0.145929,-0.126072,-0.0810445,-0.239677,0.0615311,0.0540924,0.0157166,-0.0191498,-0.00846863,-0.0624847,-0.022316,-9.97986,0.0728989,-0.00209808,0.0662231,0.399437,-0.0133133,0.0521851,0.0218201,-0.0746155
8,9,9.58089,0.00366211,0.0012207,-2.42623,0.0544603,-0.0753682,0.0550435,0.0673082,-0.0928413,0.145624,-0.124851,-0.0822652,-0.16819,0.0632095,0.0562668,0.017395,-0.0428391,-0.0118637,-0.0508881,-0.0209427,-9.97986,0.0779343,-0.00396729,0.0635529,0.413933,-0.0274277,0.0489426,-0.00114441,-0.0829697
9,0,9.87782,0.000915527,0.0012207,-2.42714,0.0550706,-0.073232,0.054128,0.0752428,-0.090705,0.145013,-0.124546,-0.0819601,-0.0296783,0.0658035,0.0581741,0.0197983,-0.0402069,-0.0129318,-0.044632,-0.0149918,-9.97986,0.0562286,0.00175476,0.0382233,0.412712,-0.0175476,0.0457001,-0.00652313,-0.112991
9,1,10.0097,0,0.0012207,-2.42776,0.0535448,-0.0753682,0.0547383,0.094774,-0.0897895,0.143487,-0.125156,-0.0834859,0.0314713,0.0620651,0.0557709,0.0200653,-0.0418472,-0.00350952,-0.0532532,-0.01091,-9.97986,0.0261688,0.0169754,0.0198364,0.41317,-0.00854492,0.0447464,-0.00385284,-0.168152
9,2,10.0097,0.00183105,0.000610352,-2.42928,0.0523241,-0.0759786,0.0538228,0.0798204,-0.0946723,0.142572,-0.126987,-0.0871481,0.04879,0.0575256,0.049057,0.0151825,-0.029068,0.00423431,-0.0595093,-0.000991821,-9.97986,-0.00907898,0.00431061,0.0254059,0.40802,-0.0312805,0.0548935,-0.0213242,-0.175362
9,3,10.0097,0.000610352,-0.000610352,-2.42928,0.0541551,-0.0759786,0.0526021,0.0718859,-0.0949775,0.142877,-0.127292,-0.0874532,0.112534,0.051918,0.0507355,0.0139236,0.0100708,0.0238419,-0.0720596,0.00709534,-9.97986,-0.0544739,-0.00450134,0.0457382,0.396004,-0.0645447,0.049057,-0.0372314,-0.16655
9,4,10.0097,0.0012207,-0.00137329,-2.42989,0.0541551,-0.0753682,0.0529073,0.07036,-0.0961982,0.141961,-0.126072,-0.0868429,0.0947952,0.0550461,0.0468826,0.0164413,0.0488663,0.020752,-0.0809479,0.00370026,-9.97986,-0.0878525,0.00278473,0.0638962,0.380898,-0.0826263,0.0551987,-0.0442505,-0.133591
9,5,10.0097,-0.0012207,-0.00152588,-2.42837,0.0541551,-0.0753682,0.0519917,0.0676134,-0.0952827,0.145318,-0.127292,-0.0874532,0.108948,0.0498962,0.0416946,0.013237,0.0647736,-0.00705719,-0.0836945,-0.00343323,-9.97986,-0.129128,-0.00694275,0.0761795,0.372658,-0.0966644,0.0630951,-0.0518799,-0.0296402
9,6,10.0097,0,-0.00228882,-2.4302,0.0541551,-0.0768941,0.0519917,0.0673082,-0.095893,0.143792,-0.128208,-0.0880636,0.135307,0.0489426,0.0409317,0.0166321,0.0798416,-0.0270081,-0.0981522,-0.00385284,-9.97986,-0.196152,-0.010376,0.0854492,0.353279,-0.10704,0.0656891,-0.0765991,0.0160217
9,7,10.0097,-0.000915527,-0.00259399,-2.42806,0.0535448,-0.0759786,0.0532125,0.0691393,-0.094062,0.143792,-0.127292,-0.0868429,0.148926,0.0368118,0.0245667,0.00892639,0.146561,-0.0398254,-0.0954437,0.00484467,-9.97986,-0.257072,-0.0107193,0.0688171,0.321579,-0.108757,0.0671387,-0.0867462,0.0199127
9,8,10.0097,0,-0.00335693,-2.42928,0.0550706,-0.0735371,0.0522969,0.0688341,-0.0934516,0.145013,-0.126682,-0.085317,0.189133,0.0270081,0.0213623,0.00823975,0.214958,-0.0406265,-0.0905228,0.0154114,-9.97986,-0.276375,-0.0173569,0.0431061,0.290947,-0.110092,0.0481033,-0.0909424,0.0510025
9,9,10.0097,0.000305176,-0.00259399,-2.42745,0.0550706,-0.0753682,0.0532125,0.0682238,-0.0943672,0.144708,-0.126682,-0.085317,0.0883484,0.0228119,0.0111008,0.00701904,0.265617,-0.0229645,-0.0862885,0.0169373,-9.97986,-0.244484,-0.0125885,0.02388,0.263023,-0.120125,0.0210571,-0.0958252,0.0868225
10,0,10.0097,0.0012207,-0.00259399,-2.42776,0.0550706,-0.0744527,0.0538228,0.0706652,-0.094062,0.145624,-0.123935,-0.0847066,-0.0122833,0.0135422,-0.00213623,0.00038147,0.306664,-0.00328064,-0.0786591,0.0152969,-9.97986,-0.194244,0.0019455,0.00881195,0.232773,-0.12249,0.0149155,-0.10807,0.119896
10,1,10.0097,-0.000305176,-0.00244141,-2.42531,0.0547655,-0.0744527,0.0532125,0.0718859,-0.0925361,0.146844,-0.124241,-0.0831808,0.0279999,0.00644684,-0.00789642,-0.00205994,0.269966,-0.000457764,-0.0780487,0.0191116,-9.97986,-0.165367,0.0113678,-0.00614166,0.205231,-0.121117,0.0191498,-0.119667,0.111351
10,2,10.0097,-0.000610352,-0.00198364,-2.4247,0.0559862,-0.0735371,0.0544332,0.0724962,-0.090705,0.145929,-0.125156,-0.0822652,0.0624847,0.00583649,-0.0147247,-0.000305176,0.177116,-0.00164032,-0.0725174,0.0200272,-9.97986,-0.127106,0.0019455,-0.00263214,0.184059,-0.102005,0.0267792,-0.116501,0.0543213
10,3,10.0097,0,-0.0012207,-2.42501,0.0569017,-0.073232,0.0544332,0.0734117,-0.0922309,0.145013,-0.123935,-0.0819601,0.0940704,0.0044632,-0.014534,-0.00133514,0.0697708,-0.00659943,-0.0667191,0.0130844,-9.97986,-0.0635147,0.00354767,0.000343323,0.168648,-0.0776672,0.0297165,-0.12413,-0.0172424
10,4,10.0097,0.00183105,-0.00183105,-2.42592,0.0569017,-0.0744527,0.0553487,0.0743273,-0.0913154,0.144708,-0.123325,-0.0816549,0.102654,0.00255585,-0.0193787,-0.00087738,-0.0943375,-0.0135803,-0.0543976,0.0188828,-9.97986,0.0358963,0.0123215,-0.0180435,0.143623,-0.0601959,0.0334549,-0.125198,-0.0777435
10,5,10.0097,0.000305176,-0.00137329,-2.42531,0.0569017,-0.0738423,0.0544332,0.0734117,-0.0913154,0.146234,-0.12363,-0.0819601,0.0595093,0.00202179,-0.0188446,0.00343323,-0.226898,-0.0185394,-0.0473022,0.0317764,-9.97986,0.10334,0.0088501,-0.0161743,0.12146,-0.0415421,0.0437164,-0.111275,-0.0978851
10,6,10.0097,0,-0.00228882,-2.42745,0.0565965,-0.0747579,0.0535176,0.058153,-0.0934516,0.145929,-0.125766,-0.0819601,0.0556183,0.00499725,-0.0198746,0.00148773,-0.277786,-0.0269699,-0.0449753,0.0276947,-9.97986,0.129395,0.00850677,-0.00335693,0.104103,-0.0159454,0.0358963,-0.0950623,-0.136833
10,7,10.0097,0.00152588,-0.00305176,-2.42562,0.0553758,-0.0735371,0.054128,0.0520494,-0.0916206,0.145624,-0.125156,-0.0825704,0.0518036,0.0102234,-0.0146484,0.0025177,-0.285072,-0.0516129,-0.0355148,0.0325394,-9.97986,0.150146,0.00881195,-0.0125122,0.091362,0.0173187,0.0151062,-0.0733566,-0.153084
10,8,9.44844,0.000915527,-0.00244141,-2.42592,0.0553758,-0.0747579,0.0538228,0.058153,-0.0925361,0.146539,-0.126072,-0.0825704,0.0391769,0.00965118,-0.0138474,0.00236511,-0.235443,-0.093689,-0.0307465,0.0338364,-9.97986,0.139885,0.00305176,0.0247192,0.0681305,0.0497437,0.00835419,-0.0527573,-0.111923
10,9,9.31264,0.000610352,-0.00183105,-2.42592,0.0547655,-0.0741475,0.0562642,0.0660875,-0.0910102,0.147455,-0.125461,-0.0831808,0.0400925,0.0169754,-0.00736237,0.000839233,-0.192642,-0.121498,-0.0233459,0.030632,-9.97986,0.148087,-0.0019455,0.117073,0.0483322,0.0570297,0.021019,-0.0531769,-0.0718307
11,0,9.57936,0.00152588,-0.00228882,-2.42592,0.0544603,-0.0744527,0.0562642,0.0734117,-0.0922309,0.145929,-0.125766,-0.0837911,0.045166,0.0175858,-0.00801086,-0.0031662,-0.170174,-0.135651,-0.0194931,0.0371552,-9.97986,0.180016,0.000534058,0.196915,0.0255203,0.0630951,0.0392914,-0.0634766,-0.0655746
11,1,10.0097,0.00244141,-0.00198364,-2.42714,0.0547655,-0.075063,0.0556539,0.0950792,-0.0910102,0.143182,-0.123935,-0.0850118,0.0455475,0.0181961,-0.00198364,-0.00324249,-0.151558,-0.13649,-0.0172424,0.0352478,-9.97986,0.205231,0.0019455,0.249252,-0.0050354,0.0623703,0.046196,-0.0657654,-0.0745392
11,2,10.0097,0.00183105,-0.00183105,-2.42867,0.0541551,-0.0768941,0.0532125,0.0801256,-0.0955879,0.145013,-0.126682,-0.0874532,0.0449371,0.0210571,-0.00480652,0.00202179,-0.14019,-0.127106,-0.0154877,0.0405121,-9.97986,0.203476,0.00648499,0.252609,-0.0393295,0.0663376,0.0532532,-0.0828934,-0.0235748
11,3,10.0097,-0.000305176,-0.00289917,-2.42959,0.0547655,-0.0756734,0.0519917,0.0728014,-0.0931465,0.145318,-0.126072,-0.0874532,0.0423431,0.0261688,0.00385284,0.000190735,-0.0838852,-0.1194,-0.0108337,0.0499725,-9.97986,0.177002,0.00553131,0.208511,-0.0647736,0.0896835,0.047493,-0.0839996,0.0470734
11,4,10.0097,0.000610352,-0.00335693,-2.43081,0.0553758,-0.0762837,0.0504659,0.0682238,-0.0955879,0.145624,-0.126072,-0.0868429,-0.00209808,0.0255585,0.00961304,0.00160217,-0.0310135,-0.115433,-0.014267,0.0498962,-9.97986,0.14698,0.00587463,0.166473,-0.094223,0.0947952,0.0391769,-0.0757599,0.0741196
11,5,10.0097,0.000915527,-0.00366211,-2.42837,0.0532396,-0.0756734,0.0519917,0.0673082,-0.0949775,0.145013,-0.128513,-0.0880636,-0.050087,0.0288391,0.0133133,0.00110626,-0.0391006,-0.103683,-0.00442505,0.0480652,-9.97986,0.114441,-0.00427246,0.126801,-0.117073,0.0926208,0.0198746,-0.069313,0.0908279
11,6,10.0097,0.000915527,-0.00274658,-2.4302,0.0532396,-0.0771993,0.0504659,0.0679186,-0.0968086,0.144708,-0.127292,-0.0880636,-0.0736237,0.0328064,0.0198364,0.00782013,-0.0494003,-0.0867844,-0.00461578,0.0510025,-9.97986,0.0825119,-0.0139618,0.0775528,-0.13401,0.100708,0.0143051,-0.0580597,0.0917816
11,7,10.0097,0,-0.00198364,-2.42867,0.0541551,-0.0753682,0.0510762,0.0685289,-0.0943672,0.143792,-0.125766,-0.0865377,-0.114899,0.0390244,0.0236893,0.0126266,-0.0456619,-0.0659943,0.00263214,0.0328064,-9.97986,0.0528336,-0.0142288,0.0410843,-0.147095,0.0994873,0.00671387,-0.0486374,0.0910568
11,8,10.0097,0.00152588,-0.00152588,-2.42776,0.0547655,-0.0753682,0.0519917,0.0682238,-0.0937568,0.144403,-0.126682,-0.0850118,-0.171242,0.0466156,0.0358963,0.0139618,-0.0239944,-0.0494766,0.00221252,0.0050354,-9.97986,0.0384903,-0.0303268,-0.0187683,-0.160828,0.103416,0.00423431,-0.0322723,0.100594
11,9,10.0097,0.0012207,-0.000762939,-2.42745,0.0544603,-0.075063,0.0522969,0.0697496,-0.0928413,0.145318,-0.126987,-0.0850118,-0.0846481,0.0494766,0.0408554,0.0177383,-0.0257874,-0.0411606,0.0108337,-0.0156403,-9.97986,0.0220108,-0.0286865,-0.0582504,-0.159569,0.118637,0.00915527,-0.0192261,0.0832367
12,0,10.0097,0.00183105,-0.000152588,-2.42745,0.0547655,-0.0738423,0.0529073,0.0718859,-0.0910102,0.143792,-0.126072,-0.0834859,0.057373,0.0550842,0.0471115,0.0176239,-0.0333786,-0.0419998,0.018425,-0.00789642,-9.97986,0.00358582,-0.0167465,-0.0590134,-0.168953,0.11467,0.0107956,-0.00331879,0.0378418
12,1,10.0097,0.000610352,-0.000457764,-2.4247,0.0559862,-0.0735371,0.0544332,0.0712755,-0.0916206,0.145318,-0.125461,-0.0822652,0.133057,0.0499344,0.0457001,0.0146103,-0.0303268,-0.0571823,0.0200653,-0.00286102,-9.97986,-0.0266647,-0.00522614,-0.0231934,-0.171738,0.113869,0.00915527,0.010376,0.00934601
12,2,10.0097,0.000610352,-0.000305176,-2.42592,0.0569017,-0.0741475,0.0556539,0.0709703,-0.0919257,0.145929,-0.124546,-0.0822652,0.144653,0.0397873,0.0432587,0.0156403,-0.0314331,-0.0716019,0.0278854,0.00999451,-9.97986,-0.0583267,0.0197983,0.0381088,-0.187111,0.119362,0.000419617,0.0216293,0.0131607
12,3,10.0097,0.00366211,-0.00106812,-2.42562,0.0569017,-0.0738423,0.0562642,0.0685289,-0.0922309,0.145929,-0.124851,-0.0822652,0.0469971,0.0357819,0.0362396,0.0137329,-0.0191498,-0.0827408,0.0283051,0.0247955,-9.97986,-0.0878525,0.0384903,0.0793076,-0.205765,0.11528,-0.00747681,0.0494385,0.0115204
12,4,10.0097,0.0012207,-0.00137329,-2.42684,0.0569017,-0.0747579,0.0562642,0.0706652,-0.0919257,0.147455,-0.12363,-0.0816549,-0.0257492,0.0294876,0.0272369,0.0114822,0.00556946,-0.0756454,0.0267792,0.0312042,-9.97986,-0.112457,0.0483322,0.112228,-0.211105,0.123787,-0.00465393,0.0636673,0.0191879
12,5,10.0097,0.00183105,0.000610352,-2.42562,0.0559862,-0.0744527,0.0556539,0.0688341,-0.090705,0.146539,-0.124241,-0.0810445,-0.0524139,0.0228882,0.02388,0.0108337,0.0268555,-0.070076,0.032959,0.0290298,-9.97986,-0.113106,0.0554657,0.127792,-0.211143,0.12661,-0.00785828,0.0749207,0.0317764
12,6,10.0097,-0.000610352,0.000915527,-2.42531,0.0575121,-0.073232,0.0547383,0.0569322,-0.0922309,0.145929,-0.126072,-0.0816549,-0.090332,0.0246811,0.020752,0.0136185,0.0564957,-0.0735092,0.043602,0.0257111,-9.97986,-0.114594,0.0353241,0.140724,-0.203247,0.134048,-0.0131989,0.0945663,0.0328064
12,7,10.0097,0.000915527,-0.00106812,-2.42501,0.0569017,-0.0744527,0.0556539,0.0523546,-0.0925361,0.145929,-0.125766,-0.0816549,-0.0315475,0.019722,0.0123215,0.00968933,0.0642776,-0.0813675,0.0512314,0.0250244,-9.97986,-0.122566,0.0115967,0.172729,-0.208359,0.139046,-0.00747681,0.105324,0.0252914
12,8,9.52901,0.00305176,-0.000762939,-2.42653,0.0562914,-0.0738423,0.0556539,0.0596788,-0.0925361,0.145013,-0.126072,-0.0825704,0.030632,0.0159073,0.0157928,0.012207,0.0762558,-0.0802612,0.0726318,0.0246048,-9.97986,-0.121918,0.0230408,0.210953,-0.207939,0.128632,-0.0143051,0.112495,0.00854492
12,9,9.42708,-0.000305176,0.000457764,-2.42531,0.0562914,-0.073232,0.0562642,0.0654772,-0.0913154,0.145624,-0.124851,-0.0822652,0.0177002,0.0201416,0.0134659,0.0121689,0.0962448,-0.0804138,0.0844955,0.0271606,-9.97986,-0.112305,0.0389862,0.247116,-0.199051,0.120163,-0.0157928,0.120239,-0.00335693
13,0,9.71822,0,0.00137329,-2.42592,0.0544603,-0.0744527,0.0550435,0.0743273,-0.0900947,0.145318,-0.126072,-0.0828756,0.00801086,0.0141907,0.00679016,0.00770569,0.103149,-0.0850677,0.066185,0.0296402,-9.97986,-0.076828,0.0322342,0.285759,-0.191917,0.113525,-0.0222778,0.121689,-0.0201797
13,1,10.0097,0.00183105,0.000457764,-2.42562,0.0547655,-0.0756734,0.0553487,0.0972155,-0.090705,0.143792,-0.12363,-0.0847066,0.00907898,0.00694275,0.00404358,0.00812531,0.0974655,-0.0845718,0.0472641,0.0295639,-9.97986,-0.014801,0.0209045,0.322838,-0.204773,0.105171,-0.0207901,0.112534,-0.0278091
13,2,10.0097,0.000305176,0.000152588,-2.42989,0.0535448,-0.0753682,0.0522969,0.0816515,-0.0961982,0.143792,-0.128208,-0.0859274,-0.000190735,0.00797272,0.00545502,0.0094986,0.0893784,-0.0787354,0.030899,0.0256729,-9.97986,0.025444,-0.0222015,0.332031,-0.20752,0.100937,-0.0204849,0.0956345,-0.0360107
13,3,10.0097,-0.00152588,0.000610352,-2.42928,0.0529344,-0.0768941,0.0510762,0.0724962,-0.0937568,0.143182,-0.126987,-0.0865377,0.000343323,0.00587463,0.00782013,0.0100708,0.0966263,-0.0723648,0.017128,0.0253296,-9.97986,0.0435638,-0.0453949,0.306511,-0.193863,0.0961304,-0.0217819,0.0903702,-0.038414
13,4,10.0097,0.0012207,0.00137329,-2.42867,0.0547655,-0.075063,0.0483296,0.0715807,-0.0952827,0.142877,-0.126987,-0.0871481,0.012207,0.00541687,0.00839233,0.0100327,0.0889587,-0.0708008,0.00171661,0.018692,-9.97986,0.079422,-0.0338364,0.273132,-0.176888,0.0731659,-0.0226593,0.088768,-0.0405502
13,5,10.0097,-0.000610352,0.000762939,-2.42806,0.0529344,-0.0756734,0.0513814,0.0697496,-0.0946723,0.142267,-0.127292,-0.0856222,0.0139999,0.0050354,0.00839233,0.00980377,0.0920486,-0.0600052,0.00720978,0.0231171,-9.97986,0.112381,-0.0231934,0.231972,-0.15873,0.0437927,-0.0239944,0.0771713,-0.0463867
13,6,10.0097,-0.000915527,0.00228882,-2.42959,0.0535448,-0.0753682,0.0510762,0.0691393,-0.0952827,0.144098,-0.127598,-0.0862325,0.00492096,0.00606537,0.0126648,0.00762939,0.10231,-0.0455475,0.0203705,0.0188065,-9.97986,0.124512,-0.0213242,0.200577,-0.128174,0.0222397,-0.0254059,0.05867,-0.0413132
13,7,10.0097,0.00183105,0.00259399,-2.42776,0.0532396,-0.0747579,0.0522969,0.0682238,-0.0943672,0.143487,-0.127292,-0.085317,0.00991821,0.00785828,0.0100708,0.00827789,0.105743,-0.0387192,0.0389862,0.0169373,-9.97986,0.143242,-0.0286102,0.195885,-0.0986099,0.00270844,-0.0237656,0.0457382,-0.0291443
13,8,10.0097,0.0012207,0.000915527,-2.42653,0.0547655,-0.0759786,0.0535176,0.0697496,-0.0928413,0.143182,-0.126072,-0.0844015,0.00656128,0.00988007,0.013504,0.00606537,0.112915,-0.0226974,0.0511551,0.0107574,-9.97986,0.13752,-0.0342941,0.207443,-0.0915527,-0.0164795,-0.0263596,0.032196,-0.0442886
13,9,10.0097,0.000610352,0.00106812,-2.42714,0.0553758,-0.0753682,0.0532125,0.0697496,-0.0937568,0.144708,-0.126377,-0.0847066,0.00762939,0.0110245,0.0141907,0.0117111,0.126114,-0.0124741,0.0550079,0.0123978,-9.97986,0.125961,-0.0191498,0.204849,-0.0774002,-0.0353622,-0.0241089,0.0202179,-0.0272369
14,0,10.0097,0.000305176,0.00137329,-2.42592,0.0553758,-0.0747579,0.0550435,0.0688341,-0.0934516,0.144708,-0.125766,-0.0828756,0.00751495,0.00759125,0.0147629,0.0150681,0.12085,-0.000572205,0.0508499,0.0112915,-9.97986,0.112381,-0.0128937,0.175667,-0.0609589,-0.0584793,-0.0311661,0.020256,0.0113678
14,1,10.0097,0.0012207,0.00289917,-2.42562,0.0553758,-0.0726216,0.054128,0.0715807,-0.0922309,0.145318,-0.124241,-0.0813497,0.00614166,0.00728607,0.00946045,0.013504,0.117264,0.00164032,0.0507355,0.0164413,-9.97986,0.0994873,-0.0225449,0.148926,-0.0278854,-0.0788879,-0.0307083,0.0163651,0.0438309
14,2,10.0097,-0.000610352,0.00274658,-2.42562,0.0572069,-0.0762837,0.054128,0.0706652,-0.0922309,0.147149,-0.124546,-0.0810445,0.00263214,0.00377655,0.00576019,0.0100327,0.11219,0.0100708,0.0415039,0.0196838,-9.97986,0.0997162,-0.0469208,0.138664,-0.00709534,-0.0933456,-0.0239182,0.0160599,0.0813293
14,3,10.0097,0.000610352,0.00198364,-2.4247,0.0572069,-0.0744527,0.0547383,0.0706652,-0.0925361,0.14837,-0.124241,-0.0804342,0.00389099,0.00850677,0.0124359,0.00873566,0.0986481,0.00915527,0.0461197,0.0213242,-9.97986,0.0976563,-0.052948,0.125847,0.0100327,-0.110512,-0.019455,0.0191498,0.113869
14,4,10.0097,0.000610352,0.00198364,-2.42592,0.0562914,-0.0738423,0.0535176,0.0718859,-0.0922309,0.146234,-0.124241,-0.0810445,0.000267029,0.0102997,0.0180435,0.0156021,0.0986481,0.00919342,0.0495911,0.0204849,-9.97986,0.0918198,-0.0397491,0.105782,0.0285721,-0.125809,-0.0217438,0.0185394,0.139351
14,5,10.0097,0.0012207,0.00228882,-2.42562,0.0562914,-0.0756734,0.0547383,0.0706652,-0.0916206,0.14776,-0.12363,-0.0807394,-0.00190735,0.0124741,0.0174332,0.0122452,0.104523,0.0135422,0.0536728,0.0201416,-9.97986,0.0784683,-0.0268555,0.108719,0.0512695,-0.14164,-0.0223923,0.0243378,0.168571
14,6,10.0097,-0.0012207,0.00289917,-2.42562,0.0550706,-0.073232,0.0544332,0.0569322,-0.0937568,0.147149,-0.125156,-0.0819601,0.00087738,0.00991821,0.018959,0.0124359,0.1017,0.021286,0.0601196,0.0209808,-9.97986,0.0484467,-0.0349808,0.124588,0.0854492,-0.14164,-0.0390625,0.0246429,0.174942
14,7,10.0097,0.000305176,0.00213623,-2.42531,0.0562914,-0.0741475,0.0550435,0.0520494,-0.0934516,0.146844,-0.12302,-0.0804342,0.0031662,0.0139618,0.0217819,0.0112152,0.12722,0.0215149,0.066452,0.0217056,-9.97986,0.0370789,-0.0328445,0.166054,0.123291,-0.126114,-0.0385666,0.0366974,0.184212
14,8,9.56319,0.000610352,0.00137329,-2.42653,0.0553758,-0.0726216,0.055959,0.0578478,-0.0934516,0.145013,-0.125461,-0.0822652,0.00461578,0.0150299,0.0214767,0.00659943,0.144043,0.0167847,0.0751495,0.0201416,-9.97986,0.0180435,-0.027504,0.204659,0.124245,-0.132751,-0.0369644,0.034523,0.19455
14,9,9.45851,-0.000305176,0.000152588,-2.42501,0.055681,-0.0744527,0.0535176,0.0657823,-0.0928413,0.149591,-0.124851,-0.0825704,0.00232697,0.014267,0.0268555,0.0164795,0.146599,0.0267029,0.07164,0.0150299,-9.97986,0.015831,-0.0248718,0.189171,0.139961,-0.137978,-0.0312424,0.0343704,0.217133
15,0,9.7524,0.0012207,0.00198364,-2.42684,0.0553758,-0.0753682,0.0535176,0.0737169,-0.0925361,0.147149,-0.126682,-0.0828756,0.00469208,0.0164413,0.02491,0.0157928,0.1754,0.0281143,0.0722122,0.0156403,-9.97986,0.0100327,-0.0328445,0.153427,0.168419,-0.134392,-0.0306702,0.0263214,0.242004
15,1,10.0097,0.000915527,0.00442505,-2.42714,0.0544603,-0.0756734,0.0529073,0.094774,-0.0894843,0.145624,-0.124851,-0.0828756,0.00259399,0.021019,0.0273132,0.0157547,0.158768,0.0405884,0.0723267,0.0159454,-9.97986,0.00499725,-0.0263214,0.128403,0.205421,-0.136757,-0.0313568,0.0247192,0.254326
15,2,10.0097,-0.00152588,0.0038147,-2.42867,0.0541551,-0.0756734,0.0516866,0.080736,-0.0943672,0.143792,-0.126682,-0.0859274,0.00106812,0.021286,0.0257111,0.0167084,0.113144,0.0401688,0.062561,0.0191498,-9.97986,0.00164032,-0.00999451,0.109291,0.237885,-0.137863,-0.0295258,0.0140381,0.260048
15,3,10.0097,0.0012207,0.00366211,-2.42837,0.0550706,-0.0756734,0.050771,0.0728014,-0.0949775,0.144098,-0.126377,-0.0850118,-0.00213623,0.0268555,0.0301361,0.0167847,0.0980759,0.0524902,0.0598526,0.0236893,-9.97986,-0.000610352,-0.0141144,0.0897217,0.269623,-0.134315,-0.0263977,0.00770569,0.274963
15,4,10.0097,-0.000305176,0.0012207,-2.42837,0.0541551,-0.0756734,0.0519917,0.0691393,-0.0952827,0.143487,-0.125766,-0.0868429,-0.00423431,0.0222397,0.0220108,0.0114822,0.0388336,0.0678635,0.0553131,0.020752,-9.97986,-0.0094223,-0.0125504,0.0473785,0.272026,-0.149155,-0.0328445,-0.00423431,0.29892
15,5,10.0097,-0.000305176,-0.000762939,-2.4302,0.0541551,-0.0765889,0.0516866,0.0691393,-0.095893,0.142572,-0.127292,-0.0874532,-0.00328064,0.0249481,0.0286484,0.0157928,0.00873566,0.0831223,0.0688553,0.0198364,-9.97986,-0.0062561,-0.0170898,0.0477982,0.264473,-0.162125,-0.0387573,-0.0104523,0.283203
15,6,10.0097,0.00183105,0.000305176,-2.42898,0.0538499,-0.0765889,0.0532125,0.0694445,-0.0946723,0.141961,-0.126987,-0.0865377,0.0025177,0.0239182,0.0274277,0.0144577,0.0258255,0.106239,0.0829697,0.0182343,-9.97986,-0.00762939,-0.0105286,0.0523376,0.27565,-0.151787,-0.0443268,-0.0107193,0.204773
15,7,10.0097,0.0012207,0.0012207,-2.42837,0.0541551,-0.0753682,0.0526021,0.0700548,-0.094062,0.143792,-0.127292,-0.0859274,0.00297546,0.0259018,0.0247192,0.0160599,0.0460434,0.137138,0.0993347,0.0113678,-9.97986,-0.0130081,0.00915527,0.0580978,0.293312,-0.153809,-0.0455093,-0.00202179,0.177269
15,8,10.0097,0,0.000915527,-2.42776,0.0544603,-0.075063,0.0535176,0.0691393,-0.0922309,0.146234,-0.125766,-0.0847066,0.000762939,0.0240326,0.0218964,0.0137329,0.0796509,0.151749,0.104332,0.00843048,-9.97986,-0.00896454,0.0188446,0.0701904,0.296249,-0.155144,-0.0517273,-0.00148773,0.240974
15,9,10.0097,0.000610352,0.000457764,-2.42714,0.0550706,-0.0738423,0.0535176,0.0697496,-0.0931465,0.146234,-0.127292,-0.0844015,3.8147e-005,0.0213623,0.0273895,0.0138092,0.114365,0.142479,0.101547,0.0110245,-9.97986,-0.00724792,0.0158691,0.0678635,0.293617,-0.173111,-0.0466919,-0.0136948,0.307884
16,0,10.0097,0.00183105,-0.000305176,-2.42684,0.0559862,-0.0744527,0.0535176,0.0715807,-0.0943672,0.144403,-0.125156,-0.0840963,0.00278473,0.0221252,0.0255585,0.0151443,0.15892,0.133438,0.104713,0.00976563,-9.97986,-0.0108337,0.0278091,0.0520325,0.288315,-0.190048,-0.043335,-0.0259781,0.312386
16,1,10.0097,0.000915527,-0.000610352,-2.42653,0.0562914,-0.0741475,0.0522969,0.0697496,-0.0928413,0.144708,-0.123935,-0.0834859,-0.00347137,0.0233841,0.0258636,0.0136185,0.196457,0.149269,0.102005,0.0160599,-9.97986,-0.00793457,0.032692,0.00907898,0.276527,-0.196533,-0.0432587,-0.0372314,0.238495
16,2,10.0097,-0.00152588,-0.0012207,-2.42562,0.0562914,-0.0738423,0.0538228,0.0706652,-0.0919257,0.144708,-0.124851,-0.0816549,0.00236511,0.0220871,0.0215912,0.0134277,0.229149,0.163231,0.0986481,0.0228119,-9.97986,-0.0128937,0.0268555,-0.0475311,0.266151,-0.197105,-0.0352097,-0.0371552,0.195618
16,3,10.0097,0,-0.000915527,-2.42379,0.0575121,-0.0738423,0.0535176,0.0724962,-0.0913154,0.146234,-0.124851,-0.0807394,0.0038147,0.0172424,0.0178909,0.00930786,0.306625,0.175323,0.0983047,0.0201416,-9.97986,-0.00896454,0.0348282,-0.0870132,0.258865,-0.205307,-0.0325775,-0.0231171,0.183105
16,4,10.0097,-0.00152588,-0.00183105,-2.42409,0.0559862,-0.0726216,0.0532125,0.0697496,-0.0931465,0.145624,-0.124241,-0.0819601,0.00534058,0.0195694,0.0175858,0.0140762,0.330353,0.18856,0.0963974,0.0196457,-9.97986,-0.00598907,0.0430298,-0.114517,0.230827,-0.222969,-0.0352478,-0.0138474,0.156097
16,5,10.0097,0.0012207,-0.00183105,-2.42501,0.0562914,-0.0738423,0.0544332,0.0718859,-0.0931465,0.146844,-0.124546,-0.0810445,0.00160217,0.0183868,0.0154877,0.0101089,0.317612,0.201302,0.107613,0.0254059,-9.97986,-0.0101089,0.037384,-0.0998688,0.207024,-0.236931,-0.0402832,-0.00621796,0.188789
16,6,10.0097,0.000305176,-0.00152588,-2.42531,0.0565965,-0.0738423,0.0532125,0.0596788,-0.0931465,0.146844,-0.125461,-0.0822652,0.00297546,0.0162888,0.0268936,0.0122452,0.2668,0.205994,0.110741,0.0348663,-9.97986,-0.00915527,0.0411224,-0.104866,0.182495,-0.228729,-0.0484467,0.0292969,0.200005
16,7,10.0097,-0.0012207,-0.00411987,-2.42531,0.0562914,-0.0744527,0.0535176,0.0493029,-0.0931465,0.14776,-0.125461,-0.0831808,0.00278473,0.0211334,0.0256729,0.0138474,0.128136,0.19043,0.108566,0.0540161,-9.97986,-0.00789642,0.0374222,-0.112419,0.142937,-0.221672,-0.0475693,0.0819397,0.20504
16,8,9.70143,0.00152588,-0.00366211,-2.42684,0.0575121,-0.075063,0.0532125,0.0602892,-0.0931465,0.145318,-0.125156,-0.0834859,0.00106812,0.0227356,0.0245285,0.0117874,-0.0185013,0.189171,0.108986,0.0622177,-9.97986,-0.0094986,0.0358582,-0.120049,0.114479,-0.225792,-0.0462341,0.0978851,0.213127
16,9,9.61293,0.0012207,-0.00213623,-2.42562,0.0562914,-0.0741475,0.0535176,0.0666979,-0.0928413,0.145013,-0.126377,-0.0847066,0.00347137,0.0250244,0.0291443,0.00995636,-0.164566,0.190735,0.104752,0.0516129,-9.97986,-0.0165176,0.0410461,-0.135536,0.0832367,-0.223351,-0.0325775,0.0762177,0.152473
17,0,9.90407,0.000610352,-0.00152588,-2.42684,0.0553758,-0.075063,0.0553487,0.0734117,-0.0928413,0.144403,-0.125461,-0.0850118,-3.8147e-005,0.0218964,0.0269699,0.00984192,-0.329285,0.178947,0.112762,0.052948,-9.97986,-0.00423431,0.0430298,-0.109024,0.0641632,-0.211868,-0.0321579,0.0642395,0.085144
17,1,10.0097,0.00274658,-0.0012207,-2.42623,0.0547655,-0.075063,0.0574849,0.0972155,-0.088874,0.145318,-0.124851,-0.0834859,0.00411987,0.0189972,0.0272751,0.0112152,-0.45166,0.169449,0.105972,0.0607681,-9.97986,-0.00518799,0.0418091,-0.0904083,0.0368118,-0.183792,-0.019722,0.0716019,0.0948715
17,2,10.0097,0,-0.00167847,-2.42989,0.0538499,-0.0765889,0.0532125,0.0795153,-0.0943672,0.144708,-0.126072,-0.0874532,-0.00358582,0.0178528,0.0254822,0.00797272,-0.509186,0.201492,0.104294,0.0574875,-9.97986,-0.00804901,0.0512314,-0.0761032,0.00984192,-0.149918,-0.0107574,0.112305,0.120163
17,3,10.0097,-0.0012207,-0.00244141,-2.42989,0.0550706,-0.0756734,0.0526021,0.0737169,-0.0946723,0.142572,-0.126987,-0.0874532,-0.000495911,0.0133133,0.0178146,0.00968933,-0.524635,0.207596,0.0986481,0.0285339,-9.97986,-0.00808716,0.055275,-0.0683212,-0.0125122,-0.115852,-0.00831604,0.141907,0.104256
17,4,10.0097,0,-0.00213623,-2.42898,0.0532396,-0.0753682,0.0516866,0.0718859,-0.0931465,0.144403,-0.127292,-0.0868429,0.00514984,0.0169373,0.0166702,0.0111008,-0.493469,0.178566,0.101357,0.00988007,-9.97986,-0.00362396,0.0543594,-0.0965118,-0.0263977,-0.0973892,-0.0132751,0.149727,0.0551987
17,5,10.0097,0.000915527,-0.00274658,-2.42959,0.0532396,-0.0756734,0.0519917,0.0697496,-0.0961982,0.141351,-0.128513,-0.0871481,0.00656128,0.0191116,0.0239944,0.0075531,-0.369568,0.146866,0.103683,0.0431061,-9.97986,-0.00907898,0.0521851,-0.115433,-0.0462723,-0.0920486,-0.0123978,0.145264,0.0133896
17,6,10.0097,-0.000305176,-0.00366211,-2.42928,0.0547655,-0.0762837,0.0526021,0.0694445,-0.0955879,0.143487,-0.126377,-0.0880636,0.0109863,0.0265121,0.0256729,0.0130463,-0.221748,0.112152,0.0988007,0.0611877,-9.97986,-0.00720978,0.058136,-0.0927734,-0.0848007,-0.102501,-0.0104523,0.138817,-0.0259399
17,7,10.0097,0,-0.00350952,-2.42837,0.0535448,-0.0756734,0.0526021,0.0688341,-0.0931465,0.144098,-0.126377,-0.0871481,0.0113678,0.0281906,0.0228882,0.0123596,-0.0989151,0.0857925,0.0903702,0.050087,-9.97986,-0.00843048,0.0590134,-0.0870895,-0.119286,-0.103149,-0.00602722,0.139236,-0.0398254
17,8,10.0097,0.000305176,-0.00274658,-2.42714,0.0547655,-0.0747579,0.0526021,0.0697496,-0.0934516,0.145318,-0.126377,-0.0868429,0.00293732,0.0256729,0.0280762,0.0145721,0.0320053,0.0923538,0.10273,0.0174332,-9.97986,-0.00350952,0.0592041,-0.0995255,-0.136414,-0.0883865,-0.00404358,0.150185,-0.0185394
17,9,10.0097,0.000915527,-0.00228882,-2.42867,0.0544603,-0.0753682,0.0535176,0.0691393,-0.0928413,0.150506,-0.127292,-0.0850118,0.00900269,0.0215149,0.0289536,0.00988007,0.0975037,0.0965881,0.105057,-0.0168991,-9.97986,-0.00331879,0.0526047,-0.100098,-0.168037,-0.0674057,-0.00244141,0.149384,0.0189972
18,0,10.0097,0.0012207,-0.00259399,-2.42776,0.055681,-0.0744527,0.0532125,0.0688341,-0.094062,0.145013,-0.126072,-0.0856222,0.0140762,0.0214386,0.0346756,0.0114822,0.103493,0.100937,0.0999069,-0.0447464,-9.97986,-0.00617981,0.0458908,-0.116081,-0.203438,-0.0510406,-0.00274658,0.14473,0.0281143
18,1,10.0097,0.000305176,-0.00289917,-2.42653,0.0572069,-0.0744527,0.0547383,0.0706652,-0.0919257,0.147455,-0.124546,-0.0844015,0.00934601,0.0205231,0.0386047,0.0113678,0.0870132,0.0968552,0.0931931,-0.026741,-9.97986,-0.000610352,0.0480652,-0.139885,-0.237083,-0.0320053,-0.0075531,0.131264,-0.0227737
18,2,10.0097,0.0012207,-0.00259399,-2.4247,0.0553758,-0.0738423,0.0556539,0.0700548,-0.0919257,0.145929,-0.124546,-0.0819601,0.0131226,0.018959,0.0370026,0.0140762,0.036087,0.0835419,0.0790024,-0.0112152,-9.97986,-0.00492096,0.044632,-0.111389,-0.256119,-0.0143051,-0.00724792,0.127945,-0.0683212
18,3,10.0097,0.000610352,-0.00167847,-2.42592,0.0581224,-0.0744527,0.0547383,0.0718859,-0.0913154,0.145318,-0.123935,-0.0813497,0.0133133,0.021019,0.0440598,0.0136185,-0.0457382,0.0754929,0.0681305,0.0167084,-9.97986,-0.00541687,0.0507355,-0.0902176,-0.267906,-0.00541687,-0.0171661,0.122719,-0.0683594
18,4,10.0097,0.000305176,-0.000457764,-2.42501,0.0569017,-0.0738423,0.0544332,0.072191,-0.0913154,0.147455,-0.12363,-0.0837911,0.00751495,0.0194931,0.044632,0.00423431,-0.0989914,0.076561,0.0602722,0.0423813,-9.97986,-0.00320435,0.0485992,-0.105438,-0.26226,-0.00156403,-0.0181198,0.125923,-0.0326538
18,5,10.0097,0.00244141,0.000305176,-2.42348,0.0559862,-0.0729268,0.0544332,0.0712755,-0.090705,0.147149,-0.124851,-0.0807394,0.00331879,0.0166321,0.0422287,0.0115204,-0.0896072,0.0745773,0.0719452,0.0837326,-9.97986,-0.000724792,0.032196,-0.102501,-0.255699,-0.00801086,-0.0167084,0.12413,-0.0037384
18,6,10.0097,0,0.000610352,-2.42562,0.0550706,-0.0747579,0.0544332,0.058153,-0.0943672,0.145318,-0.125766,-0.0816549,0.00556946,0.00816345,0.0349045,0.00686646,-0.0488281,0.0649643,0.0793076,0.126381,-9.97986,-0.000267029,0.0125122,-0.0777817,-0.254059,-0.00511169,-0.0135422,0.096817,-0.00873566
18,7,10.0097,0.000915527,-0.000762939,-2.42409,0.0547655,-0.0744527,0.0547383,0.0517443,-0.0931465,0.144708,-0.125766,-0.0825704,0.00110626,0.00720978,0.0362396,0.00843048,-0.0131607,0.0740051,0.0748444,0.130615,-9.97986,0.00354767,0.0103378,-0.0395203,-0.241241,0.0182343,-0.0133896,0.098877,-0.0534058
18,8,9.51528,0.00183105,-0.000457764,-2.42501,0.055681,-0.0735371,0.0556539,0.0587633,-0.0913154,0.145929,-0.125766,-0.0816549,0.00614166,0.0225067,0.0403595,0.00301361,0.0148773,0.0682449,0.067482,0.112534,-9.97986,-0.00705719,0.072403,7.62939e-005,-0.234375,0.0418472,-0.0131989,0.119057,-0.0922775
18,9,9.43593,-0.000305176,0.000457764,-2.42714,0.055681,-0.0756734,0.0553487,0.0657823,-0.0922309,0.145318,-0.124546,-0.0822652,0.0130463,0.0371933,0.0460052,0.00293732,0.0471115,0.0614929,0.0764084,0.0811005,-9.97986,-0.00900269,0.1437,0.00183105,-0.223007,0.064621,-0.0107193,0.105858,-0.110855
19,0,9.76003,-0.000610352,0.000915527,-2.42623,0.0538499,-0.0756734,0.0550435,0.0734117,-0.0913154,0.143792,-0.125461,-0.0831808,0.0198746,0.0357056,0.0418854,-0.000839233,0.0556183,0.0542068,0.10807,0.0403595,-9.97986,-0.0123215,0.131683,-0.00789642,-0.212517,0.0727463,-0.0087738,0.0827408,-0.188103
19,1,10.0097,-0.00183105,0.00152588,-2.42867,0.0544603,-0.0768941,0.0544332,0.0953844,-0.0910102,0.143792,-0.124851,-0.0834859,0.0193024,0.0398254,0.0365448,0.00659943,0.0106049,0.0391006,0.113029,-0.0172424,-9.97986,-0.0101852,0.0457382,-0.0146103,-0.204468,0.0566483,-0.0155258,0.0406265,-0.237503
19,2,10.0097,-0.00244141,0.00152588,-2.42867,0.0541551,-0.0756734,0.0522969,0.0776842,-0.0965034,0.141961,-0.126377,-0.085317,0.018959,0.0454712,0.0286865,0.0140381,-0.0364304,0.0302887,0.0757599,-0.0637054,-9.97986,-0.00476837,-0.0313187,-0.0197983,-0.188599,0.0398636,-0.00896454,-0.000534058,-0.205688
19,3,10.0097,0.00152588,0.00183105,-2.42837,0.0535448,-0.0768941,0.0519917,0.0731066,-0.0952827,0.142267,-0.125766,-0.0865377,0.0178528,0.0321198,0.0231552,0.0143814,-0.0802612,0.0370026,0.0528336,-0.0678635,-9.97986,-0.00339508,-0.00782013,-0.0144196,-0.175247,0.0294495,-0.00705719,-0.025444,-0.160141
19,4,10.0097,0.000915527,0.00152588,-2.42806,0.0535448,-0.0756734,0.0532125,0.0706652,-0.0946723,0.145013,-0.127598,-0.0862325,0.0159836,0.0207901,0.0251007,0.0134277,-0.144463,0.0534821,0.0271988,-0.0585175,-9.97986,-0.00415802,0.030632,-0.00141144,-0.154419,0.0423431,-0.00385284,-0.0241089,-0.101891
19,5,10.0097,0.0012207,0.000915527,-2.42898,0.0535448,-0.0753682,0.0526021,0.0712755,-0.0965034,0.143182,-0.128208,-0.0859274,0.00320435,0.0173569,0.0326538,0.00926971,-0.172195,0.0701523,-0.00659943,-0.0226212,-9.97986,-0.00511169,0.00110626,-0.00354767,-0.138168,0.0445557,-0.00133514,-0.0452805,-0.0737381
19,6,10.0097,-0.000610352,0.00106812,-2.42928,0.0532396,-0.0765889,0.0513814,0.0688341,-0.0934516,0.145013,-0.127292,-0.0871481,-0.00759125,0.0173187,0.0334167,0.00827789,-0.194244,0.09552,-0.0450897,-0.0511169,-9.97986,-0.00507355,-0.00484467,-0.01091,-0.125008,0.0549316,0.000801086,-0.0596619,-0.0615692
19,7,10.0097,0.00183105,0.00106812,-2.42898,0.0538499,-0.0756734,0.0516866,0.0694445,-0.094062,0.145013,-0.126987,-0.085317,0.00423431,0.0132751,0.0398636,0.0117874,-0.175934,0.106163,-0.0532532,-0.0777054,-9.97986,0.000228882,0.0112152,-0.0348663,-0.111656,0.0623322,0.00450134,-0.0557709,-0.0582123
19,8,10.0097,0.00152588,0.00106812,-2.42684,0.0547655,-0.0759786,0.0519917,0.072191,-0.0946723,0.144098,-0.126072,-0.0856222,0.0156021,0.0135803,0.0430298,0.00896454,-0.149269,0.110626,-0.043602,-0.0479507,-9.97986,0.00751495,0.00270844,-0.0733948,-0.104103,0.0444031,0.00587463,-0.070343,-0.0909042
19,9,10.0097,0.00183105,0.000762939,-2.42898,0.0553758,-0.0759786,0.0529073,0.0697496,-0.0934516,0.144403,-0.126377,-0.0847066,0.0167084,0.0201035,0.0572968,0.0139236,-0.126686,0.122147,-0.0406647,-0.0637054,-9.97986,0.0116348,-0.00442505,-0.0873947,-0.101738,0.0417328,-0.00370026,-0.086937,-0.125046
20,0,10.0097,0.0012207,0.0012207,-2.42562,0.0559862,-0.0744527,0.0535176,0.0682238,-0.0922309,0.142877,-0.125461,-0.0844015,0.00865936,0.02285,0.0510406,0.00881195,-0.0596237,0.132523,-0.0630951,-0.0396347,-9.97986,0.0120544,-0.0094223,-0.0870132,-0.0924301,0.0516891,-0.00778198,-0.103607,-0.163078
20,1,10.0097,-0.0012207,0.00167847,-2.42501,0.0559862,-0.0735371,0.054128,0.0691393,-0.0919257,0.145318,-0.124851,-0.0822652,0.00324249,0.00286102,0.0452042,0.0069046,0.00392914,0.143433,-0.0976563,0.00499725,-9.97986,0.00888824,-0.0209808,-0.0815964,-0.0811386,0.0815964,-0.00465393,-0.107117,-0.191002
20,2,10.0097,-0.00244141,0.00228882,-2.42318,0.0565965,-0.0753682,0.0544332,0.0706652,-0.0913154,0.145318,-0.123935,-0.0813497,0.00289917,-0.0369263,0.0428009,0.00797272,0.0299072,0.146027,-0.122871,-0.0202179,-9.97986,0.00934601,-0.000724792,-0.0748444,-0.0561905,0.0976563,-0.00637054,-0.100594,-0.192223
20,3,10.0097,-0.000915527,0.00183105,-2.4244,0.0569017,-0.0726216,0.0553487,0.0718859,-0.0913154,0.146234,-0.12302,-0.0804342,0.00869751,-0.0322342,0.0525665,0.00839233,0.0480652,0.150719,-0.125275,-0.0568771,-9.97986,0.018959,-0.0115204,-0.0613022,-0.0392532,0.0938034,0.000991821,-0.087738,-0.173225
20,4,10.0097,-0.000610352,0.00106812,-2.42531,0.0565965,-0.0738423,0.0538228,0.0709703,-0.090705,0.147455,-0.124546,-0.0813497,0.0144958,-0.00621796,0.0494766,0.00743866,0.0815201,0.151329,-0.108681,-0.102463,-9.97986,0.0148392,-0.00980377,-0.0696945,-0.0349045,0.0951385,-0.00305176,-0.0677109,-0.143204
20,5,10.0097,0.0012207,0.00198364,-2.42653,0.0565965,-0.0735371,0.0547383,0.0718859,-0.0913154,0.147149,-0.123325,-0.080129,0.0227356,0.0160217,0.0442505,0.0118256,0.113564,0.150795,-0.0813675,-0.102692,-9.97986,0.00785828,0.0129318,-0.0784683,-0.0163651,0.111084,0.0018692,-0.051651,-0.122871
20,6,10.0097,-0.00152588,0.00152588,-2.42653,0.0550706,-0.0735371,0.0538228,0.0566271,-0.094062,0.146234,-0.126072,-0.0810445,0.0204468,0.0301743,0.0457764,0.014534,0.110855,0.152588,-0.0617981,-0.0813293,-9.97986,0.0115585,-0.000495911,-0.0791168,0.000839233,0.122681,0.00499725,-0.0492477,-0.124435
20,7,10.0097,0,0.000762939,-2.42623,0.0565965,-0.0744527,0.0556539,0.0505236,-0.0922309,0.148065,-0.125461,-0.0804342,0.0211334,0.0490952,0.0547409,0.00537872,0.0828171,0.152473,-0.0655746,-0.0669861,-9.97986,0.0123215,0.0182343,-0.0737381,0.00934601,0.137482,0.00392914,-0.0660706,-0.13176
20,8,9.35079,0.00244141,0.000915527,-2.42501,0.0562914,-0.073232,0.054128,0.0584581,-0.0931465,0.146234,-0.125766,-0.0822652,0.020752,0.0450134,0.0497818,-0.00385284,0.0273514,0.164604,-0.0774002,-0.0340271,-9.97986,0.0193787,0.0252533,-0.0695038,0.014534,0.159912,0.00198364,-0.0844955,-0.141678
20,9,9.28578,-0.0012207,0.000457764,-2.42592,0.055681,-0.0741475,0.0550435,0.0663927,-0.0903999,0.146234,-0.128208,-0.0834859,0.016861,0.0154114,0.0345612,-0.0139999,-0.0141907,0.180397,-0.0833893,-0.0260925,-9.97986,0.0220871,0.0201797,-0.0584412,0.0235367,0.181007,0.00404358,-0.0839996,-0.151749
21,0,9.58577,-0.000610352,0.000610352,-2.42684,0.055681,-0.075063,0.0535176,0.0728014,-0.0916206,0.143792,-0.126377,-0.0847066,0.0177002,-0.00789642,0.0102615,-0.0329971,-0.0530243,0.177193,-0.0826263,-0.0205612,-9.97986,0.0240707,3.8147e-005,-0.0492096,0.0354767,0.200081,0.00640869,-0.0867462,-0.161095
21,1,10.0097,0,0.00198364,-2.42623,0.055681,-0.0753682,0.0550435,0.0984362,-0.0897895,0.144403,-0.123935,-0.0834859,0.0143814,-0.028801,-0.0056839,-0.042572,-0.0800705,0.165024,-0.0707245,-0.00835419,-9.97986,0.0263214,0.0222015,-0.0317001,0.045929,0.219116,0.00579834,-0.0852203,-0.174065
21,2,10.0097,0.000915527,0.00259399,-2.42928,0.0541551,-0.0756734,0.0532125,0.0822618,-0.0946723,0.144098,-0.126072,-0.0850118,0.0179291,-0.0326157,-0.0138474,-0.0212097,-0.0849533,0.154457,-0.0686264,0.00640869,-9.97986,0.0260544,0.138321,-0.0190735,0.067482,0.228691,0.00892639,-0.0630569,-0.181351
21,3,10.0097,-0.000610352,0.00198364,-2.42867,0.0529344,-0.0762837,0.0516866,0.0731066,-0.0937568,0.145624,-0.127292,-0.0865377,0.0173187,0.0261307,0.00255585,-0.0201035,-0.0737762,0.137939,-0.0681686,0.00209808,-9.97986,0.0263214,0.138474,-0.0189972,0.0946808,0.23777,0.0127411,-0.0447464,-0.1754
21,4,10.0097,0.000305176,0.00198364,-2.42776,0.0550706,-0.0756734,0.050771,0.0709703,-0.0946723,0.147149,-0.126987,-0.0871481,0.0175858,0.0980377,0.0341797,-0.00640869,-0.0547791,0.118904,-0.0800705,-0.00766754,-9.97986,0.0231171,0.023613,-0.0451279,0.108795,0.251694,0.0111008,-0.0448608,-0.169868
21,5,10.0097,-0.000610352,0.000762939,-2.42867,0.0535448,-0.0756734,0.0519917,0.0700548,-0.0946723,0.142572,-0.127292,-0.0862325,0.0177383,0.104408,0.0403214,0.0233841,-0.014534,0.0936127,-0.100517,-0.00888824,-9.97986,0.0252914,-0.123215,-0.0595474,0.120735,0.264893,0.012207,-0.0570297,-0.161819
21,6,10.0097,-0.000915527,0.000762939,-2.42989,0.0538499,-0.0744527,0.0519917,0.0697496,-0.0937568,0.143487,-0.126987,-0.0868429,0.0133514,0.0576401,0.0252151,0.0267029,0.022583,0.0822067,-0.107574,-0.00232697,-9.97986,0.0255585,-0.142097,-0.0549316,0.135956,0.269699,0.0133514,-0.0526428,-0.149002
21,7,10.0097,-0.000915527,0.000305176,-2.42928,0.0547655,-0.0762837,0.0516866,0.0691393,-0.0946723,0.142572,-0.126072,-0.0862325,0.0115204,0.0265503,-0.0204086,0.0233841,0.0421906,0.081749,-0.115356,0.0094223,-9.97986,0.0402451,-0.071106,-0.0377274,0.14946,0.270386,0.013237,-0.0411224,-0.133324
21,8,10.0097,0.000915527,0.00137329,-2.42867,0.0541551,-0.0753682,0.0529073,0.07036,-0.0922309,0.143792,-0.126377,-0.0844015,0.0150299,-0.00621796,-0.0542831,0.0336075,0.0563049,0.0777435,-0.0991058,0.0205612,-9.97986,0.0457764,-0.0730515,-0.0233078,0.159569,0.277176,0.0137329,-0.0325012,-0.124435
21,9,10.0097,-0.000305176,0.000915527,-2.42714,0.055681,-0.0753682,0.0538228,0.0700548,-0.0928413,0.144708,-0.126072,-0.0850118,0.00923157,-0.0257874,-0.0678253,0.0150299,0.0636292,0.0735474,-0.0827789,0.0263596,-9.97986,0.0496292,-0.0416565,-0.0118256,0.16304,0.280647,0.011673,-0.0225067,-0.115013
22,0,10.0097,0.000305176,0.000152588,-2.42592,0.0553758,-0.0744527,0.0568746,0.0706652,-0.0931465,0.145318,-0.126682,-0.0844015,0.017662,-0.0164795,-0.0626755,0.0163651,0.0638962,0.0648117,-0.067749,0.0289154,-9.97986,0.0515747,-0.013504,-0.0136185,0.164185,0.282784,0.0106812,-0.0232315,-0.103455
22,1,10.0097,0.000610352,0.000762939,-2.42592,0.0559862,-0.0747579,0.0538228,0.0734117,-0.0925361,0.146234,-0.125461,-0.0822652,0.0198746,0.00366211,-0.0518799,0.0102997,0.0521088,0.0583267,-0.0632858,0.0256729,-9.97986,0.0445938,-0.0363541,-0.0359726,0.162849,0.276375,0.0144577,-0.0193787,-0.0918961
22,2,10.0097,-0.000305176,0.000305176,-2.42501,0.0565965,-0.0756734,0.054128,0.072191,-0.0919257,0.14837,-0.124546,-0.080129,0.0202942,0.0161362,-0.0541687,0.00492096,0.0510025,0.0424194,-0.0704956,0.0257492,-9.97986,0.0372314,-0.0170898,-0.050621,0.163002,0.270538,0.0149155,-0.00663757,-0.0804901
22,3,10.0097,-0.000305176,0.000610352,-2.4247,0.0559862,-0.0735371,0.0553487,0.0709703,-0.0919257,0.14776,-0.124851,-0.0807394,0.0128937,0.00621796,-0.0582886,0.000686646,0.0521851,0.0266647,-0.0686264,0.0336456,-9.97986,0.0399017,0.0128937,-0.0435257,0.173759,0.263443,0.00701904,-0.00358582,-0.0671387
22,4,10.0097,0.000305176,0.00152588,-2.42562,0.0569017,-0.0744527,0.0553487,0.0709703,-0.0919257,0.146234,-0.125156,-0.0813497,0.0170898,-0.00679016,-0.0559235,-0.00648499,0.0522232,0.00602722,-0.0733185,0.0435638,-9.97986,0.0315475,0.0434875,-0.0228882,0.190277,0.256271,0.0124359,0.001297,-0.0642776
22,5,10.0097,0.00244141,0.00152588,-2.42379,0.0572069,-0.0747579,0.0553487,0.0700548,-0.0919257,0.146844,-0.124851,-0.0822652,0.0143814,-0.00862122,-0.0493622,-0.0094223,0.0508499,-0.00621796,-0.0774384,0.0659561,-9.97986,0.032196,0.0317001,0.0044632,0.197678,0.243645,0.00339508,0.000953674,-0.0544357
22,6,10.0097,-0.000610352,0.000457764,-2.42714,0.0559862,-0.073232,0.0544332,0.0563219,-0.094062,0.146844,-0.125461,-0.0816549,0.0122452,-0.0185013,-0.044632,-0.0152206,0.0462341,-0.0237274,-0.0808334,0.0799942,-9.97986,0.031395,-0.0115585,0.0154495,0.21019,0.225449,0.00724792,0.00202179,-0.0491333
22,7,10.0097,0.000915527,0.000915527,-2.42623,0.0569017,-0.0747579,0.0547383,0.0520494,-0.094062,0.14776,-0.127903,-0.0816549,0.0131607,-0.0415802,-0.0370407,-0.0226974,0.0315475,-0.0468063,-0.0652313,0.0682068,-9.97986,0.0205994,-0.0275803,0.0197601,0.234718,0.21122,0.00579834,-0.00133514,-0.0444412
22,8,9.45424,0,0.00106812,-2.42562,0.0562914,-0.075063,0.0544332,0.0587633,-0.0931465,0.144403,-0.126072,-0.0828756,0.0151443,-0.0675583,-0.0297165,-0.0397873,0.0236893,-0.0617981,-0.0502396,0.0350189,-9.97986,0.0152206,-0.0308228,0.0223541,0.245819,0.194817,-0.000228882,0.000572205,-0.0416183
22,9,9.37062,-0.000305176,0.000915527,-2.42592,0.0550706,-0.0747579,0.054128,0.0648668,-0.0922309,0.14776,-0.125766,-0.0828756,0.0149155,-0.0486755,-0.0121307,-0.0546646,0.0266266,-0.073967,-0.0372314,0.00957489,-9.97986,0.0153351,-0.0297546,0.0151062,0.243988,0.183067,0.00205994,0.00335693,-0.0300598
23,0,9.68373,-0.000305176,0.000915527,-2.42714,0.0559862,-0.0735371,0.0535176,0.0731066,-0.0925361,0.145624,-0.124546,-0.0828756,0.0162125,-0.0340652,-0.00125885,-0.0548553,0.0315094,-0.0867462,-0.0320435,0.00106812,-9.97986,0.0107956,-0.0291061,0.00778198,0.253143,0.167236,-0.00450134,-0.00087738,-0.0134659
23,1,10.0097,0.000305176,0.00213623,-2.42623,0.0544603,-0.0747579,0.0565694,0.0966051,-0.0900947,0.144403,-0.124851,-0.0834859,0.0145721,-0.0146103,0.0140762,-0.0477219,0.0330734,-0.0966263,-0.0347519,0.00423431,-9.97986,0.0170898,-0.0231934,0.00816345,0.270805,0.150452,0.000152588,0.00400543,0.00926971
23,2,10.0097,-0.000305176,0.00167847,-2.42989,0.0547655,-0.0759786,0.0519917,0.0810411,-0.0946723,0.143792,-0.125766,-0.0865377,0.0106812,0.00450134,0.0130081,-0.0298309,0.0333405,-0.105782,-0.0352097,0.0114822,-9.97986,0.0231552,-0.0242996,0.0094986,0.27729,0.136414,-0.00190735,0.00587463,0.0321579
23,3,10.0097,-0.000915527,0.00152588,-2.42989,0.0538499,-0.075063,0.0516866,0.0715807,-0.0952827,0.142572,-0.126072,-0.0862325,0.0131226,0.00461578,-0.000305176,-0.0208282,0.0302124,-0.123596,-0.0426865,0.0204849,-9.97986,0.0271225,-0.0309753,0.00465393,0.285759,0.116501,-0.0038147,0.0062561,0.0355148
23,4,10.0097,0,0.000762939,-2.42867,0.0541551,-0.0762837,0.0516866,0.07036,-0.0946723,0.144403,-0.126987,-0.0856222,0.0128937,-0.00114441,-0.00888824,-0.0133896,0.0305939,-0.13298,-0.0463104,0.0207138,-9.97986,0.0251007,-0.0351715,0.00457764,0.288048,0.0959778,-0.0044632,0.0062561,0.0322723
23,5,10.0097,0.000305176,0,-2.42898,0.0547655,-0.075063,0.0519917,0.0709703,-0.0965034,0.142267,-0.127903,-0.0859274,0.00747681,-0.01091,-0.0182724,-0.00518799,0.0286865,-0.13958,-0.040741,0.0224686,-9.97986,0.0288391,-0.0388336,0.0101852,0.300369,0.0727081,-0.00156403,0.0100708,0.035553
23,6,10.0097,-0.000915527,0.000762939,-2.42867,0.0538499,-0.075063,0.0532125,0.0691393,-0.0943672,0.144098,-0.128208,-0.0868429,0.0152969,0.00148773,-0.0113678,0.00694275,0.0202942,-0.14473,-0.0373077,0.0197601,-9.97986,0.0297546,-0.0429535,0.0217056,0.303688,0.0530243,-0.00328064,0.0106049,0.0447464
23,7,10.0097,0.000915527,-0.00152588,-2.42867,0.0535448,-0.0762837,0.0526021,0.0700548,-0.0955879,0.143487,-0.126987,-0.0868429,0.0160217,0.0157547,0.00835419,0.0255203,0.0110626,-0.145416,-0.0327682,0.0219345,-9.97986,0.0299072,-0.0402832,0.032692,0.2808,0.0333023,-0.00606537,0.0056839,0.046196
23,8,10.0097,0.00335693,-0.00198364,-2.42776,0.0547655,-0.075063,0.0538228,0.0694445,-0.0943672,0.144403,-0.126987,-0.0847066,0.0138092,0.0217438,0.02388,0.0491714,0.0117874,-0.147781,-0.0265503,0.0252914,-9.97986,0.0258636,-0.031662,0.0534058,0.263405,0.0148392,-0.00789642,0.00164032,0.0516129
23,9,10.0097,0.000610352,-0.000915527,-2.42898,0.0550706,-0.0756734,0.0538228,0.0697496,-0.0931465,0.145013,-0.125156,-0.085317,0.0142288,0.0274658,0.0456619,0.0321579,0.0189972,-0.141983,-0.0284576,0.0372696,-9.97986,0.0323105,-0.0284195,0.0731277,0.257874,0.00114441,-0.00598907,0.000686646,0.0577927
24,0,10.0097,0.00183105,-0.00106812,-2.42684,0.055681,-0.075063,0.054128,0.0688341,-0.0934516,0.145318,-0.125156,-0.0831808,0.0175476,0.0227737,0.0618362,-0.0177383,0.0247955,-0.133171,-0.0196838,0.0501251,-9.97986,0.0209045,-0.0201416,0.0856018,0.242081,-0.0164413,-0.00904083,-7.62939e-005,0.0587463
24,1,10.0097,0.000305176,0.000762939,-2.42562,0.0569017,-0.0756734,0.0535176,0.0712755,-0.0919257,0.145929,-0.125156,-0.0813497,0.0169373,-0.00240326,0.0689697,-0.0728989,0.0329971,-0.119019,-0.0140381,0.0574493,-9.97986,0.0178909,-0.014267,0.0889969,0.259743,-0.0278473,-0.00663757,0.00759125,0.0603867
24,2,10.0097,0.0012207,0.00137329,-2.42501,0.0559862,-0.0744527,0.0547383,0.0697496,-0.0919257,0.147455,-0.124546,-0.0813497,0.0201797,-0.019989,0.0716019,-0.0979996,0.0494385,-0.108871,-0.0103378,0.0521851,-9.97986,0.0179672,-0.00610352,0.0926971,0.272331,-0.0325775,-0.00301361,0.00835419,0.0700378
24,3,10.0097,0,0.000610352,-2.42562,0.0569017,-0.0744527,0.0550435,0.0700548,-0.0913154,0.147149,-0.12363,-0.0810445,0.0235367,-0.00862122,0.0791931,-0.0257111,0.0589752,-0.100136,-0.0115204,0.0489807,-9.97986,0.0196075,-0.0110245,0.100441,0.265541,-0.0468445,-0.0056076,-0.00137329,0.0735855
24,4,10.0097,0.000610352,-0.000305176,-2.42501,0.0572069,-0.0729268,0.0544332,0.0712755,-0.090705,0.146844,-0.124241,-0.0813497,0.0185776,0.0151443,0.0979614,0.0539017,0.0740814,-0.0919342,-0.00930786,0.0481033,-9.97986,0.0223541,-0.00789642,0.102654,0.26062,-0.0568771,-0.00556946,-0.00370026,0.0708389
24,5,10.0097,0.000305176,-0.000305176,-2.42562,0.055681,-0.0735371,0.0562642,0.0706652,-0.0916206,0.147455,-0.123935,-0.0810445,0.0151443,0.0405121,0.107422,0.0771332,0.0796509,-0.0886154,-0.0124359,0.0426483,-9.97986,0.0188446,-0.0112534,0.117302,0.247231,-0.0632095,-0.00389099,0.00144958,0.0621414
24,6,10.0097,0.000610352,-0.0012207,-2.42592,0.0569017,-0.0747579,0.0547383,0.0560167,-0.0943672,0.145929,-0.126072,-0.0828756,0.0178909,0.0483322,0.120621,0.105858,0.0733566,-0.0881577,-0.0128174,0.0383377,-9.97986,0.0180435,-0.00675201,0.155602,0.222893,-0.056839,-0.00896454,0.0123978,0.0568771
24,7,10.0097,-0.00244141,-0.00274658,-2.42562,0.0550706,-0.0744527,0.0556539,0.0505236,-0.0931465,0.14776,-0.126072,-0.0825704,0.0069046,0.0519943,0.114632,0.129013,0.0725174,-0.0938797,-0.0117493,0.0511169,-9.97986,0.0189972,-0.00900269,0.199966,0.200462,-0.0501633,-0.00164032,0.0111771,0.0626373
24,8,9.63185,0.000915527,-0.00213623,-2.42592,0.0547655,-0.0747579,0.0550435,0.0593737,-0.0925361,0.146539,-0.125461,-0.0825704,0.0114441,0.0437927,0.105362,0.0999451,0.0678253,-0.103951,-0.0157547,0.0496292,-9.97986,0.025444,-0.013237,0.214424,0.184326,-0.0556183,-0.00679016,0.00720978,0.0680542
24,9,9.57417,0.0012207,-0.00167847,-2.42714,0.0550706,-0.0747579,0.054128,0.065172,-0.0916206,0.145318,-0.125766,-0.0840963,0.0115204,0.0547028,0.0971222,0.0302505,0.0621796,-0.101204,-0.0088501,0.0434494,-9.97986,0.0265503,-0.0197601,0.203056,0.162201,-0.0603485,-0.00720978,0.00770569,0.0732803
25,0,9.92177,-0.00213623,-0.00106812,-2.42653,0.0550706,-0.0723164,0.054128,0.0746324,-0.0922309,0.146844,-0.125461,-0.0834859,0.0180435,0.0926971,0.0622177,-0.00347137,0.0713348,-0.104561,-0.00038147,0.033226,-9.97986,0.0276947,-0.0223923,0.182076,0.1614,-0.0708771,-0.00476837,-0.00370026,0.0788879
25,1,10.0097,-0.00152588,0,-2.42653,0.0550706,-0.0756734,0.0550435,0.0987413,-0.0913154,0.144708,-0.124241,-0.0837911,0.0175476,0.104332,0.028038,0.00358582,0.0815964,-0.106354,-0.0037384,0.0282288,-9.97986,0.0274658,-0.0185776,0.160675,0.147018,-0.0782394,-0.0063324,-0.0183868,0.0787735
25,2,10.0097,-0.000610352,-0.00106812,-2.42989,0.0541551,-0.0759786,0.0510762,0.0798204,-0.0943672,0.142877,-0.126987,-0.0865377,0.0160599,0.105095,-0.00324249,-0.0335693,0.0858688,-0.114441,-0.0146484,0.0151443,-9.97986,0.0193024,-0.0198746,0.1437,0.123024,-0.0783539,-0.0037384,-0.0244141,0.0812149
25,3,10.0097,-0.00213623,-0.00198364,-2.42928,0.0532396,-0.0762837,0.0522969,0.0731066,-0.0949775,0.141961,-0.127292,-0.0877584,0.0137711,0.0858307,-0.0247955,-0.0597382,0.0923157,-0.122337,-0.0139999,0.00534058,-9.97986,0.0212479,-0.0165558,0.142899,0.101891,-0.0790405,-0.00415802,-0.0317383,0.0796509
25,4,10.0097,-0.000305176,-0.00366211,-2.42867,0.0535448,-0.0759786,0.0516866,0.0700548,-0.0943672,0.142877,-0.127292,-0.0868429,0.0135803,0.0593567,-0.03685,-0.0239563,0.0914383,-0.125999,-0.0226212,-0.00293732,-9.97986,0.0131226,-0.0161743,0.141411,0.063858,-0.0835037,-0.00305176,-0.0339508,0.0789261
25,5,10.0097,-0.0012207,-0.0050354,-2.42959,0.0535448,-0.0768941,0.0526021,0.0694445,-0.0952827,0.142572,-0.126377,-0.0880636,0.0170135,0.0505829,-0.0408173,0.0354004,0.08255,-0.131989,-0.0334549,0.00190735,-9.97986,0.0144577,-0.0201035,0.132027,0.00946045,-0.0822067,0.00102997,-0.0303268,0.077095
25,6,10.0097,0.000915527,-0.0050354,-2.42867,0.0535448,-0.0771993,0.0519917,0.0688341,-0.0937568,0.142572,-0.127903,-0.0883688,0.00980377,0.0421524,-0.0484085,0.0941086,0.0884247,-0.134163,-0.0439453,0.00236511,-9.97986,0.0153732,-0.0226212,0.125504,-0.0495911,-0.0752258,-3.8147e-005,-0.0217438,0.074501
25,7,10.0097,-0.0012207,-0.00549316,-2.42776,0.0535448,-0.0762837,0.0519917,0.0694445,-0.0946723,0.143487,-0.127292,-0.0868429,0.0143433,0.00720978,-0.0505447,0.112228,0.0878906,-0.136833,-0.0502777,0.0157166,-9.97986,0.0209808,-0.0196075,0.115776,-0.099144,-0.0656891,0.00354767,-0.0188446,0.0757217
25,8,10.0097,0.00152588,-0.00473022,-2.42714,0.055681,-0.0759786,0.0532125,0.07036,-0.0946723,0.144403,-0.126682,-0.0862325,0.0106812,-0.0151062,-0.0521469,0.0953293,0.0871658,-0.141602,-0.0686646,0.0144577,-9.97986,0.018959,-0.02285,0.100708,-0.135422,-0.0623322,-0.00209808,-0.0242996,0.075798
25,9,10.0097,-0.000305176,-0.00366211,-2.42684,0.0550706,-0.0753682,0.0529073,0.0691393,-0.0937568,0.145318,-0.126377,-0.085317,0.015564,-0.0131989,-0.0473022,0.115738,0.0954437,-0.148582,-0.0804901,0.0119019,-9.97986,0.0237656,-0.0241089,0.0842285,-0.185547,-0.0546265,0.000762939,-0.031395,0.0723648
26,0,10.0097,0,-0.00442505,-2.42653,0.0550706,-0.0747579,0.0532125,0.07036,-0.0931465,0.145013,-0.126072,-0.0859274,0.0101089,0.000190735,-0.042038,0.121422,0.105057,-0.155983,-0.0767517,0.02388,-9.97986,0.0242996,-0.0229263,0.0818253,-0.238724,-0.059433,-0.00278473,-0.0289536,0.0710297
26,1,10.0097,0.000915527,-0.00564575,-2.4247,0.0553758,-0.0744527,0.0550435,0.0715807,-0.0925361,0.146234,-0.125461,-0.0844015,0.0128174,-0.00576019,-0.0286865,0.091629,0.110512,-0.166092,-0.0752258,0.0391769,-9.97986,0.0218964,-0.0205612,0.0828552,-0.297585,-0.0626755,-0.00347137,-0.0217056,0.0709152
26,2,10.0097,-0.000915527,-0.0062561,-2.42562,0.0553758,-0.0741475,0.054128,0.0715807,-0.0910102,0.147455,-0.124546,-0.0834859,0.00869751,-0.00576019,-0.0165558,0.0676727,0.122375,-0.182838,-0.0730896,0.0469971,-9.97986,0.0205231,-0.020256,0.0847626,-0.369797,-0.0590897,-0.00572205,-0.0236511,0.0702286
26,3,10.0097,0.00183105,-0.00518799,-2.42562,0.0572069,-0.073232,0.0553487,0.0709703,-0.0922309,0.147149,-0.123935,-0.0822652,0.0119019,0.00354767,-0.014534,0.0505829,0.132408,-0.182152,-0.0577545,0.0529099,-9.97986,0.0235367,-0.026474,0.0837326,-0.41954,-0.0508118,-0.000228882,-0.0272751,0.0673294
26,4,10.0097,-0.000305176,-0.00411987,-2.4247,0.0565965,-0.0738423,0.0547383,0.0712755,-0.0913154,0.146539,-0.124546,-0.0837911,0.0123596,0.0196075,-0.0177002,0.0408173,0.129662,-0.183792,-0.0379181,0.0533295,-9.97986,0.0167465,-0.0266266,0.087204,-0.453148,-0.044136,-0.00434875,-0.027504,0.0689316
26,5,10.0097,0.000915527,-0.00396729,-2.42531,0.0550706,-0.0741475,0.0544332,0.0712755,-0.090705,0.147149,-0.124851,-0.0828756,0.0106812,0.0300598,-0.0180817,0.0272751,0.134773,-0.192108,-0.0416565,0.034523,-9.97986,0.0151062,-0.0199509,0.0787354,-0.500183,-0.0373459,0.000457764,-0.0222397,0.0680161
26,6,10.0097,0,-0.00518799,-2.42776,0.0569017,-0.0738423,0.0544332,0.0593737,-0.0943672,0.146539,-0.125461,-0.0837911,0.0120163,0.0330353,-0.0185776,0.0346375,0.138359,-0.203476,-0.0495529,0.0365067,-9.97986,0.0183105,-0.0260544,0.0780487,-0.561829,-0.0302124,-0.000419617,-0.0204468,0.0695038
26,7,10.0097,-0.000305176,-0.00823975,-2.42562,0.0559862,-0.0738423,0.0538228,0.0572374,-0.0931465,0.145624,-0.126377,-0.0840963,0.00797272,0.038681,-0.0186157,0.0646591,0.141411,-0.2211,-0.0533295,0.0419998,-9.97986,0.0160217,-0.0297546,0.0703049,-0.645409,-0.0281906,-0.00350952,-0.0198364,0.0659561
26,8,9.88118,0.000305176,-0.00854492,-2.42653,0.0569017,-0.0738423,0.0550435,0.0587633,-0.0928413,0.145624,-0.125461,-0.0840963,0.00934601,0.0437927,-0.016098,0.0620651,0.144348,-0.220375,-0.0542831,0.0557709,-9.97986,0.0150299,-0.0317764,0.0667572,-0.72258,-0.022583,-0.00236511,-0.020256,0.061264
26,9,9.79207,-0.0012207,-0.00808716,-2.42653,0.055681,-0.075063,0.0538228,0.0657823,-0.0928413,0.145318,-0.125461,-0.0862325,0.00827789,0.0402069,-0.0106049,0.0440979,0.13813,-0.222359,-0.067749,0.0347137,-9.97986,0.0141525,-0.0255203,0.0619888,-0.812416,-0.0190735,-0.00392914,-0.0154495,0.0588226
27,0,10.0097,0,-0.00930786,-2.42623,0.055681,-0.0756734,0.054128,0.0737169,-0.0919257,0.145624,-0.125461,-0.0862325,0.0114822,0.0358582,-0.00114441,0.0360107,0.13958,-0.233078,-0.0688553,0.0259781,-9.97986,0.0107574,-0.0222778,0.056076,-0.913582,-0.0147629,-0.00724792,-0.0171661,0.0563049
27,1,10.0097,0.000305176,-0.00686646,-2.42745,0.0541551,-0.0747579,0.0547383,0.0984362,-0.090705,0.146234,-0.123935,-0.0856222,0.0109482,0.0395584,0.00865936,0.0130081,0.134239,-0.240173,-0.0683594,0.03479,-9.97986,0.00839233,-0.0232697,0.0570679,-0.977554,-0.0105667,-0.00957489,-0.0117111,0.0542831
27,2,10.0097,0.0012207,-0.00732422,-2.42898,0.0541551,-0.0765889,0.0526021,0.0782946,-0.0928413,0.144708,-0.126987,-0.0892843,0.0147629,0.0439835,0.0200272,0.00522614,0.134392,-0.232849,-0.0675964,0.0284958,-9.97986,0.00602722,-0.0233459,0.0489044,-1.064,-0.00629425,-0.00617981,-0.00766754,0.0551605
27,3,10.0097,0.000305176,-0.00854492,-2.42867,0.0541551,-0.0762837,0.0522969,0.0724962,-0.0946723,0.143792,-0.126682,-0.0886739,0.0134277,0.0408936,0.0309753,0.00988007,0.131912,-0.231171,-0.0708008,0.0180817,-9.97986,0.00640869,-0.0238037,0.0426102,-1.13876,-0.00873566,-0.00881195,-0.00164032,0.0537872
27,4,10.0097,-0.000305176,-0.0062561,-2.42867,0.0541551,-0.0756734,0.0522969,0.0694445,-0.0952827,0.142267,-0.127292,-0.0874532,0.00812531,0.0413513,0.0413895,0.0113678,0.128975,-0.233269,-0.0671387,0.0252533,-9.97986,0.0063324,-0.0221634,0.0407791,-1.18286,-0.00652313,-0.00411987,0.00598907,0.0511551
27,5,10.0097,0.000305176,-0.00671387,-2.42959,0.0532396,-0.0759786,0.050771,0.0691393,-0.0943672,0.143792,-0.127292,-0.0877584,0.00896454,0.0389862,0.0492096,-0.00160217,0.123482,-0.230675,-0.0657654,0.029068,-9.97986,0.00236511,-0.0241852,0.0312424,-1.24355,-0.00225067,-0.0075531,0.0146484,0.0473022
27,6,10.0097,0.0012207,-0.00457764,-2.42867,0.0538499,-0.0759786,0.0519917,0.0694445,-0.0949775,0.143792,-0.126987,-0.0880636,0.00629425,0.0403976,0.0594711,-0.023613,0.121994,-0.228577,-0.069046,0.0347519,-9.97986,-0.00267029,-0.0283813,0.0292587,-1.25,-0.00652313,-0.0102234,0.0247574,0.0448227
27,7,10.0097,0.000610352,-0.00442505,-2.42898,0.0550706,-0.0762837,0.0516866,0.0688341,-0.094062,0.141961,-0.127292,-0.0874532,0.010643,0.0470352,0.0682068,-0.0455856,0.114632,-0.217781,-0.0457764,0.0412369,-9.97986,0.0018692,-0.0335312,0.0231552,-1.25,-0.00984192,-0.0114059,0.0294876,0.0461197
27,8,10.0097,0.00152588,-0.00320435,-2.42714,0.0553758,-0.0753682,0.054128,0.0697496,-0.094062,0.144098,-0.126377,-0.085317,0.0141144,0.0386047,0.0815582,-0.0427246,0.104904,-0.205956,-0.000267029,0.0431824,-9.97986,-0.00267029,-0.0254822,0.0201035,-1.25,-0.0151825,-0.0100708,0.0374603,0.0431061
27,9,10.0097,0.00213623,-0.00213623,-2.42745,0.0562914,-0.0747579,0.0522969,0.0694445,-0.0934516,0.144403,-0.125461,-0.085317,0.00953674,0.0254059,0.0958252,0.000343323,0.0989532,-0.179787,0.0452042,0.0436783,-9.97986,0.000495911,-0.0251007,0.0195313,-1.25,-0.0109863,-0.0104523,0.0456238,0.0415802
28,0,10.0097,0.00274658,-0.00366211,-2.42653,0.0553758,-0.0744527,0.0535176,0.0697496,-0.0916206,0.144098,-0.126682,-0.0847066,0.0127411,0.0230789,0.10807,-0.00125885,0.0849152,-0.164108,0.084877,0.0388718,-9.97986,-7.62939e-005,-0.0231934,0.01091,-1.25,-0.00965118,-0.0113297,0.0556183,0.0412369
28,1,10.0097,0.00274658,-0.00167847,-2.42501,0.0565965,-0.0729268,0.0544332,0.0709703,-0.0943672,0.145624,-0.125156,-0.0819601,0.0149536,0.0296021,0.113525,-0.0117874,0.0770187,-0.148392,0.127792,0.0897217,-9.97986,-0.00190735,-0.0345993,0.00255585,-1.25,-0.00965118,-0.0111008,0.0569534,0.0362778
28,2,10.0097,0.00335693,0.000915527,-2.42501,0.055681,-0.0741475,0.054128,0.0712755,-0.0919257,0.146844,-0.124546,-0.0810445,0.0160599,0.0294876,0.106697,-0.0196457,0.0637436,-0.130081,0.164413,0.18116,-9.97986,-0.00198364,-0.0482559,-0.00297546,-1.25,-0.0123596,-0.013237,0.0627899,0.0352097
28,3,10.0097,0.000915527,0.000305176,-2.4244,0.0575121,-0.0738423,0.054128,0.0737169,-0.0928413,0.146234,-0.125156,-0.080129,0.0170517,0.0330734,0.105171,-0.0163651,0.0524521,-0.115891,0.192947,0.231628,-9.97986,-0.000114441,-0.0431061,-0.00579834,-1.25,-0.014801,-0.0183105,0.0709152,0.0308228
28,4,10.0097,-0.00152588,0.00152588,-2.4247,0.055681,-0.075063,0.0544332,0.0709703,-0.0968086,0.145929,-0.124241,-0.0795187,0.0156403,0.0403595,0.0958633,0.00175476,0.0477982,-0.100632,0.221519,0.207291,-9.97986,0.00328064,-0.0378036,-0.00785828,-1.25,-0.0144958,-0.0119781,0.0769424,0.0304794
28,5,10.0097,-0.000915527,0.00274658,-2.42531,0.0575121,-0.0738423,0.0553487,0.0712755,-0.0916206,0.145929,-0.124241,-0.0798238,0.00511169,0.0441742,0.0801468,0.0444412,0.0329971,-0.083847,0.247269,0.186272,-9.97986,0.00118256,-0.0281525,-0.0133514,-1.25,-0.0202179,-0.0164032,0.0778198,0.0273514
28,6,10.0097,-0.000610352,0.00396729,-2.42653,0.0562914,-0.0756734,0.0529073,0.0596788,-0.0946723,0.146234,-0.125156,-0.0813497,-0.00362396,0.0435638,0.0470352,0.0751877,0.0232697,-0.0614548,0.265236,0.160027,-9.97986,-0.00427246,-0.0272369,-0.0200653,-1.25,-0.0172043,-0.0151062,0.0783157,0.0271606
28,7,10.0097,0.0012207,0.00320435,-2.42592,0.055681,-0.0741475,0.0544332,0.0514391,-0.0955879,0.146844,-0.126072,-0.0816549,-0.0129318,0.0505829,0.0260925,0.0983047,0.0124741,-0.0444031,0.27668,0.0858307,-9.97986,0.00385284,-0.0286484,-0.0271225,-1.21189,-0.0173187,-0.0163269,0.0828552,0.02285
28,8,9.74538,-0.000305176,0.00213623,-2.42501,0.0562914,-0.075063,0.0538228,0.0590685,-0.0931465,0.145318,-0.125766,-0.0828756,-0.0308228,0.0572586,0.0265503,0.0878143,0.00114441,-0.0279999,0.289574,0.0285721,-9.97986,0.00873566,-0.0188828,-0.0279617,-1.19762,-0.0144958,-0.0138474,0.08461,0.019989
28,9,9.68343,-0.00274658,0.000762939,-2.42623,0.0547655,-0.0744527,0.054128,0.0654772,-0.0949775,0.146844,-0.126072,-0.0840963,-0.0334549,0.0664139,0.0228882,0.0710297,-0.00434875,-0.0101471,0.306931,-0.0395584,-9.97986,0.00617981,-0.0153351,-0.0377274,-1.20716,-0.0121307,-0.0112915,0.0878143,0.022316
29,0,10.0097,0.000610352,0.0012207,-2.42653,0.0535448,-0.0756734,0.054128,0.0734117,-0.0903999,0.145929,-0.124851,-0.0819601,-0.0271225,0.066185,0.0115204,0.0488663,-0.00461578,0.00328064,0.326347,-0.111885,-9.97986,0.0018692,-0.0124359,-0.0483322,-1.20113,-0.01194,-0.0118256,0.0885391,0.0159836
29,1,10.0097,-0.000305176,0.00274658,-2.42623,0.055681,-0.0753682,0.0538228,0.0984362,-0.0900947,0.143487,-0.124241,-0.0837911,-0.0127411,0.0602722,-0.00221252,0.0263596,-0.0138092,0.0260162,0.330963,-0.118752,-9.97986,-0.00469208,-0.0171661,-0.053215,-1.16913,-0.00434875,-0.0112915,0.0943375,0.0156403
29,2,10.0097,0.00366211,0.00228882,-2.42898,0.0544603,-0.075063,0.0538228,0.0798204,-0.0934516,0.142572,-0.126072,-0.0859274,0.00137329,0.0416183,-0.0124741,0.0171661,-0.014267,0.039444,0.352173,-0.0750351,-9.97986,0.00125885,-0.0119019,-0.0559235,-1.14464,0.000915527,-0.00564575,0.0965118,0.013504
29,3,10.0097,0.00183105,0.000457764,-2.42928,0.0532396,-0.0756734,0.0519917,0.0724962,-0.0952827,0.144098,-0.127598,-0.0865377,0.0238037,0.0330353,-0.0069809,0.0116348,-0.0204849,0.0592804,0.363388,-0.0348282,-9.97986,-0.0025177,-0.0157547,-0.0597763,-1.14891,0.00469208,-0.00221252,0.0947189,0.0153351
29,4,10.0097,0.00183105,-0.00213623,-2.43081,0.0538499,-0.0765889,0.0513814,0.0706652,-0.0949775,0.141961,-0.127598,-0.0877584,0.0585938,0.0235748,-0.00740051,0.00740051,-0.0335312,0.0854874,0.36602,-0.047226,-9.97986,0.00144958,-0.0104523,-0.0682068,-1.18698,0.00926971,-0.000953674,0.0910187,0.00919342
29,5,10.0097,0.000610352,-0.00411987,-2.42898,0.0492723,-0.0762837,0.0529073,0.0709703,-0.095893,0.144403,-0.126072,-0.0871481,0.0617981,0.0197983,-0.00751495,0.0044632,-0.0322342,0.105667,0.373383,-0.0521088,-9.97986,0.00209808,-0.0177765,-0.0694656,-1.20811,0.0122833,0.000457764,0.0949097,0.0101471
29,6,10.0097,0,-0.000457764,-2.42928,0.0532396,-0.0762837,0.0516866,0.0685289,-0.0955879,0.142877,-0.127292,-0.0865377,0.0623322,0.0116348,-0.00858307,0.00179291,-0.0331116,0.125504,0.375175,-0.0577164,-9.97986,0.00762939,-0.0196457,-0.0708008,-1.19793,0.0221252,-0.00148773,0.0964737,0.00461578
29,7,10.0097,0.00183105,0.00183105,-2.42837,0.0544603,-0.0762837,0.0519917,0.0694445,-0.0946723,0.144403,-0.126682,-0.0850118,0.052681,-0.000610352,-0.0149155,-0.00236511,-0.0312042,0.148811,0.373077,-0.0735092,-9.97986,0.0238419,-0.0125885,-0.0741959,-1.15726,0.0239944,0.000495911,0.089035,0.00370026
29,8,10.0097,0.000610352,0.00534058,-2.42928,0.0565965,-0.0753682,0.054128,0.0697496,-0.094062,0.142572,-0.126072,-0.0828756,0.0379562,0.00152588,-0.0146103,-0.0131989,-0.028801,0.164108,0.363464,-0.0722122,-9.97986,0.0285339,-0.00862122,-0.0795746,-1.06804,0.0299072,0.0043869,0.0846863,0.00419617
29,9,10.0097,0.000915527,0.00900269,-2.42714,0.0544603,-0.0747579,0.0532125,0.0691393,-0.0934516,0.144708,-0.125766,-0.0813497,0.0119781,0.00583649,-0.0104904,-0.0286102,-0.0195313,0.18898,0.362282,-0.0748825,-9.97986,0.0281143,-0.00549316,-0.0828171,-0.947533,0.0328827,0.00606537,0.0803375,-0.000228882
30,0,10.0097,0.00183105,0.0119019,-2.42745,0.0541551,-0.0744527,0.054128,0.0694445,-0.0928413,0.145318,-0.125156,-0.080129,-0.000686646,0.0139618,-0.00934601,-0.0196075,-0.0230026,0.200768,0.369034,-0.0548553,-9.97986,0.0266647,-0.0025177,-0.0866318,-0.803757,0.0422668,0.00125885,0.0786591,-0.000724792
30,1,10.0097,0.000915527,0.0152588,-2.42501,0.0562914,-0.0738423,0.0538228,0.0706652,-0.0913154,0.146539,-0.12363,-0.0776876,-0.00637054,0.0157166,-0.00167847,0.0226212,-0.017395,0.208473,0.381355,-0.0398254,-9.97986,0.0151825,-0.00709534,-0.085144,-0.611992,0.0411606,0.00370026,0.0756836,0.000419617
30,2,10.0097,0.00183105,0.0184631,-2.42531,0.0550706,-0.0753682,0.0556539,0.0706652,-0.0916206,0.146844,-0.125461,-0.0773824,-0.00434875,0.0200653,0.00598907,0.00389099,-0.0163269,0.224495,0.384178,-0.0579834,-9.97986,0.00198364,-0.00354767,-0.0814438,-0.397835,0.0469208,0.00736237,0.0815201,-0.00114441
30,3,10.0097,-0.000305176,0.0189209,-2.42379,0.0565965,-0.0741475,0.0562642,0.0715807,-0.0913154,0.146234,-0.124241,-0.0755514,-0.00549316,0.0205231,0.00595093,-0.03685,-0.0152969,0.245209,0.36747,-0.0489426,-9.97986,-0.00579834,-0.0110626,-0.0890732,-0.194016,0.0497437,0.00259399,0.075798,-0.00133514
30,4,10.0097,0.000305176,0.0184631,-2.4247,0.0553758,-0.0729268,0.054128,0.0731066,-0.0910102,0.147149,-0.124546,-0.0764669,0.0119781,0.0331879,0.00629425,-0.0304031,-0.0127411,0.263405,0.328331,-0.0280762,-9.97986,0.00415802,-0.0115967,-0.0850677,-0.00392914,0.0603485,0.00789642,0.0794983,-0.00640869
30,5,10.0097,0.00244141,0.0166321,-2.42318,0.0562914,-0.0738423,0.0550435,0.0731066,-0.0910102,0.147149,-0.124241,-0.0761617,0.0161362,0.0302505,0.00785828,-0.0262451,-0.019455,0.278358,0.294189,-0.0276947,-9.97986,0.0167465,-0.0183105,-0.0825119,0.143929,0.0735092,0.00968933,0.0839615,-0.00511169
30,6,10.0097,-0.000915527,0.0163269,-2.42348,0.0562914,-0.0735371,0.0544332,0.0587633,-0.0946723,0.147149,-0.124546,-0.0770773,0.0179291,0.0366211,0.0063324,-0.0235748,-0.0120926,0.279846,0.260696,-0.0151825,-9.97986,0.019989,-0.0221252,-0.0786591,0.326424,0.0836182,0.00904083,0.0811005,-0.00362396
30,7,10.0097,0.000305176,0.0201416,-2.42684,0.0562914,-0.0753682,0.0544332,0.0538805,-0.0937568,0.145624,-0.124546,-0.0767721,0.0163651,0.0431824,0.00396729,-0.020752,-0.00694275,0.285339,0.235977,-0.0122833,-9.97986,0.0101089,-0.0204086,-0.0759506,0.567513,0.090332,0.00789642,0.0779724,-0.00659943
30,8,9.82747,0.000915527,0.0247192,-2.4247,0.055681,-0.0735371,0.0535176,0.0587633,-0.0922309,0.145318,-0.126072,-0.0746358,0.0173187,0.0170517,0.00324249,-0.0241852,-0.00518799,0.290451,0.22644,0.00320435,-9.97986,-0.0214005,-0.0173569,-0.0670242,0.856133,0.089035,0.00499725,0.0740433,-0.0088501
30,9,9.75362,-0.000305176,0.0279236,-2.42562,0.0553758,-0.0744527,0.0526021,0.0645616,-0.0922309,0.145624,-0.125461,-0.0743307,0.0135803,-0.00102997,0.0124359,-0.0209045,0.00301361,0.292587,0.228615,0.0106049,-9.97986,-0.0566483,-0.0170898,-0.0650024,1.15955,0.0886154,0.00114441,0.0720978,-0.00770569
31,0,10.0097,-0.00274658,0.0308228,-2.42592,0.0553758,-0.0741475,0.0547383,0.0740221,-0.0913154,0.144403,-0.125461,-0.074941,0.013504,0.0111771,0.0120544,-0.0218964,0.00751495,0.294075,0.223083,0.0163651,-9.97986,-0.0767899,-0.0152588,-0.0569916,1.24996,0.0845718,0.00385284,0.0718689,-0.0102234
31,1,10.0097,0.0012207,0.0328064,-2.42714,0.0541551,-0.0759786,0.0544332,0.101183,-0.0891792,0.144708,-0.126377,-0.0746358,0.012207,0.0114822,0.0181198,-0.0346756,0.0133896,0.295296,0.20813,0.0291443,-9.97986,-0.0337982,-0.00656128,-0.0424957,1.24996,0.0865936,0.00267029,0.0661469,-0.00865936
31,2,10.0097,0.0012207,0.0325012,-2.42989,0.0538499,-0.0765889,0.0519917,0.0801256,-0.0949775,0.144403,-0.126072,-0.0786031,0.0115585,0.0175095,0.0241089,-0.057373,0.0173569,0.293808,0.195999,0.0300598,-9.97986,0.0371552,-0.000686646,-0.038414,1.24996,0.0917435,0.00217438,0.0606155,-0.00598907
31,3,10.0097,0.00152588,0.0308228,-2.42867,0.0532396,-0.0759786,0.0526021,0.0743273,-0.095893,0.144098,-0.127292,-0.0786031,0.0114822,0.0179291,0.0309753,-0.0583649,0.0173569,0.294266,0.180054,0.0386429,-9.97986,0.098381,0.00144958,-0.0259018,1.24996,0.0954056,0.00274658,0.0595474,-0.0069809
31,4,10.0097,0.0012207,0.0248718,-2.42928,0.0544603,-0.0756734,0.0526021,0.0718859,-0.094062,0.143792,-0.126682,-0.0804342,0.0141907,0.0217438,0.0385284,-0.0254822,0.0191116,0.298958,0.167618,0.042305,-9.97986,0.126228,0.000228882,-0.021286,1.24996,0.103645,0.00392914,0.0604248,-0.00816345
31,5,10.0097,0.00152588,0.0202942,-2.42837,0.0541551,-0.0759786,0.0513814,0.0694445,-0.094062,0.143792,-0.127292,-0.0813497,0.00965118,0.0263214,0.0516891,-0.00541687,0.0251389,0.294571,0.154266,0.0450134,-9.97986,0.135956,0.0069809,-0.0187683,1.24996,0.103645,-0.00278473,0.0586319,-0.0100708
31,6,10.0097,0.00274658,0.0187683,-2.42837,0.0526292,-0.0753682,0.0513814,0.0676134,-0.094062,0.142572,-0.128208,-0.0810445,0.0160217,0.0151825,0.0661469,-0.0213242,0.0236511,0.291595,0.140762,0.0458908,-9.97986,0.150108,0.00888824,-0.0101852,1.24996,0.0971222,0.00156403,0.0540161,-0.0101089
31,7,10.0097,0,0.0170898,-2.42806,0.0544603,-0.0756734,0.0529073,0.0685289,-0.0934516,0.145929,-0.125766,-0.0795187,0.00984192,0.015564,0.0814056,-0.0323105,0.021286,0.287247,0.126801,0.0404739,-9.97986,0.143661,0.00312805,-0.0108719,1.24996,0.0922394,-0.000114441,0.0564575,-0.00732422
31,8,10.0097,0.000610352,0.0167847,-2.42653,0.0532396,-0.0747579,0.0526021,0.0682238,-0.0934516,0.144403,-0.126377,-0.0810445,0.0105667,0.0257492,0.101471,0.0143433,0.0181198,0.289955,0.111885,0.0313187,-9.97986,0.112457,0.00343323,-0.00652313,1.24996,0.0903702,-0.000534058,0.0575256,-0.0131989
31,9,10.0097,0.000915527,0.01297,-2.42684,0.0547655,-0.0744527,0.0529073,0.0682238,-0.0931465,0.145318,-0.126377,-0.0810445,0.0094223,0.0310516,0.108795,0.0197601,0.0115967,0.272522,0.0960159,0.0275421,-9.97986,0.086937,0.00324249,-0.00202179,1.24996,0.0826645,-0.00377655,0.0551605,-0.0124741
32,0,10.0097,-0.0012207,0.00839233,-2.42653,0.0553758,-0.0756734,0.0538228,0.0685289,-0.0934516,0.145318,-0.126377,-0.0822652,0.0075531,0.0331116,0.106583,0.0252533,0.0102615,0.264664,0.0786591,0.0333405,-9.97986,0.0685883,0.00293732,-0.000953674,1.24996,0.0802994,-0.00526428,0.0573349,-0.0119781
32,1,10.0097,-0.000915527,0.00427246,-2.42623,0.0559862,-0.0741475,0.0556539,0.072191,-0.0900947,0.146234,-0.124851,-0.0816549,0.00873566,0.0387573,0.0908279,0.0572586,0.00652313,0.248871,0.0634384,0.0364304,-9.97986,0.0516129,0.00137329,0.00164032,1.24996,0.0858307,-0.0031662,0.0585938,-0.0133514
32,2,10.0097,-0.000610352,0.0050354,-2.42592,0.0565965,-0.0744527,0.0538228,0.0706652,-0.0922309,0.145929,-0.124851,-0.0807394,0.00659943,0.0396347,0.06073,0.042305,0.00293732,0.237427,0.0544357,0.0324631,-9.97986,0.0446701,-0.00160217,0.00370026,1.24996,0.0843811,-0.00267029,0.0624466,-0.0132751
32,3,10.0097,-0.0012207,0.00823975,-2.42501,0.0575121,-0.0744527,0.0547383,0.0706652,-0.0916206,0.146844,-0.124241,-0.078298,0.00640869,0.0393295,0.0295639,0.00492096,-0.000648499,0.22171,0.0457764,0.0278091,-9.97986,0.0514603,0.00102997,0.00869751,1.24996,0.0839233,-0.0037384,0.0589371,-0.0111389
32,4,10.0097,-0.000915527,0.0100708,-2.42562,0.0553758,-0.0726216,0.0556539,0.0709703,-0.0910102,0.146539,-0.124851,-0.0776876,0.00686646,0.0418091,0.00984192,0.0156021,-0.00766754,0.208664,0.0356293,0.0215912,-9.97986,0.0583267,0.0120163,0.00701904,1.24996,0.0812531,-0.0019455,0.0571442,-0.00991821
32,5,10.0097,-0.00152588,0.00991821,-2.4247,0.0569017,-0.0729268,0.054128,0.0715807,-0.0922309,0.145929,-0.124851,-0.0792135,0.0094223,0.0455475,-0.0031662,0.0250626,-0.00957489,0.184898,0.0196838,0.00972748,-9.97986,0.0535965,0.0217819,0.00644684,1.24996,0.0786591,-0.00465393,0.0616455,-0.0113678
32,6,10.0097,-0.00274658,0.00427246,-2.42684,0.0562914,-0.073232,0.0526021,0.0578478,-0.0949775,0.145624,-0.125766,-0.0825704,0.0140762,0.033989,-0.0056839,0.0218582,-0.00843048,0.162888,0.0130844,0.00377655,-9.97986,0.0522614,0.0182343,0.00629425,1.24996,0.0691986,-0.00530243,0.0585175,-0.0129318
32,7,10.0097,-0.000610352,-0.00396729,-2.42592,0.055681,-0.0738423,0.0535176,0.0514391,-0.0943672,0.145624,-0.125766,-0.0828756,0.0107193,0.0270844,0.00488281,0.0236511,-0.0123215,0.140953,0.00629425,0.00579834,-9.97986,0.0411987,0.0193405,0.00968933,1.24996,0.059166,-0.00198364,0.0564194,-0.00930786
32,8,9.88698,-0.00183105,-0.00946045,-2.42592,0.0559862,-0.0744527,0.0562642,0.0596788,-0.0919257,0.145624,-0.125766,-0.0831808,0.0128555,0.0192642,0.00934601,0.0252151,-0.0165558,0.123825,-0.00328064,0.0069809,-9.97986,0.0243759,0.0201797,0.00957489,1.24996,0.0539017,-0.0018692,0.0530624,-0.00827789
32,9,9.8589,0,-0.0137329,-2.42745,0.0544603,-0.075063,0.054128,0.067003,-0.0925361,0.145318,-0.125156,-0.0868429,0.0100327,0.0201035,0.0163269,0.0223541,-0.0178528,0.0985718,-0.00713348,0.0136185,-9.97986,0.00541687,0.0150681,0.00946045,1.24996,0.0432587,-0.000991821,0.0499725,-0.0102615
33,0,10.0097,0.000610352,-0.0161743,-2.42531,0.0550706,-0.0747579,0.0538228,0.075548,-0.0919257,0.145013,-0.124546,-0.0883688,0.00854492,0.0279999,0.0220871,0.0217819,-0.0180435,0.0737381,-0.0183868,0.0140381,-9.97986,-0.00675201,0.0193024,0.0117874,1.24996,0.0342178,-0.00183105,0.0455475,-0.0110626
33,1,10.0097,0.00213623,-0.0161743,-2.42684,0.0544603,-0.0747579,0.0550435,0.0962999,-0.088874,0.142877,-0.124546,-0.0886739,0.00286102,0.0281143,0.031662,0.0132751,-0.0222015,0.050621,-0.0210571,0.0212097,-9.97986,-0.0238037,0.0149536,0.00900269,1.24996,0.0317764,-0.000343323,0.0444031,-0.00946045
33,2,10.0097,0.000305176,-0.0158691,-2.42898,0.0535448,-0.0747579,0.0519917,0.077379,-0.0946723,0.145013,-0.126377,-0.0911153,0.00408173,-0.000152588,0.0329971,0.0120163,-0.0246811,0.0255585,-0.0307465,0.0230408,-9.97986,-0.0291824,0.0180054,0.00270844,1.24996,0.0299072,-0.00335693,0.0413513,-0.0113297
33,3,10.0097,-0.00213623,-0.0183105,-2.4302,0.0529344,-0.0762837,0.0526021,0.0731066,-0.0952827,0.143487,-0.126072,-0.0911153,0.0030899,-0.0125122,0.0293732,0.00526428,-0.0347137,0.00736237,-0.0382614,0.0151825,-9.97986,-0.0304031,0.00865936,0.00900269,1.24996,0.027771,0.000152588,0.0353622,-0.00888824
33,4,10.0097,0.000610352,-0.0239563,-2.42806,0.0547655,-0.0762837,0.0516866,0.0700548,-0.0952827,0.143487,-0.127598,-0.0944723,0.00968933,0.00682831,0.0192642,0.00469208,-0.038681,-0.00854492,-0.0427628,0.0162506,-9.97986,-0.0271988,0.010376,0.00411987,1.24996,0.0236511,0.00164032,0.0349808,-0.00911713
33,5,10.0097,-0.000915527,-0.0265503,-2.42898,0.0544603,-0.0756734,0.0519917,0.0700548,-0.0949775,0.144403,-0.127903,-0.0935567,0.00965118,0.0194168,-0.000114441,0.00614166,-0.0418854,-0.0293732,-0.0463867,0.018692,-9.97986,-0.0271988,0.0131226,0.00583649,1.24996,0.018959,0.00320435,0.0339127,-0.0106049
33,6,10.0097,0.000610352,-0.0256348,-2.42928,0.0523241,-0.0762837,0.0513814,0.0691393,-0.0949775,0.144708,-0.127598,-0.0941671,0.00915527,0.0315094,-0.0129318,0.00274658,-0.047226,-0.042572,-0.0528336,0.0203323,-9.97986,-0.0176239,0.0131607,-0.00133514,1.24996,0.018158,0.00144958,0.0337601,-0.00473022
33,7,10.0097,-0.000915527,-0.0241089,-2.42898,0.0544603,-0.075063,0.0526021,0.0685289,-0.0943672,0.143487,-0.126987,-0.092336,0.0115204,0.0232697,-0.0434494,0.0038147,-0.0594711,-0.056839,-0.064888,0.0304413,-9.97986,-0.0124741,0.0120926,-0.00244141,1.24996,0.0153732,0.00492096,0.0344849,-0.00499725
33,8,10.0097,0.000610352,-0.0257874,-2.42867,0.0550706,-0.0756734,0.0532125,0.0697496,-0.0931465,0.144098,-0.126377,-0.0920309,0.0044632,-0.00328064,-0.0579834,0.00652313,-0.0643539,-0.0667572,-0.0693512,0.0453949,-9.97986,-0.011673,0.00656128,0.000152588,1.24996,0.00556946,0.00858307,0.0315094,-0.00495911
33,9,10.0097,0.00183105,-0.0268555,-2.42684,0.055681,-0.0735371,0.054128,0.07036,-0.0928413,0.143792,-0.125766,-0.0926412,0.0113297,-0.0209045,-0.046196,0.00667572,-0.065155,-0.0824738,-0.0695419,0.0807571,-9.97986,-0.00694275,0.00606537,0.00171661,0.963631,-0.00110626,0.0056839,0.0291061,-0.00415802
34,0,10.0097,0.000915527,-0.0283813,-2.42653,0.0550706,-0.0741475,0.0535176,0.0709703,-0.094062,0.144708,-0.126377,-0.0911153,0.0131989,-0.00488281,-0.0255203,0.00839233,-0.0688553,-0.0912094,-0.0668335,0.100441,-9.97986,-0.0151825,0.00350952,0.00114441,0.687485,-0.00415802,0.00720978,0.0310898,-0.00370026
34,1,10.0097,0.000610352,-0.0238037,-2.42592,0.055681,-0.0744527,0.0547383,0.0700548,-0.0928413,0.146844,-0.123325,-0.0883688,0.0202942,0.0075531,-0.00972748,0.00999451,-0.071907,-0.102158,-0.0733566,0.105667,-9.97986,-0.0117874,0.0056076,0.00267029,0.452003,-0.0131989,0.00682831,0.0263596,-0.00297546
34,2,10.0097,0.000915527,-0.0224304,-2.42501,0.0559862,-0.0741475,0.0550435,0.072191,-0.0910102,0.146234,-0.123935,-0.0883688,0.00110626,0.0131989,-0.00263214,0.0119019,-0.0728989,-0.104294,-0.0751114,0.0848007,-9.97986,-0.00102997,0.00347137,3.8147e-005,0.231514,-0.0201797,0.00495911,0.0224686,-0.00267029
34,3,10.0097,0.000305176,-0.0212097,-2.42501,0.0572069,-0.0744527,0.0547383,0.0715807,-0.0925361,0.146234,-0.124851,-0.0868429,-0.0240326,0.0168991,0.00564575,0.0147629,-0.0744247,-0.106544,-0.0513458,0.0730896,-9.97986,0.00614166,0.001297,-0.0030899,0.0171661,-0.0225449,0.00667572,0.0189209,-0.00400543
34,4,10.0097,0.000610352,-0.0183105,-2.42562,0.0541551,-0.0735371,0.055959,0.0709703,-0.0922309,0.147455,-0.124851,-0.0859274,-0.0257111,0.0201797,0.00831604,0.00988007,-0.0779724,-0.111389,-0.03582,0.0764465,-9.97986,0.0112915,0.0043869,-0.000648499,-0.149612,-0.0292206,0.00522614,0.0211716,0.00038147
34,5,10.0097,0.0012207,-0.017395,-2.42501,0.0572069,-0.0726216,0.0553487,0.0712755,-0.0919257,0.147149,-0.124546,-0.0859274,-0.0242233,0.0454712,0.0148392,7.62939e-005,-0.0740433,-0.116234,-0.0395203,0.0784683,-9.97986,0.00114441,0.00385284,0.000305176,-0.311813,-0.0290298,0.00759125,0.0197601,0.0012207
34,6,10.0097,-0.00183105,-0.0167847,-2.42623,0.0572069,-0.073232,0.0535176,0.0569322,-0.0931465,0.147149,-0.125156,-0.0856222,-0.0176239,0.0544357,0.0182343,-0.00679016,-0.0782776,-0.119019,-0.0596237,0.0530624,-9.97986,-0.00484467,0.000991821,0.00221252,-0.466881,-0.0356293,0.00450134,0.0158691,0.00507355
34,7,10.0097,-0.000915527,-0.0152588,-2.42562,0.0553758,-0.0741475,0.0556539,0.0535753,-0.0928413,0.145929,-0.125461,-0.085317,-0.00774384,0.0432587,0.0174713,0.00816345,-0.0764084,-0.115471,-0.0725937,-0.0143814,-9.97986,-0.00423431,0.00411987,0.00110626,-0.602913,-0.0389481,-0.000152588,0.0177765,0.00267029
34,8,9.85341,-0.000915527,-0.0137329,-2.42531,0.055681,-0.0735371,0.0544332,0.0605944,-0.0937568,0.146234,-0.125766,-0.085317,0.0146866,0.0357056,0.0251389,0.0189209,-0.0721741,-0.11364,-0.109062,-0.0587845,-9.97986,-0.00652313,-0.00205994,-0.00293732,-0.727425,-0.0494385,-0.00171661,0.0137329,0.000991821
34,9,9.81679,-0.000305176,-0.00900269,-2.42653,0.0553758,-0.0729268,0.054128,0.067003,-0.0925361,0.145013,-0.124851,-0.0850118,0.0286865,0.0411606,0.0324249,0.0196075,-0.0685883,-0.110474,-0.13237,-0.0616455,-9.97986,0.000343323,0.0025177,0.000114441,-0.78373,-0.0490189,-0.00518799,0.0105667,0.00301361
35,0,10.0097,0.00183105,-0.00442505,-2.42531,0.0553758,-0.0747579,0.0535176,0.0749376,-0.0922309,0.144098,-0.124546,-0.0844015,0.0318909,0.045433,0.0358963,0.0139618,-0.0689316,-0.108566,-0.146561,-0.0543213,-9.97986,0.00564575,0.00492096,0.000953674,-0.801048,-0.0499725,0.000915527,0.00614166,0.00576019
35,1,10.0097,-0.000305176,-0.0062561,-2.42928,0.0553758,-0.0744527,0.054128,0.0969103,-0.0913154,0.145318,-0.122715,-0.0859274,0.0304031,0.0439453,0.0316238,0.00896454,-0.062027,-0.107422,-0.150261,-0.0345612,-9.97986,0.0031662,-0.000915527,0.0018692,-0.87822,-0.0579071,-0.00652313,0.00846863,0.00617981
35,2,10.0097,0.00152588,-0.00732422,-2.42776,0.0532396,-0.0756734,0.0516866,0.0782946,-0.094062,0.142877,-0.127292,-0.0877584,0.0359726,0.0340271,0.0357819,0.00411987,-0.0542831,-0.1017,-0.167885,-0.0126266,-9.97986,-0.00843048,-0.00644684,0.00408173,-0.960274,-0.0544739,-0.00392914,0.00576019,0.00740051
35,3,10.0097,-0.00152588,-0.00610352,-2.42806,0.0541551,-0.0756734,0.0516866,0.0724962,-0.0952827,0.143792,-0.126987,-0.0880636,0.0402832,0.0259399,0.0357437,-0.0101852,-0.053215,-0.0999451,-0.192795,-0.00671387,-9.97986,-0.0177002,-0.00484467,0.00339508,-1.0041,-0.059967,-0.00602722,0.00614166,0.00778198
35,4,10.0097,-0.000610352,-0.00564575,-2.42806,0.0547655,-0.0762837,0.0519917,0.0694445,-0.0952827,0.143487,-0.127598,-0.0877584,0.0259018,0.026474,0.0354004,-0.0151062,-0.0493622,-0.0933075,-0.207443,-0.0256729,-9.97986,-0.0114059,-0.00644684,0.00453949,-1.05888,-0.0629807,-0.00572205,-0.000343323,0.00804901
35,5,10.0097,0.00152588,-0.00549316,-2.42898,0.0544603,-0.075063,0.0516866,0.0694445,-0.094062,0.143182,-0.128208,-0.0880636,0.0185394,0.0249863,0.0377655,-0.00701904,-0.0394821,-0.0736618,-0.224571,-0.0299454,-9.97986,0.0102234,-0.00431061,0.00785828,-1.0849,-0.0653076,-0.00118256,0.0018692,0.0100708
35,6,10.0097,0.0012207,-0.00198364,-2.42898,0.055681,-0.0765889,0.0513814,0.0685289,-0.0949775,0.143792,-0.128513,-0.0868429,0.0101089,0.0299072,0.0355148,-0.0144958,-0.0366592,-0.0734329,-0.242004,-0.0125885,-9.97986,0.0116348,-0.00217438,0.00709534,-1.06548,-0.0741577,-0.00911713,0.00282288,0.0115204
35,7,10.0097,0.00152588,0.00106812,-2.42806,0.0535448,-0.0759786,0.0529073,0.0694445,-0.0931465,0.143792,-0.125766,-0.0847066,0.0131226,0.0333405,0.0476074,-0.020256,-0.0342178,-0.0611496,-0.255699,-0.000419617,-9.97986,0.0307083,-0.00179291,0.00610352,-1.04103,-0.0738907,-0.00263214,0.00175476,0.0160599
35,8,10.0097,0.000305176,-0.000762939,-2.42837,0.0541551,-0.0762837,0.0519917,0.0694445,-0.0937568,0.143792,-0.127292,-0.085317,0.00858307,0.0304413,0.0444794,-0.0587082,-0.0269699,-0.051384,-0.271912,0.00617981,-9.97986,0.0510788,-0.00480652,0.00377655,-1.03584,-0.0755692,-0.00213623,-0.00339508,0.0139236
35,9,10.0097,-0.000610352,-0.000762939,-2.42653,0.055681,-0.0756734,0.0535176,0.0688341,-0.0943672,0.148675,-0.126682,-0.0847066,0.0114441,0.0400543,0.0479889,-0.121765,-0.0236893,-0.040741,-0.287514,0.00362396,-9.97986,0.0587845,-7.62939e-005,0.00423431,-1.04675,-0.0756454,0.000152588,-0.00579834,0.0152969
36,0,10.0097,-0.000305176,-0.00350952,-2.42653,0.0550706,-0.075063,0.0538228,0.0694445,-0.0943672,0.145013,-0.126377,-0.0850118,0.0169754,0.0148773,0.0395584,-0.136414,-0.0212479,-0.0328827,-0.297165,0.00244141,-9.97986,0.0536728,-0.00118256,0.00946045,-1.10603,-0.0756836,0.000190735,-0.00679016,0.0136948
36,1,10.0097,0.0012207,-0.00534058,-2.42623,0.0562914,-0.0738423,0.0547383,0.0697496,-0.0928413,0.146539,-0.124241,-0.0831808,0.0133896,-0.00854492,0.0269699,-0.0555801,-0.0208664,-0.0306702,-0.296669,0.0217438,-9.97986,0.0429916,-0.00595093,0.0127792,-1.16474,-0.076828,-0.000228882,-0.00873566,0.0170898
36,2,10.0097,0.000305176,-0.00274658,-2.4244,0.0565965,-0.0729268,0.0550435,0.0712755,-0.0916206,0.147455,-0.12363,-0.0819601,0.0146866,-0.00572205,0.030098,0.0364304,-0.0175858,-0.0211716,-0.296898,0.0580215,-9.97986,0.030098,-0.00595093,0.0134659,-1.1829,-0.076828,0.00125885,-0.00957489,0.0177002
36,3,10.0097,0.00152588,-0.0038147,-2.42501,0.0562914,-0.0744527,0.0553487,0.0718859,-0.0919257,0.147149,-0.12363,-0.0828756,0.0110245,-0.00301361,0.0304413,0.0541306,-0.0155258,-0.014801,-0.305901,0.0732422,-9.97986,0.0159836,-0.0127029,0.0180054,-1.2101,-0.0836182,0.00843048,-0.0121689,0.0136185
36,4,10.0097,0,-0.00396729,-2.42653,0.0562914,-0.0744527,0.0544332,0.0715807,-0.0919257,0.148065,-0.124546,-0.0816549,0.00785828,0.019989,0.0205994,0.0135803,-0.0118637,-0.00610352,-0.307846,0.0871658,-9.97986,0.0137711,-0.0152206,0.0204468,-1.24981,-0.0827026,0.00900269,-0.0121307,0.0162125
36,5,10.0097,0.00244141,-0.00350952,-2.42562,0.0553758,-0.0735371,0.0544332,0.0709703,-0.0919257,0.145013,-0.12363,-0.0825704,0.0123596,0.0404358,0.0214767,0.0184631,-0.0162506,-0.00801086,-0.29644,0.112839,-9.97986,0.0175858,-0.0138855,0.0233841,-1.25,-0.088768,0.00480652,-0.0135422,0.0196075
36,6,10.0097,0.0012207,-0.0050354,-2.42562,0.0569017,-0.0741475,0.0535176,0.0557115,-0.094062,0.147455,-0.125461,-0.0831808,0.00961304,0.0336456,0.0267792,0.0575638,-0.00728607,-0.00545502,-0.288239,0.104523,-9.97986,0.0121689,-0.0184631,0.026207,-1.25,-0.0925827,0.00679016,-0.0167465,0.0224686
36,7,10.0097,-0.000305176,-0.00534058,-2.42592,0.0565965,-0.0744527,0.0544332,0.0511339,-0.0922309,0.146844,-0.125461,-0.0837911,0.00965118,0.0342178,0.0334167,0.060997,-0.0050354,0.0037384,-0.272827,0.0892258,-9.97986,0.00808716,-0.0181198,0.0259781,-1.25,-0.0930786,0.011673,-0.0187302,0.025444
36,8,9.68801,-0.00152588,-0.00549316,-2.42653,0.0569017,-0.0735371,0.0547383,0.0593737,-0.0928413,0.148675,-0.124851,-0.0837911,0.00812531,0.033989,0.0216675,0.0444794,-0.00976563,-0.00038147,-0.255318,0.0719452,-9.97986,0.00904083,-0.0191498,0.0252151,-1.25,-0.102921,0.016098,-0.0248337,0.0236893
36,9,9.63613,0.000610352,-0.00473022,-2.42623,0.0544603,-0.0753682,0.0538228,0.0660875,-0.0928413,0.145013,-0.124851,-0.0837911,-0.00782013,0.0370026,-0.000419617,0.0746155,-0.0111389,0.0063324,-0.225563,0.0178528,-9.97986,0.0177383,-0.0187683,0.0324631,-1.25,-0.0964355,0.0135803,-0.0259399,0.0259399
37,0,9.96144,0,-0.00350952,-2.42592,0.0541551,-0.0753682,0.0532125,0.0737169,-0.090705,0.145318,-0.125766,-0.0847066,-0.0128555,0.028801,-0.00228882,0.0952148,-0.00736237,0.00507355,-0.195847,-0.0476074,-9.97986,0.0165939,-0.0216293,0.0355148,-1.25,-0.0980759,0.0192642,-0.0251007,0.0278091
37,1,10.0097,0.00152588,-0.00213623,-2.42837,0.0553758,-0.0756734,0.0538228,0.100267,-0.0897895,0.145013,-0.124546,-0.0844015,-0.0182343,0.0304413,-0.00862122,0.079689,-0.00846863,-0.0030899,-0.157547,-0.0484467,-9.97986,0.0149155,-0.0272369,0.037384,-1.25,-0.102081,0.019989,-0.028801,0.0302124
37,2,10.0097,0.00152588,-0.00289917,-2.42928,0.0535448,-0.0756734,0.0529073,0.0795153,-0.0946723,0.143792,-0.126072,-0.0874532,-0.0157928,0.0507355,-0.0178146,0.0629807,-0.00358582,-0.00270844,-0.117455,-0.00595093,-9.97986,0.00137329,-0.0255966,0.0374603,-1.25,-0.0990677,0.0166702,-0.0321579,0.0316238
37,3,10.0097,0,-0.00366211,-2.42867,0.0538499,-0.0759786,0.0522969,0.0715807,-0.0943672,0.143182,-0.127292,-0.0880636,-0.0141907,0.0491714,-0.026741,0.051918,-0.00255585,-0.00370026,-0.0712967,-0.00385284,-9.97986,-0.00396729,-0.0209808,0.0411987,-1.25,-0.102234,0.0221634,-0.0305176,0.0314713
37,4,10.0097,-0.000915527,-0.00213623,-2.42898,0.0547655,-0.0762837,0.0526021,0.0694445,-0.0952827,0.143182,-0.127598,-0.0874532,-0.0094986,0.0118256,-0.0342178,0.0450897,-0.00576019,-0.0169373,-0.0279236,-0.0167465,-9.97986,-0.0172424,-0.0191116,0.042305,-1.25,-0.1054,0.0139999,-0.0326157,0.0322342
37,5,10.0097,0.000610352,-0.000915527,-2.42959,0.0535448,-0.0762837,0.0522969,0.0697496,-0.0946723,0.142572,-0.127292,-0.0868429,-0.00354767,-0.0191879,-0.0342941,0.0413513,0.000152588,-0.0244904,3.8147e-005,0.00148773,-9.97986,-0.0196838,-0.0247574,0.0431061,-1.25,-0.107689,0.0129318,-0.0344467,0.0351334
37,6,10.0097,0.00152588,0.000305176,-2.42989,0.0538499,-0.0756734,0.0516866,0.0697496,-0.0955879,0.144403,-0.126682,-0.0868429,0.0166321,-0.00774384,-0.0266647,0.0432587,0.00270844,-0.0295258,0.00938416,-0.00621796,-9.97986,-0.0143814,-0.0200653,0.0491333,-1.25,-0.112228,0.0152206,-0.037384,0.037117
37,7,10.0097,-0.000305176,0.00213623,-2.42867,0.0547655,-0.0762837,0.0532125,0.07036,-0.0937568,0.144098,-0.127292,-0.085317,0.0252533,0.00461578,-0.0228882,0.0407028,0.00453949,-0.0333786,0.018425,-0.00530243,-9.97986,-0.0075531,-0.0221252,0.0488281,-1.25,-0.124168,0.0197601,-0.0374603,0.0295639
37,8,10.0097,0.000305176,0.00396729,-2.42837,0.0535448,-0.0747579,0.0553487,0.0709703,-0.0931465,0.145318,-0.125461,-0.0834859,0.0426483,0.00038147,-0.0163651,0.0358582,0.00850677,-0.0377274,0.0283051,0.0110245,-9.97986,0.00595093,-0.018158,0.0500107,-1.25,-0.125427,0.0196457,-0.0341034,0.0342941
37,9,10.0097,0.000610352,0.00442505,-2.42806,0.0550706,-0.075063,0.0535176,0.07036,-0.0934516,0.145318,-0.125156,-0.0825704,0.0422668,0.013237,-0.0175095,0.0335693,0.0114441,-0.0469971,0.0376129,0.00591278,-9.97986,0.0188828,-0.011673,0.0496674,-1.25,-0.129662,0.0182343,-0.0339127,0.0372314
38,0,10.0097,-0.000305176,0.0062561,-2.42623,0.055681,-0.0747579,0.054128,0.07036,-0.0925361,0.145013,-0.124851,-0.0825704,0.0346756,0.0205994,-0.010376,0.0297165,0.0153351,-0.0542831,0.0613022,-0.0466919,-9.97986,0.0188065,-0.00598907,0.0524139,-1.25,-0.136757,0.014801,-0.0368881,0.034256
38,1,10.0097,0.00213623,0.00656128,-2.42562,0.0547655,-0.0735371,0.054128,0.07036,-0.0919257,0.146539,-0.124241,-0.080129,0.0257111,0.0181198,-0.00087738,0.028801,0.0112915,-0.062561,0.0822067,-0.0784302,-9.97986,0.0165176,-0.00659943,0.0550079,-1.25,-0.138054,0.0157547,-0.035553,0.033989
38,2,10.0097,0.00274658,0.00701904,-2.42531,0.0572069,-0.0741475,0.0547383,0.0700548,-0.0922309,0.146844,-0.124851,-0.0789083,0.0296402,0.0218964,0.00335693,0.0342941,0.0122452,-0.0717163,0.0949478,-0.0328064,-9.97986,-0.00087738,-0.0141525,0.0540161,-1.19972,-0.136719,0.0192261,-0.0365829,0.0335312
38,3,10.0097,0.000610352,0.00732422,-2.42623,0.0553758,-0.0738423,0.0544332,0.0706652,-0.0913154,0.147149,-0.124241,-0.0795187,0.0452805,0.0235748,0.0185394,0.0357437,0.019455,-0.0723267,0.100708,-0.0102997,-9.97986,-0.0069809,-0.0149536,0.0557709,-1.11523,-0.134468,0.0219345,-0.0360107,0.0364304
38,4,10.0097,-0.000915527,0.00869751,-2.42592,0.0565965,-0.0738423,0.054128,0.0718859,-0.0931465,0.14776,-0.124241,-0.0776876,0.0457764,0.0250626,0.0169373,0.0316238,0.017128,-0.0799561,0.098114,-0.0157166,-9.97986,0.00102997,-0.0167465,0.053978,-1.01463,-0.126686,0.0190735,-0.0389862,0.038681
38,5,10.0097,-0.000610352,0.0108337,-2.42501,0.0559862,-0.0744527,0.0550435,0.0709703,-0.0925361,0.147149,-0.124546,-0.0789083,0.0328445,0.0305176,0.0227356,0.0203323,0.0120163,-0.0840759,0.0994492,-0.0192642,-9.97986,0.0249481,-0.0204468,0.0547028,-0.901337,-0.118942,0.0208664,-0.0411987,0.039444
38,6,10.0097,0.000915527,0.0106812,-2.42592,0.0569017,-0.0744527,0.0547383,0.0587633,-0.0931465,0.147455,-0.125766,-0.078298,0.0331497,0.0318146,0.0270462,0.02285,0.0117111,-0.0909424,0.102348,-0.0330734,-9.97986,0.0422668,-0.0217819,0.0531006,-0.785713,-0.112228,0.018158,-0.0403214,0.0362015
38,7,10.0097,0.000305176,0.00961304,-2.42653,0.0559862,-0.0744527,0.0562642,0.0532701,-0.0943672,0.145624,-0.125461,-0.0786031,0.0338745,0.0462341,0.0345993,0.0279999,0.00728607,-0.0899506,0.105019,-0.0295258,-9.97986,0.0509644,-0.0198746,0.0522232,-0.677567,-0.112228,0.0122452,-0.0384521,0.0354004
38,8,9.7646,-0.00274658,0.0102234,-2.42623,0.0559862,-0.0744527,0.0547383,0.0596788,-0.0916206,0.147149,-0.125156,-0.0804342,0.0294495,0.0834274,0.0334549,0.0191498,0.00751495,-0.09655,0.108414,-0.00961304,-9.97986,0.0612259,-0.0195313,0.0558472,-0.572624,-0.104065,0.0115585,-0.0422287,0.0330734
38,9,9.67549,0.000610352,0.00961304,-2.42653,0.0550706,-0.075063,0.054128,0.0660875,-0.0910102,0.145624,-0.125461,-0.0813497,0.017662,0.0795364,0.0286484,0.0165939,0.00328064,-0.0993347,0.107384,-0.000419617,-9.97986,0.0606155,-0.0233841,0.0552368,-0.471725,-0.0965118,0.00862122,-0.0422668,0.0326157
39,0,9.99074,0.000610352,0.00946045,-2.42623,0.0553758,-0.0759786,0.0538228,0.0740221,-0.094062,0.143792,-0.125766,-0.080129,0.00518799,0.0534821,0.024147,0.0127792,-0.00133514,-0.101547,0.111961,-0.00244141,-9.97986,0.0488663,-0.0341034,0.0559235,-0.385628,-0.087471,0.0127411,-0.0411224,0.0326538
39,1,10.0097,-0.0012207,0.00991821,-2.42562,0.0532396,-0.0759786,0.054128,0.0990465,-0.0910102,0.144098,-0.125156,-0.0816549,0.00831604,0.0456238,0.0192261,0.00038147,-0.00450134,-0.107803,0.109673,-0.00652313,-9.97986,0.0403976,-0.0306702,0.0507355,-0.296898,-0.0850296,0.0118256,-0.0413132,0.0312042
39,2,10.0097,0.000915527,0.00747681,-2.42959,0.0547655,-0.0762837,0.054128,0.0789049,-0.0946723,0.143792,-0.126072,-0.0840963,0.00324249,0.0204849,0.0117111,-0.00358582,-0.00469208,-0.111618,0.112724,0.00495911,-9.97986,0.0388336,-0.0255966,0.0547409,-0.243454,-0.0812531,0.0130081,-0.0410461,0.0323105
39,3,10.0097,-0.000305176,0.00564575,-2.42867,0.0535448,-0.0756734,0.0522969,0.0728014,-0.0955879,0.144098,-0.127598,-0.085317,-0.00038147,0.0259399,-0.000305176,7.62939e-005,-0.00728607,-0.116425,0.103493,0.00614166,-9.97986,0.032959,-0.0230026,0.0508499,-0.203438,-0.0797653,0.0165939,-0.0442886,0.0305557
39,4,10.0097,-0.0012207,0.00488281,-2.42959,0.0538499,-0.0759786,0.0522969,0.07036,-0.094062,0.145013,-0.127292,-0.085317,0.0018692,0.0399399,-0.00984192,-0.0137329,-0.0156784,-0.11158,0.0941849,0.0135803,-9.97986,0.0248337,-0.0261688,0.0469589,-0.146599,-0.0696945,0.0166321,-0.0446701,0.0275803
39,5,10.0097,0.00183105,0.00396729,-2.42959,0.0538499,-0.0753682,0.0513814,0.0691393,-0.0952827,0.143792,-0.127598,-0.0859274,0.00419617,0.0069809,-0.00507355,-0.0290298,-0.0153351,-0.117073,0.0860977,0.0110626,-9.97986,0.0349426,-0.0220108,0.0554657,-0.102272,-0.0682831,0.0133133,-0.0494003,0.0251389
39,6,10.0097,0.000305176,0.00335693,-2.42867,0.0544603,-0.0771993,0.0513814,0.0685289,-0.0968086,0.142267,-0.127292,-0.0850118,0.00492096,-0.0422668,-0.0038147,-0.00160217,-0.0118256,-0.110283,0.08461,0.00640869,-9.97986,0.0523758,-0.0152206,0.055809,-0.057869,-0.0596619,0.0135422,-0.0481415,0.0239944
39,7,10.0097,0.000305176,0.00396729,-2.42714,0.0535448,-0.075063,0.0532125,0.0688341,-0.0961982,0.144708,-0.126377,-0.0844015,0.00312805,-0.069046,-0.0185394,0.0243759,-0.0175095,-0.11013,0.0787735,0.0128174,-9.97986,0.0572205,-0.0139999,0.0494385,-0.0151062,-0.0543213,0.00537872,-0.0487137,0.0260162
39,8,10.0097,0.00244141,0.00427246,-2.42714,0.0553758,-0.0753682,0.0535176,0.0694445,-0.0931465,0.146234,-0.126072,-0.0837911,0.00484467,-0.056572,-0.0152588,0.0153732,-0.0115967,-0.108604,0.0743866,0.0170898,-9.97986,0.0417328,-0.0101471,0.0546646,0.0266647,-0.0476074,0.00602722,-0.0495148,0.0222397
39,9,10.0097,0.0012207,0.00350952,-2.42653,0.050493,-0.0738423,0.0532125,0.0694445,-0.0931465,0.145929,-0.125766,-0.0837911,0.00522614,-0.0147247,-0.0110245,0.0157547,-0.0133514,-0.103645,0.0738525,0.0225067,-9.97986,0.0267029,-0.0124359,0.0534439,0.0592804,-0.0432205,0.00900269,-0.055275,0.0197983
40,0,10.0097,0.00244141,0.00320435,-2.42653,0.0553758,-0.0741475,0.0556539,0.0691393,-0.0931465,0.146234,-0.126682,-0.0831808,0.00564575,0.00835419,-0.00141144,0.0117874,-0.0110626,-0.0984955,0.0728989,0.0315475,-9.97986,0.0172424,-0.0154114,0.0498199,0.0788116,-0.0370407,0.00404358,-0.0529861,0.0163269
40,1,10.0097,-0.0012207,0.00335693,-2.42623,0.0572069,-0.0741475,0.0547383,0.0700548,-0.0916206,0.145318,-0.124241,-0.0819601,0.00366211,-0.00164032,-0.00377655,0.0101852,-0.00236511,-0.0959396,0.0670242,0.0294113,-9.97986,0.00717163,-0.0137329,0.0522995,0.104561,-0.0246429,0.00179291,-0.051651,0.013504
40,2,10.0097,0.00183105,0.0038147,-2.4247,0.0559862,-0.0735371,0.0547383,0.0706652,-0.0916206,0.145929,-0.123935,-0.0804342,0.00175476,-0.000534058,-0.00270844,0.0150299,-0.0050354,-0.0849915,0.065155,0.0325775,-9.97986,-7.62939e-005,-0.0087738,0.0509644,0.146255,-0.027771,-0.000305176,-0.0478745,0.0112915
40,3,10.0097,0.0012207,0.00396729,-2.42531,0.0562914,-0.0738423,0.0538228,0.0709703,-0.090705,0.146844,-0.124546,-0.0795187,0.00934601,0.00228882,0.00968933,0.0260925,-0.00038147,-0.0864792,0.0691605,0.0343323,-9.97986,-0.00957489,-0.0119781,0.0489044,0.172653,-0.0229645,0.000648499,-0.0494385,0.0104141
40,4,10.0097,0.000610352,0.00350952,-2.42531,0.0578172,-0.0738423,0.0550435,0.0709703,-0.0913154,0.146539,-0.124241,-0.0804342,0.00404358,0.00907898,0.0243378,0.0234985,0.000572205,-0.0747681,0.0655365,0.0257111,-9.97986,-0.00854492,-0.00999451,0.0465393,0.209846,-0.0169754,0.00930786,-0.0508118,0.00541687
40,5,10.0097,0.000915527,0.00457764,-2.4244,0.0578172,-0.0741475,0.0553487,0.0709703,-0.0910102,0.14776,-0.125156,-0.0795187,0.00370026,0.0209427,0.0315475,0.0166702,0.00404358,-0.0661469,0.0630569,0.0216293,-9.97986,-0.00331879,-0.0101852,0.0509262,0.252419,-0.00762939,0.00507355,-0.0493622,0.00267029
40,6,10.0097,0,0.00366211,-2.42623,0.0559862,-0.0747579,0.0535176,0.0572374,-0.0943672,0.145624,-0.125461,-0.0804342,0.0104904,0.014534,0.0323868,0.00900269,0.00537872,-0.0613403,0.0604248,0.0120926,-9.97986,-0.000610352,-0.0201035,0.0507736,0.280113,-0.00411987,0.00358582,-0.0476456,-0.00175476
