
Devices
1200
,,BP Load cell - Voltage,String Length - Voltage,Clutch Active - Voltage,#7 iPecs - Voltage,,,,,,,,,EMG 1-8 Left - Voltage,,,,,,,,Pylon Force - Voltage,EMG 9-16 Right - Voltage,,,,,,,,
Frame,Sub Frame,BP Load Cell,String Length,From Arduino Logic,A45,A135,A225,A315,S0,S90,S180,S270,ZSum,EMG 1 Glut Max,EMG 2 Glut Med,EMG 3 Biceps Femoris Long,EMG 4 Rectus Femoris,EMG 5 Vastus Medialis,EMG 6 Tib Ant,EMG 7 Med Gas,EMG 8 Soleus,Pylon volts,EMG 9 Glut Max,EMG 10 Glut Med,EMG 11 Biceps Femoris Long,EMG 12 Rectus Femoris,EMG 13 Vastus Medialis,EMG 14 Tib Ant,EMG 15 Med Gas,EMG 16 Soleus
,,V,V,V,V,V,V,V,V,V,V,V,V,V,V,V,V,V,V,V,V,V,V,V,V,V,V,V,V,V
1,0,10.0097,0.000915527,-0.000152588,-2.42562,0.0572069,-0.0729268,0.0553487,0.0712755,-0.0916206,0.147455,-0.124241,-0.0813497,0.0104523,0.0376892,0.0336075,-0.0218582,0.0196075,0.0162125,0.00728607,0.0218582,-9.97986,0.00362396,0.00152588,0.0183105,0.00293732,0.0179672,-0.00812531,0.0148773,0.00736237
1,1,10.0097,-0.000610352,-0.000610352,-2.4247,0.0562914,-0.0747579,0.054128,0.0758531,-0.090705,0.145929,-0.123935,-0.0813497,0.0139236,0.034523,0.0297165,-0.0376129,0.0181961,0.0131989,0.00640869,0.019989,-9.97986,0.0088501,0.00102997,0.0153732,0.000419617,0.0168228,-0.0123215,0.0146866,0.0062561
1,2,10.0097,-0.000305176,0,-2.4244,0.0565965,-0.0741475,0.0553487,0.07036,-0.0903999,0.146844,-0.12363,-0.080129,0.00946045,0.0349045,0.0262833,-0.0534821,0.0188446,0.0167847,0.00663757,0.0225067,-9.97986,0.0123978,-0.00637054,0.0107193,0.00087738,0.0166702,-0.0126266,0.014534,0.00453949
1,3,10.0097,0.000915527,0.000152588,-2.42653,0.0562914,-0.0744527,0.054128,0.054796,-0.0943672,0.146539,-0.126377,-0.0819601,0.0114822,0.0391006,0.0270844,-0.0690842,0.017128,0.018692,0.00614166,0.0224304,-9.97986,0.00495911,-0.00347137,0.0120544,0.00267029,0.016861,-0.0125504,0.015564,0.0063324
1,4,9.72981,0.000610352,-0.00167847,-2.4244,0.0562914,-0.0747579,0.0538228,0.04442,-0.0937568,0.146234,-0.126377,-0.0825704,0.0127029,0.0365448,0.0291061,-0.0804901,0.0166321,0.0119019,0.00423431,0.0233078,-9.97986,0.00400543,-0.000305176,0.0104141,0.00537872,0.0196457,-0.0110626,0.0164413,0.00679016
1,5,8.10842,0.00152588,-0.000762939,-2.42531,0.0562914,-0.0729268,0.0553487,0.0520494,-0.0916206,0.147149,-0.125766,-0.0816549,0.014534,0.0350571,0.0324631,-0.0748062,0.0168991,0.016861,0.00617981,0.0283432,-9.97986,0.00717163,0,0.00896454,0.00469208,0.0205231,-0.0056839,0.0141907,0.00694275
1,6,7.65615,0.0012207,0,-2.42684,0.0559862,-0.0738423,0.0544332,0.0612047,-0.0928413,0.145624,-0.125766,-0.0819601,0.0144958,0.0228119,0.0341034,-0.064888,0.0167465,0.0189972,0.0137711,0.0262451,-9.97986,0.00629425,-0.00278473,0.0088501,0.00518799,0.022316,-0.00804901,0.0178528,0.00637054
1,7,7.78493,0,0.000152588,-2.42592,0.0550706,-0.0744527,0.054128,0.0660875,-0.0928413,0.145318,-0.125461,-0.0825704,0.0126648,0.0100327,0.0364685,-0.0658798,0.0169754,0.0140381,0.0143814,0.0201416,-9.97986,0.00514984,-0.000953674,0.00732422,0.00511169,0.0172806,-0.00694275,0.0146484,0.00465393
1,8,9.01357,0,0.00106812,-2.42653,0.0547655,-0.0759786,0.0553487,0.0847032,-0.0919257,0.14776,-0.124851,-0.0831808,0.0107574,0.0285721,0.0442886,-0.0579453,0.0178909,0.0101852,0.0179291,0.0126266,-9.97986,0.0110626,-0.00202179,0.00968933,0.00411987,0.0205612,-0.0062561,0.0167847,0.00488281
1,9,10.0097,0.000305176,0.00152588,-2.42745,0.0541551,-0.0768941,0.0532125,0.101793,-0.0913154,0.143182,-0.124851,-0.0859274,0.00953674,0.0392914,0.0426865,-0.0448608,0.0191116,0.0107574,0.0197983,0.0126266,-9.97986,0.0120544,0.00240326,0.0110626,0.00854492,0.0187683,-0.0115204,0.0178528,0.00602722
2,0,10.0097,-0.000915527,0.000762939,-2.42928,0.0523241,-0.0762837,0.0522969,0.0792101,-0.0949775,0.144098,-0.126072,-0.0877584,0.0109863,0.0382614,0.0438309,-0.0270844,0.022316,0.0121307,0.0196838,0.00953674,-9.97986,0.00957489,-0.00350952,0.0135422,0.00873566,0.0159073,-0.00946045,0.0141144,0.00556946
2,1,10.0097,0.000610352,-0.000610352,-2.42867,0.0538499,-0.0759786,0.0516866,0.0740221,-0.0955879,0.144403,-0.126987,-0.0865377,0.00980377,0.0396729,0.0483322,0.0150681,0.0170135,0.0119781,0.0159073,0.000953674,-9.97986,0.0140762,-0.00267029,0.00846863,0.00583649,0.018959,-0.00976563,0.0186157,0.00495911
2,2,10.0097,0.000610352,-0.000457764,-2.42959,0.0535448,-0.0762837,0.0526021,0.0715807,-0.0946723,0.142267,-0.127292,-0.0880636,0.0114059,0.0371933,0.0474167,0.0821686,0.0209808,0.00911713,0.0219345,0.000991821,-9.97986,0.0146484,-0.00278473,0.0103378,0.00339508,0.0177002,-0.010376,0.0149155,0.00476837
2,3,10.0097,-0.00183105,-0.000457764,-2.42959,0.0547655,-0.075063,0.0522969,0.0706652,-0.0949775,0.143182,-0.126682,-0.0865377,0.0119019,0.0296021,0.040741,0.0942993,0.019722,0.00938416,0.0148392,0.0134277,-9.97986,0.0151825,-0.00118256,0.0147247,0.00740051,0.0157166,-0.010376,0.0137329,0.00362396
2,4,10.0097,-0.000305176,-0.000305176,-2.42837,0.0535448,-0.0759786,0.0516866,0.0685289,-0.0946723,0.142267,-0.126987,-0.0865377,0.0138092,0.0346375,0.0347519,0.065918,0.0183487,0.00537872,0.0179291,0.0283432,-9.97986,0.0177383,0.00328064,0.0128174,0.00740051,0.0172424,-0.00549316,0.0164413,0.000686646
2,5,10.0097,0.0012207,-0.000915527,-2.42745,0.0529344,-0.0744527,0.0529073,0.0691393,-0.0946723,0.143487,-0.126682,-0.0850118,0.0149536,0.0154877,0.0376892,0.08461,0.0134659,0.00465393,0.0129318,0.0547409,-9.97986,0.0236893,-0.00141144,0.012207,0.00339508,0.016098,-0.00564575,0.013504,0.00442505
2,6,10.0097,0.00152588,0.000152588,-2.42806,0.0547655,-0.0756734,0.0544332,0.0666979,-0.0949775,0.144708,-0.125461,-0.0850118,0.00778198,-3.8147e-005,0.0410843,0.111885,0.015831,0.00366211,0.0106049,0.062027,-9.97986,0.0196457,0.00141144,0.0138855,0.00915527,0.0157928,0.00453949,0.0170135,0.00404358
2,7,10.0097,0.000915527,0.000457764,-2.42714,0.0547655,-0.0744527,0.0544332,0.0694445,-0.0931465,0.143487,-0.125461,-0.0840963,0.00652313,0.0113678,0.0514603,0.0987244,0.0188065,0.000534058,0.0114822,0.0863266,-9.97986,0.0213242,-0.000953674,0.0134659,0.00480652,0.0173569,0.00408173,0.0166702,0.00343323
2,8,10.0097,0.000610352,0.000152588,-2.42592,0.0550706,-0.0735371,0.0544332,0.0706652,-0.0919257,0.146234,-0.124851,-0.0828756,0.00148773,0.00617981,0.0421906,0.0865936,0.0175858,0.00389099,0.0140762,0.08461,-9.97986,0.0271606,-0.000495911,0.01297,0.00205994,0.016861,0.00598907,0.0137711,0.00278473
2,9,10.0097,-0.0012207,0.000152588,-2.4244,0.0553758,-0.0741475,0.0547383,0.07036,-0.0916206,0.14776,-0.124241,-0.0804342,0.00202179,0.0130844,0.0382614,0.0701523,0.0161362,0.00202179,0.013504,0.0568008,-9.97986,0.0273895,-0.00156403,0.0175858,0.00312805,0.018692,0.00240326,0.0128555,0.00278473
3,0,10.0097,-0.000610352,0.000457764,-2.4244,0.0559862,-0.0738423,0.0556539,0.072191,-0.0922309,0.146539,-0.123325,-0.0816549,0.0030899,0.0136566,0.0220871,0.0709534,0.0151062,0.00766754,0.0118256,0.0372314,-9.97986,0.0261307,-0.00225067,0.0166702,0.00415802,0.0180817,-0.00198364,0.0125504,0.00469208
3,1,10.0097,0,-0.000762939,-2.42501,0.0565965,-0.0726216,0.0562642,0.072191,-0.0922309,0.146234,-0.12363,-0.0810445,0.00854492,0.0137329,-0.00221252,0.0831604,0.0157166,0.00583649,0.00976563,0.0246811,-9.97986,0.0247192,-0.00579834,0.018692,0.00297546,0.0201797,-0.00431061,0.0137711,0.00598907
3,2,10.0097,-0.000915527,0.000457764,-2.42501,0.0559862,-0.069875,0.0556539,0.072191,-0.0913154,0.146234,-0.124851,-0.0798238,0.0155258,0.0124741,-0.0236511,0.0720215,0.0182724,0.00621796,0.0135422,0.0240707,-9.97986,0.0224304,0.0012207,0.0196838,0.00286102,0.0208664,-0.0134659,0.0120163,0.00644684
3,3,10.0097,0,0.000152588,-2.4247,0.0559862,-0.0735371,0.0538228,0.0551012,-0.0955879,0.147455,-0.125766,-0.0819601,0.0128937,0.012207,-0.0312042,0.0676346,0.0138474,0.00427246,0.0108719,0.0418854,-9.97986,0.0229263,0.00549316,0.017662,0.00282288,0.0171661,-0.0173569,0.0140381,0.0056839
3,4,9.74172,-0.0012207,-0.000457764,-2.42531,0.0559862,-0.0744527,0.0532125,0.0431993,-0.0943672,0.146234,-0.126682,-0.0825704,0.011673,0.0170898,-0.0397491,0.0655365,0.00896454,0.00484467,0.0190735,0.018692,-9.97986,0.0257111,0.00450134,0.0151443,0.00732422,0.0177765,-0.0174713,0.0168228,0.00705719
3,5,8.15145,0.00152588,-0.00106812,-2.42562,0.055681,-0.075063,0.0547383,0.0505236,-0.0931465,0.146234,-0.126377,-0.0816549,0.00831604,0.019455,-0.0350189,0.0550079,0.0128174,0.00526428,0.0128937,-0.0366592,-9.97986,0.0252151,0.015831,0.0172806,0.00766754,0.0209808,-0.0182724,0.0129318,0.0038147
3,6,7.683,0.000915527,-0.000152588,-2.42684,0.0559862,-0.0729268,0.0550435,0.0621202,-0.0925361,0.140436,-0.126072,-0.0825704,0.00450134,0.0146484,-0.0385666,0.0515747,0.00865936,0.00465393,0.0214386,-0.0702667,-9.97986,0.0224304,0.0170517,0.0166321,0.0037384,0.0157547,-0.015564,0.0149155,0.00312805
3,7,7.77608,0.00183105,0.00137329,-2.4244,0.0553758,-0.0759786,0.0544332,0.0679186,-0.0916206,0.145929,-0.125461,-0.0828756,0.00480652,0.01194,-0.0274658,0.0471878,0.016861,0.00457764,0.0191879,-0.0657654,-9.97986,0.0199127,0.00137329,0.0181961,0.00442505,0.0130463,-0.0161362,0.0140762,0.00156403
3,8,8.96413,-0.0012207,0.00152588,-2.42684,0.055681,-0.0744527,0.0547383,0.0828722,-0.0913154,0.145318,-0.125156,-0.0837911,0.00663757,0.00801086,-0.016098,0.0455475,0.018425,0.0107574,0.0160599,-0.0484467,-9.97986,0.0203705,-0.00289917,0.017395,0.00202179,0.0205231,-0.0119019,0.0136948,0.00740051
3,9,10.0097,0,0.00198364,-2.42898,0.0538499,-0.0762837,0.0538228,0.102709,-0.090705,0.14776,-0.124851,-0.0850118,0.0088501,0.0107574,-0.013504,0.0397873,0.0172043,0.0121689,0.0214767,-0.0296783,-9.97986,0.0209045,-0.00255585,0.0194931,0.00213623,0.0135803,-0.0094223,0.0173187,0.00671387
4,0,10.0097,0.0012207,0.00167847,-2.42959,0.0535448,-0.075063,0.050771,0.0798204,-0.0946723,0.143487,-0.126987,-0.0862325,0.00904083,0.00816345,-0.00938416,0.0356293,0.0122452,0.0105286,0.0179672,-0.0122833,-9.97986,0.0148773,0.00881195,0.0194168,-0.000152588,0.0154495,-0.0082016,0.00953674,0.0043869
4,1,10.0097,0.000610352,0.000305176,-2.42928,0.0532396,-0.0814717,0.0516866,0.0731066,-0.0968086,0.144098,-0.126682,-0.0871481,0.00865936,0.0146866,-0.00732422,0.0314331,0.0138855,0.0130081,0.018425,-0.00419617,-9.97986,0.0130081,0.0230026,0.019455,0.00335693,0.0182343,-0.00507355,0.0138855,0.00484467
4,2,10.0097,0,-0.000152588,-2.42837,0.0535448,-0.0768941,0.0519917,0.0697496,-0.0955879,0.136468,-0.127598,-0.0877584,0.00617981,0.0143433,-0.00106812,0.0305557,0.016098,0.0151443,0.0231934,0.00190735,-9.97986,0.0164413,0.0453949,0.0209427,0.000305176,0.0145721,-0.00408173,0.0150299,0.00347137
4,3,10.0097,-0.00183105,0.000457764,-2.42928,0.0544603,-0.0759786,0.0510762,0.0694445,-0.0937568,0.143792,-0.126377,-0.0877584,0.00507355,0.0133514,-0.0030899,0.0287247,0.0147247,0.0101471,0.0186539,-0.00923157,-9.97986,0.0131607,0.0324631,0.0165939,-0.00209808,0.0157547,-0.00564575,0.0130463,0.00259399
4,4,10.0097,0.00183105,-0.000152588,-2.42837,0.0541551,-0.0771993,0.0529073,0.0700548,-0.0952827,0.144098,-0.127903,-0.085317,0.00217438,0.0109482,0.00110626,0.0238419,0.0137711,0.0148392,0.0173187,-0.00270844,-9.97986,0.019455,0.0105667,0.0173569,-0.0031662,0.014534,-0.00419617,0.0172806,0.00347137
4,5,10.0097,-0.0012207,-0.000457764,-2.42898,0.0535448,-0.0759786,0.0526021,0.0682238,-0.0937568,0.141351,-0.125766,-0.0856222,-0.00102997,0.0120544,0.00263214,0.0136566,0.0201035,0.0104523,0.0156784,0.0012207,-9.97986,0.0131989,0.0240326,0.0146103,-0.000801086,0.0117493,-0.00778198,0.0151825,0.00236511
4,6,10.0097,0.000610352,0.000305176,-2.42745,0.0544603,-0.0744527,0.0535176,0.07036,-0.0931465,0.145624,-0.125766,-0.0850118,0.00270844,0.0128174,0.00038147,-0.00205994,0.0137711,0.0120163,0.0211716,-0.0112915,-9.97986,0.0117874,0.0159836,0.0121307,0.00183105,0.0122452,-0.00801086,0.0175095,0.0087738
4,7,10.0097,0.000915527,0.000610352,-2.42623,0.0559862,-0.073232,0.0535176,0.0694445,-0.0922309,0.145318,-0.126072,-0.0837911,0.00534058,0.0131989,0.00984192,-0.0094223,0.0120926,0.00858307,0.0233841,-0.00671387,-9.97986,0.013504,0.00232697,0.0139236,0.00293732,0.0136948,-0.00835419,0.0161362,0.00595093
4,8,10.0097,0.000915527,0.000457764,-2.42501,0.0562914,-0.0744527,0.0544332,0.0712755,-0.0928413,0.14776,-0.125156,-0.0844015,0.0161743,0.0103378,0.0114441,-0.00785828,0.0130081,0.0101852,0.0215149,0.0225067,-9.97986,0.0138855,0.0115204,0.0144577,0.00793457,0.0174332,-0.00457764,0.0212097,0.00461578
4,9,10.0097,0.000610352,0.000457764,-2.42531,0.0565965,-0.0738423,0.0553487,0.0709703,-0.0925361,0.147149,-0.124851,-0.0813497,0.0198364,0.0139236,0.0172806,-0.0245667,0.0130463,0.00946045,0.0281525,0.0312805,-9.97986,0.0108337,0.0125885,0.0134659,0.0106812,0.0128937,-0.00984192,0.0168991,0.00511169
5,0,10.0097,-0.000915527,0.000610352,-2.4247,0.0569017,-0.0771993,0.054128,0.0709703,-0.0919257,0.145318,-0.123325,-0.0810445,0.018959,0.0115967,0.0270844,-0.0317764,0.00930786,0.0165558,0.0303268,0.0150299,-9.97986,0.00888824,-0.00259399,0.0110626,0.00614166,0.0138474,-0.0167465,0.0181961,0.00778198
5,1,10.0097,0.00152588,0.000152588,-2.42562,0.0553758,-0.0741475,0.0544332,0.0700548,-0.0922309,0.151422,-0.124851,-0.0813497,0.0120926,0.019722,0.0259781,-0.0338745,0.0137711,0.0102615,0.0289536,-0.00106812,-9.97986,0.0111771,-0.0132751,0.0123978,0.00957489,0.0152969,-0.0146484,0.0185013,0.0044632
5,2,10.0097,0.000610352,-0.000305176,-2.42501,0.0569017,-0.0738423,0.0556539,0.0706652,-0.0919257,0.146844,-0.123325,-0.0798238,0.0130081,0.0221634,0.0355911,-0.0410843,0.0129318,0.00701904,0.0241852,0.000190735,-9.97986,0.0110626,-0.0182343,0.0158691,0.00751495,0.0128937,-0.0152206,0.0142288,0.00797272
5,3,10.0097,0.000610352,-0.000457764,-2.42623,0.0553758,-0.0686543,0.054128,0.0535753,-0.0937568,0.145929,-0.125766,-0.0822652,0.00995636,0.0190735,0.0363922,-0.0544357,0.01091,0.00789642,0.02388,0.00148773,-9.97986,0.00968933,-0.0117111,0.0190353,0.00774384,0.016098,-0.0146866,0.0183105,0.00545502
5,4,9.60713,0,-0.00167847,-2.42623,0.0572069,-0.0720113,0.054128,0.042589,-0.094062,0.144098,-0.125461,-0.0819601,0.0135803,0.01194,0.0421906,-0.0766754,0.0122833,0.00980377,0.0244141,0.0120926,-9.97986,0.00511169,-0.0118637,0.015831,0.0030899,0.0124359,-0.00881195,0.0188065,0.00400543
5,5,7.9836,0.00152588,-0.000762939,-2.42531,0.0569017,-0.0747579,0.0550435,0.0505236,-0.0931465,0.145318,-0.125156,-0.0822652,0.0153732,0.00205994,0.0423813,-0.0865555,0.0149155,0.00854492,0.0250626,0.00911713,-9.97986,0.00656128,-0.00846863,0.0200653,0.000267029,0.0175858,-0.0038147,0.0167847,0.0062561
5,6,7.50417,0.000610352,-0.000305176,-2.42653,0.0547655,-0.080251,0.0538228,0.0605944,-0.0897895,0.145318,-0.126072,-0.0816549,0.0104904,0.000686646,0.0481033,-0.114021,0.0172424,0.00873566,0.0253677,0.00701904,-9.97986,0.0101089,-0.0113678,0.0177383,0.00576019,0.0154495,0.00385284,0.0188828,0.00644684
5,7,7.64546,0.000915527,0,-2.42592,0.055681,-0.0744527,0.0538228,0.0688341,-0.0916206,0.142572,-0.126377,-0.0834859,0.0135803,0.0137329,0.046463,-0.100594,0.0114822,0.00511169,0.0202942,0.00907898,-9.97986,0.00854492,0.00499725,0.0199127,-0.00335693,0.0131226,0.00270844,0.0213242,0.00350952
5,8,8.87136,0.00183105,-0.000457764,-2.42776,0.0541551,-0.0747579,0.0544332,0.0840929,-0.0897895,0.145318,-0.125766,-0.0831808,0.0103378,0.0226593,0.0471115,-0.0359344,0.0132751,0.00965118,0.0152588,0.0132751,-9.97986,0.00915527,0.0110245,0.0161362,-0.0108719,0.0148392,0.00530243,0.0175476,0.0043869
5,9,10.0097,0,0.00137329,-2.42928,0.0532396,-0.0796407,0.0544332,0.101488,-0.0919257,0.144403,-0.124851,-0.085317,0.0123215,0.0289536,0.0471497,0.0139236,0.0164413,0.00980377,0.0217056,0.00659943,-9.97986,0.0115204,-0.0144958,0.0211334,-0.0088501,0.0163269,0.00190735,0.0155258,0.00602722
6,0,10.0097,0.00213623,0,-2.42837,0.0532396,-0.0756734,0.0522969,0.0798204,-0.0952827,0.145318,-0.125156,-0.0862325,0.0126648,0.0444794,0.0507355,0.0291824,0.0178146,0.00637054,0.0146484,0.0149155,-9.97986,0.0115967,-0.0259399,0.0173569,-0.0112915,0.0144196,0.00991821,0.0178146,0.0025177
6,1,10.0097,0.000915527,-0.000610352,-2.42806,0.0550706,-0.0771993,0.0522969,0.0743273,-0.0955879,0.145318,-0.127292,-0.0871481,0.0101852,0.0531006,0.0463104,0.0360107,0.0167465,0.0102997,0.0143433,0.0101852,-9.97986,0.0147629,-0.0144577,0.021553,-0.0112534,0.0173187,0.0100708,0.018692,0.00728607
6,2,10.0097,0,-0.000610352,-2.42806,0.0532396,-0.0729268,0.0532125,0.0709703,-0.0952827,0.144098,-0.127292,-0.0877584,0.0104141,0.0589371,0.0377274,0.0631714,0.0175095,0.00999451,0.0109482,0.0174713,-9.97986,0.0151443,-0.0149155,0.0206757,-0.0173569,0.0144577,-0.000839233,0.0191116,0.00358582
6,3,10.0097,-0.00152588,0.000152588,-2.42837,0.0538499,-0.0759786,0.0513814,0.0691393,-0.094062,0.142267,-0.126682,-0.0871481,0.0106049,0.0489807,0.0226593,0.0952148,0.020752,0.0148392,0.0128174,0.0279999,-9.97986,0.0202179,-0.0140381,0.0194931,-0.0146866,0.0123215,-0.00038147,0.0204086,0.00694275
6,4,10.0097,0.00244141,-0.000610352,-2.42837,0.0538499,-0.0753682,0.0526021,0.0697496,-0.0946723,0.143487,-0.127598,-0.0865377,0.00862122,0.0253296,0.0106812,0.0891495,0.0154114,0.00957489,0.0137329,0.0263214,-9.97986,0.0203323,-0.00469208,0.0159454,-0.0124741,0.0161362,-0.0019455,0.0205612,0.00717163
6,5,10.0097,0.000610352,0,-2.42684,0.0532396,-0.075063,0.0535176,0.0691393,-0.094062,0.145318,-0.126987,-0.0859274,0.0106049,0.0213242,0.0117111,0.0640869,0.0146103,0.0104523,0.0146484,0.0300598,-9.97986,0.0247955,0.00507355,0.0194931,-0.0149918,0.0190735,-0.00160217,0.0196838,0.00904083
6,6,10.0097,0.00152588,0.000457764,-2.42623,0.0553758,-0.0747579,0.0526021,0.0694445,-0.0925361,0.143792,-0.126682,-0.0850118,0.00907898,0.0256348,0.00667572,0.0589752,0.0146103,0.00759125,0.0146103,0.0251007,-9.97986,0.0221252,0.00873566,0.0223923,-0.0121689,0.0174713,0.00564575,0.0207901,0.00854492
6,7,10.0097,0.000610352,0.000762939,-2.42806,0.0559862,-0.0747579,0.0529073,0.0700548,-0.0931465,0.145318,-0.126072,-0.0844015,0.00766754,0.0308228,0.00160217,0.0643921,0.0146484,0.0122833,0.0209045,0.0216675,-9.97986,0.0243378,0.00751495,0.0196838,-0.0129318,0.0119019,0.00873566,0.0215912,0.00686646
6,8,10.0097,-0.000610352,-0.000457764,-2.42501,0.0544603,-0.0768941,0.0535176,0.0700548,-0.0925361,0.145318,-0.125156,-0.0828756,0.0120926,0.0278091,0.00324249,0.0630569,0.0176239,0.00732422,0.0160599,0.0209808,-9.97986,0.0244522,0.00442505,0.0169754,-0.0135803,0.014801,0.0025177,0.0231552,0.00812531
6,9,10.0097,0.000610352,0.000152588,-2.42562,0.0559862,-0.0744527,0.054128,0.07036,-0.0916206,0.145318,-0.124851,-0.0825704,0.0100708,0.0247574,-0.00553131,0.0623703,0.021286,0.00682831,0.0193024,0.0252151,-9.97986,0.019722,0.00766754,0.016861,-0.0184631,0.0139236,0.00205994,0.0253677,0.00759125
7,0,10.0097,-0.000915527,0.000305176,-2.42562,0.0559862,-0.0741475,0.0538228,0.0700548,-0.0919257,0.147149,-0.124546,-0.0813497,0.00869751,0.0234985,-0.00511169,0.0553513,0.016861,0.00843048,0.0195313,0.025177,-9.97986,0.0245285,0.00549316,0.0140381,-0.0206757,0.0172806,-0.00167847,0.0228882,0.00762939
7,1,10.0097,-0.000305176,-0.000305176,-2.42501,0.0559862,-0.0744527,0.0550435,0.07036,-0.0919257,0.145624,-0.124546,-0.0804342,0.0114441,0.0176239,-0.00587463,0.0440598,0.0158691,0.00873566,0.014801,0.0259399,-9.97986,0.022049,0.00183105,0.0125504,-0.0242233,0.0158691,-0.00434875,0.0249863,0.00774384
7,2,10.0097,0.0012207,-0.000152588,-2.42501,0.0578172,-0.0738423,0.0544332,0.0712755,-0.0928413,0.144708,-0.123325,-0.080129,0.00789642,0.0204086,0.000686646,0.0353241,0.0137329,0.00694275,0.02285,0.0249481,-9.97986,0.0209045,-0.00205994,0.0134277,-0.0225067,0.0181198,-0.00228882,0.0278091,0.00469208
7,3,10.0097,0.000305176,0.000762939,-2.42562,0.0538499,-0.0744527,0.0538228,0.0541857,-0.0949775,0.145929,-0.126072,-0.0816549,0.00679016,0.0203705,-0.0056076,0.0320053,0.0165176,0.00965118,0.0222778,0.0261688,-9.97986,0.0196838,0.000801086,0.0112152,-0.0240326,0.016098,-0.00179291,0.0260162,0.00675201
7,4,9.75759,0.000610352,-0.00183105,-2.42562,0.0575121,-0.0692647,0.0532125,0.0431993,-0.0925361,0.145624,-0.126377,-0.0819601,0.00644684,0.0177383,-0.000953674,0.0279236,0.0144196,0.00648499,0.0180435,0.0273132,-9.97986,0.0178909,0.00339508,0.0117874,-0.0191879,0.0181198,-0.00350952,0.0274658,0.00423431
7,5,8.13954,0.000305176,-0.000610352,-2.42623,0.0544603,-0.0738423,0.0544332,0.0508287,-0.0931465,0.146234,-0.126377,-0.0822652,0.0108719,0.0202179,-0.00301361,0.0254059,0.0194931,0.00862122,0.021019,0.0282288,-9.97986,0.0186157,0.000762939,0.0130844,-0.0144958,0.0157166,-0.00171661,0.0286484,0.00492096
7,6,7.71016,0.000305176,0,-2.42684,0.0553758,-0.0744527,0.054128,0.0630358,-0.0910102,0.146234,-0.125766,-0.0816549,0.00774384,0.0181961,0.00347137,0.0210571,0.0218582,0.00511169,0.019455,0.0289154,-9.97986,0.0200272,0,0.0107574,-0.0157166,0.0188065,-0.00431061,0.0284958,0.00743866
7,7,7.88259,-0.000305176,0.000762939,-2.42714,0.0547655,-0.0744527,0.0529073,0.0691393,-0.0928413,0.143487,-0.125156,-0.0825704,0.00923157,0.0212479,0.00320435,0.019989,0.0162506,0.00782013,0.0248337,0.0270462,-9.97986,0.015831,0.00263214,0.0127411,-0.00576019,0.0175858,-0.00862122,0.0322723,0.00961304
7,8,9.14632,0.00183105,0.000762939,-2.42562,0.0559862,-0.0753682,0.0535176,0.0840929,-0.0928413,0.145318,-0.125156,-0.0834859,0.0109863,0.0207901,0.00526428,0.012207,0.0155258,0.0082016,0.0232315,0.0315094,-9.97986,0.0196838,0.00282288,0.0101852,-0.00602722,0.0131989,-0.0183487,0.0295639,0.00457764
7,9,10.0097,-0.000305176,0.00305176,-2.42898,0.0523241,-0.0762837,0.0532125,0.100267,-0.0925361,0.143792,-0.125156,-0.0850118,0.011673,0.0183868,0.0012207,0.010643,0.0188065,0.00831604,0.018692,0.0326157,-9.97986,0.0204468,0.00526428,0.0121307,0.00114441,0.0159836,-0.0192261,0.0300217,0.00778198
8,0,10.0097,0.000915527,0.00167847,-2.42959,0.0538499,-0.075063,0.0513814,0.0804308,-0.0955879,0.144708,-0.126072,-0.0868429,0.0111771,0.0167084,0.00667572,0.00530243,0.0156784,0.0102997,0.02285,0.0330353,-9.97986,0.0185776,0.000343323,0.0137329,0.00656128,0.0167847,-0.0263596,0.0276947,0.00862122
8,1,10.0097,0.000305176,0.000305176,-2.42867,0.0532396,-0.0771993,0.0526021,0.0724962,-0.0955879,0.142572,-0.126987,-0.0859274,0.0114822,0.0201797,0.0112152,-0.00770569,0.0146484,0.00873566,0.0214005,0.0325394,-9.97986,0.0153732,0.00198364,0.0114441,0.00900269,0.0160217,-0.0305939,0.0277328,0.0063324
8,2,10.0097,0.000305176,0.000305176,-2.42867,0.0544603,-0.0768941,0.0513814,0.0709703,-0.0955879,0.142877,-0.127598,-0.0874532,0.00968933,0.0234985,0.00934601,-0.0162125,0.0185394,0.00984192,0.0178528,0.0328445,-9.97986,0.0106049,0.00125885,0.00701904,0.0146103,0.014801,-0.0263596,0.0292969,0.00499725
8,3,10.0097,-0.00213623,0,-2.42959,0.0547655,-0.0741475,0.0519917,0.0688341,-0.0943672,0.143792,-0.127598,-0.0880636,0.0119781,0.0195313,0.0108719,-0.0222778,0.0163269,0.0131226,0.0202179,0.0336838,-9.97986,0.0128937,-0.000267029,0.00873566,0.0177383,0.0120544,-0.0240326,0.0271225,0.00713348
8,4,10.0097,0.0012207,-0.000610352,-2.42898,0.0541551,-0.0753682,0.0526021,0.0688341,-0.0949775,0.146234,-0.127292,-0.0868429,0.0157547,0.0195694,0.0165176,-0.0233078,0.0147629,0.0100327,0.0158691,0.031929,-9.97986,0.00961304,-0.000495911,0.00972748,0.0125885,0.0175095,-0.0160217,0.0295639,0.00553131
8,5,10.0097,0.000610352,0,-2.42837,0.0547655,-0.0753682,0.0522969,0.0691393,-0.0931465,0.144098,-0.126987,-0.0850118,0.013504,0.0168991,0.0144958,-0.0405121,0.0123215,0.0104523,0.0142288,0.031662,-9.97986,0.00881195,0.000419617,0.0114822,0.0141525,0.016861,-0.00732422,0.0331116,0.00431061
8,6,10.0097,0.000610352,0.000305176,-2.42714,0.0544603,-0.0744527,0.0538228,0.0688341,-0.0955879,0.144708,-0.125156,-0.0844015,0.0146484,0.0153351,0.0159073,-0.0553894,0.0146866,0.0110245,0.014267,0.0307083,-9.97986,0.013504,-0.00244141,0.00968933,0.00995636,0.0129318,0.00171661,0.0330353,0.00427246
8,7,10.0097,0.000915527,0,-2.42653,0.0559862,-0.0747579,0.0535176,0.0697496,-0.094062,0.141961,-0.126072,-0.0840963,0.0156784,0.0169373,0.0150299,-0.0774002,0.0186539,0.0129318,0.0249481,0.0300598,-9.97986,0.0128174,-0.000915527,0.0111771,0.00991821,0.0178528,0.0101852,0.0282288,0.00778198
8,8,10.0097,0.00183105,0.000457764,-2.42684,0.0575121,-0.0747579,0.0532125,0.0700548,-0.0910102,0.145624,-0.125766,-0.0822652,0.01194,0.0178909,0.0179291,-0.0925446,0.0130844,0.00892639,0.0236511,0.0191116,-9.97986,0.00762939,-0.000343323,0.0107956,0.0216293,0.0186157,0.0133514,0.026474,0.00167847
8,9,10.0097,0.000305176,0.0012207,-2.42562,0.0572069,-0.0723164,0.0550435,0.07036,-0.094062,0.145929,-0.124851,-0.0813497,0.0153351,0.0170898,0.0251007,-0.104485,0.0149918,0.010643,0.0282669,0.0202179,-9.97986,0.0122452,0.00301361,0.0158691,0.0344849,0.0195694,0.0107193,0.0287628,0.00617981
9,0,10.0097,0,0.000915527,-2.42592,0.0572069,-0.0738423,0.0547383,0.0715807,-0.0922309,0.146234,-0.125156,-0.0804342,0.0113678,0.0138474,0.0278854,-0.117874,0.013504,0.011673,0.0277328,0.014801,-9.97986,0.0069809,-0.00137329,0.0113297,0.0454712,0.0217438,-0.00141144,0.0295258,0.00495911
9,1,10.0097,-0.000915527,0.000762939,-2.42531,0.0569017,-0.0735371,0.054128,0.0709703,-0.0922309,0.145624,-0.123935,-0.0804342,0.0113297,0.0200272,0.0380325,-0.121841,0.0148773,0.0104141,0.0307083,0.00896454,-9.97986,0.00640869,-0.00278473,0.00782013,0.0439453,0.0152969,-0.00602722,0.0279999,0.00488281
9,2,10.0097,0.00183105,0.000152588,-2.4247,0.0572069,-0.0707906,0.0544332,0.0718859,-0.0946723,0.148065,-0.12363,-0.080129,0.0124741,0.017128,0.0347519,-0.151138,0.0149536,0.00617981,0.0330353,0.00427246,-9.97986,0.00617981,0.000343323,0.0156021,0.0456619,0.0212479,-0.00804901,0.0285339,0.00324249
9,3,10.0097,0.0012207,0.000457764,-2.42653,0.0565965,-0.0741475,0.0535176,0.0563219,-0.0937568,0.148065,-0.126072,-0.0807394,0.0106049,0.0232315,0.0450897,-0.22316,0.0150681,0.0100327,0.0320816,0.00873566,-9.97986,0.00965118,-0.00133514,0.0137711,0.0492859,0.0167465,-0.0134277,0.0246811,0.00370026
9,4,9.80367,0.000610352,-0.000915527,-2.42653,0.055681,-0.0747579,0.0547383,0.042589,-0.0937568,0.146234,-0.126682,-0.0813497,0.0137329,0.0231934,0.0511932,-0.205002,0.0162506,0.0150681,0.0317764,0.0104141,-9.97986,0.00652313,-0.00530243,0.01194,0.0559235,0.0183105,-0.0153351,0.0242615,0.00450134
9,5,8.20607,0.000305176,-0.000610352,-2.42623,0.0559862,-0.0747579,0.0544332,0.0511339,-0.090705,0.146539,-0.126987,-0.0828756,0.0115585,0.0144577,0.0513458,-0.109367,0.0138855,0.0136948,0.0348282,0.00801086,-9.97986,0.0109863,-0.00282288,0.0126648,0.0617599,0.0135803,-0.0094223,0.027771,0.00125885
9,6,7.73427,0.000610352,0.000152588,-2.42623,0.0562914,-0.0738423,0.0538228,0.0615099,-0.0913154,0.147455,-0.125461,-0.0822652,0.0115204,0.0183868,0.0564575,-0.0458527,0.021019,0.0117111,0.0399399,0.0105286,-9.97986,0.0123215,-0.00453949,0.0148392,0.0726318,0.0165176,-0.00267029,0.0225449,0.00484467
9,7,7.84017,0.00244141,0.000915527,-2.42623,0.0544603,-0.0738423,0.0553487,0.0688341,-0.0913154,0.146539,-0.125766,-0.0825704,0.0116348,0.0259781,0.0611496,0.0481415,0.0162506,0.0139236,0.0400543,0.0167084,-9.97986,0.0114441,-0.000305176,0.0159454,0.0798416,0.0192642,-0.00247955,0.026741,0.00865936
9,8,9.06423,-0.000305176,0.00213623,-2.42592,0.0553758,-0.0759786,0.0556539,0.0834825,-0.0934516,0.145318,-0.125156,-0.0834859,0.00961304,0.0435257,0.067215,0.150604,0.0247192,0.0094223,0.0382233,0.0217056,-9.97986,0.0171661,-0.0019455,0.0109482,0.0875092,0.0135422,-0.00701904,0.0229263,0.00183105
9,9,10.0097,0.000610352,0.00320435,-2.42928,0.0541551,-0.0753682,0.0526021,0.101488,-0.0928413,0.145013,-0.125156,-0.0847066,0.00976563,0.0518417,0.0708771,0.191536,0.0219345,0.0106049,0.0340652,0.0193024,-9.97986,0.0169754,-0.00431061,0.0161362,0.0896454,0.0154877,-0.0206375,0.0224304,0.00614166
10,0,10.0097,-0.000305176,0.000762939,-2.42867,0.0529344,-0.0775044,0.0532125,0.0801256,-0.0937568,0.142572,-0.126682,-0.0862325,0.00976563,0.0432587,0.0672913,0.160217,0.0220108,0.00827789,0.0288773,0.0224304,-9.97986,0.0195313,-0.00217438,0.0164032,0.0801849,0.0174713,-0.0231934,0.0181961,0.00774384
10,1,10.0097,0.000610352,-0.000457764,-2.42867,0.0538499,-0.0747579,0.0532125,0.0724962,-0.0937568,0.145013,-0.126987,-0.0871481,0.0087738,0.0422668,0.0749969,0.160103,0.0235748,0.0107574,0.0291061,0.0211334,-9.97986,0.021286,-0.001297,0.0109863,0.0785065,0.018425,-0.0235367,0.0179672,0.00518799
10,2,10.0097,0.000915527,0.000305176,-2.42989,0.0535448,-0.0759786,0.0513814,0.0694445,-0.094062,0.140741,-0.128208,-0.0874532,0.00354767,0.0506592,0.0700378,0.184212,0.0189972,0.0113678,0.022583,0.0240707,-9.97986,0.0222015,-0.000648499,0.00862122,0.0899506,0.0187302,-0.0214005,0.0180435,0.00679016
10,3,10.0097,-0.000610352,-0.000152588,-2.42898,0.0538499,-0.0756734,0.0516866,0.0694445,-0.0955879,0.145318,-0.127903,-0.0874532,0.00530243,0.059433,0.053215,0.162621,0.0159454,0.00511169,0.0260925,0.0275803,-9.97986,0.026474,0.000953674,0.0138474,0.0961685,0.0163651,-0.0171661,0.0162125,0.00312805
10,4,10.0097,0.00183105,0,-2.42867,0.0550706,-0.0756734,0.0532125,0.0685289,-0.0937568,0.142877,-0.126987,-0.0871481,0.00286102,0.0605011,0.0320053,0.137329,0.0160217,0.00507355,0.0338364,0.0292206,-9.97986,0.0249481,-0.000648499,0.0102615,0.0941086,0.0160599,-0.0152588,0.0170135,0.0031662
10,5,10.0097,-0.000305176,-0.000610352,-2.42714,0.0538499,-0.0744527,0.0532125,0.0694445,-0.0934516,0.143182,-0.125461,-0.0859274,0.00301361,0.0640106,0.0120163,0.122719,0.0177002,0.00492096,0.0349045,0.0279999,-9.97986,0.0263977,0.00198364,0.0162888,0.0974274,0.0226212,-0.0114441,0.0192642,0.00549316
10,6,10.0097,0.00152588,0.000152588,-2.42776,0.0553758,-0.0762837,0.0538228,0.0691393,-0.0925361,0.144403,-0.126987,-0.0840963,0.0087738,0.0555801,-0.00823975,0.111313,0.017395,0.00473022,0.0392532,0.0274277,-9.97986,0.0243759,-0.000457764,0.015831,0.099144,0.0175858,-0.00125885,0.0167084,0.0038147
10,7,10.0097,-0.000610352,0.000762939,-2.42623,0.0550706,-0.0741475,0.0535176,0.07036,-0.0919257,0.144403,-0.125461,-0.0847066,0.00537872,0.0468826,-0.0167847,0.0985718,0.015564,0.00518799,0.0323486,0.0252533,-9.97986,0.0254059,0.00110626,0.0111008,0.0991058,0.0191498,0.000686646,0.0156403,0.00835419
10,8,10.0097,-0.000610352,0.00106812,-2.42684,0.055681,-0.0738423,0.0538228,0.0697496,-0.094062,0.144403,-0.126072,-0.0828756,0.00617981,0.0269699,-0.0279617,0.0870132,0.0178909,0.00228882,0.0296402,0.0262451,-9.97986,0.0244141,0.00228882,0.0154877,0.118866,0.0218582,0.00705719,0.0191879,0.00511169
10,9,10.0097,0.00244141,0.00198364,-2.42501,0.0565965,-0.0753682,0.0562642,0.07036,-0.0913154,0.14776,-0.124851,-0.0804342,0.00782013,0.0266647,-0.0300217,0.0750732,0.0221252,-7.62939e-005,0.0243759,0.0317001,-9.97986,0.0222015,-0.000610352,0.0131607,0.127335,0.0173569,0.000991821,0.0151825,0.00274658
11,0,10.0097,0.00152588,0.00106812,-2.42501,0.0559862,-0.0747579,0.0547383,0.0706652,-0.090705,0.146234,-0.124851,-0.0807394,0.0130463,0.0262451,-0.0263596,0.0735474,0.018959,0.00511169,0.0308228,0.031929,-9.97986,0.0197601,0.00167847,0.0148773,0.129738,0.0230408,0.00141144,0.0178528,0.00614166
11,1,10.0097,0.000915527,0.000762939,-2.42562,0.0550706,-0.0735371,0.0544332,0.0712755,-0.0910102,0.14776,-0.124546,-0.0810445,0.0105286,0.0285339,-0.0182343,0.0598145,0.0201035,0.00118256,0.0312042,0.0421143,-9.97986,0.0209808,0.00282288,0.0130081,0.122147,0.0236893,-0.00461578,0.0159073,0.00797272
11,2,10.0097,-0.000305176,-0.0012207,-2.4247,0.0581224,-0.0735371,0.0550435,0.07036,-0.0919257,0.145624,-0.123935,-0.0810445,0.00782013,0.0206757,-0.0200653,0.054245,0.0163269,0.000190735,0.0229263,0.0419235,-9.97986,0.0185013,-0.000762939,0.0123596,0.105782,0.021286,-0.00648499,0.0136948,0.00736237
11,3,10.0097,0,-0.00167847,-2.42592,0.0575121,-0.0747579,0.0532125,0.0554064,-0.0943672,0.146844,-0.125156,-0.0837911,0.0111771,0.0276947,-0.0103378,0.0523758,0.0182724,0.00442505,0.0244522,0.0278473,-9.97986,0.0211334,-0.00118256,0.0111008,0.0894165,0.0205231,-0.0105286,0.0118256,0.00514984
11,4,9.78078,-0.000610352,-0.00183105,-2.42562,0.0565965,-0.0744527,0.0553487,0.0410631,-0.0943672,0.146234,-0.126682,-0.0810445,0.00675201,0.0246429,-0.00434875,0.0485229,0.0187302,0.00202179,0.0202942,0.0200653,-9.97986,0.0175858,-0.000190735,0.012207,0.0840378,0.0197983,-0.00839233,0.0127792,0.00988007
11,5,8.17494,0,-0.000610352,-2.42592,0.0578172,-0.0747579,0.0547383,0.0514391,-0.0925361,0.145624,-0.126682,-0.0819601,0.0117874,0.0233078,0.0037384,0.0431061,0.0169754,0.000457764,0.0188446,0.0325394,-9.97986,0.0133133,0.000114441,0.0144196,0.0851822,0.0218201,-0.00671387,0.0139236,0.010643
11,6,7.70558,0,-0.0012207,-2.42684,0.055681,-0.0729268,0.0550435,0.0621202,-0.0922309,0.145929,-0.124851,-0.0828756,0.0115585,0.0200653,0.00411987,0.0358582,0.0191879,0.001297,0.0188065,0.0304794,-9.97986,0.0154114,-0.000114441,0.0141144,0.0723267,0.0205231,-0.00579834,0.011673,0.00675201
11,7,7.84993,0.0012207,-0.000457764,-2.42684,0.0553758,-0.075063,0.0550435,0.0691393,-0.0916206,0.145318,-0.125461,-0.0822652,0.0094223,0.0196838,0.00789642,0.0305557,0.0178909,0.00221252,0.0178909,0.0339127,-9.97986,0.0134277,0.00244141,0.0162506,0.0710678,0.0179291,-0.00320435,0.0112915,0.00873566
11,8,9.08803,-0.000610352,0.000152588,-2.42592,0.0550706,-0.0744527,0.0553487,0.0840929,-0.0913154,0.145318,-0.124851,-0.0834859,0.0128555,0.0184631,0.00396729,0.0227737,0.0164413,0.000610352,0.0134277,0.0252533,-9.97986,0.0154877,0.00221252,0.0149155,0.0606155,0.0187302,-0.00305176,0.0165558,0.00900269
11,9,10.0097,0.0012207,0.000610352,-2.42806,0.0538499,-0.0756734,0.0526021,0.101183,-0.0931465,0.144098,-0.125461,-0.0859274,0.0157928,0.0155258,0.00938416,0.0209808,0.0196075,0.000648499,0.0161743,0.00705719,-9.97986,0.0123215,-0.00125885,0.0128555,0.0346756,0.0207901,-0.00473022,0.0181198,0.00488281
12,0,10.0097,0.000915527,-0.000457764,-2.42959,0.0532396,-0.0762837,0.0519917,0.0804308,-0.0955879,0.143792,-0.126987,-0.0865377,0.0126648,0.0173187,0.0075531,0.0128937,0.0195313,0.0025177,0.019989,0.00865936,-9.97986,0.0138855,0.000495911,0.0140381,0.0270844,0.0188446,-0.000991821,0.0161362,0.00812531
12,1,10.0097,0.0012207,-0.00137329,-2.42837,0.0547655,-0.0759786,0.0522969,0.0724962,-0.0955879,0.143792,-0.126682,-0.0874532,0.0134277,0.0178909,0.00782013,0.0164413,0.019989,0.00389099,0.0215912,0.0146866,-9.97986,0.0146866,0.00247955,0.0151062,0.0234985,0.0212479,-0.00297546,0.0157166,0.00854492
12,2,10.0097,0.0012207,-0.00259399,-2.42898,0.0544603,-0.0756734,0.0532125,0.0700548,-0.0949775,0.142877,-0.128208,-0.0874532,0.0114441,0.0132751,0.0105286,0.0103378,0.0204849,0.000495911,0.0296783,0.0219345,-9.97986,0.0121689,-0.00335693,0.0148773,0.00392914,0.0180817,-0.00534058,0.0128555,0.0094223
12,3,10.0097,-0.000305176,-0.00137329,-2.42989,0.0532396,-0.0756734,0.0526021,0.0709703,-0.0946723,0.143182,-0.127903,-0.0880636,0.00751495,0.00968933,0.0094986,0.00938416,0.0168228,0.00160217,0.0311279,0.028801,-9.97986,0.0106049,3.8147e-005,0.0192642,-0.00541687,0.0165558,-0.00370026,0.0178146,0.00926971
12,4,10.0097,0,-0.00137329,-2.42928,0.0529344,-0.0759786,0.0526021,0.0694445,-0.0949775,0.143487,-0.127903,-0.0865377,0.0044632,0.0105667,0.016861,0.00183105,0.0189209,-0.00362396,0.03479,0.0258636,-9.97986,0.0137329,-0.00469208,0.013504,-0.0197601,0.0192261,-0.0050354,0.0128937,0.00793457
12,5,10.0097,-0.000305176,-0.000610352,-2.42684,0.0535448,-0.0756734,0.0538228,0.0691393,-0.094062,0.144098,-0.126377,-0.085317,0.00419617,0.0101852,0.0122833,0.000991821,0.0149918,0.00659943,0.0273895,0.0361633,-9.97986,0.0104523,-0.00213623,0.0118637,-0.0201416,0.0165939,-0.00541687,0.0155258,0.00774384
12,6,10.0097,0.00152588,0.000305176,-2.42806,0.055681,-0.0756734,0.0532125,0.0691393,-0.0943672,0.145318,-0.126987,-0.0844015,0.00595093,0.0120926,0.0126266,-0.0094223,0.0187683,0.00621796,0.0255585,0.0451279,-9.97986,0.00804901,-0.0031662,0.012207,-0.0188828,0.0163651,-0.00846863,0.0162888,0.00869751
12,7,10.0097,0,-0.000457764,-2.42684,0.0553758,-0.0744527,0.054128,0.0700548,-0.0925361,0.145624,-0.126072,-0.0847066,0.00480652,0.0131607,0.0147247,-0.0149536,0.0160599,0.00358582,0.0245667,0.0437927,-9.97986,0.00995636,-0.00331879,0.0156403,-0.0283432,0.0167847,-0.0125122,0.0120544,0.00808716
12,8,10.0097,0,-0.000457764,-2.42562,0.0550706,-0.0753682,0.0544332,0.0700548,-0.0925361,0.145624,-0.126072,-0.0847066,0.00743866,0.00801086,0.0207138,-0.0205994,0.0187683,0.00938416,0.0223541,0.0512695,-9.97986,0.00720978,-0.00389099,0.0122452,-0.0428009,0.0151443,-0.00816345,0.0126266,0.00827789
12,9,10.0097,0.0012207,-0.000915527,-2.42592,0.0550706,-0.0729268,0.054128,0.0700548,-0.0931465,0.147149,-0.123325,-0.0828756,0.00667572,0.00476837,0.0206375,-0.0186157,0.0173187,0.0082016,0.0186157,0.0444412,-9.97986,0.00637054,-0.00499725,0.0146866,-0.0642014,0.0192642,-0.00442505,0.00999451,0.0087738
13,0,10.0097,0.000305176,-0.00137329,-2.42531,0.0550706,-0.0735371,0.0553487,0.07036,-0.0919257,0.145318,-0.124546,-0.0816549,0.00991821,0.0109863,0.0202179,-0.02285,0.0186157,0.00667572,0.0176239,0.0403595,-9.97986,0.0111771,-0.00579834,0.015831,-0.0811005,0.0173187,-0.00301361,0.00728607,0.00968933
13,1,10.0097,0.000305176,-0.00305176,-2.42348,0.0559862,-0.073232,0.0547383,0.0724962,-0.0919257,0.147149,-0.125156,-0.0819601,0.0118637,0.00164032,0.0173569,-0.0307083,0.0147629,0.00915527,0.0198364,0.042305,-9.97986,0.00598907,-0.000228882,0.0147629,-0.104179,0.0201416,-0.00480652,0.0114822,0.0107956
13,2,10.0097,-0.000305176,-0.00183105,-2.42501,0.0565965,-0.0741475,0.0544332,0.0709703,-0.0903999,0.147455,-0.123935,-0.0810445,0.0125504,0.00915527,0.0237656,-0.0385284,0.0127411,0.0137329,0.0211334,0.0208282,-9.97986,0.00450134,-0.00862122,0.01194,-0.121269,0.0151062,-0.00137329,0.0062561,0.00888824
13,3,10.0097,-0.00152588,0.000305176,-2.42684,0.0559862,-0.0744527,0.0532125,0.0544908,-0.0931465,0.146234,-0.125156,-0.0822652,0.0152588,0.00591278,0.0235367,-0.0670242,0.0151825,0.0140762,0.026474,-0.00984192,-9.97986,0.00469208,-0.00366211,0.01297,-0.119667,0.0162506,-0.00320435,0.00854492,0.0082016
13,4,9.73256,0.00244141,-0.00213623,-2.42592,0.0565965,-0.075063,0.054128,0.042589,-0.094062,0.146844,-0.125766,-0.0813497,0.018425,0.0056839,0.0270844,-0.0918961,0.0203323,0.0124359,0.0289917,-0.0269318,-9.97986,0.00144958,-0.00392914,0.0154114,-0.119896,0.0185394,-0.00133514,0.00900269,0.0101471
13,5,8.15022,-0.000305176,-0.00137329,-2.42745,0.0559862,-0.0744527,0.0553487,0.0514391,-0.0925361,0.14776,-0.124851,-0.0828756,0.0204849,0.00854492,0.0299454,-0.0657654,0.0196457,0.0192642,0.0195694,-0.0462723,-9.97986,0.00461578,-0.000534058,0.0138855,-0.118713,0.0140381,0.00343323,0.00656128,0.00965118
13,6,7.68971,-0.000305176,-0.000457764,-2.42501,0.0559862,-0.0741475,0.054128,0.0612047,-0.0931465,0.144708,-0.125461,-0.0828756,0.0155258,0.00717163,0.02491,-0.0311279,0.014267,0.017395,0.018692,-0.065918,-9.97986,0.00556946,0.000419617,0.013504,-0.117378,0.0183487,-0.0019455,0.00225067,0.00846863
13,7,7.77852,0.00152588,0.000457764,-2.42898,0.0550706,-0.0747579,0.0538228,0.0688341,-0.0913154,0.146234,-0.125156,-0.0825704,0.0100327,0.0147629,0.0286102,-0.0121307,0.017395,0.0230789,0.0221634,-0.0429916,-9.97986,0.00751495,0.00160217,0.0170135,-0.114136,0.0185394,0.00087738,0.00968933,0.0100708
13,8,8.93849,0.000915527,0.000305176,-2.42623,0.0550706,-0.075063,0.0547383,0.0828722,-0.090705,0.146234,-0.124241,-0.0837911,0.0075531,0.0182724,0.0328445,-0.0128555,0.0181961,0.0242233,0.0179291,-0.0189209,-9.97986,0.0143051,-0.00423431,0.0174713,-0.117302,0.0139236,-0.00293732,0.0087738,0.00717163
13,9,10.0097,-0.000305176,0.000762939,-2.42867,0.0529344,-0.0759786,0.0544332,0.102709,-0.0928413,0.143792,-0.125461,-0.0847066,0.0112534,0.0250626,0.0355148,-0.00209808,0.0246811,0.025177,0.0232697,-0.00762939,-9.97986,0.0153732,-0.0025177,0.0168228,-0.139503,0.0180054,-0.00289917,0.00965118,0.0114822
14,0,10.0097,0.00183105,-0.00106812,-2.42898,0.0538499,-0.0753682,0.0513814,0.0810411,-0.0949775,0.143792,-0.126682,-0.0880636,0.00587463,0.0268936,0.0355148,0.00331879,0.0224304,0.0231171,0.0226593,0.0025177,-9.97986,0.0180054,-0.00038147,0.0186157,-0.150833,0.0131989,-0.00835419,0.00705719,0.00915527
14,1,10.0097,-0.000610352,-0.000762939,-2.42959,0.0526292,-0.0747579,0.0522969,0.0718859,-0.0949775,0.143487,-0.126682,-0.0871481,0.0030899,0.0262451,0.0379944,-0.000648499,0.0228119,0.0262833,0.0256348,0.00232697,-9.97986,0.0187302,-0.00286102,0.0152206,-0.149956,0.013237,-0.0101852,0.00278473,0.00938416
14,2,10.0097,0.0012207,-0.000610352,-2.42989,0.0526292,-0.0765889,0.0522969,0.07036,-0.095893,0.143792,-0.127598,-0.0868429,0.00675201,0.0312042,0.0396347,0.00133514,0.0145721,0.0286484,0.0256348,0.00762939,-9.97986,0.0172424,-0.00461578,0.0144958,-0.150337,0.0103378,-0.0133133,0.00354767,0.0082016
14,3,10.0097,0.000610352,0.000457764,-2.42867,0.0532396,-0.075063,0.0522969,0.0700548,-0.0955879,0.143487,-0.126377,-0.0868429,0.0107193,0.0377655,0.0409698,0.00133514,0.0209808,0.0271225,0.0230026,0.00900269,-9.97986,0.0163651,0.00205994,0.0157547,-0.136566,0.0120926,-0.0104523,0.00862122,0.00686646
14,4,10.0097,0.0012207,0.000457764,-2.42806,0.0547655,-0.0759786,0.0526021,0.0700548,-0.0943672,0.144403,-0.126682,-0.0862325,0.0134277,0.0393295,0.0415421,-0.00339508,0.0235748,0.0297165,0.021553,0.0128174,-9.97986,0.0153732,-0.00137329,0.01194,-0.126724,0.00953674,-0.00652313,0.00598907,0.00988007
14,5,10.0097,0,0,-2.42776,0.0550706,-0.0759786,0.0535176,0.0694445,-0.0946723,0.143792,-0.126987,-0.085317,0.0111008,0.0410843,0.0344467,-0.00110626,0.0206375,0.0317383,0.022316,0.0152206,-9.97986,0.0190735,0.00328064,0.0161362,-0.125237,0.0112915,-0.00965118,0.00377655,0.00743866
14,6,10.0097,0.00183105,-0.000152588,-2.42806,0.0553758,-0.0753682,0.0532125,0.07036,-0.0946723,0.144403,-0.126377,-0.0850118,0.00873566,0.0374985,0.0265884,0.0125122,0.0224686,0.0236511,0.0222778,0.0180435,-9.97986,0.0195313,-0.00205994,0.0112152,-0.129051,0.0114059,-0.016098,0.00411987,0.00907898
14,7,10.0097,0.000610352,-0.000305176,-2.42684,0.055681,-0.0753682,0.054128,0.0712755,-0.0934516,0.145929,-0.126377,-0.0847066,0.00751495,0.0358582,0.0164795,0.0324249,0.0223541,0.0291061,0.0234222,0.0183105,-9.97986,0.0191879,0.000228882,0.0162888,-0.131111,0.00961304,-0.00595093,0.00385284,0.00999451
14,8,10.0097,0.000915527,0.000152588,-2.42653,0.055681,-0.075063,0.0532125,0.0700548,-0.0922309,0.145624,-0.125766,-0.0828756,0.0106812,0.0365448,0.0133514,0.0348663,0.0237274,0.0252914,0.0247192,0.0177765,-9.97986,0.0176239,0.00495911,0.0174332,-0.136414,0.00965118,-0.00267029,0.00202179,0.00827789
14,9,10.0097,0.000305176,-0.000152588,-2.42623,0.0565965,-0.0744527,0.054128,0.0706652,-0.0928413,0.144098,-0.125156,-0.0822652,0.00530243,0.0346375,0.00255585,0.033989,0.022316,0.0271225,0.0225449,0.0177002,-9.97986,0.021286,0.00247955,0.0181961,-0.136642,0.0124741,-0.00843048,0.00183105,0.0100327
15,0,10.0097,0.000915527,0.000610352,-2.42562,0.0584276,-0.0738423,0.054128,0.0697496,-0.0928413,0.146539,-0.124546,-0.0816549,0.00930786,0.0360107,-0.00198364,0.0312424,0.0248718,0.0256348,0.0282669,0.0206375,-9.97986,0.0180817,-0.00480652,0.0182724,-0.135651,0.0137329,-0.00595093,-0.00209808,0.0102615
15,1,10.0097,0.000305176,0.000152588,-2.42501,0.0559862,-0.0741475,0.0535176,0.0709703,-0.0910102,0.145929,-0.124241,-0.0813497,0.0136566,0.0366974,0.00514984,0.0260925,0.0270844,0.026207,0.0266266,0.0220871,-9.97986,0.0153732,0.00297546,0.0152969,-0.130196,0.0112534,-0.00679016,0.000762939,0.0105286
15,2,10.0097,0.0012207,0.000457764,-2.42379,0.0562914,-0.0738423,0.0550435,0.0718859,-0.090705,0.147149,-0.124241,-0.0795187,0.00831604,0.0354385,0.00183105,0.0257874,0.0259399,0.0248718,0.0228119,0.0191498,-9.97986,0.0160217,-0.00133514,0.0164413,-0.129814,0.00904083,-0.00846863,0.00289917,0.00740051
15,3,10.0097,0.000305176,0.00137329,-2.42623,0.0559862,-0.0735371,0.0553487,0.0544908,-0.0946723,0.145013,-0.125766,-0.0819601,0.00873566,0.032196,0.00328064,0.0193405,0.0217056,0.0291443,0.0233078,0.0184631,-9.97986,0.0158691,0.00087738,0.0117874,-0.129509,0.00881195,-0.00957489,-0.00179291,0.00732422
15,4,9.77193,0,-0.00152588,-2.42562,0.0581224,-0.0771993,0.0532125,0.0413683,-0.0928413,0.146234,-0.126682,-0.0822652,0.0146103,0.0275421,0.0111389,0.0139236,0.0298309,0.021553,0.0232315,0.0247192,-9.97986,0.0164795,0.00305176,0.0116348,-0.12867,0.00728607,-0.00957489,0.000648499,0.00770569
15,5,8.14626,0.00244141,-0.00137329,-2.42653,0.0562914,-0.0741475,0.0568746,0.0511339,-0.094062,0.145318,-0.126072,-0.0819601,0.013237,0.0297928,0.0105667,0.0138855,0.0245667,0.0212479,0.0153351,0.0194168,-9.97986,0.0181961,0.000457764,0.0120163,-0.124664,0.00789642,-0.0102234,0.00240326,0.00953674
15,6,7.68086,0,0.000152588,-2.42623,0.0559862,-0.0753682,0.0544332,0.0624254,-0.0919257,0.145318,-0.126072,-0.0822652,0.0104523,0.0279999,0.0156021,0.00743866,0.0223923,0.0172806,0.0236893,0.0191116,-9.97986,0.0172806,0.00297546,0.0149155,-0.119705,0.00762939,-0.0124741,0.000419617,0.00434875
15,7,7.75594,0.000915527,0.000915527,-2.42684,0.055681,-0.0738423,0.0556539,0.0688341,-0.0916206,0.145013,-0.125766,-0.0828756,0.0094223,0.0224686,0.0143814,0.00911713,0.0254059,0.0174713,0.021553,0.0233841,-9.97986,0.0145721,0.00270844,0.0147629,-0.110817,0.0101471,-0.00732422,0.00495911,0.0107956
15,8,8.91408,-0.000915527,0.00183105,-2.42745,0.0550706,-0.0747579,0.0544332,0.0831774,-0.0913154,0.145929,-0.126072,-0.0834859,0.00991821,0.023613,0.0194931,0.00850677,0.022583,0.0138855,0.0254822,0.0167084,-9.97986,0.0133133,0.000762939,0.0146484,-0.0990295,0.0116348,-0.01091,0.00404358,0.00919342
15,9,10.0097,0.000915527,0.00335693,-2.42867,0.0535448,-0.0759786,0.0538228,0.100878,-0.0925361,0.143792,-0.125156,-0.0856222,0.0106812,0.0241852,0.0138474,0.00709534,0.0260162,0.0196838,0.0256348,0.02491,-9.97986,0.0164795,0.00209808,0.0151443,-0.0803757,0.0108719,-0.0146103,0.00347137,0.0104523
16,0,10.0097,-0.000610352,0.00137329,-2.42928,0.0544603,-0.0768941,0.0513814,0.0801256,-0.0937568,0.144403,-0.127598,-0.0871481,0.010376,0.0218201,0.013504,0.0043869,0.0273514,0.0161743,0.0230026,0.0222397,-9.97986,0.00957489,0.00137329,0.0121689,-0.0685501,0.0106812,-0.0156403,0.000991821,0.0031662
16,1,10.0097,0.0012207,0.0012207,-2.42867,0.0538499,-0.0762837,0.054128,0.0728014,-0.094062,0.147149,-0.126377,-0.0871481,0.0129318,0.0247955,0.0187683,0.0030899,0.0271225,0.0189209,0.0154877,0.0209045,-9.97986,0.0136185,0.00392914,0.0129318,-0.0611115,0.0125122,-0.00938416,0.000228882,0.00965118
16,2,10.0097,0.000305176,-0.000152588,-2.4302,0.0535448,-0.0759786,0.0516866,0.0700548,-0.0955879,0.143792,-0.126987,-0.0871481,0.0114059,0.0169373,0.0191116,0.00701904,0.0265121,0.0161743,0.0165939,0.0204849,-9.97986,0.0136185,-0.000305176,0.0135803,-0.0530243,0.0136566,-0.0123596,0.00205994,0.0106049
16,3,10.0097,0.00274658,0.000305176,-2.42898,0.0535448,-0.0793355,0.0529073,0.0688341,-0.094062,0.143182,-0.127598,-0.0868429,0.011673,0.0218582,0.022049,0.00610352,0.0257874,0.0102997,0.0165176,0.0238037,-9.97986,0.0124359,-0.00205994,0.0149536,-0.0526428,0.00778198,-0.0115204,-0.00118256,0.00640869
16,4,10.0097,0,0.000305176,-2.42837,0.0529344,-0.0759786,0.0526021,0.0691393,-0.0946723,0.141351,-0.127598,-0.0862325,0.0107193,0.0223541,0.0230026,0.00320435,0.0289536,0.015564,0.0209427,0.0227737,-9.97986,0.0131989,0.00148773,0.0133896,-0.0494003,0.013237,-0.00656128,-0.00404358,0.0062561
16,5,10.0097,0.000915527,-0.000762939,-2.42837,0.0547655,-0.0747579,0.054128,0.0679186,-0.094062,0.145013,-0.126682,-0.0847066,0.0107574,0.02491,0.0242615,0.00331879,0.0282669,0.0127792,0.017662,0.0209808,-9.97986,0.0159454,0.00324249,0.0132751,-0.0417328,0.0120163,-0.0094986,-0.00694275,0.00514984
16,6,10.0097,0.0012207,0.00137329,-2.42623,0.0547655,-0.075063,0.0532125,0.0697496,-0.094062,0.144708,-0.126682,-0.0837911,0.014534,0.0210571,0.022583,0.00301361,0.0268173,0.0111008,0.0157547,0.0199127,-9.97986,0.0175095,0.00534058,0.0124359,-0.0232315,0.0107956,-0.010643,-0.00213623,0.00579834
16,7,10.0097,0.000915527,0.00167847,-2.42745,0.0550706,-0.0738423,0.0544332,0.0706652,-0.0922309,0.144403,-0.126682,-0.0837911,0.0141144,0.0206375,0.0232315,0.00171661,0.0247574,0.0128937,0.0152588,0.0210953,-9.97986,0.0139236,-0.00118256,0.0156021,-0.00617981,0.00541687,-0.00362396,-0.00312805,0.00591278
16,8,10.0097,0.000610352,0.00183105,-2.42684,0.0562914,-0.075063,0.0532125,0.0712755,-0.0934516,0.145318,-0.125766,-0.0828756,0.0109863,0.0231934,0.0232697,0.00366211,0.0233078,0.0105286,0.0193405,0.0210953,-9.97986,0.0114441,-0.00305176,0.0189972,0.00377655,0.0108337,-0.00293732,0.00183105,0.0082016
16,9,10.0097,-0.000915527,0.00152588,-2.4244,0.0572069,-0.0744527,0.0544332,0.0706652,-0.090705,0.146234,-0.124851,-0.0810445,0.01297,0.0181961,0.0251389,0.00255585,0.0205231,0.0117874,0.0239182,0.0284195,-9.97986,0.00888824,0.00160217,0.0210571,0.0239563,0.0147629,0.000572205,-0.00156403,0.0050354
17,0,10.0097,0.000305176,0.00167847,-2.4247,0.0565965,-0.0741475,0.0556539,0.0728014,-0.0922309,0.149591,-0.125461,-0.0807394,0.01297,0.0183487,0.0205994,-0.00320435,0.0196075,0.00644684,0.0276566,0.0196075,-9.97986,0.0128937,0.00137329,0.0181961,0.0416565,0.0125122,0.00278473,0.00137329,0.00705719
17,1,10.0097,0.000610352,0.00167847,-2.4247,0.0553758,-0.0741475,0.0556539,0.0712755,-0.0913154,0.14776,-0.123935,-0.080129,0.0145721,0.0211716,0.0244141,-0.0030899,0.0238419,0.00621796,0.0296402,0.0172043,-9.97986,0.0154114,0.001297,0.0222015,0.0566101,0.0134659,0.00183105,0.00785828,0.00545502
17,2,10.0097,0,0.00228882,-2.42531,0.0559862,-0.0762837,0.0553487,0.072191,-0.0919257,0.146234,-0.122715,-0.080129,0.0123596,0.02388,0.0239944,-7.62939e-005,0.0211334,0.00450134,0.0254059,0.0157928,-9.97986,0.0144958,0.000991821,0.0167084,0.0726318,0.0137711,0.00408173,0.00904083,0.00541687
17,3,10.0097,0.000305176,0.00213623,-2.42684,0.0559862,-0.0738423,0.0553487,0.0532701,-0.094062,0.148065,-0.126072,-0.0810445,0.0133514,0.0196457,0.0221634,0.00133514,0.0165558,0.00370026,0.0219345,0.0215912,-9.97986,0.0147629,-0.00366211,0.0188828,0.0815582,0.0122833,-0.00858307,0.00934601,0.0031662
17,4,9.61263,0.000915527,0.000152588,-2.42501,0.0559862,-0.0744527,0.0535176,0.0413683,-0.0931465,0.146234,-0.126072,-0.0816549,0.0140381,0.0239944,0.0260925,0.00389099,0.0205612,0.00267029,0.0205231,0.0225067,-9.97986,0.0163651,-0.000534058,0.0215912,0.0960541,0.0167084,-0.0107574,0.00667572,0.00976563
17,5,7.96376,0.000915527,-0.000305176,-2.42623,0.0553758,-0.0735371,0.0532125,0.0508287,-0.0931465,0.145318,-0.126072,-0.0813497,0.011673,0.0267029,0.0244522,0.00476837,0.0149918,0.000724792,0.0134659,0.0205994,-9.97986,0.0149536,0.000991821,0.0180435,0.0983429,0.012207,-0.0104904,0.00732422,0.0104141
17,6,7.45412,0.000915527,0.0012207,-2.42562,0.0547655,-0.0735371,0.0553487,0.0615099,-0.0910102,0.145318,-0.125156,-0.0825704,0.0152588,0.0232315,0.0224304,0.00484467,0.0161743,0.00362396,0.00938416,0.0231934,-9.97986,0.01297,-0.000801086,0.0196457,0.110321,0.0162125,-0.0131989,0.0156021,0.00812531
17,7,7.55635,0.00183105,0.000305176,-2.42776,0.055681,-0.0753682,0.0556539,0.0685289,-0.0925361,0.145013,-0.124851,-0.0825704,0.0107193,0.0201416,0.0222397,0.00587463,0.0120163,0.00297546,0.0174713,0.0257111,-9.97986,0.0141907,-0.0012207,0.0185013,0.115089,0.0141144,-0.00988007,0.0130081,0.00415802
17,8,8.75356,0.000915527,0.000915527,-2.42684,0.0547655,-0.0756734,0.0553487,0.0847032,-0.0922309,0.145318,-0.125766,-0.0825704,0.0111389,0.0250244,0.02491,0.00385284,0.0146484,-0.000648499,0.0235367,0.025444,-9.97986,0.0186539,0.00133514,0.0207901,0.114098,0.0177002,-0.00411987,0.0200653,0.00610352
17,9,10.0097,0.000915527,0.00198364,-2.42867,0.0535448,-0.0753682,0.0538228,0.103624,-0.0903999,0.143792,-0.12363,-0.085317,0.0126266,0.02388,0.0212097,0.00141144,0.0149536,0.00259399,0.0231171,0.0211334,-9.97986,0.0201416,-0.00156403,0.0232315,0.111046,0.0153732,0.00232697,0.0169373,0.00576019
18,0,10.0097,-0.000305176,0.000305176,-2.42806,0.0529344,-0.0765889,0.0519917,0.0813463,-0.0949775,0.143792,-0.126987,-0.0868429,0.0128937,0.0214386,0.0174713,-0.00106812,0.0109482,0.000724792,0.0184631,0.0209045,-9.97986,0.0171661,-0.000686646,0.0222015,0.112991,0.0146103,0.00331879,0.0228119,0.00274658
18,1,10.0097,-0.000305176,0.000457764,-2.42928,0.0538499,-0.0765889,0.0519917,0.0737169,-0.0946723,0.144098,-0.126682,-0.0868429,0.0130844,0.0268936,0.0269699,-0.00087738,0.0111771,0.00270844,0.0222778,0.0215149,-9.97986,0.0151443,0.00225067,0.0231171,0.120125,0.014534,0.00320435,0.0252914,0.00354767
18,2,10.0097,0.000610352,0.000457764,-2.42928,0.0535448,-0.0762837,0.0519917,0.07036,-0.0965034,0.142267,-0.127903,-0.0880636,0.0118637,0.0254822,0.0263596,-0.00110626,0.0126648,0.00648499,0.0201035,0.0208282,-9.97986,0.0139618,-0.000839233,0.0197983,0.131721,0.013237,0.00202179,0.0275421,0.0030899
18,3,10.0097,0.000610352,0.000457764,-2.4302,0.0541551,-0.0759786,0.0526021,0.0688341,-0.0946723,0.144403,-0.127598,-0.0862325,0.0128555,0.0212097,0.0265121,0.00205994,0.01194,0.00434875,0.016861,0.0244522,-9.97986,0.0205612,-0.00354767,0.024147,0.140038,0.0167084,0.00522614,0.0327301,0.00717163
18,4,10.0097,0.0012207,0.000610352,-2.42837,0.0541551,-0.0753682,0.0535176,0.0694445,-0.0946723,0.144403,-0.126987,-0.085317,0.0141144,0.0175095,0.021553,0.00228882,0.00995636,0.00682831,0.0127411,0.0247574,-9.97986,0.0188446,-0.001297,0.0238037,0.148468,0.0153732,0.00286102,0.0323105,0.00411987
18,5,10.0097,0.000610352,0.000915527,-2.42714,0.055681,-0.0756734,0.0529073,0.0691393,-0.0937568,0.144403,-0.128818,-0.0847066,0.0147247,0.0170898,0.0163651,0.00427246,0.0141525,0.00705719,0.018158,0.0263214,-9.97986,0.015564,-0.00198364,0.0233459,0.169716,0.0198746,0.00202179,0.0341797,0.00598907
18,6,10.0097,0.000915527,0.000915527,-2.42776,0.0544603,-0.0753682,0.0538228,0.0694445,-0.0943672,0.145318,-0.126072,-0.0837911,0.0144196,0.0157547,0.0143051,0.00289917,0.0122452,0.00751495,0.0172424,0.0254822,-9.97986,0.0148773,-0.00183105,0.0254822,0.18528,0.0148773,0.000228882,0.039444,0.00804901
18,7,10.0097,-0.000305176,0.00183105,-2.42745,0.0550706,-0.0753682,0.054128,0.0700548,-0.0925361,0.146539,-0.125766,-0.0831808,0.0132751,0.0154495,0.0189209,0.00457764,0.0117111,0.0102615,0.0113678,0.0248337,-9.97986,0.0163269,-0.00431061,0.0274277,0.201721,0.017395,0.00492096,0.0333405,0.00812531
18,8,10.0097,0.0012207,0.00167847,-2.42623,0.0565965,-0.0738423,0.0532125,0.0697496,-0.0925361,0.146539,-0.124851,-0.0825704,0.0120926,0.0233078,0.0182724,0.00335693,0.00972748,0.00785828,0.0139999,0.025444,-9.97986,0.0156784,-0.0038147,0.0248337,0.218163,0.0140381,0.00587463,0.0338364,0.00736237
18,9,10.0097,-0.00244141,0.00213623,-2.42501,0.0559862,-0.0741475,0.0547383,0.0706652,-0.0919257,0.146844,-0.123935,-0.0822652,0.00835419,0.0168991,0.0189972,0.00461578,0.00938416,0.0133896,0.0151825,0.026741,-9.97986,0.0175095,-0.00259399,0.0245285,0.22995,0.0165558,0.00278473,0.0296783,0.00423431
19,0,10.0097,0.000305176,0.00137329,-2.42501,0.0559862,-0.0726216,0.055959,0.0718859,-0.0928413,0.146844,-0.12363,-0.0804342,0.0116348,0.0189972,0.018959,0.0103378,0.0128937,0.0134659,0.0138855,0.0262451,-9.97986,0.0111771,-0.00274658,0.0239182,0.257721,0.0165558,0.00747681,0.0345612,0.00923157
19,1,10.0097,0.0012207,0.00198364,-2.42409,0.0581224,-0.0735371,0.054128,0.072191,-0.0910102,0.147149,-0.124851,-0.0804342,0.00934601,0.0217819,0.0174332,0.010376,0.00926971,0.014534,0.0188828,0.0262833,-9.97986,0.0114441,-0.00293732,0.0205231,0.272369,0.0163269,0.00514984,0.0308228,0.00682831
19,2,10.0097,-0.000610352,0.00183105,-2.4247,0.0562914,-0.0735371,0.055959,0.07036,-0.0903999,0.146844,-0.12363,-0.0804342,0.0141525,0.0202942,0.0185394,0.00839233,0.0136185,0.011673,0.0151062,0.0222778,-9.97986,0.0153732,0.00164032,0.0204468,0.274544,0.0159073,0.00976563,0.0310898,0.00648499
19,3,10.0097,-0.000915527,0.000305176,-2.42592,0.0559862,-0.0741475,0.0532125,0.0526598,-0.0943672,0.145929,-0.126377,-0.0819601,0.0109863,0.0193787,0.0172043,0.00843048,0.0107956,0.0106049,0.0141907,0.0241852,-9.97986,0.0124359,-0.00564575,0.0173187,0.274544,0.0125504,0.00587463,0.0298309,0.00583649
19,4,9.59767,0.00183105,-0.000457764,-2.42653,0.0575121,-0.073232,0.0544332,0.0410631,-0.0934516,0.147455,-0.126987,-0.0819601,0.0177002,0.0214767,0.0213242,0.0162888,0.0173569,0.0172424,0.0231552,0.0271606,-9.97986,0.0167465,0.00171661,0.0258636,0.285797,0.0217819,0.0126266,0.0323868,0.0116348
19,5,7.9308,-0.000610352,-0.000610352,-2.42623,0.0553758,-0.0747579,0.0553487,0.0508287,-0.0922309,0.145318,-0.125461,-0.0822652,0.00576019,0.0179672,0.0133514,0.00793457,0.00583649,0.0063324,0.0110626,0.0161362,-9.97986,0.0124359,-0.00659943,0.0164795,0.278664,0.0141144,0.00663757,0.021286,0.000839233
19,6,7.44679,0.0012207,0.000305176,-2.42745,0.0569017,-0.073232,0.0556539,0.0618151,-0.0931465,0.145929,-0.125766,-0.0825704,0.0157928,0.0233078,0.0236893,0.00984192,0.0123978,0.0118637,0.0159836,0.0245285,-9.97986,0.0160599,0.00179291,0.0235367,0.281334,0.0204086,0.0141907,0.029068,0.0120926
19,7,7.53438,0.000305176,0.000610352,-2.42653,0.0538499,-0.0747579,0.0547383,0.0688341,-0.0910102,0.146844,-0.125766,-0.0828756,0.010376,0.0173569,0.0189209,0.0112152,0.0147247,0.00984192,0.0117111,0.0187302,-9.97986,0.0139618,-0.00484467,0.0204086,0.280952,0.0175476,0.0104904,0.0267792,0.00843048
19,8,8.72579,0.000305176,0.0012207,-2.42592,0.0550706,-0.0756734,0.0538228,0.0847032,-0.090705,0.146234,-0.125156,-0.0825704,0.00968933,0.0201416,0.0265121,0.0161362,0.0127411,0.00930786,0.0179291,0.0168991,-9.97986,0.0163651,-0.00366211,0.019722,0.277252,0.0124741,0.0162506,0.0263596,0.00465393
19,9,10.0097,0.000610352,0.00213623,-2.42837,0.0550706,-0.0756734,0.0535176,0.10454,-0.090705,0.145318,-0.125156,-0.0847066,0.0127411,0.0242615,0.0255203,0.0124359,0.0120544,0.013504,0.0171661,0.0198746,-9.97986,0.0139236,-0.00572205,0.0178528,0.266571,0.0149918,0.0162506,0.0265884,0.00640869
20,0,10.0097,0.0012207,-0.000305176,-2.42928,0.0535448,-0.0756734,0.0522969,0.0795153,-0.0955879,0.143792,-0.126987,-0.0871481,0.00808716,0.0230789,0.0260162,0.0149918,0.0155258,0.0114441,0.0175858,0.0193787,-9.97986,0.013237,-0.00595093,0.0188065,0.257263,0.0159454,0.0126266,0.0293732,0.00720978
20,1,10.0097,0.000610352,-0.00106812,-2.42776,0.0532396,-0.0759786,0.0513814,0.0731066,-0.0965034,0.144098,-0.127903,-0.0871481,0.0104141,0.0250244,0.0257111,0.0123215,0.0127029,0.00541687,0.0159836,0.0157928,-9.97986,0.0161743,-0.00583649,0.0194931,0.245399,0.0194168,0.0141144,0.0306702,0.00499725
20,2,10.0097,0.000305176,-0.000915527,-2.43081,0.0535448,-0.0759786,0.0513814,0.0691393,-0.0961982,0.142572,-0.126682,-0.0874532,0.00652313,0.0247574,0.0271606,0.0130081,0.0138855,0.00648499,0.0161743,0.0191116,-9.97986,0.0115204,-0.00663757,0.0202942,0.229187,0.0205994,0.00450134,0.026741,0.00774384
20,3,10.0097,0,-0.00152588,-2.42989,0.0538499,-0.0759786,0.0516866,0.0700548,-0.0946723,0.143182,-0.127292,-0.0877584,0.0105286,0.0270462,0.0323486,0.0164413,0.0154114,0.00953674,0.0159836,0.0191116,-9.97986,0.00961304,-0.00133514,0.0188065,0.216255,0.0170517,0.00801086,0.033226,0.00358582
20,4,10.0097,0.00152588,-0.00183105,-2.42898,0.0535448,-0.075063,0.0538228,0.0706652,-0.0943672,0.143792,-0.126987,-0.0871481,0.00701904,0.0215912,0.0307465,0.0137711,0.0131607,0.0056076,0.0196075,0.0163651,-9.97986,0.0113297,-0.00389099,0.0219727,0.196838,0.014534,0.011673,0.0350571,0.0031662
20,5,10.0097,0.000610352,-0.00167847,-2.42745,0.0541551,-0.0753682,0.0519917,0.0697496,-0.0922309,0.143792,-0.126987,-0.085317,0.0107956,0.027504,0.0305557,0.0156021,0.0187683,0.00507355,0.0130844,0.0156403,-9.97986,0.00976563,-0.00358582,0.0169373,0.182228,0.0178909,0.0156784,0.0340271,0.00682831
20,6,10.0097,-0.000305176,-0.00183105,-2.42592,0.0544603,-0.0762837,0.0519917,0.0697496,-0.0937568,0.145624,-0.126987,-0.0856222,0.0122833,0.0291061,0.0307465,0.0178909,0.0170517,0.00637054,0.014534,0.014267,-9.97986,0.0111771,-0.00324249,0.0167847,0.166512,0.0179672,0.0180054,0.0340652,0.00148773
20,7,10.0097,0.000305176,-0.00137329,-2.42714,0.055681,-0.0741475,0.0532125,0.0706652,-0.0925361,0.144708,-0.126987,-0.0850118,0.0139618,0.0260162,0.027771,0.0135422,0.021286,0.0069046,0.0198364,0.0151443,-9.97986,0.0129318,-0.00389099,0.0179291,0.144653,0.0201035,0.0254059,0.0357437,0.00564575
20,8,10.0097,0.000915527,-0.00183105,-2.42684,0.0550706,-0.0741475,0.0532125,0.07036,-0.0919257,0.144098,-0.125766,-0.0831808,0.00759125,0.0251007,0.0252533,0.00236511,0.0158691,0.00282288,0.0210571,0.0176239,-9.97986,0.0139999,-0.00888824,0.0146866,0.126343,0.0172043,0.0259399,0.0345993,0.00404358
20,9,10.0097,-0.000305176,-0.00152588,-2.42623,0.0578172,-0.0735371,0.0565694,0.0700548,-0.0928413,0.146234,-0.125156,-0.0816549,0.00965118,0.0218201,0.0187683,0.00431061,0.0183487,0.0056076,0.0229263,0.0219727,-9.97986,0.0145721,-0.00602722,0.0161743,0.103836,0.0181961,0.0313187,0.0330734,0.00274658
21,0,10.0097,0.000915527,-0.00274658,-2.4247,0.0553758,-0.0735371,0.0550435,0.0700548,-0.0913154,0.147149,-0.124241,-0.0813497,0.0109863,0.0196075,0.018158,-0.00934601,0.0159073,0.00335693,0.0195694,0.0194931,-9.97986,0.0146103,-0.00858307,0.0164413,0.0694275,0.0204849,0.0407791,0.0322342,-3.8147e-005
21,1,10.0097,-0.000915527,-0.00305176,-2.42531,0.0584276,-0.0735371,0.0553487,0.0715807,-0.0922309,0.146234,-0.124241,-0.0819601,0.0167465,0.0208664,0.0132751,-0.019989,0.0183487,0.00606537,0.0242996,0.0227737,-9.97986,0.0155258,-0.00766754,0.0183105,0.0358963,0.0221252,0.0431061,0.0345993,-7.62939e-005
21,2,10.0097,0.0012207,-0.00259399,-2.42379,0.0569017,-0.0741475,0.0568746,0.0715807,-0.0903999,0.146234,-0.124546,-0.0804342,0.0121307,0.0193405,0.00972748,-0.0271988,0.0154495,0.00289917,0.0251389,0.0215912,-9.97986,0.0183487,-0.00213623,0.0164032,0.00621796,0.0211334,0.0364685,0.038414,-0.000305176
21,3,10.0097,-0.000915527,-0.00335693,-2.42653,0.0541551,-0.0738423,0.0535176,0.052965,-0.0961982,0.145624,-0.125766,-0.0834859,0.0108337,0.0170517,0.0116348,-0.0307083,0.0169754,3.8147e-005,0.0289154,0.0169373,-9.97986,0.00938416,-0.0111008,0.0171661,-0.0329208,0.0162888,0.0225067,0.0266647,-0.00114441
21,4,9.51955,0.000915527,-0.00473022,-2.42562,0.0572069,-0.0744527,0.054128,0.0389269,-0.0949775,0.147455,-0.125766,-0.0825704,0.00907898,0.023613,0.0128937,-0.0322342,0.0156403,-0.00354767,0.0294113,0.017662,-9.97986,0.0167084,-0.00526428,0.0167465,-0.0546646,0.0205994,0.0278473,0.0346375,0.000724792
21,5,7.86672,0.00152588,-0.00350952,-2.42714,0.0569017,-0.0747579,0.054128,0.0502184,-0.0937568,0.145318,-0.126072,-0.0828756,0.0101852,0.0255585,0.014534,-0.028801,0.0159454,-0.00110626,0.0296021,0.0186539,-9.97986,0.014267,-0.0056839,0.0178528,-0.0812531,0.0174332,0.0307846,0.0293732,-0.0012207
21,6,7.40346,-0.000610352,-0.00259399,-2.42592,0.0553758,-0.0747579,0.0535176,0.0608995,-0.0922309,0.145929,-0.125766,-0.0831808,0.0132751,0.0265121,0.0149918,-0.0222015,0.0198746,-0.00221252,0.0307465,0.0154495,-9.97986,0.016861,-0.00518799,0.0188446,-0.101395,0.0172424,0.0308609,0.0293732,0.00118256
21,7,7.51424,-0.000305176,-0.00167847,-2.42684,0.0547655,-0.0738423,0.0547383,0.0673082,-0.0919257,0.145318,-0.125461,-0.0825704,0.00762939,0.0286102,0.0172043,-0.0292206,0.0217056,-0.00244141,0.0339508,0.0146484,-9.97986,0.0141144,-0.00865936,0.0149918,-0.125427,0.0152588,0.024147,0.0278854,-0.000648499
21,8,8.65804,0,-0.000915527,-2.42653,0.0538499,-0.0747579,0.0538228,0.0850084,-0.0916206,0.145624,-0.125156,-0.0837911,0.00911713,0.0210571,0.0163269,-0.0443649,0.017128,-0.0050354,0.0310898,0.0121689,-9.97986,0.0121307,-0.0109863,0.0143814,-0.135155,0.0161743,0.0252914,0.0256348,-0.00156403
21,9,10.0097,0.000610352,0.000762939,-2.42837,0.0541551,-0.0762837,0.0538228,0.106066,-0.0910102,0.143182,-0.124241,-0.0859274,0.0119019,0.0352859,0.0227356,-0.0147629,0.0193405,-0.00297546,0.035553,0.0181198,-9.97986,0.016098,-0.00644684,0.0186157,-0.145454,0.0161743,0.0366592,0.0285721,-0.00125885
22,0,10.0097,-0.000610352,-0.000610352,-2.42959,0.0529344,-0.0762837,0.0498555,0.0810411,-0.0949775,0.143182,-0.126682,-0.0868429,0.00694275,0.0285339,0.0217056,0.0161362,0.0191116,-0.00457764,0.0328445,0.00827789,-9.97986,0.00953674,-0.00972748,0.0171661,-0.1577,0.0171661,0.042305,0.0231171,-7.62939e-005
22,1,10.0097,0.00152588,-0.00137329,-2.42806,0.0541551,-0.0759786,0.0526021,0.072191,-0.095893,0.143487,-0.128513,-0.0868429,0.012207,0.0361252,0.0286484,0.0266266,0.0164032,-0.00278473,0.0322342,0.001297,-9.97986,0.0121307,-0.0130463,0.0172424,-0.160408,0.0126266,0.0382996,0.0242233,-0.00110626
22,2,10.0097,0.0012207,-0.000152588,-2.42959,0.0535448,-0.0768941,0.0519917,0.07036,-0.0965034,0.144708,-0.128513,-0.0871481,0.0154877,0.0428009,0.0411606,0.0531769,0.0203705,-0.00213623,0.0357819,0.000762939,-9.97986,0.0160599,-0.0147247,0.0170517,-0.15728,0.0186539,0.0336456,0.0221634,0.000572205
22,3,10.0097,0.0012207,-0.000610352,-2.42928,0.0535448,-0.075063,0.0529073,0.0697496,-0.0946723,0.143182,-0.126987,-0.0868429,0.0147629,0.0229263,0.0485229,0.0934601,0.0164413,-0.00343323,0.0354004,0.000724792,-9.97986,0.0149536,-0.00686646,0.0127792,-0.153809,0.0164413,0.0289154,0.0174332,0.000915527
22,4,10.0097,-0.000915527,0.000457764,-2.42928,0.0529344,-0.0762837,0.0529073,0.0694445,-0.0943672,0.142267,-0.127292,-0.0865377,0.0112534,-0.00415802,0.0514603,0.100784,0.0159836,-0.0037384,0.0290298,0.00328064,-9.97986,0.0186539,-0.00785828,0.0188828,-0.14431,0.0138855,0.0333786,0.0131989,0.00198364
22,5,10.0097,-0.000915527,0.000762939,-2.42837,0.0541551,-0.0747579,0.0529073,0.0697496,-0.0931465,0.143487,-0.125766,-0.0847066,0.00965118,-0.00488281,0.0513458,0.0804901,0.0151062,-0.00179291,0.0296021,0.0109863,-9.97986,0.0209808,-0.0043869,0.0174332,-0.127907,0.0127029,0.0355148,0.0115585,0.00350952
22,6,10.0097,-0.0012207,0.00152588,-2.42714,0.0541551,-0.0759786,0.0529073,0.0700548,-0.0934516,0.145013,-0.126682,-0.0844015,0.00862122,0.0149155,0.0481033,0.0721359,0.0104141,-0.00255585,0.0321579,0.0104523,-9.97986,0.0276566,-0.00892639,0.0156784,-0.106773,0.013504,0.0331116,0.0161362,0.0050354
22,7,10.0097,-0.000610352,0.00228882,-2.42653,0.0559862,-0.0747579,0.0544332,0.0700548,-0.0928413,0.145624,-0.125766,-0.0834859,0.00961304,0.0272751,0.039444,0.0651169,0.0147247,-0.00511169,0.023613,0.0172806,-9.97986,0.0280762,-0.00740051,0.0168228,-0.0776672,0.0127792,0.029068,0.00839233,0.00114441
22,8,10.0097,0,0.00335693,-2.42653,0.0550706,-0.0744527,0.0532125,0.0697496,-0.0937568,0.145318,-0.12363,-0.0822652,0.00606537,0.03685,0.0275421,0.0611115,0.0135422,-0.00228882,0.0292206,0.0165558,-9.97986,0.0245667,-0.00534058,0.0129318,-0.0345993,0.0141144,0.0335312,0.00736237,0.00343323
22,9,10.0097,-0.0012207,0.00427246,-2.42562,0.0569017,-0.0744527,0.0550435,0.0718859,-0.0903999,0.146539,-0.124546,-0.0792135,0.0124359,0.039978,0.0163651,0.0605011,0.0126648,-0.00278473,0.0307465,0.0156784,-9.97986,0.0281906,-0.0112534,0.0150681,0.0112152,0.0154114,0.0298691,0.00808716,0.00576019
23,0,10.0097,0,0.00457764,-2.4247,0.0559862,-0.0738423,0.055959,0.0724962,-0.0910102,0.145929,-0.124241,-0.0792135,0.0116348,0.0365067,-0.00358582,0.0519562,0.0136566,-0.00526428,0.0280762,0.0166702,-9.97986,0.0265884,-0.00488281,0.0152969,0.0669861,0.0170517,0.0309372,0.00881195,0.0030899
23,1,10.0097,0.000305176,0.0050354,-2.42592,0.0562914,-0.0735371,0.0547383,0.0706652,-0.0922309,0.14776,-0.123935,-0.0798238,0.0104141,0.0295639,-0.0195694,0.0482941,0.0162506,-0.00587463,0.0283051,0.0171661,-9.97986,0.0240326,-0.00610352,0.0189972,0.123634,0.00911713,0.0265884,0.0050354,0.00400543
23,2,10.0097,-0.000915527,0.0062561,-2.4247,0.0572069,-0.0741475,0.059316,0.0718859,-0.0903999,0.14776,-0.12302,-0.0776876,0.0108719,0.0250626,-0.0179672,0.0476837,0.010643,-0.00469208,0.0282669,0.0128937,-9.97986,0.0232315,-0.0123596,0.0143814,0.184784,0.00930786,0.0240326,0.00228882,0.00400543
23,3,10.0097,0.000915527,0.0062561,-2.42623,0.0562914,-0.0738423,0.0584004,0.0544908,-0.094062,0.145929,-0.126072,-0.0792135,0.0147629,0.0155258,-0.0227737,0.0445175,0.0100708,-0.00209808,0.0304413,0.0109482,-9.97986,0.021286,-0.00938416,0.0166321,0.262871,0.0152588,0.0212479,0.00579834,0.00694275
23,4,9.73439,-0.000610352,0.00534058,-2.42531,0.0553758,-0.0744527,0.0532125,0.0422838,-0.0937568,0.145318,-0.123935,-0.0798238,0.00957489,0.0150299,-0.0280762,0.0386047,0.0131607,-0.00644684,0.0272369,0.0106049,-9.97986,0.0229263,-0.0104904,0.0140762,0.332069,0.0151062,0.0252914,0.00240326,0.00499725
23,5,8.11299,0.000610352,0.00595093,-2.42592,0.0565965,-0.0753682,0.0565694,0.049608,-0.0931465,0.144708,-0.126377,-0.0804342,0.0136185,0.0148773,-0.0214005,0.0375366,0.0125122,-0.00736237,0.0298691,0.0161743,-9.97986,0.022583,-0.00686646,0.0163269,0.396957,0.0153732,0.026474,0.000457764,0.00350952
23,6,7.65004,-0.0012207,0.0062561,-2.42562,0.0559862,-0.0747579,0.055959,0.0621202,-0.0916206,0.145013,-0.126072,-0.0798238,0.0156784,0.0121307,-0.0183487,0.0328827,0.0094986,-0.00385284,0.0255966,0.0139999,-9.97986,0.0213242,-0.00740051,0.0137711,0.467644,0.0146866,0.0263977,0.000953674,0.00434875
23,7,7.80385,0.000610352,0.00686646,-2.42592,0.0547655,-0.0753682,0.0535176,0.0700548,-0.0916206,0.144708,-0.128818,-0.0807394,0.0139236,0.0112152,-0.0130463,0.0283432,0.0111008,-0.00579834,0.0263214,0.0144958,-9.97986,0.0239182,-0.0100708,0.0139236,0.532227,0.0128937,0.0214767,-0.000839233,0.00743866
23,8,9.01296,0.0012207,0.00686646,-2.42714,0.0538499,-0.075063,0.0565694,0.0837877,-0.0910102,0.145013,-0.125766,-0.0822652,0.0118256,0.0110626,-0.00984192,0.0266647,0.00843048,-0.00675201,0.0295639,0.0136185,-9.97986,0.0126266,-0.00583649,0.0150681,0.589485,0.0147629,0.0284576,0.00396729,0.00728607
23,9,10.0097,0.000915527,0.00793457,-2.42776,0.0538499,-0.0762837,0.0544332,0.101488,-0.0922309,0.144403,-0.127903,-0.0837911,0.00968933,0.0114441,-0.00492096,0.0233841,0.0114822,-0.00488281,0.0320053,0.0136185,-9.97986,0.0139999,-0.00473022,0.0159454,0.649261,0.00938416,0.0298691,0.0038147,0.00926971
24,0,10.0097,0.000305176,0.00579834,-2.42989,0.0529344,-0.0756734,0.0526021,0.0792101,-0.0952827,0.144403,-0.129123,-0.085317,0.0126648,0.0118637,-0.00156403,0.0165558,0.00530243,-0.00518799,0.0368118,0.00705719,-9.97986,0.0139618,-0.00297546,0.0133514,0.694466,0.0131607,0.028801,0.00335693,0.00766754
24,1,10.0097,0.000915527,0.00411987,-2.42867,0.0535448,-0.0747579,0.0522969,0.0718859,-0.0949775,0.143487,-0.126987,-0.0856222,0.0166702,0.0112534,0.000762939,0.0187683,0.00724792,-0.00736237,0.0358963,0.00904083,-9.97986,0.0151825,-0.00370026,0.0142288,0.729752,0.0100327,0.026207,0.00240326,0.00614166
24,2,10.0097,0.000305176,0.00305176,-2.42989,0.0532396,-0.0762837,0.0492452,0.0685289,-0.0961982,0.143487,-0.125461,-0.0859274,0.018692,0.0183868,0.00598907,0.0200272,0.00644684,-0.00640869,0.0383377,0.00896454,-9.97986,0.0148392,-0.00263214,0.0137329,0.751228,0.0104141,0.0234985,0.00743866,0.00286102
24,3,10.0097,0.000610352,0.00106812,-2.42898,0.0544603,-0.075063,0.0529073,0.0694445,-0.094062,0.143487,-0.126072,-0.0871481,0.0152969,0.0191116,0.00595093,0.015564,0.00183105,-0.000610352,0.0349426,0.00659943,-9.97986,0.0130463,-0.00717163,0.0133514,0.753365,0.0146866,0.0265121,0.00297546,0.00476837
24,4,10.0097,-0.000305176,0.000305176,-2.42867,0.0541551,-0.0753682,0.0519917,0.0688341,-0.0943672,0.143487,-0.126987,-0.0868429,0.0119781,0.0195694,0.0102997,0.0127029,-0.00087738,-0.00205994,0.0390244,0.0115967,-9.97986,0.0154114,-0.00549316,0.0102615,0.754318,0.0125885,0.02285,0.00617981,0.0069046
24,5,10.0097,0.000915527,-0.0012207,-2.42776,0.0538499,-0.0756734,0.0516866,0.0697496,-0.0949775,0.143182,-0.126987,-0.0856222,0.00881195,0.0208664,0.0130463,0.0118256,0.00152588,-0.000953674,0.0452042,0.00724792,-9.97986,0.0157928,-0.00370026,0.0162125,0.736351,0.0143433,0.0249481,0.0102234,0.00598907
24,6,10.0097,-0.00152588,-0.00137329,-2.42745,0.0541551,-0.0753682,0.0535176,0.0694445,-0.0934516,0.144403,-0.13126,-0.085317,0.00934601,0.018158,0.0125885,0.0101089,0.00377655,0.00198364,0.0385666,0.0157547,-9.97986,0.011673,-0.00457764,0.0128174,0.713997,0.0146103,0.029335,0.0122833,0.00450134
24,7,10.0097,-0.000305176,-0.00259399,-2.42714,0.0559862,-0.0747579,0.0538228,0.0706652,-0.0928413,0.144403,-0.126072,-0.085317,0.00984192,0.0199127,0.0182343,0.00606537,0.00240326,0.0082016,0.0305176,0.0127411,-9.97986,0.0103378,-0.00831604,0.010376,0.668068,0.0146103,0.0259781,0.0125122,0.00415802
24,8,10.0097,0.000305176,-0.00457764,-2.42562,0.0559862,-0.075063,0.0492452,0.07036,-0.0931465,0.146539,-0.126072,-0.0837911,0.0094223,0.0197983,0.0174713,0.00724792,0.00686646,0.0168228,0.0272751,0.0150299,-9.97986,0.0137329,-0.0025177,0.00846863,0.606079,0.0163269,0.0131607,0.015564,0.00743866
24,9,10.0097,0.0012207,-0.00579834,-2.42409,0.0562914,-0.0744527,0.054128,0.0715807,-0.0931465,0.147455,-0.119968,-0.0834859,0.00953674,0.0211716,0.0161743,0.00995636,0.00392914,0.021286,0.0405121,0.0109482,-9.97986,0.0140762,-0.00831604,0.00968933,0.530281,0.015564,0.000991821,0.0131607,0.00434875
25,0,10.0097,0.0012207,-0.00732422,-2.42531,0.0550706,-0.0738423,0.0535176,0.0715807,-0.0922309,0.147149,-0.124241,-0.0834859,0.0107193,0.0190735,0.0154114,0.0122833,0.00652313,0.0232315,0.0434875,0.0151443,-9.97986,0.0160217,-0.00324249,0.0152206,0.445786,0.0167847,-0.0019455,0.0150299,0.00339508
25,1,10.0097,0.000305176,-0.00732422,-2.42409,0.0559862,-0.0735371,0.0486348,0.0715807,-0.0913154,0.145624,-0.121494,-0.0834859,0.0114822,0.0197601,0.018692,0.00133514,0.0101852,0.027504,0.0417709,0.0175858,-9.97986,0.0163651,-0.00152588,0.0147247,0.352631,0.0178909,-0.000724792,0.0166702,0.00411987
25,2,10.0097,-0.0491333,-0.00854492,-2.4244,0.0559862,-0.073232,0.0562642,0.0709703,-0.0937568,0.13128,-0.126682,-0.0834859,0.0105667,0.0207901,0.019989,0.00263214,0.00991821,0.0331116,0.0424957,0.0202942,-9.97986,0.0131607,-0.00686646,0.0150681,0.252075,0.0174332,-0.001297,0.0156021,0.00709534
25,3,10.0097,-0.00305176,-0.00900269,-2.42562,0.0565965,-0.073232,0.0529073,0.0544908,-0.0934516,0.14013,-0.125766,-0.0847066,0.00701904,0.0235748,0.0234604,0.0069046,0.0135803,0.0416183,0.0444794,0.019722,-9.97986,0.0121307,-0.00793457,0.014534,0.1548,0.0160217,0.000190735,0.0159073,0.00228882
25,4,9.69686,-0.000610352,-0.0108337,-2.42623,0.0578172,-0.0741475,0.050771,0.0416735,-0.0934516,0.144708,-0.124241,-0.0847066,0.0168228,0.020256,0.0217438,0.00324249,0.0056076,0.044136,0.0456238,0.0182724,-9.97986,0.0124359,-0.00198364,0.0111389,0.0581741,0.0161743,0.00507355,0.0196075,0.00484467
25,5,7.99672,0.0012207,-0.0106812,-2.42684,0.055681,-0.0744527,0.0553487,0.0508287,-0.0931465,0.145624,-0.124546,-0.085317,0.0180435,0.0260925,0.0240326,0.00389099,0.0147629,0.0489807,0.0443649,0.0195694,-9.97986,0.0138092,-0.00694275,0.0094223,-0.041008,0.0192642,0.00858307,0.0212097,0.00656128
25,6,7.50142,0.000610352,-0.0102234,-2.42623,0.0550706,-0.075063,0.0556539,0.059984,-0.0919257,0.144708,-0.126377,-0.0859274,0.0125885,0.0229645,0.0279999,0.000839233,0.00915527,0.0476456,0.0452805,0.0133514,-9.97986,0.014801,-0.00770569,0.0087738,-0.146942,0.0161362,0.0110626,0.0220871,0.00598907
25,7,7.59114,0,-0.00991821,-2.42623,0.0553758,-0.0741475,0.0477193,0.0682238,-0.0919257,0.146539,-0.123325,-0.0859274,0.0113297,0.0316238,0.0340652,-0.000457764,0.0135422,0.0605011,0.0450897,0.0164032,-9.97986,0.0127792,-0.00385284,0.013237,-0.248756,0.019989,0.0202179,0.0209808,0.000572205
25,8,8.71327,-0.000305176,-0.0088501,-2.42684,0.0553758,-0.075063,0.0544332,0.0828722,-0.0916206,0.144708,-0.125766,-0.0856222,0.0130844,0.0296021,0.0330734,-0.00526428,0.0143433,0.06073,0.0412369,0.0127029,-9.97986,0.0154495,-0.00923157,0.0134277,-0.346603,0.0185013,0.014534,0.0229645,0.00545502
25,9,10.0097,-0.00213623,-0.00701904,-2.42745,0.0544603,-0.075063,0.0535176,0.104234,-0.0910102,0.142877,-0.125156,-0.0880636,0.0143814,0.0283051,0.0349808,-0.01194,0.0154495,0.0614929,0.0391388,0.0088501,-9.97986,0.0145721,-0.00522614,0.0087738,-0.440407,0.0173569,0.0082016,0.0213242,0.00484467
26,0,10.0097,-0.000610352,-0.0088501,-2.43081,0.0532396,-0.0762837,0.054128,0.0816515,-0.0949775,0.144098,-0.127292,-0.0892843,0.00713348,0.0305176,0.0297928,-0.020752,0.0113297,0.0609589,0.0357437,0.0050354,-9.97986,0.0119781,-0.00530243,0.0117493,-0.528908,0.0187302,0.00679016,0.0210953,0.00301361
26,1,10.0097,-0.000305176,-0.00793457,-2.42806,0.0535448,-0.0759786,0.0513814,0.0724962,-0.0949775,0.143487,-0.125766,-0.0895895,0.0107574,0.0305176,0.0304031,-0.0230408,0.0147629,0.0669861,0.0375748,0.0094223,-9.97986,0.0102997,-0.00480652,0.0127792,-0.611458,0.0196075,0.00553131,0.0213242,0.00377655
26,2,10.0097,0.000305176,-0.00839233,-2.42959,0.0535448,-0.0759786,0.0513814,0.0697496,-0.0952827,0.144403,-0.127903,-0.0889791,0.0120544,0.0329208,0.0315094,-0.0214767,0.00888824,0.0677872,0.0498199,0.00518799,-9.97986,0.00816345,-0.00930786,0.0112534,-0.6847,0.0212097,0.00785828,0.0244522,0.00370026
26,3,10.0097,0.000305176,-0.00671387,-2.42898,0.0526292,-0.0753682,0.0577901,0.0691393,-0.0949775,0.143182,-0.126682,-0.0898946,0.011673,0.0358963,0.0262451,-0.0292969,0.0165558,0.0685883,0.0453949,0.00980377,-9.97986,0.00572205,-0.00934601,0.0152969,-0.742683,0.0217056,-0.000267029,0.0257874,0.00274658
26,4,10.0097,-0.0012207,-0.00564575,-2.42898,0.0532396,-0.0765889,0.0516866,0.0691393,-0.0946723,0.143792,-0.124546,-0.0874532,0.0120926,0.0407028,0.0261307,-0.0458527,0.0109482,0.0662231,0.0427628,0.00911713,-9.97986,0.01194,-0.00408173,0.0130463,-0.796547,0.0242996,0.00282288,0.0249863,0.00389099
26,5,10.0097,-0.000305176,-0.00534058,-2.42837,0.0547655,-0.0747579,0.0519917,0.0691393,-0.0943672,0.146234,-0.126072,-0.0874532,0.0121307,0.0309372,0.0237274,-0.0476456,0.0088501,0.0617599,0.0432587,0.00961304,-9.97986,0.001297,-0.00419617,0.00823975,-0.844574,0.0253296,-0.0044632,0.0280762,0.00740051
26,6,10.0097,-0.000915527,-0.00442505,-2.42806,0.0535448,-0.0747579,0.0547383,0.0685289,-0.0931465,0.143792,-0.126377,-0.085317,0.00911713,0.0299835,0.0213242,-0.0239944,0.00793457,0.060463,0.0419617,0.0145721,-9.97986,0.00907898,-0.00831604,0.00659943,-0.889359,0.0291824,-0.00278473,0.0304794,0.00453949
26,7,10.0097,-0.000305176,-0.00427246,-2.42714,0.0553758,-0.0747579,0.0544332,0.0691393,-0.0934516,0.144708,-0.125461,-0.085317,0.0124359,0.0294495,0.0191116,-0.00873566,0.0100327,0.0572968,0.0448227,0.0162506,-9.97986,0.0105667,-0.00972748,0.00648499,-0.924797,0.0261688,-0.0063324,0.0276566,0.00526428
26,8,10.0097,0,-0.00350952,-2.42653,0.0578172,-0.0744527,0.0544332,0.0694445,-0.0928413,0.146234,-0.126377,-0.0844015,0.010376,0.017128,0.00743866,0.000267029,0.0123215,0.0583267,0.0428391,0.0140381,-9.97986,0.0101471,-0.00740051,0.00679016,-0.95211,0.0243378,-0.00759125,0.0304794,0.00656128
26,9,10.0097,0.00213623,-0.00213623,-2.42562,0.0569017,-0.0744527,0.0519917,0.0709703,-0.090705,0.146234,-0.124851,-0.0822652,0.0145721,0.00576019,0.00598907,0.0160217,0.0108337,0.0530624,0.0365067,0.017128,-9.97986,0.0120926,-0.00534058,0.0104141,-0.970268,0.0246811,-0.01297,0.0275803,0.00713348
27,0,10.0097,-0.000915527,-0.00259399,-2.42562,0.0553758,-0.0741475,0.0550435,0.0700548,-0.094062,0.145624,-0.124546,-0.0813497,0.0107574,0.0069809,0.0133514,0.0242615,0.0112152,0.0481033,0.0399017,0.0153732,-9.97986,0.0143051,-0.00602722,0.0107956,-0.989685,0.0266266,-0.0206375,0.0276566,0.00637054
27,1,10.0097,0.000610352,-0.00183105,-2.42501,0.0562914,-0.0741475,0.054128,0.0709703,-0.0897895,0.145929,-0.125156,-0.0822652,0.00610352,0.0155258,0.0181198,0.0315094,0.0133133,0.0452805,0.041275,0.0172043,-9.97986,0.0151443,-0.00377655,0.0107574,-0.997696,0.0287628,-0.0198364,0.0246048,0.00843048
27,2,10.0097,-0.000915527,-0.000610352,-2.42409,0.0569017,-0.073232,0.0526021,0.0731066,-0.0910102,0.147455,-0.124851,-0.0810445,0.0103378,0.0238037,0.019722,0.0428391,0.0131226,0.0416565,0.0382996,0.0144196,-9.97986,0.00881195,-0.0038147,0.0101852,-1.00311,0.0259781,-0.0198364,0.0287247,0.00862122
27,3,10.0097,-0.00152588,-0.000152588,-2.42653,0.0559862,-0.0744527,0.054128,0.0551012,-0.0952827,0.146539,-0.125461,-0.0822652,0.0124359,0.0188446,0.0260544,0.0411606,0.016861,0.0337219,0.0365067,0.0167465,-9.97986,0.0110626,-0.0114059,0.00980377,-0.997009,0.0233459,-0.0255203,0.0281525,0.00507355
27,4,9.64955,-0.000305176,-0.00167847,-2.4247,0.0553758,-0.0735371,0.054128,0.0410631,-0.0928413,0.145929,-0.127292,-0.0813497,0.0094986,0.0198364,0.0240707,0.033989,0.0141907,0.0323868,0.0299835,0.0171661,-9.97986,0.012207,-0.0114059,0.0087738,-0.983849,0.0240326,-0.0276947,0.0294876,0.00545502
27,5,7.96163,-0.0012207,-0.000305176,-2.42531,0.0559862,-0.0747579,0.0556539,0.0508287,-0.0922309,0.147455,-0.125766,-0.0816549,0.0151062,0.02285,0.0218201,0.0236511,0.016861,0.0301361,0.0271988,0.0119019,-9.97986,0.0152206,-0.0025177,0.0118637,-0.970345,0.0293732,-0.030632,0.0255203,0.00839233
27,6,7.48921,0,0.000915527,-2.42562,0.0550706,-0.0744527,0.0547383,0.0615099,-0.0928413,0.146539,-0.123325,-0.0819601,0.0120163,0.0210571,0.0196075,0.0198746,0.0188446,0.0255585,0.0283813,0.00709534,-9.97986,0.0119781,-0.00804901,0.010643,-0.957413,0.0267792,-0.0331116,0.0227356,0.00892639
27,7,7.59725,0.000915527,0.00137329,-2.42623,0.0550706,-0.075063,0.0547383,0.0679186,-0.0919257,0.145013,-0.126377,-0.0834859,0.00686646,0.0273514,0.0167084,0.0130844,0.0178909,0.0246429,0.0304031,0.00476837,-9.97986,0.0108337,-0.00267029,0.0121307,-0.937424,0.0271988,-0.0310898,0.0230408,0.00831604
27,8,8.68306,0.000610352,0.00274658,-2.42684,0.0547655,-0.075063,0.054128,0.0831774,-0.0916206,0.145013,-0.12363,-0.0825704,0.0114822,0.0235367,0.0201416,0.00705719,0.0241852,0.0222778,0.0245667,0.00301361,-9.97986,0.0148392,-0.00236511,0.0104904,-0.910568,0.0285339,-0.033989,0.0226212,0.00606537
27,9,10.0097,0,0.00534058,-2.42745,0.0553758,-0.075063,0.0538228,0.103624,-0.0910102,0.144403,-0.126377,-0.0850118,0.0131989,0.0218201,0.0216293,0.00965118,0.0258255,0.0191116,0.0267029,0.0063324,-9.97986,0.0140381,-0.00247955,0.0130081,-0.881538,0.0274277,-0.0281143,0.0241852,0.0101852
28,0,10.0097,-0.0012207,0.00289917,-2.42806,0.0541551,-0.0765889,0.0522969,0.0813463,-0.095893,0.143487,-0.126987,-0.0868429,0.0102997,0.0232697,0.0199509,0.0114441,0.0185776,0.0129318,0.0211716,0.00610352,-9.97986,0.0122833,-0.000152588,0.00934601,-0.852432,0.0267792,-0.0303268,0.0195694,0.00667572
28,1,10.0097,-0.000610352,0.00350952,-2.4302,0.0538499,-0.0756734,0.04894,0.0737169,-0.095893,0.143487,-0.127903,-0.085317,0.0102234,0.024147,0.0219727,0.020256,0.0272751,0.0159073,0.017395,0.00610352,-9.97986,0.0127029,-0.00415802,0.0115204,-0.819321,0.0252914,-0.0258255,0.018959,0.00907898
28,2,10.0097,0,0.00305176,-2.4305,0.0523241,-0.0762837,0.0519917,0.0691393,-0.0943672,0.143182,-0.127598,-0.0859274,0.00835419,0.0223923,0.0192642,0.017128,0.0258636,0.0139618,0.0185776,0.00480652,-9.97986,0.00984192,-0.00465393,0.0109863,-0.779533,0.0315475,-0.0234222,0.0212479,0.00946045
28,3,10.0097,-0.000305176,0.00320435,-2.42989,0.0529344,-0.0762837,0.0516866,0.0697496,-0.0961982,0.143487,-0.128208,-0.0868429,0.0115967,0.0261688,0.0196838,0.0189209,0.0232697,0.0133514,0.0227737,0.0112534,-9.97986,0.0117111,-0.0063324,0.00835419,-0.745277,0.0328445,-0.0230408,0.0202179,0.0119019
28,4,10.0097,0.0012207,0.00320435,-2.42867,0.0547655,-0.0762837,0.054128,0.0691393,-0.0949775,0.143792,-0.127598,-0.0847066,0.0117111,0.0255203,0.0117493,0.0167847,0.0270844,0.0094223,0.0165176,0.0153732,-9.97986,0.0154114,-0.00480652,0.0128937,-0.708199,0.0304031,-0.0271225,0.0210953,0.00934601
28,5,10.0097,-0.000610352,0.00289917,-2.42837,0.0550706,-0.0762837,0.0535176,0.0694445,-0.0952827,0.144098,-0.126377,-0.0847066,0.0101852,0.0244141,0.00862122,0.0152206,0.0252151,0.0056839,0.0163269,0.0120163,-9.97986,0.0167465,-0.00495911,0.01091,-0.676498,0.0284958,-0.0279999,0.0205994,0.0110245
28,6,10.0097,-0.000305176,0.00289917,-2.42806,0.0553758,-0.075063,0.0532125,0.0709703,-0.0937568,0.145624,-0.126682,-0.0844015,0.00846863,0.0284195,0.00827789,0.0131607,0.0216675,0.0043869,0.00991821,0.00465393,-9.97986,0.0179672,-0.0025177,0.0120163,-0.644341,0.0289536,-0.0270081,0.0210953,0.00999451
28,7,10.0097,0.0012207,0.00350952,-2.42776,0.0550706,-0.0744527,0.0532125,0.0691393,-0.094062,0.144098,-0.126377,-0.0834859,0.011673,0.0312424,0.00835419,0.0108719,0.0265884,0.00160217,0.0120163,0.00385284,-9.97986,0.0141525,-0.00305176,0.00926971,-0.615273,0.0302887,-0.0323105,0.0156403,0.0130081
28,8,10.0097,-0.00152588,0.00289917,-2.42623,0.055681,-0.0744527,0.054128,0.0700548,-0.0928413,0.145318,-0.125461,-0.0816549,0.012207,0.0273895,0.0149918,0.0107956,0.0217438,0.00102997,0.00968933,0.00675201,-9.97986,0.0143433,-0.00408173,0.0151062,-0.579262,0.0313568,-0.0342941,0.0177765,0.0110626
28,9,10.0097,0.000915527,0.00335693,-2.42531,0.0553758,-0.0744527,0.0550435,0.07036,-0.0919257,0.148675,-0.125461,-0.0810445,0.0101471,0.0261688,0.0166702,0.00751495,0.0217438,-0.00358582,0.000457764,0.010376,-9.97986,0.0170135,-0.000686646,0.0130463,-0.538101,0.0300598,-0.0376511,0.0180054,0.0105667
29,0,10.0097,0.000610352,0.00396729,-2.4244,0.0562914,-0.0735371,0.0580953,0.0706652,-0.0910102,0.147455,-0.125156,-0.0810445,0.0111771,0.0255585,0.0149536,0.00179291,0.0214005,-0.00671387,0.000534058,0.0118637,-9.97986,0.0115204,-0.00160217,0.0124359,-0.497475,0.0325394,-0.0365829,0.0203323,0.0111008
29,1,10.0097,0.00244141,0.00366211,-2.4247,0.0578172,-0.0738423,0.0553487,0.0715807,-0.0922309,0.145624,-0.126072,-0.080129,0.0117874,0.0283432,0.0206757,0.00984192,0.0246429,-0.00175476,0.00801086,0.00801086,-9.97986,0.0126648,-0.00427246,0.0137711,-0.455894,0.0312805,-0.0331497,0.0180817,0.0127792
29,2,10.0097,0.000305176,0.00396729,-2.4244,0.0559862,-0.0744527,0.0547383,0.072191,-0.0910102,0.14837,-0.123325,-0.0786031,0.0137711,0.02388,0.0183105,0.00545502,0.0244904,-0.00679016,0.0019455,0.0140381,-9.97986,0.0172806,-0.00320435,0.0126648,-0.411568,0.0308609,-0.0326538,0.016098,0.0138092
29,3,10.0097,-0.000305176,0.00411987,-2.42684,0.0553758,-0.0741475,0.0516866,0.0569322,-0.0928413,0.146539,-0.126072,-0.0807394,0.00850677,0.0181961,0.0196075,0.00572205,0.0231171,-0.00743866,0.00301361,0.0155258,-9.97986,0.0132751,-0.00411987,0.011673,-0.365486,0.0282669,-0.0325012,0.0159454,0.0126648
29,4,9.85188,-0.000305176,0.00366211,-2.42562,0.0562914,-0.0735371,0.0544332,0.0416735,-0.0949775,0.146234,-0.124546,-0.080129,0.010643,0.0135422,0.0213242,0.00766754,0.0194168,-0.0128174,-0.000457764,0.0139236,-9.97986,0.0124359,-0.00171661,0.0102615,-0.321732,0.0265503,-0.033493,0.0155258,0.0125122
29,5,8.19234,0.00183105,0.00350952,-2.42592,0.0559862,-0.0738423,0.0544332,0.0508287,-0.0919257,0.145624,-0.126682,-0.0810445,0.0107574,0.0124359,0.0201416,0.00846863,0.0202179,-0.011673,-0.00110626,0.0125122,-9.97986,0.0130081,-0.00305176,0.0157547,-0.273666,0.0261307,-0.0314713,0.0134277,0.0100327
29,6,7.69887,0.000610352,0.00427246,-2.42592,0.0562914,-0.0744527,0.054128,0.0621202,-0.0934516,0.145929,-0.125766,-0.0807394,0.011673,0.0210953,0.0242996,0.00530243,0.0178528,-0.00888824,-0.00629425,0.0133133,-9.97986,0.0136948,-0.00106812,0.014534,-0.218658,0.022316,-0.0305557,0.0141525,0.00900269
29,7,7.8011,0.000915527,0.00549316,-2.42592,0.0550706,-0.0747579,0.0547383,0.0688341,-0.094062,0.145013,-0.126072,-0.0819601,0.00816345,0.0239944,0.0296021,0.00709534,0.0122452,-0.0140762,-0.0019455,0.018959,-9.97986,0.0139999,-0.00331879,0.0156021,-0.168076,0.0224304,-0.0285721,0.0125122,0.0112152
29,8,8.92842,0.000305176,0.00564575,-2.42653,0.0544603,-0.0753682,0.0553487,0.0831774,-0.0916206,0.144708,-0.124851,-0.0825704,0.0120544,0.0300217,0.0217819,0.0104523,0.0112915,-0.0109482,-0.0019455,0.0221634,-9.97986,0.0194168,-0.00144958,0.0146103,-0.114594,0.0218201,-0.0310898,0.0139999,0.010643
29,9,10.0097,0.000305176,0.00778198,-2.42898,0.0550706,-0.0762837,0.0526021,0.102403,-0.0913154,0.145318,-0.125766,-0.0837911,0.011673,0.030632,0.0102997,0.00873566,0.00988007,-0.0172806,-0.000419617,0.0170898,-9.97986,0.0140762,0.00148773,0.0120163,-0.0623322,0.0178909,-0.0287628,0.0124741,0.00999451
30,0,10.0097,-0.000610352,0.00549316,-2.42928,0.0547655,-0.0765889,0.0522969,0.080736,-0.0946723,0.143487,-0.127598,-0.0856222,0.00812531,0.0245667,0.00778198,0.00930786,0.0105667,-0.0201035,0.00267029,0.0185394,-9.97986,0.0175476,-0.00175476,0.00862122,-0.0124741,0.0182343,-0.0299835,0.0144577,0.0123978
30,1,10.0097,0.000610352,0.00488281,-2.42928,0.0526292,-0.0747579,0.0513814,0.072191,-0.0955879,0.143792,-0.126987,-0.0856222,0.0111771,0.0264359,0.0138092,0.00835419,0.00419617,-0.0175858,0.00423431,0.0214386,-9.97986,0.0180435,-0.000114441,0.0127029,0.032692,0.0181961,-0.0275421,0.0160599,0.0129318
30,2,10.0097,0.000610352,0.00488281,-2.42989,0.0550706,-0.0759786,0.0532125,0.0700548,-0.095893,0.142572,-0.128513,-0.0859274,0.00411987,0.024147,0.015831,0.0105286,0.000228882,-0.0202179,-0.000457764,0.0190353,-9.97986,0.0150681,-0.00263214,0.0136566,0.0814438,0.0148773,-0.0268173,0.0178909,0.00782013
30,3,10.0097,0.000610352,0.00411987,-2.42837,0.0544603,-0.0759786,0.0513814,0.0688341,-0.0949775,0.143182,-0.128513,-0.0862325,0.00938416,0.023613,0.0218201,0.00762939,0.00270844,-0.0152588,-0.000801086,0.0250244,-9.97986,0.0141144,0.000534058,0.0151062,0.129471,0.0163651,-0.0215149,0.0197601,0.0127411
30,4,10.0097,0.000915527,0.00350952,-2.42776,0.0535448,-0.0759786,0.0529073,0.0691393,-0.094062,0.143487,-0.128513,-0.0856222,0.00919342,0.0233841,0.0177765,0.00957489,-0.00255585,-0.0227356,-0.000305176,0.0251389,-9.97986,0.0136948,-0.00358582,0.0122452,0.167923,0.0138092,-0.0272369,0.016098,0.0119781
30,5,10.0097,0.000610352,0.00396729,-2.42714,0.0541551,-0.0762837,0.0519917,0.0688341,-0.0943672,0.143792,-0.128818,-0.0834859,0.00797272,0.0206757,0.0164032,0.0146103,0.000801086,-0.0187302,-0.00156403,0.025177,-9.97986,0.0163269,0.000534058,0.0141525,0.200386,0.014534,-0.0234604,0.0193024,0.0104904
30,6,10.0097,0.000305176,0.00396729,-2.42806,0.055681,-0.0756734,0.054128,0.0697496,-0.094062,0.145013,-0.125461,-0.0834859,0.0094986,0.0232697,0.0148773,0.00923157,-0.00293732,-0.0265503,-0.00259399,0.0218964,-9.97986,0.0138092,0.00305176,0.0130463,0.23632,0.010643,-0.0273132,0.0181961,0.0101852
30,7,10.0097,-0.00183105,0.00396729,-2.42684,0.0541551,-0.075063,0.0538228,0.0685289,-0.0937568,0.145318,-0.126072,-0.0828756,0.00816345,0.02388,0.0208282,0.00900269,-0.00328064,-0.0207138,-0.00133514,0.0254822,-9.97986,0.0164032,7.62939e-005,0.00762939,0.275154,0.0133133,-0.0256348,0.0163269,0.0112534
30,8,10.0097,0.000610352,0.00305176,-2.42592,0.055681,-0.0738423,0.054128,0.0682238,-0.0931465,0.145929,-0.125461,-0.0828756,0.00888824,0.022583,0.0206375,0.00892639,-0.00392914,-0.0245667,0.00495911,0.0224304,-9.97986,0.0185013,-0.00144958,0.00919342,0.301094,0.0138092,-0.0217438,0.0175095,0.0133896
30,9,10.0097,0.000305176,0.00259399,-2.42592,0.0550706,-0.0735371,0.055959,0.0712755,-0.0913154,0.147149,-0.125156,-0.080129,0.00835419,0.0191116,0.0195694,0.00770569,-0.00526428,-0.030632,-0.0012207,0.0276184,-9.97986,0.0197983,-0.00225067,0.00915527,0.330276,0.0124359,-0.0241852,0.0151443,0.00911713
31,0,10.0097,-0.000305176,0.00305176,-2.42409,0.0572069,-0.0741475,0.0556539,0.0752428,-0.0910102,0.145624,-0.124546,-0.0807394,0.0082016,0.0283813,0.0211716,0.00926971,-0.00640869,-0.0254822,0.00869751,0.0248718,-9.97986,0.0163269,0.00324249,0.00907898,0.350647,0.0112534,-0.0228119,0.0133896,0.00694275
31,1,10.0097,0.000915527,0.00259399,-2.42531,0.0575121,-0.0741475,0.054128,0.0694445,-0.0931465,0.146844,-0.12363,-0.0810445,0.00724792,0.0244141,0.0238419,0.00759125,-0.00450134,-0.023613,0.00087738,0.0279617,-9.97986,0.0147247,0.00328064,0.00751495,0.372734,0.0109482,-0.0204849,0.0164413,0.0115967
31,2,10.0097,0.000305176,0.00259399,-2.42592,0.0553758,-0.075063,0.0568746,0.0724962,-0.0922309,0.14776,-0.122104,-0.080129,0.00614166,0.0232697,0.0205612,0.0122833,-0.00865936,-0.0242233,-0.00396729,0.02388,-9.97986,0.0145721,0.0063324,0.00629425,0.397377,0.0145721,-0.0226974,0.0159454,0.01091
31,3,10.0097,0.000610352,0.00244141,-2.42623,0.0565965,-0.0735371,0.0535176,0.0505236,-0.0952827,0.145624,-0.125461,-0.0813497,0.00766754,0.0228882,0.0200272,0.0138474,-0.00305176,-0.022583,-0.000915527,0.0230789,-9.97986,0.0180435,0.000190735,0.00450134,0.4142,0.0120163,-0.0233841,0.00995636,0.00991821
31,4,9.81496,-0.000305176,0.000305176,-2.42379,0.0569017,-0.0738423,0.0547383,0.0428942,-0.0928413,0.146234,-0.126987,-0.0813497,0.00274658,0.0234604,0.0137711,0.00789642,-0.00354767,-0.0214767,0.00469208,0.0297546,-9.97986,0.0154495,0.00736237,0.0050354,0.433044,0.0112534,-0.0212097,0.0111008,0.00759125
31,5,8.15541,0,0.00106812,-2.42653,0.0550706,-0.0753682,0.0547383,0.0502184,-0.0931465,0.146234,-0.125156,-0.0819601,0.0069046,0.0239944,0.0183868,0.00972748,-0.00854492,-0.0239563,0.00228882,0.0237656,-9.97986,0.0166321,0.00553131,0.00415802,0.45475,0.0156403,-0.0180817,0.00858307,0.00988007
31,6,7.68361,0.000915527,0.000762939,-2.42745,0.0559862,-0.0738423,0.0547383,0.067003,-0.0931465,0.145318,-0.124851,-0.0825704,0.00492096,0.0216675,0.0190735,0.00804901,-0.00617981,-0.0196075,0.0094223,0.026741,-9.97986,0.0159454,0.00335693,0.00343323,0.464592,0.0133133,-0.0230789,0.00350952,0.00743866
31,7,7.8011,0.000610352,0.00228882,-2.42592,0.0559862,-0.0753682,0.054128,0.0679186,-0.0919257,0.145318,-0.125461,-0.080129,0.0104904,0.0247955,0.0257874,0.0197983,-0.00377655,-0.018158,0.0198746,0.0260925,-9.97986,0.0175095,0.00785828,0.00782013,0.479355,0.0208282,-0.0164032,0.00907898,0.0108337
31,8,8.95223,0.0012207,0.00259399,-2.42562,0.0544603,-0.0753682,0.0538228,0.0828722,-0.0910102,0.144708,-0.125156,-0.0834859,0.00488281,0.0128937,0.018425,0.00526428,-0.00888824,-0.0265884,0.00934601,0.0180817,-9.97986,0.0105286,-0.000457764,0.000572205,0.487633,0.0194168,-0.0229263,0.00240326,0.00614166
31,9,10.0097,0.0012207,0.00366211,-2.42776,0.0535448,-0.0762837,0.0535176,0.104234,-0.0913154,0.143792,-0.124851,-0.0844015,0.013237,0.0163651,0.0243378,0.00961304,-0.0063324,-0.0176239,0.0169373,0.0224304,-9.97986,0.0135422,0.000686646,0.000991821,0.502357,0.0222397,-0.0199509,0.00377655,0.00701904
32,0,10.0097,-0.000305176,0.00167847,-2.42928,0.0535448,-0.0762837,0.0535176,0.0795153,-0.0952827,0.143792,-0.126072,-0.0868429,0.0117874,0.0191879,0.018158,0.00583649,0.00205994,-0.0228882,0.0142288,0.0196457,-9.97986,0.00900269,0.00621796,0.00190735,0.513573,0.0279236,-0.0189972,0.00522614,0.00865936
32,1,10.0097,0.000610352,0.000915527,-2.43142,0.0523241,-0.0753682,0.0526021,0.0731066,-0.0952827,0.143792,-0.127292,-0.0865377,0.0112915,0.021019,0.0236893,0.0101471,0.00118256,-0.0164795,0.0104141,0.0244904,-9.97986,0.013237,0.00476837,0.00183105,0.519753,0.0297928,-0.0198364,0.00709534,0.00991821
32,2,10.0097,0,0.000152588,-2.42928,0.0538499,-0.0753682,0.0532125,0.0718859,-0.0968086,0.142877,-0.127292,-0.0874532,0.0130844,0.0195313,0.0230789,0.00804901,0.00240326,-0.0192261,0.0075531,0.0230789,-9.97986,0.016098,0.00511169,0.00434875,0.523071,0.0322723,-0.0180435,0.00518799,0.0075531
32,3,10.0097,-0.000610352,0.000305176,-2.42898,0.0547655,-0.0768941,0.0513814,0.0691393,-0.0946723,0.143487,-0.127903,-0.0871481,0.0102997,0.0162506,0.0247574,0.0062561,0.00160217,-0.0157928,0.00679016,0.0272369,-9.97986,0.0144577,0.00473022,0.00411987,0.521851,0.0318146,-0.0196838,0.00263214,0.0106049
32,4,10.0097,0.000305176,-0.000457764,-2.42745,0.0541551,-0.0756734,0.0516866,0.0691393,-0.0943672,0.144098,-0.126987,-0.0862325,0.00762939,0.0203705,0.022583,0.00732422,0.00267029,-0.0182343,0.00663757,0.0246811,-9.97986,0.018692,0.0056839,0.00247955,0.514984,0.0355148,-0.0179291,0.00389099,0.00907898
32,5,10.0097,-0.000305176,-0.000305176,-2.42898,0.0538499,-0.0756734,0.0526021,0.0691393,-0.0937568,0.144403,-0.126987,-0.085317,0.0159836,0.021286,0.020752,0.00274658,0.00545502,-0.0136566,0.0038147,0.0252151,-9.97986,0.01297,0.00179291,0.0018692,0.511169,0.0379562,-0.017662,0.00225067,0.00915527
32,6,10.0097,-0.000915527,-0.000762939,-2.42745,0.0547655,-0.0753682,0.0538228,0.0700548,-0.0931465,0.144098,-0.126377,-0.0813497,0.0116348,0.0204468,0.0213242,-0.00175476,0.00576019,-0.0137329,0.00331879,0.026741,-9.97986,0.013237,0.00244141,0.00480652,0.507088,0.0431824,-0.0189209,0.0025177,0.00804901
32,7,10.0097,0.000305176,-0.000762939,-2.42562,0.0550706,-0.0756734,0.0519917,0.0706652,-0.0937568,0.143792,-0.126072,-0.0847066,0.0147247,0.0245285,0.0233078,-0.00358582,0.00637054,-0.0126266,0.00343323,0.0269699,-9.97986,0.0119781,0.00793457,0.00465393,0.499344,0.0392532,-0.0168991,0.00164032,0.010643
32,8,10.0097,0.000305176,-0.000457764,-2.42592,0.0553758,-0.0756734,0.0538228,0.0709703,-0.0934516,0.145929,-0.125766,-0.0834859,0.00736237,0.0185394,0.0172806,-0.00701904,0.00667572,-0.0135803,0.00442505,0.0264359,-9.97986,0.0146484,0.00530243,-0.000534058,0.489655,0.0421143,-0.0210953,-0.00320435,0.00415802
32,9,10.0097,0.000305176,-0.000610352,-2.42684,0.0559862,-0.0738423,0.055959,0.0718859,-0.0916206,0.145013,-0.124241,-0.0825704,0.0128174,0.020752,0.0203323,-0.00846863,0.0108719,-0.0104141,0.00564575,0.0242996,-9.97986,0.0183868,0.0030899,-0.00110626,0.483246,0.0424576,-0.020256,-0.00205994,0.00686646
33,0,10.0097,0.0012207,-0.000152588,-2.4244,0.0584276,-0.0744527,0.0550435,0.0724962,-0.090705,0.146234,-0.12302,-0.0819601,0.0102997,0.0246048,0.0195313,-0.013237,0.015831,-0.0104523,0.00217438,0.0205231,-9.97986,0.0151443,0.00495911,0.00549316,0.46566,0.045166,-0.0209808,0.00133514,0.00961304
33,1,10.0097,0.000305176,-0.00106812,-2.42379,0.0553758,-0.0738423,0.0550435,0.0718859,-0.090705,0.146844,-0.124546,-0.0819601,0.0140381,0.0244904,0.017662,-0.00434875,0.0167084,-0.00965118,0.0019455,0.0235367,-9.97986,0.0205231,0.0069809,0.00549316,0.453987,0.0414658,-0.0175095,0.000953674,0.0102997
33,2,10.0097,0.00152588,-0.000915527,-2.42409,0.0572069,-0.0735371,0.054128,0.0712755,-0.0916206,0.147149,-0.124546,-0.0844015,0.0109482,0.0233841,0.0131226,0.0133133,0.0226212,-0.00236511,0.00362396,0.0252914,-9.97986,0.0189972,0.00751495,0.00583649,0.446396,0.0411224,-0.0154495,0.00198364,0.00640869
33,3,10.0097,-0.000915527,-0.00106812,-2.42806,0.0559862,-0.0738423,0.0535176,0.0563219,-0.094062,0.145929,-0.125766,-0.0816549,0.0159836,0.0249481,0.0164032,0.0187302,0.0234985,-0.00606537,0.00793457,0.0291824,-9.97986,0.0128937,0.00705719,0.00301361,0.433846,0.042305,-0.0174332,0.00301361,0.00644684
33,4,9.93337,-0.000305176,-0.00274658,-2.42562,0.0562914,-0.0738423,0.0544332,0.0401476,-0.0943672,0.145624,-0.126987,-0.0828756,0.0138474,0.0270462,0.0177002,0.0167465,0.0263977,-0.00667572,0.00717163,0.0223541,-9.97986,0.016098,0.00205994,0.00442505,0.420113,0.039711,-0.0138474,0.00564575,0.00606537
33,5,8.27413,0.000610352,-0.00244141,-2.42653,0.0559862,-0.0744527,0.0550435,0.0508287,-0.0931465,0.145929,-0.125461,-0.0816549,0.00896454,0.0283051,0.0154114,0.0148773,0.0326157,-0.00579834,0.00709534,0.0184631,-9.97986,0.00995636,-0.000419617,0.0044632,0.412636,0.0331879,-0.0115585,0.0050354,0.00347137
33,6,7.79927,0,-0.00152588,-2.42837,0.0541551,-0.0741475,0.055959,0.0615099,-0.0922309,0.144098,-0.124851,-0.0834859,0.0129318,0.0298691,0.0147247,0.0191879,0.03685,-0.00102997,0.00804901,0.0233459,-9.97986,0.0138092,-0.00106812,0.00919342,0.398026,0.031395,-0.00988007,0.00293732,0.00862122
33,7,7.92165,0.00152588,-0.00152588,-2.42562,0.0550706,-0.0744527,0.0547383,0.07036,-0.0922309,0.145929,-0.126377,-0.0831808,0.0124359,0.027504,0.0138855,0.0256729,0.0362015,0.00152588,0.00537872,0.0305176,-9.97986,0.0173187,0.00614166,0.00854492,0.38166,0.0242615,-0.0120926,0.0056076,0.00694275
33,8,9.03737,0.000610352,-0.000457764,-2.42745,0.0550706,-0.0765889,0.0544332,0.0837877,-0.0931465,0.145318,-0.125156,-0.0837911,0.0138092,0.0251389,0.0142288,0.0338364,0.0416565,0.00377655,0.00953674,0.026207,-9.97986,0.0174713,0.00663757,0.00946045,0.360565,0.0159073,-0.0111771,0.00389099,0.00789642
33,9,10.0097,0.000305176,-0.000305176,-2.42776,0.0526292,-0.0762837,0.054128,0.0993517,-0.0925361,0.143182,-0.125156,-0.0868429,0.00953674,0.0246048,0.0136948,0.0330353,0.0419235,0.00221252,0.00614166,0.0239182,-9.97986,0.0135803,0.00957489,0.00404358,0.334244,0.00953674,-0.0122452,0.00465393,0.00320435
34,0,10.0097,0.00152588,-0.00137329,-2.4302,0.0529344,-0.0765889,0.0519917,0.0779894,-0.0955879,0.144098,-0.127292,-0.0877584,0.00907898,0.0285721,0.0141907,0.0279236,0.0508499,0.00453949,7.62939e-005,0.0241852,-9.97986,0.021019,0.00938416,0.00732422,0.317535,0.00156403,-0.0135803,0.0069809,0.00518799
34,1,10.0097,-0.000610352,-0.00198364,-2.42867,0.0541551,-0.0762837,0.0516866,0.0728014,-0.0946723,0.143792,-0.128208,-0.0889791,0.00965118,0.0226212,0.0163651,0.0251007,0.0493622,0.00621796,0.00465393,0.0229645,-9.97986,0.0184631,0.0050354,0.00743866,0.293236,0.00156403,-0.0109482,0.0069046,0.00404358
34,2,10.0097,-0.0012207,-0.00183105,-2.4302,0.0529344,-0.0762837,0.0513814,0.0700548,-0.095893,0.143182,-0.126987,-0.0883688,0.0088501,0.0108719,0.00968933,0.020256,0.0463486,0.00621796,0.000839233,0.0171661,-9.97986,0.0182724,0.00656128,0.00732422,0.272293,-0.00343323,-0.00957489,0.00682831,0.00389099
34,3,10.0097,-0.00183105,-0.00289917,-2.42928,0.0550706,-0.0756734,0.0519917,0.0688341,-0.0949775,0.144708,-0.127292,-0.0883688,0.0088501,0.0147247,0.010643,0.0190353,0.051651,0.00656128,-0.000419617,0.0223923,-9.97986,0.0182724,0.00450134,0.0107574,0.248528,-0.00263214,-0.011673,0.00675201,0.00522614
34,4,10.0097,0.0012207,-0.00259399,-2.42837,0.0541551,-0.0756734,0.0538228,0.0709703,-0.0955879,0.144403,-0.126682,-0.0868429,0.0111771,0.016861,0.0133514,0.0177383,0.0488663,0.00972748,0.000495911,0.019989,-9.97986,0.0165939,0.00484467,0.00907898,0.221138,-0.00183105,-0.00576019,0.0094223,0.00411987
34,5,10.0097,-0.000305176,-0.00274658,-2.42714,0.0541551,-0.0747579,0.0535176,0.0691393,-0.0928413,0.145013,-0.128208,-0.0868429,0.00808716,0.0185776,0.0149155,0.0224686,0.0526428,0.0107574,-0.00595093,0.0221634,-9.97986,0.0162506,0.00480652,0.00881195,0.200119,-0.00331879,-0.00328064,0.0128555,0.00244141
34,6,10.0097,-0.000305176,-0.00244141,-2.42714,0.0547655,-0.0762837,0.0535176,0.0691393,-0.0937568,0.145013,-0.126377,-0.0859274,0.0147247,0.0228119,0.0179291,0.0206375,0.0551224,0.0125885,0.000457764,0.0190353,-9.97986,0.0162888,0.00534058,0.00930786,0.16571,-0.00427246,-0.00461578,0.0127411,0.0025177
34,7,10.0097,0.00213623,-0.00244141,-2.42684,0.0541551,-0.0744527,0.0547383,0.0685289,-0.0931465,0.143792,-0.125461,-0.0844015,0.00934601,0.0136948,0.0134659,0.0174713,0.0503922,0.00930786,0.00328064,0.0244522,-9.97986,0.0188065,0.00759125,0.0112152,0.131721,-0.00743866,-0.00896454,0.0087738,0.00152588
34,8,10.0097,0.000305176,-0.00244141,-2.42531,0.0553758,-0.075063,0.0547383,0.07036,-0.0931465,0.146539,-0.125766,-0.0844015,0.0111771,0.017662,0.0111771,0.0155258,0.0516129,0.0111389,0.00362396,0.0245667,-9.97986,0.0195313,-0.000419617,0.011673,0.103912,-0.00846863,-0.00782013,0.01194,0.000419617
34,9,10.0097,-0.000610352,-0.00320435,-2.4244,0.0562914,-0.0735371,0.0550435,0.0718859,-0.0919257,0.145013,-0.124851,-0.0828756,0.00865936,0.0163651,0.00999451,0.0159836,0.0494385,0.0107574,0.0044632,0.020256,-9.97986,0.013504,0.00743866,0.0121689,0.0619888,-0.0127029,-0.00862122,0.00537872,0.000648499
35,0,10.0097,0.000915527,-0.00335693,-2.42501,0.0565965,-0.0744527,0.0535176,0.0718859,-0.0919257,0.146234,-0.123935,-0.0813497,0.0120926,0.0205994,0.012207,0.0153732,0.0495529,0.0168991,0.00530243,0.022583,-9.97986,0.0137329,0.00579834,0.00793457,0.0305939,-0.0165939,-0.00808716,0.00606537,0.00366211
35,1,10.0097,0.000915527,-0.00350952,-2.42592,0.0562914,-0.0744527,0.0532125,0.0700548,-0.0910102,0.146539,-0.124241,-0.0822652,0.0127029,0.0197983,0.0130463,0.0202179,0.0524902,0.0136948,0.00701904,0.0216675,-9.97986,0.0190353,0.00934601,0.0139618,-0.00164032,-0.0138092,-0.00923157,0.00770569,0.00606537
35,2,10.0097,-0.000610352,-0.00350952,-2.42592,0.0562914,-0.0729268,0.055959,0.0709703,-0.0922309,0.146234,-0.124241,-0.0813497,0.00980377,0.0230026,0.0112915,0.018959,0.0510788,0.0154877,0.00270844,0.0205612,-9.97986,0.0138092,0.00324249,0.0111389,-0.0375366,-0.0235748,-0.0133514,0.00854492,-0.00114441
35,3,10.0097,0.000915527,-0.00244141,-2.42592,0.0553758,-0.0747579,0.0544332,0.0541857,-0.0943672,0.146234,-0.124546,-0.0831808,0.0123596,0.0229263,0.0117493,0.0197983,0.0544739,0.0126266,0.00087738,0.0238419,-9.97986,0.018158,0.00804901,0.0110245,-0.0624466,-0.0158691,-0.00865936,0.012207,0.00244141
35,4,9.71334,0.0012207,-0.00457764,-2.42623,0.0565965,-0.0744527,0.054128,0.0392321,-0.0946723,0.146234,-0.127292,-0.0834859,0.0111771,0.0191498,0.014534,0.0161362,0.0511551,0.0135422,7.62939e-005,0.0205994,-9.97986,0.0172424,0.00762939,0.0131607,-0.0974655,-0.0233078,-0.0114441,0.00511169,0.00205994
35,5,8.06874,-0.000915527,-0.00457764,-2.4247,0.0544603,-0.0735371,0.0550435,0.0520494,-0.0928413,0.146844,-0.126377,-0.0816549,0.0133133,0.0169754,0.0127792,0.018692,0.046463,0.0172043,0.00869751,0.0242615,-9.97986,0.0153351,0.0105667,0.012207,-0.124626,-0.0227737,-0.0123596,0.0101471,0.00152588
35,6,7.60366,-0.000305176,-0.0038147,-2.42592,0.0559862,-0.075063,0.0547383,0.0612047,-0.0925361,0.145318,-0.126377,-0.0822652,0.0123215,0.0226593,0.0166702,0.012207,0.0482559,0.018425,0.00717163,0.0259781,-9.97986,0.0165176,0.00629425,0.0115967,-0.155678,-0.0236893,-0.0124359,0.00484467,-0.00240326
35,7,7.67934,-0.000610352,-0.00198364,-2.42623,0.0547655,-0.0738423,0.0547383,0.0685289,-0.0931465,0.145013,-0.126072,-0.0837911,0.0140762,0.0252151,0.0131607,0.0139236,0.0400543,0.0180054,0.00846863,0.0191116,-9.97986,0.013237,0.00865936,0.00812531,-0.176468,-0.0227356,-0.00961304,0.00411987,-0.00389099
35,8,8.79628,0.000305176,-0.00137329,-2.42837,0.0538499,-0.075063,0.054128,0.0831774,-0.0919257,0.145318,-0.125156,-0.0844015,0.0163269,0.0258255,0.01091,0.0101471,0.0439453,0.0105667,0.00995636,0.0225449,-9.97986,0.0135803,0.00671387,0.0107193,-0.201416,-0.0217438,-0.00392914,0.00572205,-0.0018692
35,9,10.0097,0.00213623,-0.000152588,-2.42898,0.0535448,-0.0768941,0.0532125,0.102098,-0.0925361,0.144098,-0.125766,-0.0865377,0.0125504,0.018425,0.0152588,0.0167084,0.0414658,0.015564,0.00991821,0.0205231,-9.97986,0.022049,0.00404358,0.00400543,-0.21801,-0.0218582,0,0.00144958,0.000419617
36,0,10.0097,0.0012207,-0.0012207,-2.42867,0.0541551,-0.0759786,0.0519917,0.0810411,-0.0946723,0.143182,-0.126377,-0.0865377,0.0102234,0.0287247,0.0082016,0.0188446,0.0365448,0.0135803,0.0119019,0.0228119,-9.97986,0.0124359,0.00595093,0.00659943,-0.230827,-0.0223923,0.00217438,-0.00240326,-0.00350952
36,1,10.0097,-0.000610352,-0.00137329,-2.42867,0.0529344,-0.0765889,0.0516866,0.0728014,-0.0949775,0.143792,-0.126377,-0.0871481,0.0102615,0.0231552,0.0112534,0.0167465,0.0324631,0.017395,0.0152588,0.0244141,-9.97986,0.0150299,0.00576019,0.00530243,-0.242958,-0.0198364,0.00160217,-0.00236511,-0.00358582
36,2,10.0097,-0.000610352,-0.00228882,-2.42867,0.0526292,-0.0765889,0.0510762,0.0709703,-0.0961982,0.144403,-0.128513,-0.0877584,0.00701904,0.0180817,0.0131607,0.0147629,0.032196,0.0120163,0.00988007,0.0234604,-9.97986,0.013504,0.00839233,0.00659943,-0.252914,-0.0193024,0.000801086,-0.00415802,-0.00209808
36,3,10.0097,-0.000915527,-0.000762939,-2.42928,0.0547655,-0.0759786,0.050771,0.0682238,-0.0946723,0.144403,-0.127292,-0.0874532,0.00919342,0.0231171,0.0143814,0.0133896,0.0299454,0.0124359,0.0146866,0.0172043,-9.97986,0.0185394,0.00640869,0.00102997,-0.248375,-0.0170898,0.00354767,-0.00164032,-0.00404358
36,4,10.0097,0.000915527,-0.000457764,-2.42867,0.0544603,-0.0762837,0.0526021,0.07036,-0.0946723,0.143182,-0.127292,-0.0862325,0.0102615,0.0213242,0.0130463,0.0149536,0.0285339,0.0157547,0.0133514,0.0200653,-9.97986,0.0150299,0.0038147,-0.00156403,-0.239258,-0.0173569,0.000801086,-0.00846863,-0.00392914
36,5,10.0097,0.0012207,0.000305176,-2.42837,0.0550706,-0.0753682,0.0526021,0.0697496,-0.0946723,0.144098,-0.126072,-0.0862325,0.00923157,0.0193405,0.0120544,0.0169754,0.0307465,0.0126648,0.0172043,0.0217438,-9.97986,0.0111389,0.00644684,0.00247955,-0.237312,-0.0181961,0.000457764,-0.0111389,-0.0030899
36,6,10.0097,-0.000915527,0.000457764,-2.42776,0.055681,-0.0747579,0.0532125,0.0688341,-0.0931465,0.146234,-0.126987,-0.0847066,0.00995636,0.02285,0.00812531,0.0157166,0.023613,0.00656128,0.0162125,0.0270081,-9.97986,0.0135422,0.00312805,0,-0.228767,-0.0136948,0.000991821,-0.0122833,-0.00534058
36,7,10.0097,0.00152588,0.000610352,-2.42714,0.0547655,-0.0747579,0.0529073,0.0697496,-0.0937568,0.146539,-0.125766,-0.0834859,0.0127029,0.0183487,0.0104141,0.0115585,0.0190353,0.00514984,0.0153732,0.0230026,-9.97986,0.0112534,0.000457764,0.0037384,-0.220604,-0.0191498,-0.00144958,-0.0150681,-0.00629425
36,8,10.0097,0.0012207,0.0012207,-2.42653,0.0562914,-0.0735371,0.0535176,0.0694445,-0.0946723,0.145929,-0.125766,-0.0831808,0.0113678,0.0228119,0.0126648,0.0137329,0.0187302,0.00583649,0.0167465,0.022316,-9.97986,0.0149155,0.00160217,0.00530243,-0.203514,-0.0188065,-0.00358582,-0.0159073,-0.00881195
36,9,10.0097,0,0.00213623,-2.42653,0.0553758,-0.0738423,0.054128,0.0697496,-0.0919257,0.147149,-0.12302,-0.0810445,0.00514984,0.0246429,0.0133133,0.0109863,0.0153351,0.00297546,0.0162506,0.0255203,-9.97986,0.0118256,0.00312805,0.00171661,-0.193329,-0.0157928,-0.00179291,-0.0183868,-0.00713348
37,0,10.0097,-0.000610352,0.0012207,-2.42501,0.0559862,-0.0741475,0.0544332,0.0706652,-0.0919257,0.14776,-0.123935,-0.0810445,0.0100708,0.0209808,0.0132751,0.013504,0.017128,0.0031662,0.0121307,0.0244141,-9.97986,0.0120926,0.00297546,0.0106049,-0.184746,-0.017395,-0.000686646,-0.0185776,-0.00404358
37,1,10.0097,0.000610352,0.0012207,-2.42501,0.0569017,-0.0747579,0.0535176,0.0718859,-0.0925361,0.147149,-0.124851,-0.0816549,0.0075531,0.0226212,0.0126266,0.0141144,0.0127029,0.00198364,0.0172806,0.025444,-9.97986,0.0128555,0.00305176,0.00972748,-0.163498,-0.0101852,-0.00202179,-0.0170135,-0.00602722
37,2,10.0097,0.0012207,0.00152588,-2.42409,0.055681,-0.0741475,0.0556539,0.07036,-0.0900947,0.146539,-0.124241,-0.080129,0.00808716,0.0183868,0.0146484,0.00785828,0.0132751,-0.00240326,0.0167847,0.0257492,-9.97986,0.0151443,0.00278473,0.0145721,-0.150185,-0.00785828,0.00244141,-0.013504,-0.00614166
37,3,10.0097,0.000305176,0.00152588,-2.42623,0.0553758,-0.0735371,0.054128,0.0557115,-0.0946723,0.146234,-0.125156,-0.0816549,0.0125504,0.0247955,0.0156784,0.00354767,0.00999451,-0.000953674,0.0195313,0.0230789,-9.97986,0.0149155,0.00602722,0.00724792,-0.13134,-0.00545502,0.000343323,-0.0115204,-0.00732422
37,4,9.67397,0.000305176,0.000305176,-2.42501,0.0569017,-0.0741475,0.0547383,0.0410631,-0.0934516,0.145929,-0.126377,-0.0810445,0.0125885,0.0251389,0.013504,0.0105286,0.00862122,0.00549316,0.0203323,0.0229645,-9.97986,0.0124359,0.00862122,0.0160217,-0.111656,-0.00553131,-0.000419617,-0.00751495,-0.00888824
37,5,8.04311,-0.000305176,0.00106812,-2.42562,0.0565965,-0.0729268,0.0553487,0.0511339,-0.0931465,0.145929,-0.126682,-0.0819601,0.00923157,0.021019,0.0196838,0.0117111,0.00984192,0.00358582,0.0236511,0.0223541,-9.97986,0.0138855,0.00713348,0.0133514,-0.0918961,-0.00682831,0.00133514,-0.00553131,-0.0087738
37,6,7.57588,0.000305176,0.00198364,-2.42684,0.0550706,-0.075063,0.0547383,0.0615099,-0.0937568,0.145929,-0.125766,-0.0819601,0.01091,0.0241852,0.0190735,0.0127029,0.00823975,0.000991821,0.030632,0.0201797,-9.97986,0.0118637,0.00629425,0.0157166,-0.0738907,-0.00377655,-0.000839233,-0.00179291,-0.00694275
37,7,7.66286,-0.000305176,0.00183105,-2.42653,0.055681,-0.075063,0.0544332,0.0688341,-0.0910102,0.146539,-0.125156,-0.0831808,0.0129318,0.0250244,0.0200272,-0.001297,0.00362396,0.00125885,0.0259399,0.0168991,-9.97986,0.0109482,0.00167847,0.014801,-0.0548553,-0.000991821,-0.00385284,-0.000190735,-0.00743866
37,8,8.75173,-0.000915527,0.00259399,-2.42592,0.0550706,-0.0744527,0.054128,0.0837877,-0.090705,0.144098,-0.124546,-0.0831808,0.0102234,0.0236893,0.0181961,-0.0108719,0.0043869,0.00591278,0.0322342,0.0194931,-9.97986,0.0161362,0.00247955,0.0169754,-0.0383377,0.00164032,0.00144958,0.0030899,-0.00595093
37,9,10.0097,0.000915527,0.00305176,-2.42837,0.0535448,-0.0768941,0.0532125,0.104234,-0.0925361,0.143487,-0.123935,-0.0850118,0.0110626,0.0244522,0.0222778,-0.0213623,0.0125504,0.00514984,0.033989,0.0163651,-9.97986,0.00968933,-3.8147e-005,0.00831604,-0.0317001,0.00240326,-0.00549316,0.0056839,-0.00652313
38,0,10.0097,0.0012207,0.00183105,-2.42898,0.0529344,-0.0762837,0.0519917,0.0801256,-0.0952827,0.142877,-0.125156,-0.0871481,0.0148392,0.0270081,0.0211716,-0.0474167,0.00728607,0.00995636,0.0317764,0.019722,-9.97986,0.0088501,0.00114441,0.0100708,-0.0125504,0.00648499,-0.00274658,0.00873566,-0.00511169
38,1,10.0097,0.000915527,0.00167847,-2.42989,0.0535448,-0.0756734,0.0522969,0.0718859,-0.0949775,0.143792,-0.126987,-0.0868429,0.0154495,0.0359726,0.0215149,-0.0598907,0.00759125,0.00816345,0.0312805,0.0149918,-9.97986,0.00980377,0.00160217,0.0115204,0.00526428,0.0104904,-0.00431061,0.00759125,-0.00740051
38,2,10.0097,0.000610352,0.0012207,-2.42928,0.0532396,-0.0759786,0.0513814,0.0694445,-0.0965034,0.142877,-0.129123,-0.0877584,0.0114822,0.0261307,0.0215149,-0.0364304,0.00553131,0.00789642,0.0305939,0.0182343,-9.97986,0.00839233,0.00377655,0.00976563,0.0183105,0.0128937,-0.00911713,0.0109863,-0.00591278
38,3,10.0097,0.000610352,0.000610352,-2.42898,0.0535448,-0.0762837,0.0510762,0.0694445,-0.0952827,0.143487,-0.127903,-0.0880636,0.00900269,0.0019455,0.0180817,-0.0151443,0.00617981,0.00656128,0.028038,0.0181198,-9.97986,0.0154114,0.00473022,0.0162506,0.031929,0.0114822,-0.00541687,0.0188446,-0.00511169
38,4,10.0097,0.00183105,0.000305176,-2.42928,0.0541551,-0.0768941,0.0519917,0.0700548,-0.0952827,0.144403,-0.126987,-0.0850118,0.0135422,0.00480652,0.0154877,0.00484467,0.00652313,0.0151825,0.0292969,0.0204468,-9.97986,0.0152588,0.00953674,0.0125504,0.0416565,0.0126266,-0.00267029,0.0136948,-0.00328064
38,5,10.0097,0.0012207,0.000610352,-2.42806,0.0532396,-0.0759786,0.0522969,0.0700548,-0.0934516,0.144098,-0.125766,-0.085317,0.013237,0.0167465,0.021553,0.013504,0.00713348,0.0180435,0.0277328,0.017128,-9.97986,0.0152588,0.00572205,0.00980377,0.0522232,0.0117493,-0.000495911,0.0162125,-0.0018692
38,6,10.0097,0.00213623,0.000457764,-2.42745,0.0538499,-0.0747579,0.0529073,0.0715807,-0.094062,0.145013,-0.127292,-0.0850118,0.0104523,0.0180054,0.0156403,0.0101852,0.0114441,0.0204086,0.028038,0.0173569,-9.97986,0.0131989,0.00499725,0.0094223,0.0631714,0.0130844,-0.000953674,0.021286,-0.00267029
38,7,10.0097,0.000610352,0.00152588,-2.42714,0.0565965,-0.0747579,0.0535176,0.07036,-0.0928413,0.145929,-0.125156,-0.0834859,0.0069046,0.0234985,0.0226974,-0.00133514,0.0043869,0.0283813,0.0276566,0.0209808,-9.97986,0.0161743,0.00301361,0.014267,0.0704956,0.0167465,-0.0044632,0.0199127,0.000534058
38,8,10.0097,0.000305176,0.000915527,-2.42684,0.055681,-0.0747579,0.0526021,0.0709703,-0.088874,0.145318,-0.124546,-0.0837911,0.00854492,0.0275803,0.0146866,-0.0121689,0.00892639,0.0363541,0.0292206,0.0174713,-9.97986,0.014267,0.00507355,0.0150299,0.0754547,0.0233459,-0.00125885,0.022049,0.000534058
38,9,10.0097,0.000305176,0.000915527,-2.42623,0.0553758,-0.0747579,0.0547383,0.0700548,-0.0922309,0.146844,-0.125461,-0.0810445,0.0148392,0.0291443,0.0175476,0.0104523,0.00740051,0.0361252,0.0244141,0.00537872,-9.97986,0.0164032,0.0043869,0.0177765,0.0726318,0.026474,-0.00144958,0.0242996,-0.00370026
39,0,10.0097,0.00183105,0.000762939,-2.42501,0.0547655,-0.0738423,0.0562642,0.0700548,-0.0916206,0.146539,-0.124546,-0.0822652,0.0101471,0.0297165,0.0224686,0.0653458,0.0128937,0.0424194,0.0271606,0.0127411,-9.97986,0.0191879,0.0128555,0.0170135,0.0818253,0.0236511,0.00175476,0.0212479,0.00282288
39,1,10.0097,0.00152588,0.000305176,-2.42562,0.0562914,-0.073232,0.0547383,0.0709703,-0.0934516,0.147149,-0.125156,-0.0813497,0.0136185,0.0255203,0.0179672,0.092392,0.0133896,0.0406265,0.0251007,0.0118256,-9.97986,0.0180817,0.0069046,0.018425,0.0857925,0.0247192,0.00228882,0.0185776,0.000915527
39,2,10.0097,0.000610352,0.000457764,-2.42562,0.0565965,-0.0729268,0.0544332,0.0700548,-0.0922309,0.146234,-0.12363,-0.0807394,0.0131989,0.0256729,0.0128174,0.0674438,0.0139236,0.042038,0.0275803,0.0153732,-9.97986,0.0167465,0.00469208,0.016861,0.0940323,0.0233459,0.00221252,0.0159454,0.00225067
39,3,10.0097,-0.000915527,0.000915527,-2.42623,0.0547655,-0.0738423,0.0544332,0.0563219,-0.0943672,0.145318,-0.124546,-0.0816549,0.0112534,0.014534,0.0106049,0.0428772,0.0119019,0.0411224,0.0287628,0.0125885,-9.97986,0.0170135,-0.000915527,0.0219345,0.0964737,0.0247192,-0.00457764,0.0208282,0.00038147
39,4,9.86104,0.000915527,-0.00167847,-2.42592,0.0575121,-0.0744527,0.0535176,0.0401476,-0.100471,0.146539,-0.126987,-0.0819601,0.0107193,0.018158,0.00999451,0.019989,0.00915527,0.0398636,0.0297165,0.0162506,-9.97986,0.0176239,0.000953674,0.0226593,0.100632,0.0268555,-0.00667572,0.0205994,-0.000610352
39,5,8.20088,0.00152588,-0.0012207,-2.42592,0.0569017,-0.0744527,0.0553487,0.0514391,-0.0919257,0.143792,-0.126072,-0.0825704,0.00614166,0.0178909,0.0115585,-0.0134277,0.0148773,0.038681,0.0285721,0.0186157,-9.97986,0.017662,7.62939e-005,0.0202179,0.0995636,0.0280762,-0.00747681,0.0201797,-0.000648499
39,6,7.73702,-0.000305176,0.000305176,-2.42684,0.0590379,-0.0741475,0.0544332,0.0633409,-0.0903999,0.146234,-0.126072,-0.0828756,0.012207,0.0199127,0.0118256,-0.026207,0.0127029,0.0432205,0.031662,0.0226212,-9.97986,0.0179291,0.00297546,0.0266647,0.10582,0.0275803,-0.00991821,0.0187302,-0.000991821
39,7,7.8478,0.000610352,-0.000152588,-2.42623,0.0559862,-0.0744527,0.054128,0.0682238,-0.0925361,0.146234,-0.126072,-0.0825704,0.0113678,0.0201797,0.00541687,-0.0457764,0.0131607,0.0447083,0.0294876,0.0307083,-9.97986,0.0131989,0.00205994,0.0251007,0.110626,0.0302505,-0.0104141,0.0154114,0.00198364
39,8,8.93819,0.000305176,0.0012207,-2.42745,0.0559862,-0.0747579,0.0547383,0.0828722,-0.090705,0.145929,-0.124851,-0.0840963,0.0123978,0.0218582,0.0069046,-0.0679779,0.0169754,0.0419998,0.0270081,0.0257111,-9.97986,0.00663757,-0.00110626,0.0283051,0.112648,0.0273132,-0.00926971,0.0148773,0.00190735
39,9,10.0097,0.000610352,0.00274658,-2.42837,0.0492723,-0.0759786,0.0522969,0.101183,-0.0928413,0.144708,-0.125156,-0.0856222,0.0112152,0.0222397,0.0152206,-0.0704193,0.0174713,0.0419998,0.0336456,0.0260162,-9.97986,0.0105667,0.000839233,0.0328445,0.116158,0.0292587,-0.00335693,0.0157928,0.00183105
40,0,10.0097,0.000915527,0.000915527,-2.42959,0.0535448,-0.0768941,0.0519917,0.0801256,-0.0946723,0.142267,-0.127292,-0.0859274,0.00995636,0.0170135,0.0157547,-0.0853729,0.0192642,0.0400543,0.0347137,0.0219727,-9.97986,0.00751495,0.00190735,0.0343704,0.120811,0.0304031,-0.00679016,0.0164413,0.00404358
40,1,10.0097,-0.000610352,0.000305176,-2.42928,0.0535448,-0.0759786,0.0526021,0.0728014,-0.0952827,0.142267,-0.127598,-0.0874532,0.0087738,0.0127029,0.0248718,-0.097084,0.0159836,0.039711,0.0287247,0.0146866,-9.97986,0.0121307,0.00190735,0.0341415,0.12146,0.0303268,-0.0112534,0.0158691,0.00556946
40,2,10.0097,0.00213623,0,-2.42867,0.048662,-0.0759786,0.0544332,0.0718859,-0.0952827,0.143182,-0.127598,-0.0862325,0.0152588,0.0153732,0.0356674,-0.0636673,0.018959,0.0398636,0.0347137,0.0114441,-9.97986,0.00476837,0.00259399,0.0399399,0.123978,0.0346756,-0.00682831,0.0160599,0.00637054
40,3,10.0097,0,0.000305176,-2.42867,0.0538499,-0.0762837,0.0522969,0.0688341,-0.0949775,0.142877,-0.126682,-0.0874532,0.014801,0.0232697,0.0505066,-0.054512,0.0202179,0.0388718,0.0302124,0.010376,-9.97986,0.00701904,0.00110626,0.0415039,0.128975,0.0346756,-0.00282288,0.0199127,0.0075531
40,4,10.0097,0.000610352,-0.000457764,-2.42928,0.0544603,-0.0765889,0.0532125,0.0697496,-0.0952827,0.143487,-0.127292,-0.0856222,0.00965118,0.0314713,0.0569153,-0.0538254,0.0166702,0.0374985,0.0325012,0.00736237,-9.97986,0.00583649,0.00148773,0.04673,0.132141,0.0318909,-0.00221252,0.020256,0.0088501
40,5,10.0097,0.000305176,0,-2.42837,0.0538499,-0.0756734,0.0532125,0.0697496,-0.0937568,0.143792,-0.126072,-0.0859274,0.0128555,0.0333023,0.068512,-0.0826645,0.0170517,0.0341415,0.0332642,0.00617981,-9.97986,0.0019455,7.62939e-005,0.0437546,0.130081,0.0285721,-0.00255585,0.0197601,0.00831604
