
Devices
1200
,,BP Load cell - Voltage,String Length - Voltage,Clutch Active - Voltage,#7 iPecs - Voltage,,,,,,,,,EMG 1-8 Left - Voltage,,,,,,,,Pylon Force - Voltage,EMG 9-16 Right - Voltage,,,,,,,,
Frame,Sub Frame,BP Load Cell,String Length,From Arduino Logic,A45,A135,A225,A315,S0,S90,S180,S270,ZSum,EMG 1 Glut Max,EMG 2 Glut Med,EMG 3 Biceps Femoris Long,EMG 4 Rectus Femoris,EMG 5 Vastus Medialis,EMG 6 Tib Ant,EMG 7 Med Gas,EMG 8 Soleus,Pylon volts,EMG 9 Glut Max,EMG 10 Glut Med,EMG 11 Biceps Femoris Long,EMG 12 Rectus Femoris,EMG 13 Vastus Medialis,EMG 14 Tib Ant,EMG 15 Med Gas,EMG 16 Soleus
,,V,V,V,V,V,V,V,V,V,V,V,V,V,V,V,V,V,V,V,V,V,V,V,V,V,V,V,V,V
1,0,10.0097,0.000305176,0.00442505,-2.42867,0.0538499,-0.0765889,0.0538228,0.149095,-0.0897895,0.143487,-0.12241,-0.0862325,0.0104141,0.0193405,0.00938416,0.0114059,0.0179291,0.00751495,0.0187302,0.0182343,-9.97986,0.0130844,0.0119781,0.0147247,0.0069809,0.0126266,-0.0117493,0.0127411,0.00686646
1,1,10.0097,0.0012207,0.00152588,-2.43172,0.0526292,-0.0768941,0.0504659,0.100878,-0.0977241,0.142267,-0.124241,-0.0886739,0.0088501,0.0219345,0.00846863,0.00961304,0.0141144,0.0082016,0.0176239,0.0163651,-9.97986,0.0144958,0.00831604,0.0175858,0.00377655,0.0134277,-0.00900269,0.0141907,0.00793457
1,2,10.0097,0,0.000305176,-2.42898,0.0532396,-0.0765889,0.0498555,0.082567,-0.0974189,0.143487,-0.126072,-0.0886739,0.0120544,0.0239944,0.00518799,0.00652313,0.0183868,0.00873566,0.0185776,0.0178909,-9.97986,0.0172043,-0.00396729,0.0170898,0.00392914,0.0175858,-0.00904083,0.0183487,0.00617981
1,3,10.0097,-0.000305176,-0.000305176,-2.42867,0.0544603,-0.0756734,0.0522969,0.0764635,-0.095893,0.143792,-0.128208,-0.0874532,0.0102997,0.0238419,0.00507355,0.00850677,0.0171661,0.0117111,0.022316,0.0167084,-9.97986,0.0149155,-0.0160599,0.00976563,0.00583649,0.0199127,-0.0087738,0.0188446,0.00583649
1,4,10.0097,0.000610352,-0.000152588,-2.42714,0.0538499,-0.0753682,0.0535176,0.0728014,-0.0946723,0.144403,-0.126072,-0.0859274,0.00984192,0.0232697,0.00621796,0.0104523,0.017128,0.00720978,0.0241089,0.0150299,-9.97986,0.014534,-0.0150299,0.0148773,0.00358582,0.016861,-0.00831604,0.012207,0.00728607
1,5,10.0097,-0.000610352,0.000152588,-2.42776,0.0550706,-0.0753682,0.0529073,0.0715807,-0.0943672,0.144708,-0.125461,-0.0844015,0.00984192,0.0263977,0.0108337,0.00774384,0.0163651,0.00801086,0.0236893,0.0146103,-9.97986,0.0121689,-0.0112534,0.0133133,0.0025177,0.019722,-0.00473022,0.0146484,0.00724792
1,6,10.0097,0.0012207,0.000305176,-2.42714,0.0541551,-0.0747579,0.0532125,0.0697496,-0.0937568,0.146539,-0.126987,-0.0840963,0.0120163,0.0256729,0.0156403,0.00869751,0.018692,0.00740051,0.0239182,0.0187683,-9.97986,0.014534,-0.00377655,0.0156021,0.00907898,0.0213623,-0.00141144,0.0186157,0.00823975
1,7,10.0097,0.000305176,0.000762939,-2.4244,0.0565965,-0.0744527,0.0538228,0.0715807,-0.0913154,0.145624,-0.124851,-0.0816549,0.0125122,0.0246811,0.0175476,0.00743866,0.0143433,0.00873566,0.029068,0.0150299,-9.97986,0.013504,-0.00423431,0.0139999,0.00709534,0.0191879,-0.000495911,0.0143051,0.00541687
1,8,10.0097,0.0012207,0.000305176,-2.42562,0.055681,-0.0741475,0.0550435,0.0731066,-0.0916206,0.146234,-0.124546,-0.0819601,0.00934601,0.026207,0.0152588,0.0131607,0.0167084,0.0125122,0.0240326,0.0212479,-9.97986,0.0121307,-0.00553131,0.0151443,0.00740051,0.0175476,0.000534058,0.0175476,0.0069046
1,9,10.0097,0.000305176,0.000152588,-2.42592,0.0569017,-0.073232,0.0547383,0.07036,-0.0913154,0.146539,-0.124241,-0.0810445,0.00843048,0.0235367,0.0175095,0.00839233,0.0146866,0.0102234,0.0269699,0.0206375,-9.97986,0.0136948,-0.00480652,0.0162506,0.00507355,0.017128,0.0043869,0.0156784,0.0056076
2,0,9.95534,0.000610352,-0.00289917,-2.42684,0.0553758,-0.0741475,0.0516866,0.030382,-0.095893,0.145318,-0.127903,-0.0825704,0.0132751,0.0294495,0.021019,0.00675201,0.0128937,0.00827789,0.0257492,0.0160599,-9.97986,0.00988007,-0.00228882,0.0122833,0.00366211,0.0133514,-0.00267029,0.0137329,0.00331879
2,1,1.74031,0.0012207,-0.00427246,-2.42653,0.0569017,-0.073232,0.0538228,-0.0135634,-0.0980293,0.148065,-0.130649,-0.0825704,0.0124359,0.0312042,0.0226974,0.00938416,0.0185013,0.0104523,0.0231171,0.0198746,-9.97986,0.0154114,-0.000457764,0.0147629,0.00637054,0.0117493,-0.00259399,0.0154495,0.00331879
2,2,-5.54881,0.000305176,-0.00442505,-2.42562,0.0565965,-0.0747579,0.0538228,-0.0160048,-0.0968086,0.145013,-0.129429,-0.0816549,0.00682831,0.0306702,0.0218964,0.0117111,0.0144196,0.0101089,0.0249481,0.019722,-9.97986,0.0163651,0.00377655,0.0149536,0.00930786,0.0165939,-0.00488281,0.0154495,0.0019455
2,3,-9.99003,0,-0.00427246,-2.42501,0.0565965,-0.0726216,0.0562642,0.00688342,-0.0922309,0.14776,-0.129429,-0.0810445,0.0122833,0.0279236,0.0206757,0.00644684,0.0139999,0.00652313,0.0256729,0.0182724,-9.97986,0.017662,0.00488281,0.0138092,0.0069809,0.0145721,-0.0063324,0.0136566,0.00465393
2,4,-9.99003,0.000915527,-0.00213623,-2.4244,0.0559862,-0.0741475,0.0574849,0.0407579,-0.0891792,0.146234,-0.127292,-0.0810445,0.010643,0.0239944,0.0205994,0.00961304,0.0144958,0.00640869,0.0269699,0.0166321,-9.97986,0.0131607,0.00190735,0.0157928,0.00572205,-0.0109482,-0.00179291,0.0175858,0.00705719
2,5,-9.99003,0.000915527,-0.000457764,-2.42653,0.0553758,-0.0744527,0.0556539,0.0563219,-0.0900947,0.145318,-0.126682,-0.0819601,0.0122452,0.0239563,0.0207901,0.00923157,0.0206375,0.00862122,0.0306702,0.0170135,-9.97986,0.0110245,-0.000343323,0.0101471,0.00545502,-0.00530243,-0.00591278,0.0167084,0.00389099
2,6,-9.99003,-0.000610352,0.000457764,-2.42714,0.0544603,-0.0735371,0.0532125,0.0636461,-0.0913154,0.145318,-0.126072,-0.0831808,0.0141907,0.0244904,0.0220108,0.00759125,0.0209427,0.00904083,0.0274658,0.0171661,-9.97986,0.0181198,0.00240326,0.0150681,0.00946045,-0.00778198,-0.000419617,0.0186157,0.00507355
2,7,-9.99003,-0.000915527,0.000762939,-2.42623,0.0550706,-0.0744527,0.0562642,0.107286,-0.0861274,0.145624,-0.12241,-0.0825704,0.0117874,0.025177,0.0198364,0.0103378,0.016098,0.00587463,0.021553,0.0136566,-9.97986,0.0114822,0.00270844,0.0133133,0.00598907,0.0167084,-0.00350952,0.014534,0.00534058
2,8,-3.38817,0.000610352,0.00335693,-2.42837,0.0538499,-0.0759786,0.054128,0.136888,-0.0891792,0.144098,-0.122715,-0.0844015,0.0117874,0.0263596,0.017128,0.00823975,0.0142288,0.0101852,0.0201035,0.0190353,-9.97986,0.015831,0.00530243,0.0100708,0.0087738,0.0162506,-0.00583649,0.0184631,0.00598907
2,9,3.87868,0.000610352,0.00473022,-2.42806,0.0544603,-0.0756734,0.0544332,0.152452,-0.0885688,0.143487,-0.12241,-0.085317,0.0134659,0.0233078,0.0201416,0.00926971,0.0183487,0.012207,0.0233078,0.0149536,-9.97986,0.0183487,0.00225067,0.0163651,0.00141144,0.0162506,-0.0082016,0.0179672,0.00827789
3,0,10.0097,0.000305176,0.00473022,-2.42867,0.0538499,-0.0762837,0.0522969,0.14879,-0.0910102,0.143182,-0.122104,-0.0865377,0.0110626,0.0219345,0.0183868,0.0100327,0.0177765,0.0128937,0.0253677,0.0163651,-9.97986,0.0133896,0.0018692,0.0141525,0.00518799,0.0185776,-0.00991821,0.0107193,0.00522614
3,1,10.0097,-0.000610352,0.0012207,-2.43081,0.0535448,-0.0771993,0.0504659,0.100572,-0.0974189,0.142572,-0.125156,-0.0889791,0.00999451,0.0279617,0.0170135,0.00888824,0.0147629,0.0105286,0.0281143,0.0155258,-9.97986,0.0138855,0.00431061,0.0126648,0.00431061,0.0172424,-0.000915527,0.0159454,0.00598907
3,2,10.0097,0,0.00106812,-2.4302,0.0526292,-0.0759786,0.0504659,0.0831774,-0.0971137,0.141656,-0.126682,-0.0877584,0.0141144,0.0228882,0.0196075,0.00724792,0.013237,0.00976563,0.0271988,0.0125122,-9.97986,0.0180054,0.00553131,0.0181198,0.00766754,0.017395,-0.00488281,0.0148392,0.00404358
3,3,10.0097,0.000305176,0.000305176,-2.42776,0.0541551,-0.0753682,0.0510762,0.0734117,-0.0965034,0.144403,-0.126682,-0.0880636,0.00587463,0.0241852,0.0174332,0.00350952,0.0142288,0.0149155,0.0292969,0.0123596,-9.97986,0.0119019,0.00427246,0.0164032,0.00480652,0.0189972,-0.000915527,0.014801,0.00663757
3,4,10.0097,0.000915527,-0.000457764,-2.42928,0.0544603,-0.0756734,0.054128,0.0728014,-0.0949775,0.145318,-0.127598,-0.085317,0.0124359,0.0264359,0.020256,0.00881195,0.0204086,0.0115204,0.0258636,0.0191498,-9.97986,0.0161362,0.00392914,0.0154495,0.00904083,0.0157166,7.62939e-005,0.0157928,0.0063324
3,5,10.0097,0,0,-2.42745,0.0538499,-0.075063,0.0532125,0.072191,-0.0937568,0.145624,-0.126377,-0.0847066,0.0103378,0.0254822,0.0216293,0.0108337,0.0190353,0.00934601,0.0260925,0.018692,-9.97986,0.0170135,0.000495911,0.0148773,0.00640869,0.0202179,0.00286102,0.0149536,0.00377655
3,6,10.0097,0.000610352,-0.000305176,-2.42745,0.0550706,-0.0735371,0.0532125,0.0709703,-0.0916206,0.145013,-0.124241,-0.0840963,0.0119019,0.0263214,0.016861,0.00881195,0.0200272,0.01091,0.0273514,0.0136566,-9.97986,0.0160599,0.00808716,0.0155258,0.00724792,0.0186539,0.00518799,0.0129318,0.00431061
3,7,10.0097,-0.00183105,0.000305176,-2.42531,0.055681,-0.0747579,0.0550435,0.0715807,-0.0919257,0.146844,-0.125156,-0.0822652,0.00740051,0.0269699,0.0172043,0.00869751,0.0154877,0.0119781,0.026207,0.0141907,-9.97986,0.0165558,0.00419617,0.0173187,0.00457764,0.0189972,0.00720978,0.018158,0.00823975
3,8,10.0097,0.00152588,0.000305176,-2.42653,0.0562914,-0.0741475,0.0535176,0.0728014,-0.0916206,0.146539,-0.124851,-0.0816549,0.00854492,0.0246811,0.0194168,0.00629425,0.0165176,0.00759125,0.0199127,0.017395,-9.97986,0.0142288,0.00312805,0.0140381,0.00717163,0.0117111,0.00762939,0.0162888,0.00675201
3,9,10.0097,0.000915527,0.000152588,-2.42592,0.0565965,-0.0726216,0.0556539,0.0728014,-0.0922309,0.148065,-0.12363,-0.0807394,0.00984192,0.0272369,0.0196457,0.00839233,0.0203323,0.0140762,0.0259399,0.0182724,-9.97986,0.0167465,-0.00179291,0.0132751,0.00770569,0.0226212,0.00473022,0.0156784,0.00389099
4,0,9.92848,0.00152588,-0.00183105,-2.42653,0.055681,-0.0741475,0.0522969,0.0291613,-0.0955879,0.145013,-0.127292,-0.0828756,0.0131226,0.0263596,0.0190353,0.00720978,0.0149536,0.00537872,0.0235748,0.0138474,-9.97986,0.0162888,0.00335693,0.0172043,0.00362396,0.0157928,0.00289917,0.0159454,0.00423431
4,1,1.70095,-0.000305176,-0.00473022,-2.42562,0.0565965,-0.0741475,0.0532125,-0.0123427,-0.0986396,0.14776,-0.130039,-0.0816549,0.0144196,0.024147,0.022049,0.0106812,0.017662,0.0102615,0.021553,0.0152969,-9.97986,0.0124741,0.000839233,0.0205612,0.00835419,0.0170517,0.00476837,0.0178528,0.00572205
4,2,-5.5955,-0.000305176,-0.00457764,-2.42562,0.0565965,-0.0747579,0.0550435,-0.0169203,-0.0965034,0.147149,-0.130344,-0.0819601,0.0111771,0.0244904,0.024147,0.0107574,0.0159836,0.00720978,0.0175858,0.0183868,-9.97986,0.0143051,0.00205994,0.0149918,0.00831604,0.0162125,0.000343323,0.0123215,0.00583649
4,3,-9.99003,0.000610352,-0.0038147,-2.42562,0.0575121,-0.0723164,0.0547383,0.00779895,-0.0919257,0.14776,-0.128513,-0.080129,0.010376,0.022316,0.0192642,0.0094223,0.015564,0.0137711,0.0215912,0.0162506,-9.97986,0.0186539,0.00106812,0.014801,0.00827789,0.0164413,0.00118256,0.0122833,0.00556946
4,4,-9.99003,-0.0012207,-0.00244141,-2.4244,0.0559862,-0.0738423,0.0565694,0.0407579,-0.0913154,0.147149,-0.126377,-0.0810445,0.01194,0.0222397,0.0205231,0.0102997,0.0210953,0.0123978,0.0193024,0.0198364,-9.97986,0.0194168,-0.00347137,0.0160217,0.0088501,-0.00637054,0.000839233,0.0161362,0.00659943
4,5,-9.99003,0.000610352,-0.000457764,-2.42592,0.0547655,-0.0759786,0.0556539,0.0572374,-0.0900947,0.144403,-0.126072,-0.0831808,0.0094986,0.0214767,0.018425,0.0105286,0.0189972,0.0118637,0.0234222,0.0200653,-9.97986,0.0152588,-0.0018692,0.0139618,0.00617981,-0.00785828,0.00324249,0.0176239,0.00759125
4,6,-9.99003,0.000915527,0.000762939,-2.42684,0.0559862,-0.0744527,0.0529073,0.0630358,-0.0931465,0.145013,-0.125461,-0.0831808,0.01091,0.021553,0.0186157,0.00839233,0.0194168,0.00846863,0.0180054,0.0171661,-9.97986,0.0157166,-0.000190735,0.0151062,0.0101471,-0.0119019,0.00164032,0.0177383,0.00293732
4,7,-9.99003,0.000610352,0.0012207,-2.42531,0.0553758,-0.0738423,0.0565694,0.107286,-0.0867378,0.146234,-0.123325,-0.0828756,0.0138855,0.0209808,0.020752,0.0105667,0.0205994,0.0128174,0.018959,0.015831,-9.97986,0.0139618,-0.00198364,0.0131989,0.00801086,0.0151062,0.00228882,0.0179672,0.00881195
4,8,-3.43059,0.00152588,0.00366211,-2.42745,0.0535448,-0.0753682,0.0538228,0.136278,-0.088874,0.144708,-0.120884,-0.0831808,0.00839233,0.0220871,0.0183487,0.00671387,0.0183105,0.0100708,0.0175095,0.0164413,-9.97986,0.0180054,0.000228882,0.0115967,0.00530243,0.0133514,0.000190735,0.0170517,0.00720978
4,9,3.88753,0.000305176,0.00488281,-2.42806,0.0526292,-0.0759786,0.0544332,0.153063,-0.0885688,0.144098,-0.121189,-0.0862325,0.00717163,0.0257874,0.0149918,0.00812531,0.0139618,0.00785828,0.0183105,0.017128,-9.97986,0.016098,0.000915527,0.0119019,0.00602722,0.0136185,-0.00659943,0.017395,0.00442505
5,0,10.0097,0,0.00473022,-2.42837,0.0535448,-0.0762837,0.0522969,0.14879,-0.0922309,0.143487,-0.122104,-0.0865377,0.0118637,0.023613,0.0203323,0.013504,0.0179291,0.0128174,0.0183868,0.0211334,-9.97986,0.0174332,0.00347137,0.013237,0.00835419,0.0122452,0.00293732,0.0196457,0.00999451
5,1,10.0097,-0.000305176,0.0012207,-2.43081,0.0544603,-0.0762837,0.0495503,0.0996569,-0.0989448,0.142877,-0.126072,-0.0889791,0.00667572,0.0236511,0.0180054,0.0113678,0.0197601,0.00476837,0.0136948,0.0183487,-9.97986,0.0127411,0.00602722,0.0139999,0.00686646,0.0133896,-0.00225067,0.0196838,0.00785828
5,2,10.0097,0,-0.000305176,-2.42959,0.0535448,-0.0759786,0.0504659,0.082567,-0.0968086,0.143792,-0.126987,-0.0880636,0.0105286,0.0230408,0.0222397,0.0143814,0.0191879,0.0117874,0.0171661,0.0148773,-9.97986,0.0126648,0.00583649,0.0147629,0.00598907,0.0151443,0.001297,0.018692,0.00881195
5,3,10.0097,-0.000915527,0,-2.42806,0.0538499,-0.0759786,0.0526021,0.0752428,-0.0955879,0.143487,-0.126377,-0.0871481,0.0130081,0.0276184,0.0215149,0.0147247,0.0183487,0.00984192,0.0212479,0.0194931,-9.97986,0.0102997,0.00350952,0.0125122,0.00675201,0.0157166,-0.00812531,0.0153351,0.00671387
5,4,10.0097,0.000610352,-0.000457764,-2.42837,0.0550706,-0.0744527,0.0526021,0.0728014,-0.094062,0.146234,-0.126987,-0.0856222,0.00873566,0.0226974,0.0215912,0.0107574,0.0194931,0.00823975,0.0260925,0.0165176,-9.97986,0.016861,0.0050354,0.0119781,0.00526428,0.0153732,-0.0183105,0.0139618,0.0103378
5,5,10.0097,0.000915527,0,-2.42745,0.0550706,-0.0759786,0.054128,0.0718859,-0.0943672,0.143792,-0.126072,-0.0844015,0.0143433,0.0240707,0.0217438,0.014801,0.0185013,0.0105286,0.0212097,0.0208282,-9.97986,0.0123596,0.00640869,0.0169754,0.00522614,0.0146866,-0.0196075,0.0160217,0.0106812
5,6,10.0097,-0.000305176,0.000152588,-2.42684,0.0547655,-0.075063,0.0535176,0.0712755,-0.0931465,0.144708,-0.126072,-0.0844015,0.0120926,0.02388,0.0250244,0.0101471,0.0214767,0.0154877,0.0233078,0.0183868,-9.97986,0.0125885,0.00572205,0.0122452,0.00740051,0.0175095,-0.0164032,0.0164032,0.00694275
5,7,10.0097,0.00152588,-0.000457764,-2.4244,0.0569017,-0.0744527,0.0547383,0.0694445,-0.0931465,0.146844,-0.123935,-0.0822652,0.0151443,0.0210571,0.0239182,0.00743866,0.0142288,0.0109482,0.0242615,0.0202179,-9.97986,0.0146103,0.00274658,0.00766754,0.00450134,0.0121689,-0.00926971,0.0148773,0.00709534
5,8,10.0097,0.000610352,0,-2.42531,0.0559862,-0.0729268,0.054128,0.0715807,-0.0913154,0.145624,-0.124241,-0.0822652,0.0117493,0.0224304,0.0201797,0.00331879,0.018692,0.0103378,0.0214767,0.0209045,-9.97986,0.014534,-0.00839233,0.0144196,0.00343323,0.00835419,-0.0037384,0.0172424,0.00598907
5,9,10.0097,0,0.000610352,-2.42501,0.0578172,-0.0744527,0.0550435,0.0724962,-0.0919257,0.146844,-0.124241,-0.0819601,0.0129318,0.0202179,0.0219727,0.00995636,0.0169373,0.00976563,0.0189972,0.0159836,-9.97986,0.0150681,-0.0159836,0.0165939,0.0075531,0.0131607,0.00167847,0.0164795,0.00526428
6,0,9.90773,-0.0012207,-0.00183105,-2.42653,0.055681,-0.0747579,0.0529073,0.0285509,-0.0961982,0.146234,-0.126987,-0.0822652,0.0123596,0.021286,0.0213242,0.0145721,0.018158,0.00724792,0.0227737,0.021286,-9.97986,0.0120163,-0.0168991,0.0133133,0.00473022,0.0121689,0.00244141,0.0166321,0.00595093
6,1,1.66707,0.000610352,-0.00473022,-2.42623,0.0572069,-0.0741475,0.0532125,-0.0123427,-0.0977241,0.145624,-0.129123,-0.0822652,0.0127029,0.023613,0.0269318,0.0100327,0.0183105,0.00827789,0.0193405,0.0137329,-9.97986,0.0138855,-0.00980377,0.0165176,0.00671387,0.0125885,0.000610352,0.014801,0.00476837
6,2,-5.6367,0.000915527,-0.00457764,-2.42562,0.0569017,-0.073232,0.0547383,-0.0160048,-0.0961982,0.146844,-0.130649,-0.0816549,0.0102234,0.0268936,0.0300217,0.0118256,0.0134659,0.0130081,0.0172043,0.0105667,-9.97986,0.0159454,-0.0114441,0.0142288,0.00556946,0.0102615,-0.0106812,0.0180817,0.00694275
6,3,-9.99003,-0.000305176,-0.0038147,-2.42379,0.0562914,-0.0735371,0.0553487,0.00779895,-0.0919257,0.148065,-0.127903,-0.0807394,0.0125122,0.028801,0.032196,0.0104523,0.0196457,0.0130463,0.0181961,0.01194,-9.97986,0.0157928,-0.00453949,0.011673,0.00652313,0.0118637,-0.0229263,0.0178528,0.00442505
6,4,-9.99003,0.00213623,-0.00152588,-2.4244,0.0550706,-0.0753682,0.0547383,0.0407579,-0.0913154,0.147455,-0.126987,-0.0807394,0.0130081,0.0288773,0.0296021,0.00339508,0.0176239,0.010376,0.0222397,0.0127029,-9.97986,0.0137711,-0.00328064,0.0177002,0.00259399,-0.0138474,-0.0325394,0.016098,0.00461578
6,5,-9.99003,0.000305176,0.000610352,-2.42562,0.0559862,-0.0756734,0.0553487,0.0578478,-0.0913154,0.145318,-0.126377,-0.0819601,0.0141144,0.0274277,0.0218964,0.0063324,0.0126648,0.0109482,0.0160217,0.0188065,-9.97986,0.0169373,0.000953674,0.0153351,0.00724792,-0.00938416,-0.0173187,0.0165939,0.00659943
6,6,-9.99003,0.000305176,-0.000305176,-2.42623,0.0547655,-0.0747579,0.0547383,0.0636461,-0.0919257,0.144403,-0.125156,-0.0825704,0.012207,0.0282669,0.0186157,0.00934601,0.0176239,0.0108337,0.0191498,0.0175476,-9.97986,0.0157547,-0.00240326,0.0154877,0.0069809,-0.0088501,-0.00339508,0.0152969,0.00572205
6,7,-9.99003,0.00183105,0.000915527,-2.42592,0.0550706,-0.0735371,0.0562642,0.109117,-0.0864326,0.144708,-0.12302,-0.0834859,0.0137711,0.0256729,0.0143051,0.0102234,0.0190353,0.00637054,0.0283051,0.016861,-9.97986,0.0149155,-0.00202179,0.0165939,0.00663757,0.0187683,0.00564575,0.0167465,0.00408173
6,8,-3.32591,0.0012207,0.0038147,-2.42776,0.0532396,-0.0759786,0.054128,0.136278,-0.088874,0.143487,-0.122715,-0.0837911,0.0123978,0.0199509,0.0122833,0.011673,0.0183487,0.0094986,0.0283051,0.0185776,-9.97986,0.0147629,0.00087738,0.0185394,0.00740051,0.0135422,0.0154877,0.0159454,0.00431061
6,9,3.96108,0.000915527,0.0050354,-2.42745,0.0541551,-0.0765889,0.0529073,0.153978,-0.0885688,0.143182,-0.121494,-0.085317,0.0124359,0.0224686,0.00904083,0.0165939,0.0138092,0.0117111,0.0268555,0.0157928,-9.97986,0.0131989,0.00175476,0.0115967,0.00762939,0.0224686,0.0190735,0.0150299,0.00293732
7,0,10.0097,0.000305176,0.00457764,-2.42898,0.0544603,-0.0765889,0.0529073,0.150011,-0.0916206,0.142572,-0.122715,-0.0859274,0.0107574,0.0188828,0.00823975,0.0169373,0.0158691,0.00869751,0.0225449,0.0120926,-9.97986,0.0167847,0.00606537,0.0120926,0.00740051,0.0125885,0.0231171,0.0156021,0.00610352
7,1,10.0097,0,0.00198364,-2.43111,0.0520189,-0.0768941,0.04894,0.099962,-0.0968086,0.141961,-0.126377,-0.0883688,0.0144958,0.0124359,0.0143814,0.0157547,0.0184631,0.0107193,0.0257874,0.0169373,-9.97986,0.0143814,0.00465393,0.0153351,0.0069809,0.0104141,0.0207901,0.0167847,0.00518799
7,2,10.0097,0.000610352,0.000762939,-2.4302,0.0538499,-0.0756734,0.050771,0.082567,-0.0965034,0.142572,-0.126682,-0.0886739,0.0109482,0.0199127,0.0106049,0.020256,0.0196457,0.00900269,0.0236893,0.0141525,-9.97986,0.0139236,0.0110245,0.0125122,0.00850677,0.0124741,0.0141144,0.0138855,0.00648499
7,3,10.0097,-0.000305176,0,-2.42806,0.0544603,-0.0756734,0.0532125,0.0752428,-0.095893,0.142572,-0.125461,-0.0874532,0.0128174,0.017395,0.00953674,0.0183868,0.0160217,0.0103378,0.0231171,0.0154877,-9.97986,0.0167465,0.00919342,0.0130844,0.00797272,0.0150299,0.00614166,0.0138092,0.00488281
7,4,10.0097,0.000915527,0.000305176,-2.42867,0.0535448,-0.0756734,0.0529073,0.0731066,-0.0937568,0.144403,-0.126072,-0.085317,0.0106049,0.0163651,0.0134659,0.0190735,0.0188828,0.0138855,0.0199509,0.0168228,-9.97986,0.0167084,-0.000762939,0.0128174,0.00659943,0.014534,0.00484467,0.0157166,0.00675201
7,5,10.0097,0,0.000305176,-2.42684,0.0547655,-0.0753682,0.0529073,0.0712755,-0.0946723,0.144098,-0.126682,-0.0847066,0.0118637,0.0158691,0.00930786,0.0174713,0.0161362,0.0119781,0.0211334,0.0127029,-9.97986,0.0124359,-0.0143814,0.0154114,0.0069809,0.0144196,-0.0025177,0.0166702,0.00705719
7,6,10.0097,0.000610352,0.000457764,-2.42714,0.0550706,-0.0735371,0.0529073,0.0694445,-0.0934516,0.144403,-0.125461,-0.0847066,0.0133133,0.0158691,0.0201416,0.00797272,0.0172806,0.0113678,0.0125122,0.021553,-9.97986,0.0116348,-0.0190735,0.0121689,0.00667572,0.0131226,-0.00480652,0.0132751,0.00980377
7,7,10.0097,0.000305176,0,-2.42531,0.0559862,-0.0747579,0.0535176,0.0712755,-0.0925361,0.146844,-0.124546,-0.0822652,0.0126648,0.0134659,0.0208664,0.00583649,0.0174332,0.0075531,0.0111389,0.0252914,-9.97986,0.0160599,-0.0148773,0.0131989,0.00747681,0.0162125,-0.0136566,0.015831,0.00808716
7,8,10.0097,0.00152588,0.000305176,-2.42623,0.0562914,-0.0744527,0.0550435,0.0718859,-0.0922309,0.147149,-0.124546,-0.0810445,0.0124741,0.0218201,0.0233078,0.00789642,0.0164032,0.0124359,0.00591278,0.0188446,-9.97986,0.0139618,-0.00549316,0.011673,0.00644684,0.0128174,-0.0107193,0.0115967,0.00873566
7,9,10.0097,0.000915527,0.000305176,-2.42562,0.055681,-0.0741475,0.0550435,0.0728014,-0.0913154,0.146234,-0.123935,-0.0810445,0.00923157,0.0334549,0.0248718,-0.00511169,0.0189972,0.0152969,0.0153351,0.0209808,-9.97986,0.0127792,0.00530243,0.0133514,0.00457764,0.0140381,-0.00495911,0.0177765,0.00747681
8,0,9.92513,0.00152588,-0.00259399,-2.42684,0.0562914,-0.0738423,0.0535176,0.0285509,-0.0968086,0.146234,-0.126987,-0.0822652,0.00858307,0.0320053,0.0244904,-0.00965118,0.0175476,0.0102615,0.0178909,0.0197601,-9.97986,0.0172424,0.00946045,0.0135422,0.00862122,0.0187302,0.00415802,0.0150681,0.00728607
8,1,1.59261,-0.000305176,-0.00595093,-2.42684,0.0575121,-0.0741475,0.0526021,-0.0117323,-0.0971137,0.145624,-0.129123,-0.0831808,0.00797272,0.024147,0.0217819,-0.0186539,0.0169373,0.0103378,0.0166321,0.0180054,-9.97986,0.0151443,0.00396729,0.0160599,0.00778198,0.0196457,0.00907898,0.0179672,0.00999451
8,2,-5.6541,0.00152588,-0.00518799,-2.42562,0.0565965,-0.0738423,0.054128,-0.0153944,-0.0971137,0.146844,-0.130039,-0.0831808,0.0131607,0.0214005,0.0218964,-0.0140762,0.0202179,0.0107574,0.026474,0.0176239,-9.97986,0.0165558,0.0101089,0.0141144,0.0075531,0.0193787,0.0108719,0.0162125,0.00751495
8,3,-9.99003,0.000305176,-0.00335693,-2.42501,0.0572069,-0.0729268,0.0550435,0.00779895,-0.0919257,0.146844,-0.128513,-0.080129,0.00968933,0.019989,0.0185013,0.0069046,0.0163651,0.0107574,0.026474,0.0167465,-9.97986,0.0126648,0.00240326,0.0115967,0.0101852,0.019455,0.018158,0.0173569,0.00679016
8,4,-9.99003,-0.000610352,-0.00152588,-2.42501,0.055681,-0.0738423,0.0556539,0.0404528,-0.090705,0.146234,-0.126987,-0.0804342,0.0127411,0.0160217,0.0208664,0.0378036,0.0206375,0.0128937,0.0307083,0.0160599,-9.97986,0.0143051,-0.00530243,0.0131607,0.00762939,-0.00469208,0.0110245,0.0172806,0.00740051
8,5,-9.99003,0,-0.0012207,-2.42592,0.0550706,-0.075063,0.055959,0.0563219,-0.0916206,0.145929,-0.125461,-0.0822652,0.0125885,0.0167084,0.0189972,0.0502777,0.014267,0.0122833,0.0314331,0.0102997,-9.97986,0.0131989,-0.00816345,0.0113678,0.00499725,-0.00617981,0.00457764,0.016861,0.00293732
8,6,-9.99003,-0.000610352,0.000762939,-2.42562,0.0559862,-0.075063,0.0547383,0.0639513,-0.0922309,0.144708,-0.126682,-0.0834859,0.0075531,0.0204468,0.0198364,0.047226,0.0169373,0.00923157,0.0362778,0.0112152,-9.97986,0.0175858,-0.0118256,0.0127029,0.00644684,0.000915527,-0.00526428,0.0158691,0.00751495
8,7,-9.99003,0,0.00167847,-2.42653,0.055681,-0.0735371,0.0562642,0.113085,-0.0861274,0.145013,-0.122104,-0.0819601,0.00934601,0.0214767,0.0143814,0.0345612,0.0161743,0.0112915,0.0365448,0.0167847,-9.97986,0.0145721,-0.0025177,0.0118256,0.0108337,0.0207901,-0.00366211,0.0125885,0.00530243
8,8,-3.46477,-0.000305176,0.00396729,-2.42714,0.0544603,-0.0756734,0.0550435,0.136278,-0.0882636,0.144403,-0.12241,-0.0831808,0.00984192,0.0249863,0.0180435,0.0311279,0.0175858,0.0113678,0.0322723,0.0161743,-9.97986,0.016861,-0.00534058,0.0166321,0.00514984,0.0170517,-0.00747681,0.0180435,0.0031662
8,9,3.93971,0.000610352,0.00442505,-2.42806,0.0529344,-0.0756734,0.054128,0.152757,-0.088874,0.143792,-0.121189,-0.0840963,0.0108337,0.0236893,0.0225067,0.0274277,0.0168228,0.00663757,0.0305939,0.0156021,-9.97986,0.015564,-0.00408173,0.0114059,0.011673,0.0209427,-0.0141525,0.0185776,0.00518799
9,0,10.0097,0.000610352,0.00427246,-2.42959,0.0535448,-0.0762837,0.0529073,0.148485,-0.0916206,0.143182,-0.121494,-0.0862325,0.00968933,0.0250244,0.0196075,0.023613,0.0159454,0.0104904,0.0240326,0.0179291,-9.97986,0.0176239,3.8147e-005,0.0159836,0.0108719,0.0233459,-0.0103378,0.0168991,0.0044632
9,1,10.0097,0,0.00198364,-2.43111,0.0538499,-0.0765889,0.0501607,0.101183,-0.0968086,0.142572,-0.126072,-0.0886739,0.00537872,0.0302505,0.0151825,0.0265121,0.0199127,0.00789642,0.0272369,0.0145721,-9.97986,0.0148773,-0.00541687,0.0136566,0.00671387,0.017395,-0.011673,0.0147247,0.00530243
9,2,10.0097,0.000305176,0.000457764,-2.4302,0.0529344,-0.0768941,0.0513814,0.0813463,-0.0971137,0.142877,-0.127598,-0.0880636,0.00968933,0.035553,0.0171661,0.0139618,0.0203323,0.0117111,0.0276566,0.0217438,-9.97986,0.0136948,0.00205994,0.0138474,0.0075531,0.0128174,-0.00473022,0.0186157,0.00717163
9,3,10.0097,-0.000305176,0.000457764,-2.42837,0.0544603,-0.0747579,0.0519917,0.075548,-0.0949775,0.143487,-0.127903,-0.0865377,0.00869751,0.0414276,0.0133133,0.0167465,0.0193405,0.0120163,0.0198746,0.0239944,-9.97986,0.0149536,0.0107193,0.0102234,0.00812531,0.0179672,-0.00679016,0.0154495,0.00572205
9,4,10.0097,-0.000305176,-0.000305176,-2.42714,0.0541551,-0.0747579,0.0529073,0.0731066,-0.0943672,0.144098,-0.126682,-0.0859274,0.0110245,0.03479,0.0101089,0.0161743,0.0197601,0.0118637,0.0246429,0.0281906,-9.97986,0.0168991,0.00823975,0.0140762,0.0043869,0.0175095,-0.0128555,0.0150299,0.00720978
9,5,10.0097,0.000305176,-0.000305176,-2.42776,0.0553758,-0.075063,0.054128,0.0715807,-0.094062,0.146234,-0.126072,-0.0844015,0.0102997,0.0318527,0.0154114,0.0153351,0.0178909,0.00724792,0.0235748,0.0274658,-9.97986,0.0156021,0.00774384,0.0117493,0.00900269,0.0178909,-0.00968933,0.0179291,0.00671387
9,6,10.0097,-0.000305176,0.000457764,-2.42837,0.0544603,-0.0753682,0.054128,0.0691393,-0.094062,0.145013,-0.125461,-0.0844015,0.00980377,0.0234604,0.0187302,0.0147629,0.0186539,0.013237,0.02491,0.0235748,-9.97986,0.0141144,0.000686646,0.0159073,0.0062561,0.0186157,-0.00614166,0.0156021,0.00701904
9,7,10.0097,0.000915527,0.000457764,-2.42592,0.0562914,-0.0747579,0.0535176,0.0706652,-0.0922309,0.146234,-0.125461,-0.0822652,0.0111389,0.0225449,0.0140381,0.0128937,0.0159836,0.0087738,0.0228882,0.0252151,-9.97986,0.0159454,0.00610352,0.0173187,0.0129318,0.0206757,-0.00442505,0.0177765,0.00732422
9,8,10.0097,0,-0.000305176,-2.42623,0.055681,-0.0720113,0.0553487,0.0712755,-0.0913154,0.146844,-0.123935,-0.0819601,0.0133514,0.0256729,0.0155258,0.0163269,0.0167084,0.00694275,0.0242615,0.0260162,-9.97986,0.014801,0.00701904,0.0166702,0.00831604,0.0230789,-0.00576019,0.0163269,0.00648499
9,9,10.0097,0.0012207,0,-2.4247,0.0562914,-0.073232,0.0553487,0.0715807,-0.0910102,0.145929,-0.123935,-0.0819601,0.0114822,0.0200653,0.00999451,0.0201416,0.0146866,0.00762939,0.022049,0.0270462,-9.97986,0.0139236,-0.000572205,0.0127792,0.00751495,0.0197983,-0.0075531,0.0169373,0.00736237
10,0,10.0097,0.00183105,-0.00259399,-2.42653,0.0559862,-0.073232,0.0519917,0.0297716,-0.0965034,0.145624,-0.127903,-0.0825704,0.0130844,0.0185394,0.00953674,0.0140381,0.0186539,0.0075531,0.0199127,0.019989,-9.97986,0.0164413,-0.00572205,0.0136185,0.0104141,0.0178146,-0.00362396,0.0172424,0.00938416
10,1,1.75801,0.000610352,-0.00442505,-2.42592,0.0572069,-0.0738423,0.0538228,-0.0120375,-0.0977241,0.146539,-0.130039,-0.0819601,0.0102615,0.0179672,0.0123596,0.0160599,0.0205231,0.0075531,0.0215912,0.0191116,-9.97986,0.0138474,-0.0113678,0.0119781,0.00743866,0.0190353,-0.00545502,0.0174713,0.0056839
10,2,-5.48716,0.00213623,-0.00473022,-2.42592,0.0569017,-0.0741475,0.0547383,-0.0144789,-0.0971137,0.146234,-0.129429,-0.0810445,0.0117874,0.0209427,0.0136566,0.0196457,0.0152588,0.00770569,0.0208664,0.0104904,-9.97986,0.014534,-0.0109863,0.0135803,0.00617981,0.0191498,0.00377655,0.0163651,0.00694275
10,3,-9.99003,0.0012207,-0.00411987,-2.4244,0.0565965,-0.0756734,0.0571797,0.00810412,-0.0925361,0.146844,-0.128208,-0.0804342,0.0135422,0.0183868,0.0151062,0.016861,0.0187302,0.00740051,0.0177002,0.00850677,-9.97986,0.0157547,-0.0126266,0.0165558,0.00911713,0.0183487,0.00087738,0.0164413,0.00774384
10,4,-9.99003,0.000610352,-0.00183105,-2.42409,0.055681,-0.0735371,0.055959,0.0386217,-0.0894843,0.14776,-0.126987,-0.0810445,0.0104141,0.0207138,0.0134277,0.0139618,0.0197983,0.0135422,0.0175476,0.00873566,-9.97986,0.0157166,-0.00289917,0.0173187,0.00839233,-0.00484467,0.00427246,0.0169373,0.00797272
10,5,-9.99003,-0.000610352,-0.000610352,-2.42501,0.055681,-0.0735371,0.0556539,0.0569322,-0.0910102,0.145318,-0.126682,-0.0816549,0.0134277,0.0178909,0.0168228,0.0125885,0.0167465,0.0069809,0.0191116,0.0056839,-9.97986,0.0143433,-0.0050354,0.0121689,0.00991821,-0.00938416,0.00255585,0.0171661,0.0075531
10,6,-9.99003,0.000915527,0.000305176,-2.42745,0.0559862,-0.0744527,0.0550435,0.0639513,-0.0922309,0.145929,-0.126072,-0.0834859,0.0111771,0.0174332,0.0179291,0.0127792,0.0170517,0.00778198,0.0214767,0.00736237,-9.97986,0.0138855,-0.00385284,0.012207,0.00938416,-0.0012207,-0.00156403,0.0176239,0.0056839
10,7,-9.99003,0,0.00137329,-2.42562,0.0547655,-0.0744527,0.055959,0.104845,-0.0879585,0.145318,-0.122715,-0.0834859,0.0104904,0.0167084,0.0169373,0.0120926,0.0169373,0.00915527,0.0232697,0.00984192,-9.97986,0.0178146,-0.00419617,0.0117493,0.00717163,0.0201797,0.0031662,0.0144196,0.00389099
10,8,-3.15715,-0.0012207,0.00335693,-2.42684,0.0550706,-0.075063,0.0553487,0.136583,-0.088874,0.144098,-0.123325,-0.0850118,0.0101089,0.0199127,0.0195313,0.01091,0.0221252,0.0145721,0.0256348,0.0137711,-9.97986,0.0165558,-0.00106812,0.0165558,0.00919342,0.0185776,0.00190735,0.0151062,0.00740051
10,9,4.23085,0.000915527,0.00442505,-2.42684,0.0544603,-0.0762837,0.0547383,0.153978,-0.0885688,0.144098,-0.122104,-0.0856222,0.0122833,0.0115967,0.0143051,0.0104904,0.0211716,0.0094986,0.0233841,0.0102234,-9.97986,0.018959,-0.000343323,0.00972748,0.00865936,0.0189209,0.00576019,0.016098,0.00610352
11,0,10.0097,0,0.00488281,-2.42959,0.0535448,-0.0771993,0.0529073,0.14818,-0.0919257,0.143487,-0.12241,-0.0859274,0.0138092,0.0231552,0.0177383,0.0113678,0.0182724,0.0115204,0.0213242,0.0152969,-9.97986,0.0122452,-0.00347137,0.01194,0.00926971,0.0175476,0.00835419,0.0150681,0.00549316
11,1,10.0097,0,0.00305176,-2.43081,0.0532396,-0.0762837,0.0504659,0.099962,-0.0971137,0.142572,-0.125461,-0.0889791,0.0104523,0.0180435,0.0194931,0.00915527,0.0155258,0.00667572,0.0169754,0.0140762,-9.97986,0.0167847,0.00106812,0.0156784,0.00862122,0.0158691,0.0113678,0.0150299,0.00659943
11,2,10.0097,0.000610352,0.000305176,-2.42989,0.0535448,-0.0753682,0.050771,0.0816515,-0.0968086,0.142877,-0.126682,-0.0880636,0.0137329,0.0210571,0.0180817,0.0113297,0.0173187,0.00946045,0.0169373,0.0136185,-9.97986,0.0157547,0.00385284,0.0175858,0.0107956,0.0198364,0.0104523,0.0161743,0.00736237
11,3,10.0097,0.000305176,-0.000305176,-2.42928,0.0538499,-0.0765889,0.050771,0.0746324,-0.0949775,0.145013,-0.126682,-0.0868429,0.00976563,0.0204468,0.018692,0.0056076,0.00881195,0.00984192,0.0177383,0.0149155,-9.97986,0.00965118,-0.000915527,0.0145721,0.00648499,0.0184631,0.0117111,0.0138855,0.00839233
11,4,10.0097,-0.000305176,0.000610352,-2.42867,0.0547655,-0.075063,0.0516866,0.0728014,-0.095893,0.143487,-0.127598,-0.0856222,0.0157547,0.0294876,0.02491,0.0126648,0.0237656,0.0134277,0.0170898,0.0177383,-9.97986,0.0167465,0.00572205,0.0165558,0.0100708,0.0162506,0.0106049,0.014801,0.00720978
11,5,10.0097,0.000610352,0.000152588,-2.42653,0.0541551,-0.0747579,0.0522969,0.0728014,-0.0934516,0.145013,-0.125461,-0.0847066,0.0069809,0.0231934,0.0187302,0.00427246,0.014801,0.00907898,0.0114822,0.015564,-9.97986,0.0117111,0.00572205,0.0134659,0.00461578,0.00892639,0.00576019,0.0164413,0.00747681
11,6,10.0097,0.00213623,0.000152588,-2.42623,0.0565965,-0.0747579,0.0535176,0.07036,-0.0949775,0.145318,-0.126682,-0.0844015,0.0125885,0.0232315,0.0217819,0.00595093,0.0182724,0.0133133,0.0161362,0.0191879,-9.97986,0.00972748,0.0102615,0.0157928,0.0094986,0.01091,0.00564575,0.0160599,0.0069809
11,7,10.0097,0.000305176,0.000305176,-2.42562,0.0562914,-0.075063,0.0550435,0.0718859,-0.0925361,0.146234,-0.124851,-0.0828756,0.0103378,0.0234222,0.0159454,0.00984192,0.0160217,0.0146103,0.0172806,0.0171661,-9.97986,0.0152206,0.00648499,0.0177002,0.00904083,0.0160217,0.00255585,0.0139999,0.00923157
11,8,10.0097,0.00213623,0.000152588,-2.42562,0.0544603,-0.0747579,0.0547383,0.0718859,-0.0925361,0.145624,-0.124546,-0.0813497,0.00988007,0.0234604,0.0189972,0.0102234,0.017395,0.0102615,0.0169754,0.0169754,-9.97986,0.0136948,0.00106812,0.017662,0.00743866,0.0183105,0.00499725,0.0129318,0.00850677
11,9,10.0097,-0.000915527,0.000152588,-2.42531,0.0569017,-0.0753682,0.0538228,0.0715807,-0.0913154,0.147455,-0.12363,-0.0816549,0.0112915,0.0195694,0.0180817,0.00717163,0.0159836,0.00591278,0.0170898,0.0154877,-9.97986,0.0169754,-0.00247955,0.015831,0.00789642,0.0163651,-0.00255585,0.0134277,0.00576019
12,0,9.98952,-0.000305176,-0.00167847,-2.42653,0.0562914,-0.0741475,0.0538228,0.0291613,-0.0971137,0.145624,-0.126682,-0.0828756,0.0129318,0.0221634,0.0196457,0.0075531,0.0146103,0.00980377,0.0202179,0.0161743,-9.97986,0.0176239,-0.00984192,0.0163651,0.00671387,0.021553,-0.00583649,0.0141907,0.00736237
12,1,1.78273,0.0012207,-0.00518799,-2.42562,0.0569017,-0.0744527,0.0526021,-0.0120375,-0.09925,0.146539,-0.130039,-0.0844015,0.0087738,0.0211334,0.0192261,0.00621796,0.0193024,0.0114059,0.0212097,0.0215912,-9.97986,0.0141144,-0.0120163,0.0101471,0.00961304,0.0197983,-0.00392914,0.0127029,0.00488281
12,2,-5.56254,0.000305176,-0.0050354,-2.42501,0.0572069,-0.0744527,0.0538228,-0.0147841,-0.0955879,0.147455,-0.129429,-0.0819601,0.00843048,0.0206375,0.0177765,0.00484467,0.0177383,0.00934601,0.0254059,0.0185013,-9.97986,0.0139618,-0.0107574,0.0153351,0.0087738,0.0217819,0.000152588,0.0155258,0.00484467
12,3,-9.99003,0.000610352,-0.00442505,-2.4244,0.055681,-0.0738423,0.0553487,0.00779895,-0.0925361,0.147455,-0.128513,-0.0810445,0.0104904,0.026207,0.0218201,0.00873566,0.01194,0.0123978,0.0278473,0.0220871,-9.97986,0.0146103,-0.00804901,0.0156403,0.0104141,0.0187683,-0.00217438,0.0148392,0.00587463
12,4,-9.99003,0.000610352,-0.00167847,-2.4247,0.0565965,-0.0735371,0.0565694,0.0392321,-0.090705,0.145624,-0.126072,-0.0804342,0.00896454,0.0262833,0.0205994,0.00934601,0.0170135,0.00453949,0.0229645,0.0160599,-9.97986,0.0144577,-0.00553131,0.0163651,0.00682831,-0.00705719,-0.00598907,0.0120544,0.00587463
12,5,-9.99003,0.000610352,-0.000915527,-2.42623,0.0562914,-0.0744527,0.0550435,0.0569322,-0.090705,0.145624,-0.126072,-0.0816549,0.00717163,0.0177765,0.0197983,0.00896454,0.0167847,0.0116348,0.0230789,0.0123215,-9.97986,0.0134277,-0.00289917,0.0167084,0.00865936,-0.00923157,-0.00656128,0.0159836,0.00583649
12,6,-9.99003,0.000610352,0.000305176,-2.42501,0.0547655,-0.0747579,0.0538228,0.0645616,-0.0903999,0.145929,-0.125461,-0.0837911,0.0136566,0.0213242,0.0200272,0.00862122,0.0195694,0.0120163,0.0218964,0.0179291,-9.97986,0.0142288,0.000724792,0.0138092,0.00881195,-0.0043869,-0.00537872,0.0185394,0.00907898
12,7,-9.99003,-0.000915527,0.00106812,-2.42623,0.0541551,-0.0735371,0.0562642,0.107591,-0.0867378,0.145929,-0.12302,-0.0825704,0.0107574,0.0236511,0.018425,0.00366211,0.0177383,0.0105286,0.0260162,0.0183105,-9.97986,0.0168228,-0.000190735,0.0167465,0.0069809,0.0180054,-0.00621796,0.0130463,0.0105286
12,8,-3.18492,-0.000915527,0.00350952,-2.42806,0.0535448,-0.0753682,0.0547383,0.136888,-0.0891792,0.143792,-0.12241,-0.0850118,0.00976563,0.0231552,0.022583,0.0075531,0.0143433,0.0101852,0.0240707,0.019722,-9.97986,0.0131607,-0.001297,0.0137329,0.00743866,0.0158691,-0.0130081,0.0117874,0.00637054
12,9,4.1985,0.000305176,0.00473022,-2.42806,0.0547655,-0.0753682,0.0544332,0.155199,-0.088874,0.143487,-0.121799,-0.0847066,0.00896454,0.0247574,0.0206757,0.0124741,0.014267,0.00862122,0.0222778,0.0235748,-9.97986,0.0156021,-0.00160217,0.0182724,0.0102234,0.0198364,-0.0123978,0.0162506,0.00637054
13,0,10.0097,0.00152588,0.00427246,-2.42837,0.0529344,-0.0768941,0.0522969,0.149401,-0.0903999,0.142877,-0.121799,-0.0862325,0.00873566,0.0226212,0.0167465,0.00675201,0.0162125,0.00808716,0.0190735,0.0197601,-9.97986,0.0120926,-0.00453949,0.0109863,0.00919342,0.0139618,-0.0160217,0.0151825,0.00511169
13,1,10.0097,0.000305176,0.00183105,-2.43111,0.0538499,-0.0753682,0.0495503,0.0987413,-0.0971137,0.141656,-0.126072,-0.0889791,0.0111008,0.0213623,0.0233459,0.00595093,0.0148773,0.0111389,0.0186157,0.0209808,-9.97986,0.0130844,-0.00492096,0.0106812,0.00629425,0.0166321,-0.0130463,0.0152588,0.00644684
13,2,10.0097,0.0012207,0.00106812,-2.42989,0.0547655,-0.0756734,0.0519917,0.082567,-0.095893,0.142572,-0.126377,-0.0889791,0.0109863,0.0234604,0.0209045,0.00827789,0.0191116,0.00835419,0.0218201,0.0211334,-9.97986,0.0164413,0.00152588,0.0167847,0.0094223,0.0141525,-0.0154495,0.0139236,0.00614166
13,3,10.0097,-0.000305176,-0.000305176,-2.42867,0.0547655,-0.075063,0.0526021,0.0749376,-0.0949775,0.144098,-0.125766,-0.0859274,0.00793457,0.020256,0.0167847,0.00946045,0.017662,0.0113678,0.022049,0.0210571,-9.97986,0.0146484,-0.00240326,0.0150681,0.00873566,0.014267,-0.0094986,0.0147247,0.00652313
13,4,10.0097,-0.0012207,0.000152588,-2.42867,0.0550706,-0.0747579,0.0513814,0.0731066,-0.0946723,0.144098,-0.126377,-0.0859274,0.0134277,0.0252151,0.0208282,0.0117874,0.0199127,0.01194,0.0209045,0.0250626,-9.97986,0.0113297,0.00183105,0.0146484,0.00644684,0.016861,-0.01297,0.0150681,0.0075531
13,5,10.0097,0.000610352,0,-2.42684,0.0538499,-0.0741475,0.0538228,0.0709703,-0.0931465,0.145318,-0.126377,-0.0840963,0.0102615,0.0254059,0.0188065,0.00873566,0.0148773,0.0139999,0.0182724,0.0294876,-9.97986,0.0141525,0.000991821,0.0138855,0.00892639,0.0102997,-0.0121689,0.015564,0.00694275
13,6,10.0097,0.000915527,-0.000152588,-2.42592,0.0565965,-0.0738423,0.0522969,0.0718859,-0.0928413,0.145624,-0.126072,-0.0840963,0.00576019,0.0238419,0.0206375,0.00812531,0.0193024,0.00782013,0.0156784,0.0279617,-9.97986,0.018959,-0.000457764,0.0140381,0.00774384,0.0127792,-0.0139236,0.0143051,0.00793457
13,7,10.0097,0.0012207,0.000152588,-2.42562,0.0572069,-0.075063,0.0550435,0.0728014,-0.0931465,0.145929,-0.126377,-0.0828756,0.00782013,0.0167084,0.0214386,0.00926971,0.0228119,0.00675201,0.0228882,0.0275803,-9.97986,0.0143433,-0.00240326,0.0136566,0.00743866,0.0137711,-0.0115204,0.016098,0.0100708
13,8,10.0097,-0.000610352,-0.000305176,-2.42592,0.0559862,-0.0735371,0.054128,0.0715807,-0.0916206,0.145624,-0.124241,-0.0816549,0.00663757,0.0207901,0.0230789,0.0117111,0.0139618,0.010643,0.0202179,0.0198364,-9.97986,0.0143814,-0.00392914,0.0166321,0.00785828,0.0149536,-0.014801,0.0127029,0.00701904
13,9,10.0097,0.000610352,-0.000305176,-2.42562,0.0559862,-0.0738423,0.0538228,0.07036,-0.0903999,0.147455,-0.124546,-0.0810445,0.00656128,0.0231171,0.0214386,0.00785828,0.019455,0.0119781,0.0169373,0.0116348,-9.97986,0.0141144,0.00118256,0.0136948,0.00778198,0.0178909,-0.013504,0.0177765,0.00892639
14,0,9.94527,-0.000305176,-0.00228882,-2.42714,0.0565965,-0.0738423,0.0532125,0.0294664,-0.095893,0.145318,-0.127292,-0.0828756,0.00705719,0.0200272,0.0201416,0.0114441,0.0185013,0.0113297,0.0198364,0.013504,-9.97986,0.0126648,0.00114441,0.014267,0.0018692,0.0110245,-0.012207,0.0130844,0.00846863
14,1,1.73635,0.000610352,-0.00473022,-2.42623,0.0559862,-0.0735371,0.0535176,-0.0105116,-0.0974189,0.146234,-0.129123,-0.0831808,0.0127792,0.024147,0.0260162,0.0154114,0.0192261,0.011673,0.0186539,0.00843048,-9.97986,0.011673,7.62939e-005,0.0115204,0.00205994,0.00858307,-0.0134277,0.0154877,0.0087738
14,2,-5.53477,-0.00427246,-0.00488281,-2.42501,0.0569017,-0.0744527,0.0522969,-0.0144789,-0.0965034,0.147149,-0.130039,-0.0810445,0.00751495,0.0263214,0.0254822,0.0101089,0.0152206,0.00972748,0.0207138,0.00720978,-9.97986,0.0117493,0.00335693,0.014801,0.0108337,0.0143433,-0.0159073,0.014534,0.00591278
14,3,-9.99003,0,-0.00335693,-2.4244,0.0572069,-0.0738423,0.0562642,0.00688342,-0.0913154,0.145929,-0.128208,-0.0807394,0.00961304,0.0240707,0.0248337,0.0165176,0.021019,0.0094223,0.0232315,0.0106812,-9.97986,0.0141907,0.000305176,0.0156021,0.00865936,0.0135803,-0.0116348,0.0121689,0.00656128
14,4,-9.99003,0.000610352,-0.00167847,-2.4244,0.0553758,-0.0744527,0.0568746,0.0398424,-0.0903999,0.147149,-0.126682,-0.0804342,0.00934601,0.0276947,0.0211716,0.0118637,0.0136185,0.0087738,0.0239944,0.0111008,-9.97986,0.0117111,-0.000839233,0.0126648,0.00465393,-0.0104523,-0.0123215,0.0138855,0.00785828
14,5,-9.99003,0.000305176,-0.000152588,-2.42623,0.0547655,-0.0741475,0.0553487,0.0557115,-0.0913154,0.145929,-0.126682,-0.0810445,0.00968933,0.0434113,0.020752,0.00991821,0.0156403,0.0111771,0.0259399,0.0113297,-9.97986,0.0167847,0.00663757,0.0157547,0.00831604,-0.0069046,-0.00938416,0.016098,0.00740051
14,6,-9.99003,-0.000305176,-0.000305176,-2.42653,0.0553758,-0.075063,0.054128,0.0654772,-0.0910102,0.145318,-0.126377,-0.0834859,0.00984192,0.046196,0.0207138,0.0132751,0.016861,0.0123215,0.0273132,0.0165558,-9.97986,0.0189209,-0.00144958,0.01297,0.00743866,-0.0101471,-0.00495911,0.0172043,0.00541687
14,7,-9.99003,0.000610352,0.00137329,-2.42501,0.0544603,-0.0744527,0.0565694,0.108812,-0.0867378,0.145624,-0.122715,-0.0816549,0.0135803,0.0276947,0.0208282,0.0121689,0.0189209,0.0107956,0.027504,0.0168991,-9.97986,0.00896454,-0.00175476,0.0139236,0.00663757,0.0179291,-0.00648499,0.0175095,0.00190735
14,8,-3.15104,-0.000915527,0.00442505,-2.42776,0.0526292,-0.0747579,0.054128,0.136583,-0.0882636,0.142877,-0.12241,-0.0834859,0.0100708,0.00873566,0.0179291,0.0105286,0.0201416,0.00507355,0.0231171,0.0174332,-9.97986,0.0133514,-0.00480652,0.0122833,0.00507355,0.0161743,-0.00915527,0.0167084,0.00751495
14,9,4.27266,0.000610352,0.00473022,-2.42806,0.0544603,-0.0762837,0.0526021,0.155809,-0.0897895,0.144098,-0.121189,-0.085317,0.0102615,0.0123978,0.0169373,0.00782013,0.0148392,0.00873566,0.0270462,0.0144958,-9.97986,0.016098,-0.00644684,0.0107574,0.00492096,0.0190353,-0.0145721,0.0163269,0.00415802
15,0,10.0097,-0.000305176,0.00534058,-2.42959,0.0541551,-0.0759786,0.0538228,0.149706,-0.0910102,0.143182,-0.122715,-0.0865377,0.0136566,0.0248337,0.0214767,0.0120544,0.0190353,0.0103378,0.0240326,0.0194931,-9.97986,0.0132751,-0.00637054,0.0137329,0.00137329,0.0192642,-0.00843048,0.0177002,0.00900269
15,1,10.0097,0.000610352,0.00152588,-2.43111,0.0532396,-0.0771993,0.0501607,0.0987413,-0.0980293,0.142267,-0.124851,-0.0886739,0.0108719,0.0232315,0.0141907,0.0088501,0.0178528,0.00972748,0.0226593,0.0172043,-9.97986,0.0158691,-0.000190735,0.0139618,0.00404358,0.0214005,-0.00492096,0.0168228,0.00549316
15,2,10.0097,0,0.000457764,-2.43111,0.0538499,-0.0771993,0.050771,0.0804308,-0.0971137,0.144098,-0.126987,-0.0892843,0.00869751,0.0259781,0.0160217,0.00602722,0.0170517,0.0069809,0.0180817,0.0196838,-9.97986,0.0125122,-0.0025177,0.0127029,0.00343323,0.019989,-0.00377655,0.0207138,0.00614166
15,3,10.0097,0.000305176,0.000457764,-2.42867,0.0544603,-0.0753682,0.0510762,0.0752428,-0.0961982,0.143182,-0.125461,-0.0859274,0.0107956,0.0219727,0.00988007,0.00679016,0.0113297,0.0122452,0.0227737,0.0180817,-9.97986,0.0133133,0.00232697,0.0168228,0.00961304,0.0206757,0.000801086,0.0191879,0.00629425
15,4,10.0097,0,-0.000305176,-2.42776,0.0544603,-0.0744527,0.0516866,0.0728014,-0.0943672,0.144708,-0.124851,-0.0850118,0.0110626,0.0223923,0.0149918,0.00282288,0.0155258,0.0113297,0.0138855,0.0163651,-9.97986,0.0166321,-0.000267029,0.00907898,0.00396729,0.015831,0.00221252,0.0167084,0.00495911
15,5,10.0097,0,-0.000305176,-2.42745,0.0553758,-0.075063,0.0538228,0.0700548,-0.094062,0.144708,-0.126682,-0.0847066,0.00988007,0.0193405,0.0127411,0.000648499,0.0134659,0.011673,0.0170135,0.0151825,-9.97986,0.0131989,0.00282288,0.0124359,0.00377655,0.0176239,0.000305176,0.0153732,0.00476837
15,6,10.0097,0.00183105,0,-2.42745,0.0569017,-0.0744527,0.0538228,0.0706652,-0.0931465,0.143792,-0.126072,-0.0840963,0.0143051,0.0151825,0.0148773,0.0019455,0.0160217,0.0140381,0.0156403,0.0147629,-9.97986,0.0191879,0.00175476,0.0137329,0.00473022,0.0178146,0.00545502,0.0149536,0.00808716
15,7,10.0097,0.000305176,0.000610352,-2.42592,0.0569017,-0.0735371,0.0544332,0.0709703,-0.0928413,0.146234,-0.125766,-0.0828756,0.0104141,0.0117874,0.0134277,-0.00408173,0.0166702,0.00785828,0.0117874,0.0131607,-9.97986,0.0193024,-0.00274658,0.0156403,0.00541687,0.0155258,-0.00038147,0.0194931,0.00667572
15,8,10.0097,-0.00244141,0.000457764,-2.42592,0.0559862,-0.0729268,0.0547383,0.072191,-0.0922309,0.146844,-0.124241,-0.0816549,0.0107574,0.0157547,0.0170517,0.00335693,0.0149918,0.0117493,0.0164032,0.0153732,-9.97986,0.0164795,0.00236511,0.0130463,0.0056839,0.0182724,-0.0087738,0.0162888,0.00507355
15,9,10.0097,0.000610352,0,-2.42531,0.0559862,-0.0738423,0.0544332,0.0718859,-0.0916206,0.147149,-0.124241,-0.0816549,0.013504,0.0281906,0.0206375,0.0196457,0.0165939,0.0121689,0.0165176,0.0236511,-9.97986,0.01091,-7.62939e-005,0.0123596,0.0012207,0.0131989,-0.0161362,0.0169373,0.0063324
16,0,9.99257,-0.00183105,-0.00259399,-2.42592,0.0559862,-0.075063,0.0529073,0.0288561,-0.0974189,0.14776,-0.127903,-0.0825704,0.00904083,0.0267792,0.0182343,0.0220108,0.0137711,0.00762939,0.0195313,0.0190353,-9.97986,0.0172424,0.000305176,0.0106812,0.00640869,0.0193405,-0.0175095,0.0194168,0.00686646
16,1,1.78548,0.00183105,-0.00457764,-2.42653,0.0562914,-0.0744527,0.0538228,-0.0117323,-0.0986396,0.146234,-0.128818,-0.0825704,0.00640869,0.0291443,0.0229645,0.0137329,0.0162506,0.0101471,0.0211334,0.0151062,-9.97986,0.0159836,0.000419617,0.0138855,0.00629425,0.0168991,-0.0155258,0.0160599,0.00465393
16,2,-5.44993,-0.000610352,-0.00457764,-2.42501,0.0562914,-0.0735371,0.0535176,-0.0160048,-0.0965034,0.146844,-0.129734,-0.0819601,0.00995636,0.0266647,0.0226974,0.0206757,0.0133896,0.0082016,0.0239944,0.0199509,-9.97986,0.0170135,-0.000991821,0.0138092,0.00293732,0.0163269,-0.00686646,0.0167465,0.0063324
16,3,-9.99003,0.0012207,-0.00427246,-2.42409,0.055681,-0.0738423,0.0550435,0.00688342,-0.0928413,0.147455,-0.128208,-0.0807394,0.00911713,0.0236511,0.0188446,0.0156403,0.0162125,0.0114059,0.0272369,0.0219727,-9.97986,0.0147629,0.00102997,0.0170517,0.0044632,0.018692,0.00587463,0.0185013,0.00564575
16,4,-9.99003,0.0012207,-0.00137329,-2.4244,0.0562914,-0.073232,0.0562642,0.0395372,-0.0900947,0.145929,-0.126072,-0.080129,0.0153351,0.0148392,0.017662,0.0127029,0.0183105,0.0127029,0.0255203,0.0239182,-9.97986,0.0148773,0.000610352,0.0144958,0.00244141,-0.00713348,0.00968933,0.0208282,0.00747681
16,5,-9.99003,-0.000610352,-0.000915527,-2.42562,0.0572069,-0.0729268,0.0553487,0.0572374,-0.090705,0.146234,-0.125766,-0.0822652,0.0136566,0.0193787,0.0165939,0.0149536,0.017662,0.0104523,0.0228119,0.0244522,-9.97986,0.0118637,-0.0031662,0.013504,0.00415802,-0.00946045,0.0173187,0.019989,0.00797272
16,6,-9.99003,0.000305176,0.000152588,-2.42684,0.0544603,-0.0756734,0.0547383,0.0645616,-0.0922309,0.143792,-0.126377,-0.0831808,0.00904083,0.0107574,0.00530243,0.0114059,0.00801086,0.00419617,0.0283813,0.020752,-9.97986,0.0157928,-0.00694275,0.00919342,0.00488281,-0.00961304,0.0163651,0.0139618,0.0063324
16,7,-9.99003,0.00152588,0.00137329,-2.42562,0.0562914,-0.0744527,0.0568746,0.109422,-0.0867378,0.146539,-0.123325,-0.0834859,0.0122452,0.0107956,0.00476837,0.0166702,0.0180054,0.0125885,0.029068,0.02285,-9.97986,0.0162888,-0.00167847,0.0168991,0.00995636,0.0217438,0.0150299,0.017662,0.00606537
16,8,-3.22429,0.00152588,0.00350952,-2.42806,0.0529344,-0.0759786,0.0556539,0.136888,-0.0882636,0.143792,-0.121189,-0.0837911,0.0102615,0.0112915,0.00724792,0.00904083,0.0134277,0.0110626,0.0238419,0.0234985,-9.97986,0.0178146,0.00728607,0.0125504,0.00488281,0.0150681,0.00740051,0.0179291,0.00617981
16,9,4.16829,-0.000305176,0.00473022,-2.42745,0.0538499,-0.0744527,0.054128,0.153368,-0.0885688,0.143487,-0.121494,-0.0850118,0.0122833,0.0131607,0.0118637,0.0136948,0.0141525,0.0153732,0.0259399,0.0166702,-9.97986,0.0154877,0.0153351,0.0156784,0.00354767,0.0144958,0.00270844,0.014267,0.0018692
17,0,10.0097,0.000305176,0.00442505,-2.42989,0.0538499,-0.075063,0.0522969,0.148485,-0.0900947,0.143182,-0.121494,-0.0862325,0.00873566,0.0149918,0.0137329,0.0149536,0.0177765,0.0127411,0.0244904,0.0173187,-9.97986,0.0209808,0.0156403,0.0117111,0.00724792,0.017662,0.000343323,0.0180435,0.00259399
17,1,10.0097,0.000915527,0.00137329,-2.43142,0.0529344,-0.0762837,0.050771,0.0996569,-0.0989448,0.141351,-0.125766,-0.0889791,0.00823975,0.0189209,0.0127792,0.0102234,0.0136948,0.00953674,0.0254059,-0.00331879,-9.97986,0.010643,0.000801086,0.0141525,0.00297546,0.0156403,0.00209808,0.0145721,0.00541687
17,2,10.0097,0.0012207,0.000762939,-2.42928,0.0544603,-0.0759786,0.050771,0.0804308,-0.0968086,0.143182,-0.127598,-0.0886739,0.0159454,0.0286484,0.0179672,0.0125122,0.0164413,0.0122452,0.026474,-0.00370026,-9.97986,0.0150681,-0.00305176,0.0168228,0.00549316,0.0177383,0.00926971,0.0196457,0.00377655
17,3,10.0097,0.00152588,-0.000305176,-2.42959,0.0529344,-0.0753682,0.0519917,0.0752428,-0.0949775,0.145013,-0.125766,-0.0859274,0.0125504,0.0267792,0.0157928,0.0130844,0.0152206,0.00965118,0.0269318,0.000762939,-9.97986,0.0168991,-0.0139236,0.0161743,0.00457764,0.0179672,0.0112915,0.0185394,0.00518799
17,4,10.0097,-0.000305176,0.000152588,-2.42867,0.0529344,-0.0756734,0.0522969,0.0724962,-0.0937568,0.143792,-0.126072,-0.085317,0.0123596,0.0279999,0.0155258,0.00923157,0.0155258,0.0102997,0.0205231,0.00984192,-9.97986,0.018425,-0.0209808,0.00961304,0.00144958,0.0133514,0.00770569,0.0115585,0.0069046
17,5,10.0097,0.0012207,-0.000152588,-2.42745,0.0547655,-0.0747579,0.0529073,0.0709703,-0.0931465,0.145013,-0.126682,-0.0850118,0.0114059,0.0231934,0.022316,0.0130844,0.0165939,0.0087738,0.0246811,0.0170517,-9.97986,0.0174332,-0.0172424,0.0174713,0.00762939,0.015831,0.00431061,0.0173187,0.00606537
17,6,10.0097,0.000610352,0.000152588,-2.42653,0.0559862,-0.0744527,0.0538228,0.072191,-0.0943672,0.145318,-0.125461,-0.0840963,0.00789642,0.0223923,0.0163269,0.00938416,0.0125504,0.00804901,0.0190353,0.0159073,-9.97986,0.0135803,-0.0106049,0.0141907,0.00518799,0.0120926,-0.00152588,0.0127029,0.00282288
17,7,10.0097,0.000610352,0.000762939,-2.42714,0.055681,-0.0738423,0.0550435,0.0715807,-0.0916206,0.145013,-0.126072,-0.0828756,0.0125885,0.0224686,0.0240707,0.0139618,0.0180435,0.00827789,0.0174332,0.0191116,-9.97986,0.014801,-0.00606537,0.021019,0.00843048,0.0150681,0.00114441,0.0159454,0.00453949
17,8,10.0097,0.0012207,0,-2.42562,0.0559862,-0.0735371,0.0547383,0.0706652,-0.0919257,0.148065,-0.124546,-0.0816549,0.0120163,0.0237274,0.019989,0.0127411,0.0203705,0.0106812,0.0220108,0.0187683,-9.97986,0.0115967,-0.00160217,0.0180817,0.00587463,0.0194931,0.00881195,0.0194168,0.00583649
17,9,10.0097,0.00274658,-0.000152588,-2.4244,0.0559862,-0.0738423,0.0553487,0.0718859,-0.0910102,0.146234,-0.125156,-0.0822652,0.010376,0.0238419,0.02285,0.00759125,0.0196075,0.0128937,0.0223923,0.0233078,-9.97986,0.0115204,0.000190735,0.0159073,0.00473022,0.0194931,0.00816345,0.0159454,0.00385284
18,0,10.0097,-0.000915527,-0.00244141,-2.42714,0.0565965,-0.073232,0.0519917,0.0300768,-0.0968086,0.146234,-0.127598,-0.0831808,0.00846863,0.0223541,0.0221634,0.0115585,0.0170517,0.00923157,0.0184631,0.0194931,-9.97986,0.0107956,-0.00205994,0.00953674,0.00362396,0.0147247,0.00213623,0.0161362,0.000724792
18,1,1.88558,0.00183105,-0.00473022,-2.42653,0.0559862,-0.0723164,0.0526021,-0.0126478,-0.0980293,0.145624,-0.130344,-0.0819601,0.00965118,0.0207138,0.0197983,0.0130463,0.0195694,0.0114441,0.0205231,0.0167847,-9.97986,0.0124741,0.00141144,0.016861,0.00514984,0.0188828,0.00255585,0.0162506,0.00537872
18,2,-5.32451,-0.000610352,-0.00473022,-2.42592,0.0565965,-0.0735371,0.054128,-0.0153944,-0.0971137,0.14776,-0.130954,-0.0819601,0.00736237,0.0243378,0.0229645,0.0116348,0.0152969,0.0105667,0.0234985,0.0159454,-9.97986,0.0149155,0.00190735,0.0138855,0.00537872,0.0147629,0.0025177,0.0156021,0.00717163
18,3,-9.99003,0,-0.00350952,-2.42531,0.0569017,-0.0744527,0.0550435,0.0084093,-0.0934516,0.147149,-0.127903,-0.0804342,0.00892639,0.0269318,0.0249481,0.0105286,0.0159836,0.00843048,0.0237656,0.0157928,-9.97986,0.0128937,-0.000419617,0.0109863,0.00724792,0.0183868,-0.00358582,0.0173569,0.00598907
18,4,-9.99003,0.000305176,-0.00167847,-2.4247,0.0559862,-0.0735371,0.0565694,0.0377062,-0.0903999,0.145318,-0.126987,-0.0810445,0.00835419,0.0247574,0.019989,0.0101852,0.015831,0.0141525,0.0218201,0.0162125,-9.97986,0.0138092,0.00293732,0.0152969,0.00347137,-0.00701904,-0.00637054,0.0168228,0.00663757
18,5,-9.99003,0.000610352,-0.000610352,-2.42653,0.0562914,-0.0741475,0.0550435,0.0572374,-0.0910102,0.145929,-0.125156,-0.0810445,0.0107956,0.0204468,0.0158691,0.0107193,0.0171661,0.0094986,0.0220871,0.0145721,-9.97986,0.0152588,0.0115967,0.0106049,0.00228882,-0.00865936,-0.00602722,0.0172043,0.00358582
18,6,-9.99003,0.00213623,0.000152588,-2.42653,0.0547655,-0.075063,0.0550435,0.0636461,-0.0928413,0.145013,-0.125156,-0.0825704,0.0101471,0.0196075,0.0131607,0.00919342,0.0186157,0.0106049,0.0210953,0.0166321,-9.97986,0.0135803,0.0144196,0.0105286,0.00442505,-0.00747681,-0.00602722,0.0160217,0.00675201
18,7,-9.99003,0.000915527,0.00183105,-2.4244,0.0550706,-0.0747579,0.0568746,0.110338,-0.0870429,0.145929,-0.123325,-0.0825704,0.0112152,0.0194168,0.0133133,0.00923157,0.0177002,0.0119019,0.0206757,0.0199509,-9.97986,0.0138092,0.010643,0.0141144,0.0107574,0.0150299,-0.00606537,0.0145721,0.00343323
18,8,-2.87608,-0.0012207,0.00335693,-2.42776,0.0541551,-0.075063,0.0547383,0.137193,-0.0897895,0.144098,-0.121494,-0.0840963,0.00770569,0.0162125,0.0136185,0.0117493,0.0201797,0.0124741,0.0230408,0.0244522,-9.97986,0.0124741,0.00629425,0.0122833,0.00457764,0.0144196,-0.0120163,0.0170898,0.00804901
18,9,4.47835,0.000305176,0.00442505,-2.42806,0.0541551,-0.0759786,0.054128,0.155199,-0.088874,0.144403,-0.120578,-0.0850118,0.013504,0.0170517,0.0157166,0.00850677,0.0208282,0.00713348,0.0235367,0.021553,-9.97986,0.0113297,0.00190735,0.0174713,0.00461578,0.0115967,-0.0164413,0.0166702,0.00770569
19,0,10.0097,0.000610352,0.00457764,-2.42928,0.0532396,-0.0759786,0.0532125,0.148485,-0.0919257,0.143792,-0.12241,-0.0859274,0.0124741,0.0164795,0.019989,0.0129318,0.0146484,0.00843048,0.0221252,0.0244141,-9.97986,0.0145721,-0.000305176,0.0157547,0.00213623,0.0110245,-0.0147247,0.0180435,0.00656128
19,1,10.0097,0.000915527,0.0012207,-2.43081,0.0526292,-0.0762837,0.0501607,0.0978258,-0.0983344,0.142877,-0.126377,-0.0883688,0.0111771,0.0201797,0.0161743,0.00839233,0.0190735,0.00999451,0.0151825,0.0244522,-9.97986,0.0135422,-0.0103378,0.0159454,0.00175476,0.0149918,-0.00595093,0.0189209,0.00743866
19,2,10.0097,0.0012207,0.000457764,-2.42959,0.0535448,-0.0759786,0.050771,0.0813463,-0.0961982,0.144098,-0.126377,-0.0883688,0.0117874,0.0137711,0.0186157,0.0103378,0.0206375,0.0106812,0.0197983,0.022583,-9.97986,0.0121689,-0.0146484,0.0143433,0.00362396,0.0173569,0.00133514,0.0138474,0.0063324
19,3,10.0097,0.000305176,-0.000305176,-2.42837,0.0541551,-0.0747579,0.0513814,0.075548,-0.0952827,0.144403,-0.126377,-0.0865377,0.00968933,0.016861,0.0188065,0.0144196,0.0186157,0.0102997,0.0205231,0.0193787,-9.97986,0.00991821,-0.015831,0.0114441,0.00476837,0.012207,0.00488281,0.0166702,0.00705719
19,4,10.0097,0,-0.000152588,-2.42806,0.0529344,-0.0753682,0.0538228,0.0724962,-0.0946723,0.144708,-0.125461,-0.085317,0.0133896,0.0232697,0.0177765,0.0111771,0.0159454,0.00999451,0.0124359,0.018158,-9.97986,0.013504,-0.0138855,0.0127792,0.00221252,0.0131607,0.00167847,0.0139618,0.00892639
19,5,10.0097,0.000915527,0.000152588,-2.42867,0.0538499,-0.0753682,0.0535176,0.0706652,-0.0931465,0.145013,-0.124851,-0.0844015,0.00801086,0.0315475,0.025444,0.0144577,0.0123215,0.0112152,0.0165176,0.0144577,-9.97986,0.011673,-0.0114441,0.0133896,0.00240326,0.0144958,0.00728607,0.0167084,0.0103378
19,6,10.0097,0.000915527,0.000457764,-2.42623,0.055681,-0.0759786,0.0532125,0.0709703,-0.0934516,0.145318,-0.125156,-0.0834859,0.0113297,0.0300598,0.0292587,0.0104523,0.0177765,0.0105286,0.0182343,0.0100708,-9.97986,0.0088501,-0.00961304,0.0138092,0.00572205,0.0142288,0.00835419,0.0180817,0.00778198
19,7,10.0097,0.0012207,0.000152588,-2.42562,0.0572069,-0.0738423,0.0538228,0.0715807,-0.0928413,0.146234,-0.125156,-0.0828756,0.00679016,0.0302505,0.0296021,0.0115585,0.0207901,0.0115585,0.0160217,0.00789642,-9.97986,0.0114059,-0.00312805,0.018158,0.00514984,0.0122833,0.00900269,0.0160217,0.00541687
19,8,10.0097,-0.000610352,-0.000305176,-2.42592,0.0562914,-0.0723164,0.0556539,0.07036,-0.0913154,0.146539,-0.124546,-0.0813497,0.0103378,0.0298309,0.0256729,0.0118637,0.0195694,0.0137329,0.0221252,0.0120926,-9.97986,0.00965118,-0.0043869,0.0174332,0.00400543,0.0207901,0.00789642,0.0146103,0.0101471
19,9,10.0097,0.000610352,0.000610352,-2.42501,0.055681,-0.0744527,0.0556539,0.0709703,-0.0900947,0.14776,-0.123935,-0.0804342,0.00789642,0.0333786,0.0276566,0.0119781,0.0235748,0.0088501,0.0215149,0.0124359,-9.97986,0.0135422,-0.00522614,0.0107193,0.00331879,0.0130081,0.00865936,0.0171661,0.00663757
20,0,10.0087,0.00152588,-0.00244141,-2.42653,0.0562914,-0.0738423,0.0513814,0.0306871,-0.0961982,0.145624,-0.127903,-0.0834859,0.00915527,0.0338364,0.0285721,0.00843048,0.0199127,0.0123978,0.0190353,0.017395,-9.97986,0.0114822,-0.00679016,0.0147629,0.00545502,0.0138474,-0.00141144,0.0147247,0.00701904
20,1,1.77876,0.000305176,-0.00427246,-2.42684,0.0572069,-0.0735371,0.0526021,-0.0108168,-0.09925,0.146844,-0.129123,-0.0822652,0.00782013,0.0342178,0.0246048,0.0167084,0.0181961,0.0112152,0.0212479,0.0139618,-9.97986,0.0132751,-0.00514984,0.0178909,0.00175476,0.0141907,-0.0069046,0.0135803,0.0120544
20,2,-5.38279,0.000305176,-0.00411987,-2.42531,0.0562914,-0.0726216,0.054128,-0.0160048,-0.0949775,0.147149,-0.129734,-0.0813497,0.00919342,0.0323105,0.0294876,0.00923157,0.0188446,0.00919342,0.0235748,0.0212097,-9.97986,0.0100327,-0.00389099,0.0171661,0.00263214,0.0152588,-0.00473022,0.0185776,0.00541687
20,3,-9.99003,0.0012207,-0.00350952,-2.4244,0.0562914,-0.0738423,0.0568746,0.00749377,-0.0925361,0.145929,-0.128208,-0.0810445,0.00907898,0.03479,0.0303268,0.0121307,0.0149918,0.0104141,0.020256,0.0216675,-9.97986,0.0152969,-0.00320435,0.0154495,0.00453949,0.0145721,-0.00453949,0.0183487,0.00598907
20,4,-9.99003,-0.000610352,-0.00213623,-2.4247,0.0559862,-0.0744527,0.0568746,0.0392321,-0.0900947,0.146234,-0.127292,-0.080129,0.00659943,0.0298691,0.0265503,0.0110626,0.0151443,0.0114059,0.0235748,0.0156403,-9.97986,0.0155258,-0.00434875,0.0159073,0.00892639,-0.0104141,-0.00209808,0.0171661,0.00839233
20,5,-9.99003,0.00213623,-0.000610352,-2.42531,0.0559862,-0.0753682,0.0538228,0.0563219,-0.0925361,0.144708,-0.126377,-0.0813497,0.00961304,0.0297928,0.0209427,0.01091,0.0172043,0.0109482,0.0246429,0.0159836,-9.97986,0.0144196,-0.00495911,0.0111389,0.00614166,-0.00938416,-0.00247955,0.0202179,0.0043869
20,6,-9.99003,0.00152588,-0.000305176,-2.42714,0.055681,-0.0741475,0.0556539,0.0639513,-0.0925361,0.145318,-0.126377,-0.0822652,0.0108719,0.0259399,0.0236511,0.00892639,0.0218964,0.00823975,0.0231934,0.0185776,-9.97986,0.0180435,-0.00263214,0.0177002,0.00785828,-0.00343323,0.00141144,0.0173569,0.00602722
20,7,-9.99003,0,0.00198364,-2.42531,0.0535448,-0.0744527,0.0568746,0.110643,-0.0867378,0.144708,-0.12241,-0.0816549,0.00583649,0.0183105,0.00667572,0.0122452,0.0230789,0.0119019,0.0199509,0.0163651,-9.97986,0.0181961,-0.00404358,0.0128555,0.00453949,0.0139999,0.00572205,0.0198746,0.00812531
20,8,-3.04698,0.000305176,0.00350952,-2.42867,0.0529344,-0.0747579,0.0550435,0.138719,-0.0885688,0.144403,-0.122715,-0.0844015,0.00621796,0.0185394,0.00526428,0.00930786,0.019989,0.01194,0.0237656,0.0145721,-9.97986,0.0203705,-0.000762939,0.0147247,0.00442505,0.0172806,0.00312805,0.0175095,0.00495911
20,9,4.33888,0.000610352,0.00396729,-2.42806,0.0538499,-0.0756734,0.0535176,0.155504,-0.0891792,0.143182,-0.121799,-0.0856222,0.00846863,0.0222778,0.00713348,0.0111389,0.0165558,0.00965118,0.0187302,0.0159454,-9.97986,0.015831,0.000572205,0.0126648,0.00606537,0.0169754,0.0012207,0.0185013,0.00495911
21,0,10.0097,0.000915527,0.00411987,-2.42837,0.0532396,-0.0753682,0.0532125,0.148485,-0.0922309,0.143487,-0.121494,-0.0859274,0.0107193,0.0218582,0.00934601,0.0131607,0.0162888,0.0101852,0.0238419,0.0173187,-9.97986,0.0148392,0.00640869,0.00980377,0.00736237,0.0177383,-0.00156403,0.0182343,0.00553131
21,1,10.0097,0.000915527,0.00106812,-2.42959,0.0532396,-0.0768941,0.050771,0.0996569,-0.0983344,0.142267,-0.126377,-0.0886739,0.00686646,0.022316,0.0122833,0.0145721,0.0193405,0.0104141,0.0232315,0.0185776,-9.97986,0.0141525,0.00778198,0.0137711,0.00320435,0.0130081,-0.00480652,0.016098,0.00816345
21,2,10.0097,0.000915527,0.000457764,-2.43081,0.0541551,-0.075063,0.0510762,0.0810411,-0.0961982,0.142572,-0.127292,-0.0886739,0.0101089,0.0242996,0.00850677,0.0100708,0.0172424,0.0102997,0.0286865,0.0177002,-9.97986,0.0135803,0.00476837,0.0149918,0.00572205,0.0155258,-0.0114441,0.0183487,0.00720978
21,3,10.0097,0.000610352,0.000152588,-2.42898,0.0541551,-0.0756734,0.0519917,0.0743273,-0.0968086,0.143182,-0.125156,-0.0874532,0.0130844,0.0297928,0.0167084,0.0125122,0.0192261,0.0103378,0.0308609,0.0188828,-9.97986,0.0189209,0.000114441,0.0148392,0.00518799,0.0183487,-0.0136948,0.0180817,0.0056076
21,4,10.0097,0.000610352,-0.000457764,-2.42806,0.0553758,-0.0756734,0.0538228,0.0731066,-0.0943672,0.144098,-0.126682,-0.085317,0.0112915,0.0315475,0.0157547,0.0144577,0.0131989,0.00305176,0.0275803,0.0208282,-9.97986,0.0183487,0.00114441,0.0108337,0.00457764,0.0171661,-0.0101089,0.0169373,0.00839233
21,5,10.0097,0.000305176,0.000152588,-2.42684,0.0547655,-0.0759786,0.0519917,0.07036,-0.0931465,0.143487,-0.126072,-0.0856222,0.0127411,0.0411224,0.0166321,0.0137329,0.014801,0.00999451,0.0271988,0.0193405,-9.97986,0.0159454,0.00320435,0.0175476,0.00640869,0.0166321,-0.00217438,0.0169373,0.00663757
21,6,10.0097,0.000915527,-0.000457764,-2.42623,0.0550706,-0.0747579,0.0535176,0.0706652,-0.0946723,0.145929,-0.126377,-0.0831808,0.0118256,0.0445938,0.0153732,0.0112152,0.0189972,0.0126266,0.0286865,0.0144577,-9.97986,0.0137711,-0.000267029,0.0141144,0.00915527,0.0141525,0.00190735,0.0197983,0.00587463
21,7,10.0097,0.0012207,0.000152588,-2.42684,0.0565965,-0.0738423,0.0547383,0.0718859,-0.0910102,0.146234,-0.124241,-0.0816549,0.0125122,0.0317764,0.0158691,0.0129318,0.0174713,0.0125122,0.0240326,0.0198364,-9.97986,0.0144196,-0.001297,0.0134277,0.00408173,0.0198746,0.00701904,0.0168991,0.00858307
21,8,10.0097,0.000610352,0.000152588,-2.42501,0.0572069,-0.0735371,0.0532125,0.0718859,-0.0916206,0.145624,-0.12363,-0.0819601,0.011673,0.0178146,0.0166702,0.0127029,0.0160217,0.00858307,0.0243378,0.0180054,-9.97986,0.0162125,0.0063324,0.0136566,0.00514984,0.0217056,0.0139236,0.0166321,0.00328064
21,9,10.0097,0.000610352,0.000305176,-2.42592,0.0559862,-0.0744527,0.0547383,0.0712755,-0.0916206,0.146234,-0.123935,-0.0804342,0.0143051,0.00492096,0.0161362,0.0154114,0.0191879,0.00579834,0.026741,0.0188828,-9.97986,0.0180054,0.00686646,0.018158,0.00545502,0.0175095,0.0100708,0.0203323,0.00617981
22,0,9.72127,0.0012207,-0.00274658,-2.42684,0.0572069,-0.0747579,0.0526021,0.0294664,-0.0968086,0.146234,-0.126682,-0.0822652,0.0155258,-0.00202179,0.0108337,0.0148392,0.0155258,0.00785828,0.0263977,0.0191498,-9.97986,0.0147629,0.0108337,0.0164795,0.00617981,0.0203705,0.00453949,0.016098,0.00610352
22,1,1.50777,0.000610352,-0.00488281,-2.42592,0.0562914,-0.0741475,0.0532125,-0.011122,-0.0983344,0.146844,-0.128513,-0.0825704,0.0136948,0.00358582,0.0134659,0.00999451,0.0183868,0.0102234,0.0276566,0.0189972,-9.97986,0.0195694,0.0121689,0.0088501,0.0062561,0.0183487,-0.001297,0.0174713,0.0056076
22,2,-5.69041,0.000915527,-0.00427246,-2.42592,0.0565965,-0.0744527,0.054128,-0.0160048,-0.0961982,0.146234,-0.129429,-0.0810445,0.00999451,0.0109863,0.014267,0.0138092,0.019989,0.0103378,0.0271606,0.0222015,-9.97986,0.0137329,0.00484467,0.0135422,0.00534058,0.0191879,-0.00236511,0.014267,0.00770569
22,3,-9.99003,-0.000305176,-0.00366211,-2.4247,0.0562914,-0.0726216,0.055959,0.00657824,-0.0928413,0.146539,-0.128513,-0.0807394,0.0124359,0.015564,0.0177383,0.0128937,0.0192642,0.00648499,0.02491,0.0170517,-9.97986,0.0201416,-0.00495911,0.0149918,0.00934601,0.0231171,-0.0056076,0.0177765,0.0088501
22,4,-9.99003,0,-0.00198364,-2.4244,0.0553758,-0.0735371,0.0556539,0.0419786,-0.0900947,0.146234,-0.127598,-0.0810445,0.00957489,0.0228119,0.0167847,0.0115204,0.0167847,0.00801086,0.0269699,0.0201416,-9.97986,0.0165939,-0.00648499,0.0178528,0.00675201,0.000534058,-0.00747681,0.018425,0.00530243
22,5,-9.99003,-0.000305176,-0.000610352,-2.42592,0.0547655,-0.0747579,0.0550435,0.0569322,-0.088874,0.145013,-0.126682,-0.0822652,0.00793457,0.0201797,0.0180054,0.0102997,0.0156403,0.0101471,0.0228119,0.0197601,-9.97986,0.0141907,-0.0113678,0.015831,0.00366211,-0.00747681,-0.0100708,0.0108337,0.00473022
22,6,-9.99003,0.00152588,-0.000305176,-2.42684,0.0538499,-0.0747579,0.0535176,0.0636461,-0.0910102,0.144403,-0.125156,-0.0828756,0.0113678,0.0254059,0.0222015,0.0138474,0.0147247,0.0128555,0.0268555,0.0194168,-9.97986,0.018425,-0.00545502,0.0152969,0.0100327,-0.00545502,-0.00812531,0.0185394,0.00404358
22,7,-9.99003,-0.000610352,0.00137329,-2.42592,0.0562914,-0.0744527,0.055959,0.109728,-0.0861274,0.145929,-0.122104,-0.0825704,0.00770569,0.0250626,0.0220108,0.0114441,0.0192261,0.0113678,0.0246429,0.0210571,-9.97986,0.015831,-0.00732422,0.0143433,0.00648499,0.0180817,-0.00862122,0.0178909,0.00522614
22,8,-3.1898,0.000610352,0.00396729,-2.42776,0.0532396,-0.0762837,0.0550435,0.137804,-0.0876533,0.143792,-0.122104,-0.0837911,0.00934601,0.0302887,0.022049,0.00965118,0.0196457,0.00686646,0.0212479,0.0189972,-9.97986,0.0145721,-0.00808716,0.0136185,0.00656128,0.0159836,-0.00354767,0.0136185,0.00534058
22,9,4.22505,0.000305176,0.00442505,-2.42837,0.0538499,-0.0747579,0.0529073,0.153063,-0.088874,0.142877,-0.121799,-0.0850118,0.00988007,0.0331116,0.0184631,0.0105286,0.0188065,0.0120926,0.0212097,0.019455,-9.97986,0.0144196,-0.00427246,0.014534,0.00736237,0.0194931,-0.0112152,0.0184631,0.00812531
23,0,10.0097,-0.000305176,0.00473022,-2.42928,0.0544603,-0.0756734,0.0516866,0.149706,-0.0903999,0.142877,-0.122104,-0.0865377,0.0112915,0.0271225,0.0185776,0.0128174,0.0174713,0.00934601,0.0165558,0.0167847,-9.97986,0.00881195,-0.00484467,0.0175476,0.0075531,0.0147629,-0.00808716,0.0153351,0.00892639
23,1,10.0097,0.0012207,0.00106812,-2.4305,0.0544603,-0.0768941,0.0501607,0.0996569,-0.0971137,0.141961,-0.125766,-0.0883688,0.0128937,0.0141144,0.02388,0.0131226,0.0170517,0.0088501,0.0157547,0.0205994,-9.97986,0.0111771,-0.00221252,0.0177765,0.00587463,0.0136566,-0.00656128,0.0175476,0.00785828
23,2,10.0097,0.0012207,0.000457764,-2.43081,0.0541551,-0.0765889,0.0501607,0.0804308,-0.0965034,0.143182,-0.127598,-0.0886739,0.0088501,0.0107193,0.0169373,0.0143051,0.0164795,0.00930786,0.0177765,0.0226974,-9.97986,0.016098,0.00305176,0.0148392,0.00656128,0.0154114,-0.0030899,0.0185394,0.00514984
23,3,10.0097,0.000610352,0.000610352,-2.42867,0.0535448,-0.0753682,0.0513814,0.0740221,-0.0949775,0.142572,-0.126377,-0.0877584,0.0123215,0.0165939,0.0142288,0.0171661,0.0136185,0.0101089,0.0182343,0.0196457,-9.97986,0.0134277,0.00740051,0.011673,0.00854492,0.0148392,-0.00267029,0.0148392,0.00583649
23,4,10.0097,0.000915527,0.000610352,-2.42714,0.0538499,-0.0756734,0.0532125,0.0728014,-0.0955879,0.144098,-0.125766,-0.0847066,0.00999451,0.0193405,0.0151062,0.00762939,0.0204849,0.00984192,0.0188065,0.0205612,-9.97986,0.015564,0.00827789,0.0151062,0.0125504,0.0198364,0.00267029,0.0174332,0.00740051
23,5,10.0097,0.000305176,0.000152588,-2.42806,0.055681,-0.075063,0.054128,0.0712755,-0.0925361,0.145013,-0.126072,-0.0837911,0.00823975,0.0220108,0.0151443,0.0127411,0.0182343,0.0109482,0.0152588,0.0162125,-9.97986,0.0118256,0.00457764,0.0143814,0.00926971,0.0204468,-0.0025177,0.0132751,0.00743866
23,6,10.0097,-0.000915527,0.000610352,-2.42592,0.0547655,-0.0753682,0.0516866,0.0718859,-0.0928413,0.144403,-0.124851,-0.0844015,0.0183868,0.0310135,0.0235748,0.0172806,0.024147,0.017128,0.0205231,0.0204086,-9.97986,0.0185394,0.0125504,0.0196838,0.0128174,0.0215912,0.00312805,0.018158,0.0128174
23,7,10.0097,0.00335693,0,-2.42592,0.055681,-0.0741475,0.0556539,0.0715807,-0.0928413,0.146234,-0.125156,-0.0810445,0.00621796,0.0155258,0.0154114,0.00656128,0.0114059,0.00808716,0.0166702,0.0136948,-9.97986,0.0122833,0.000610352,0.00671387,0.00679016,0.0187302,-0.00183105,0.0163269,0.00526428
23,8,10.0097,-0.000305176,0,-2.42714,0.0559862,-0.073232,0.0547383,0.0712755,-0.0910102,0.146539,-0.124546,-0.0813497,0.0121689,0.0204849,0.0157166,0.0111389,0.0152969,0.0102615,0.0167084,0.0164032,-9.97986,0.0159454,0.00305176,0.0117111,0.00850677,0.0177383,0.000419617,0.0159073,0.00831604
23,9,10.0097,0.00244141,0.000152588,-2.42562,0.0559862,-0.0735371,0.0535176,0.0728014,-0.0925361,0.144708,-0.125766,-0.0813497,0.0125885,0.018158,0.0152969,0.0101089,0.0133896,0.00858307,0.0151443,0.0159836,-9.97986,0.0149918,-0.00419617,0.0123978,0.00923157,0.0143814,0.00183105,0.0137329,0.0056839
24,0,9.94588,0.000915527,-0.00274658,-2.42623,0.0559862,-0.0738423,0.0522969,0.030382,-0.0949775,0.146539,-0.127903,-0.0828756,0.00862122,0.0217819,0.0154495,0.0106812,0.0137711,0.00907898,0.0182343,0.0183487,-9.97986,0.0170135,-0.0181198,0.0153732,0.00904083,0.017395,-0.00190735,0.0139618,0.00408173
24,1,1.69789,0.000610352,-0.00442505,-2.42562,0.0559862,-0.0738423,0.0519917,-0.0117323,-0.0983344,0.147455,-0.129429,-0.0825704,0.010643,0.0231934,0.0157928,0.0118637,0.0191879,0.00595093,0.0222397,0.0214005,-9.97986,0.0167465,-0.0147247,0.0134659,0.0094986,0.0181198,-0.00270844,0.0138092,0.00717163
24,2,-5.46855,-0.0012207,-0.00473022,-2.42562,0.0565965,-0.0741475,0.0538228,-0.0156996,-0.0965034,0.147149,-0.129429,-0.0813497,0.00961304,0.0209045,0.0201416,0.00961304,0.0183487,0.0100708,0.0201797,0.0189972,-9.97986,0.0140762,-0.0118256,0.00850677,0.00804901,0.0214767,-0.00488281,0.0151443,0.00621796
24,3,-9.99003,0.0012207,-0.00305176,-2.42379,0.0559862,-0.0735371,0.055959,0.0071886,-0.0916206,0.146539,-0.129123,-0.0807394,0.0101471,0.0269699,0.0226974,0.0129318,0.0182343,0.0075531,0.0238037,0.0254059,-9.97986,0.0118256,-0.00694275,0.0137711,0.00679016,0.020752,-0.00549316,0.0145721,0.00358582
24,4,-9.99003,0,-0.00152588,-2.4247,0.055681,-0.0729268,0.055959,0.0398424,-0.0910102,0.146234,-0.126377,-0.0807394,0.00831604,0.0202179,0.0193787,0.0117874,0.0213242,0.0105286,0.02491,0.0197983,-9.97986,0.0104904,-0.000534058,0.00965118,0.00823975,-0.0108719,-0.0141907,0.0156403,0.0069809
24,5,-9.99003,0.000610352,-0.000457764,-2.42623,0.0550706,-0.0747579,0.0553487,0.0572374,-0.0900947,0.145318,-0.126072,-0.0819601,0.00900269,0.0191879,0.0213242,0.00881195,0.0165558,0.0130081,0.0251007,0.0231171,-9.97986,0.016098,-0.00492096,0.0133514,0.00858307,-0.0137329,-0.00865936,0.0177765,0.00705719
24,6,-9.99003,-0.000610352,-0.000152588,-2.42684,0.0535448,-0.0747579,0.054128,0.0630358,-0.0916206,0.145624,-0.125766,-0.0825704,0.00656128,0.0183868,0.0205994,0.0121689,0.0164032,0.0130081,0.0254059,0.0223923,-9.97986,0.0159454,-0.00328064,0.0121307,0.00705719,-0.0114822,-0.00816345,0.015831,0.0038147
24,7,-9.99003,0.000610352,0.00152588,-2.42531,0.0550706,-0.0747579,0.0556539,0.110643,-0.0876533,0.145624,-0.123325,-0.0819601,0.00904083,0.0172424,0.0187302,0.0137711,0.0172806,0.0117111,0.0225449,0.0169373,-9.97986,0.0141144,-0.00522614,0.0123978,0.0112534,0.0157547,-0.0094223,0.0165176,0.0043869
24,8,-3.1129,-0.000610352,0.00427246,-2.42714,0.0553758,-0.075063,0.054128,0.138109,-0.0885688,0.143487,-0.12241,-0.0837911,0.0118637,0.0212479,0.0205231,0.0135803,0.0160217,0.00900269,0.027504,0.0156403,-9.97986,0.0135803,-0.00686646,0.0142288,0.00591278,0.0155258,-0.00648499,0.016098,0.00370026
24,9,4.27815,0.000305176,0.00457764,-2.42745,0.0532396,-0.0753682,0.054128,0.152757,-0.0882636,0.144403,-0.120578,-0.0856222,0.0139999,0.022583,0.022049,0.0130081,0.0122833,0.01194,0.0270844,0.0151062,-9.97986,0.0167084,-0.00198364,0.0135803,0.00965118,0.0186539,0.0025177,0.0177765,0.00354767
25,0,10.0097,0.000610352,0.00488281,-2.42928,0.0547655,-0.0756734,0.0532125,0.14879,-0.090705,0.142877,-0.122715,-0.0868429,0.00652313,0.02491,0.0215149,0.00881195,0.0180817,0.0135803,0.0261688,0.0185776,-9.97986,0.00923157,-0.00335693,0.0129318,0.00732422,0.0130463,-0.00133514,0.0151443,0.00419617
25,1,10.0097,0,0.00152588,-2.4305,0.0544603,-0.0747579,0.0498555,0.0993517,-0.0980293,0.142572,-0.126072,-0.0883688,0.00976563,0.0270844,0.0206757,0.0117493,0.0145721,0.0141144,0.0260925,0.0144958,-9.97986,0.00873566,-0.00106812,0.0124359,0.00823975,0.0123978,-0.0101471,0.0178909,0.00442505
25,2,10.0097,0.00152588,0.000610352,-2.42989,0.0538499,-0.0765889,0.0522969,0.082567,-0.0968086,0.143792,-0.127292,-0.0880636,0.00667572,0.0242233,0.0213242,0.0069809,0.0153351,0.00865936,0.0234985,0.0165558,-9.97986,0.0124741,-0.00282288,0.01091,0.00679016,0.0139999,-0.0214767,0.0118256,0.0056839
25,3,10.0097,0,0.000305176,-2.42898,0.0547655,-0.0762837,0.0504659,0.0749376,-0.0952827,0.145318,-0.126072,-0.0862325,0.00988007,0.0271988,0.0167084,0.00850677,0.0159454,0.0112152,0.022316,0.0179672,-9.97986,0.0123215,-0.0018692,0.0147629,0.00804901,0.0147247,-0.0216293,0.0101089,0.00881195
25,4,10.0097,-0.00213623,-0.000457764,-2.42806,0.0541551,-0.075063,0.0538228,0.0731066,-0.094062,0.144098,-0.126377,-0.0862325,0.0102615,0.0300217,0.0213623,0.0109863,0.0136948,0.0104904,0.0207138,0.0167084,-9.97986,0.0110245,-0.00583649,0.0103378,0.00713348,0.0151443,-0.0201416,0.0115585,0.00679016
25,5,10.0097,0.000610352,0.000457764,-2.42714,0.0553758,-0.0747579,0.0532125,0.0715807,-0.0943672,0.145624,-0.125766,-0.0844015,0.0114059,0.0313568,0.0197601,0.00679016,0.0144196,0.0144196,0.0230789,0.0164795,-9.97986,0.0113678,0.00038147,0.0112534,0.00518799,0.0154877,-0.0151825,0.0127411,0.00656128
25,6,10.0097,0.00183105,0.000152588,-2.42714,0.0553758,-0.0744527,0.054128,0.0715807,-0.0928413,0.145013,-0.126377,-0.0837911,0.0118256,0.0279236,0.0210571,0.00801086,0.0156784,0.0118637,0.0235367,0.0180054,-9.97986,0.00900269,0.00888824,0.0146484,0.0063324,0.0168991,-0.0037384,0.0163651,0.0082016
25,7,10.0097,-0.000305176,0.000152588,-2.42684,0.0550706,-0.0741475,0.054128,0.0718859,-0.0919257,0.145929,-0.124546,-0.0825704,0.012207,0.0296783,0.0206375,0.0056076,0.0183868,0.00804901,0.020256,0.0166702,-9.97986,0.0101089,0.0069809,0.0162125,0.00537872,0.0159836,0.000534058,0.0163269,0.00957489
25,8,10.0097,0.000305176,-0.000305176,-2.4244,0.0575121,-0.0744527,0.0550435,0.0715807,-0.0913154,0.147149,-0.125461,-0.0813497,0.00759125,0.0234604,0.0224304,0.0112915,0.0199127,0.0113297,0.0226593,0.0148392,-9.97986,0.0125504,0.0082016,0.01091,0.0069809,0.0137711,0.00392914,0.00839233,0.00392914
25,9,10.0097,0.00213623,0.000305176,-2.42379,0.0562914,-0.0741475,0.0547383,0.0718859,-0.0919257,0.146234,-0.125766,-0.0816549,0.0135803,0.0270462,0.0250626,0.0213242,0.0166321,0.00976563,0.0226974,0.0208664,-9.97986,0.0133896,0.00385284,0.0152969,0.0105286,0.0164413,0.0141144,0.0164032,0.0120163
26,0,9.77254,0.000915527,-0.00198364,-2.42684,0.0559862,-0.0744527,0.0516866,0.0291613,-0.0961982,0.145929,-0.127598,-0.0831808,0.00957489,0.0271988,0.0179672,0.0143814,0.0182343,0.0103378,0.0146866,0.0185394,-9.97986,0.00953674,-0.0088501,0.0151443,0.00953674,0.0120163,0.00762939,0.0141144,0.00431061
26,1,1.5392,0.000610352,-0.00427246,-2.42562,0.0578172,-0.0738423,0.0529073,-0.0120375,-0.0986396,0.146234,-0.130344,-0.0828756,0.0109863,0.030098,0.016861,0.0117493,0.0156021,0.0113297,0.0173187,0.0258255,-9.97986,0.0152206,-0.0152206,0.0157928,0.0103378,0.0171661,0.00904083,0.017395,0.00553131
26,2,-5.6721,0.00152588,-0.00473022,-2.42562,0.0562914,-0.0735371,0.0529073,-0.0144789,-0.0971137,0.146539,-0.129734,-0.0810445,0.0124359,0.0263977,0.022583,0.0203705,0.0173569,0.0117874,0.0201035,0.0244141,-9.97986,0.0154114,-0.0140381,0.0169754,0.00637054,0.0162125,0.00881195,0.016861,0.00766754
26,3,-9.99003,0.000610352,-0.0038147,-2.4244,0.0562914,-0.0741475,0.0556539,0.00566272,-0.0937568,0.14776,-0.128818,-0.080129,0.00930786,0.0239182,0.0195313,0.0183105,0.0174713,0.0104523,0.0216675,0.0201797,-9.97986,0.0105667,-0.00293732,0.00911713,0.00736237,0.0159836,0.00705719,0.0144577,0.00549316
26,4,-9.99003,0.000915527,-0.00183105,-2.42501,0.0562914,-0.0735371,0.0553487,0.0392321,-0.0897895,0.145318,-0.126987,-0.0807394,0.0102234,0.01297,0.0194931,0.0181961,0.0174713,0.010643,0.0252151,0.022049,-9.97986,0.014534,-0.00328064,0.0167465,0.00995636,-0.00804901,0.00572205,0.0157928,0.00404358
26,5,-9.99003,0.000610352,-0.000610352,-2.42562,0.0547655,-0.0729268,0.0562642,0.0578478,-0.0910102,0.145929,-0.126377,-0.0822652,0.0115967,0.0143051,0.0165176,0.0169373,0.0200653,0.00896454,0.0219345,0.0218964,-9.97986,0.0152969,-0.00167847,0.0157928,0.00659943,-0.00709534,0.0105667,0.0183868,0.00923157
26,6,-9.99003,0.0012207,-0.000457764,-2.42562,0.0553758,-0.0747579,0.0547383,0.0636461,-0.0922309,0.145318,-0.126377,-0.0834859,0.00667572,0.0166702,0.0160217,0.0126266,0.0161743,0.0111389,0.0254822,0.0196075,-9.97986,0.0143814,0.0063324,0.0130081,0.00881195,-0.00347137,0.00926971,0.0162506,0.00808716
26,7,-9.99003,0.000305176,0.000915527,-2.42562,0.0550706,-0.0741475,0.055959,0.110338,-0.0870429,0.145318,-0.12302,-0.0828756,0.0121307,0.0183105,0.016861,0.00946045,0.0134659,0.00896454,0.0233841,0.0172424,-9.97986,0.0181961,0.00522614,0.0146103,0.00995636,0.0152969,0.00770569,0.0157166,0.00534058
26,8,-3.2371,0,0.00457764,-2.42837,0.0532396,-0.0762837,0.0538228,0.137499,-0.0897895,0.144403,-0.12241,-0.0844015,0.00671387,0.0210571,0.0217438,0.00957489,0.021286,0.0111389,0.0235367,0.00991821,-9.97986,0.0167847,-0.00087738,0.014534,0.00762939,0.013504,0.00228882,0.0173187,0.00614166
26,9,4.10726,0,0.00442505,-2.42745,0.0544603,-0.0762837,0.054128,0.153368,-0.0891792,0.143182,-0.120273,-0.085317,0.00740051,0.0268936,0.0188446,0.00980377,0.0208282,0.0130844,0.0193405,0.0117111,-9.97986,0.0109482,0.00511169,0.0160599,0.00682831,0.0149536,0.00202179,0.0170898,0.00675201
27,0,10.0097,0.00213623,0.00457764,-2.42867,0.0526292,-0.0759786,0.0529073,0.149095,-0.0922309,0.143792,-0.122104,-0.0862325,0.0163269,0.0249481,0.0169373,0.00629425,0.0167084,0.0104141,0.018692,0.0117493,-9.97986,0.0152206,0.00488281,0.0153351,0.00720978,0.0131607,-0.000305176,0.017395,0.00549316
27,1,10.0097,0.000305176,0.00167847,-2.42989,0.0526292,-0.0765889,0.0498555,0.0993517,-0.0980293,0.142877,-0.126377,-0.0889791,0.0149155,0.0316238,0.0186157,0.0107956,0.0197601,0.0109863,0.021019,0.0159454,-9.97986,0.00991821,0.00518799,0.016861,0.00778198,0.0160217,-0.00518799,0.0137711,0.00499725
27,2,10.0097,0.000610352,0.000305176,-2.42959,0.0535448,-0.0753682,0.0513814,0.0822618,-0.0977241,0.141961,-0.126377,-0.0883688,0.0139236,0.0356674,0.0196075,0.0189209,0.0226974,0.00858307,0.022583,0.0206375,-9.97986,0.013504,0.00629425,0.0138474,0.00465393,0.0168228,-0.00160217,0.0165939,0.00816345
27,3,10.0097,-0.00183105,0.000305176,-2.42898,0.0550706,-0.0756734,0.0529073,0.0758531,-0.0946723,0.145013,-0.126377,-0.0871481,0.00804901,0.031395,0.0157928,0.0148392,0.017395,0.00663757,0.0234222,0.0154877,-9.97986,0.014801,0.00404358,0.0163269,0.00553131,0.0183105,-0.00141144,0.0166321,0.00656128
27,4,10.0097,0.000915527,0,-2.42776,0.0544603,-0.0741475,0.0532125,0.0718859,-0.094062,0.144403,-0.126987,-0.085317,0.0127029,0.0353622,0.017662,0.0156021,0.0120163,0.0102997,0.0266266,0.0145721,-9.97986,0.0130081,-0.00125885,0.0126648,0.00717163,0.0172424,0.00278473,0.0125122,0.00534058
27,5,10.0097,0.0012207,-0.000305176,-2.42776,0.0538499,-0.0759786,0.0522969,0.0712755,-0.0934516,0.144708,-0.126682,-0.0850118,0.0125504,0.0252914,0.0214005,0.0136948,0.0190353,0.0111389,0.0272751,0.0127792,-9.97986,0.00732422,0.00278473,0.0157166,0.00476837,0.018425,-0.00087738,0.0188065,0.00396729
27,6,10.0097,0.000610352,0.000305176,-2.42653,0.0553758,-0.0759786,0.0532125,0.0715807,-0.0928413,0.144403,-0.125156,-0.0834859,0.00980377,0.0333405,0.016098,0.0113678,0.0161743,0.00858307,0.0245285,0.0128555,-9.97986,0.0166702,0.00278473,0.0127411,0.00328064,0.0175858,0.000190735,0.0204086,0.00476837
27,7,10.0097,-0.000305176,0.000152588,-2.42562,0.055681,-0.0729268,0.0544332,0.0709703,-0.0916206,0.145624,-0.12363,-0.0822652,0.0139999,0.0305176,0.0181961,0.0176239,0.018692,0.0031662,0.0266266,0.00904083,-9.97986,0.0104904,0.00286102,0.0167847,0.00675201,0.0164413,-0.00286102,0.011673,0.00579834
27,8,10.0097,-0.000305176,0.000305176,-2.42653,0.0562914,-0.0738423,0.0547383,0.0712755,-0.0922309,0.146844,-0.124241,-0.0816549,0.01297,0.016861,0.0130463,0.0138855,0.0166321,0.00713348,0.0243378,0.0094986,-9.97986,0.0190353,0.00087738,0.0165558,0.00526428,0.0156784,-0.000648499,0.0156021,0.00579834
27,9,10.0097,0.00244141,0.000152588,-2.42592,0.0562914,-0.0741475,0.0553487,0.0718859,-0.0922309,0.146844,-0.12363,-0.0807394,0.0108719,0.01297,0.0127029,0.0112534,0.0170517,0.0069046,0.0233459,0.0120926,-9.97986,0.0170517,0.00274658,0.0160217,0.00801086,0.0219345,0.00175476,0.0177765,0.00598907
28,0,9.93428,0,-0.00198364,-2.42653,0.0569017,-0.075063,0.0532125,0.030382,-0.0965034,0.146234,-0.126987,-0.0837911,0.01194,0.0247574,0.0165558,0.0150681,0.0180435,0.0124741,0.0176239,0.0145721,-9.97986,0.0190353,-0.00247955,0.0138092,0.0063324,0.0172806,-0.00350952,0.0172424,0.00469208
28,1,1.70247,0.000915527,-0.00442505,-2.42562,0.0559862,-0.0741475,0.0529073,-0.0114271,-0.0977241,0.146844,-0.129123,-0.0834859,0.0124359,0.0299454,0.0170517,0.018959,0.0193024,0.0123596,0.0214767,0.0136566,-9.97986,0.0123596,3.8147e-005,0.0149918,0.00785828,0.0169373,-0.00270844,0.0156403,0.00610352
28,2,-5.51158,0.000610352,-0.00457764,-2.42592,0.0565965,-0.073232,0.0535176,-0.0163099,-0.0974189,0.145318,-0.130344,-0.0822652,0.0105667,0.0293732,0.0127792,0.0153732,0.0157547,0.0127792,0.0226212,0.0150681,-9.97986,0.0117493,0.0025177,0.015831,0.00621796,0.0189972,-0.00846863,0.0180817,0.00656128
28,3,-9.99003,0.000610352,-0.00411987,-2.4244,0.0572069,-0.0741475,0.0556539,0.00810412,-0.0925361,0.147149,-0.128208,-0.0807394,0.0107193,0.0284576,0.0214005,0.0127792,0.020256,0.00923157,0.0236893,0.0109482,-9.97986,0.0170517,0.00144958,0.0159073,0.00724792,0.0172424,-0.00400543,0.0159454,0.00247955
28,4,-9.99003,0.000915527,-0.00228882,-2.42623,0.0565965,-0.0741475,0.0565694,0.0383165,-0.0897895,0.145929,-0.126377,-0.0807394,0.01297,0.0242996,0.0213623,0.00617981,0.0166321,0.00724792,0.0261307,0.010643,-9.97986,0.0167847,0.00400543,0.0170898,0.00377655,-0.00801086,-0.00469208,0.0138092,0.00473022
28,5,-9.99003,0.000610352,-0.000305176,-2.42562,0.0565965,-0.0741475,0.0538228,0.0566271,-0.0900947,0.145318,-0.125461,-0.0816549,0.0125885,0.0224686,0.026741,0.00892639,0.0169754,0.00946045,0.0242233,0.0142288,-9.97986,0.0180054,0.00534058,0.0191879,0.00984192,-0.00102997,-0.00598907,0.0154114,0.00766754
28,6,-9.99003,-0.000915527,-0.000305176,-2.42714,0.055681,-0.0747579,0.0556539,0.0642565,-0.0931465,0.146539,-0.125766,-0.0834859,0.0094986,0.0235748,0.0232697,0.00530243,0.0120163,0.00991821,0.0240707,0.0136185,-9.97986,0.0185394,0.00106812,0.0138855,0.00442505,-0.0012207,-0.00667572,0.014534,0.00648499
28,7,-9.99003,-0.000305176,0.00106812,-2.42501,0.055681,-0.0741475,0.0556539,0.111559,-0.0864326,0.145318,-0.122715,-0.0816549,0.0111008,0.0259399,0.0301743,0.00476837,0.0193787,0.0115585,0.0219345,0.0174713,-9.97986,0.0143814,0.00526428,0.015564,0.00518799,0.0151443,-0.00343323,0.0130844,0.00793457
28,8,-2.94017,0.0012207,0.00442505,-2.42867,0.0547655,-0.0753682,0.0526021,0.138719,-0.0885688,0.143792,-0.12241,-0.085317,0.0130844,0.0198746,0.03479,0.00476837,0.0161743,0.0125885,0.015831,0.0222778,-9.97986,0.01297,-0.000457764,0.0160599,0.00476837,0.021553,-0.00827789,0.0148392,0.00564575
28,9,4.48995,0,0.00396729,-2.42867,0.0535448,-0.0756734,0.0535176,0.154588,-0.0894843,0.142572,-0.121799,-0.085317,0.0118637,0.0135422,0.0291824,0.0018692,0.018158,0.00881195,0.018158,0.0180054,-9.97986,0.0128555,-7.62939e-005,0.0157547,0.00946045,0.0219727,-0.0111771,0.0174713,0.00717163
29,0,10.0097,0.000610352,0.00442505,-2.42837,0.0538499,-0.0747579,0.0519917,0.147875,-0.0916206,0.142877,-0.121494,-0.0865377,0.0127792,0.0193787,0.0275803,0.0122833,0.0167465,0.0122452,0.0150681,0.0167847,-9.97986,0.0137329,0.000648499,0.0150681,0.00793457,0.0177765,-0.0131226,0.0115585,0.00873566
29,1,10.0097,-0.0012207,0.00152588,-2.42989,0.0538499,-0.0765889,0.0501607,0.0987413,-0.0977241,0.143487,-0.126072,-0.0880636,0.0136566,0.0212097,0.02491,0.0218582,0.0131226,0.0127411,0.0143433,0.0159836,-9.97986,0.0167847,0.00400543,0.0173569,0.00930786,0.0200653,-0.0125504,0.0143433,0.00507355
29,2,10.0097,0,0,-2.42959,0.0538499,-0.075063,0.050771,0.0804308,-0.0968086,0.143182,-0.126072,-0.0880636,0.00606537,0.0196075,0.0186157,0.0233078,0.0187302,0.0121689,0.0175095,0.021019,-9.97986,0.0143814,0.00312805,0.0170517,0.00518799,0.0178528,-0.0170898,0.0162125,0.00717163
29,3,10.0097,0.000610352,0.000305176,-2.42837,0.0547655,-0.0756734,0.0516866,0.0731066,-0.0949775,0.143487,-0.126987,-0.0874532,0.0125504,0.0228882,0.0152969,0.0106049,0.0174713,0.00976563,0.0143814,0.023613,-9.97986,0.0179291,0.00141144,0.0173187,0.00923157,0.0124359,-0.00236511,0.0150299,0.00240326
29,4,10.0097,-0.000305176,0.000152588,-2.42837,0.0553758,-0.0747579,0.0522969,0.0731066,-0.0946723,0.144098,-0.126377,-0.085317,0.0112534,0.0253677,0.00881195,0.00480652,0.0159836,0.00976563,0.00587463,0.0229645,-9.97986,0.0163651,0.00522614,0.0152969,0.00789642,0.0101089,-0.00240326,0.0162125,0.00587463
29,5,10.0097,0.00152588,0.000305176,-2.42806,0.0547655,-0.075063,0.0529073,0.0700548,-0.0931465,0.144708,-0.125766,-0.0844015,0.0063324,0.0236893,0.00255585,-0.00152588,0.0188828,0.0115204,0.0146484,0.0312042,-9.97986,0.0174332,0.00747681,0.0196075,0.00457764,0.0170517,0.00507355,0.0185776,0.00747681
29,6,10.0097,0.00244141,-0.000305176,-2.42714,0.0547655,-0.0756734,0.0526021,0.07036,-0.0943672,0.144403,-0.125461,-0.0844015,0.010376,0.0247955,0.00705719,0.00205994,0.0154495,0.0106812,0.0178528,0.0297928,-9.97986,0.017662,0.00873566,0.0151825,0.00804901,0.0182343,0.00526428,0.0174713,0.00419617
29,7,10.0097,0.000305176,-0.000152588,-2.42531,0.0572069,-0.0741475,0.0550435,0.0712755,-0.0925361,0.146234,-0.124851,-0.0825704,0.00873566,0.0233459,0.0173569,-0.000457764,0.0163269,0.0119781,0.0256729,0.0307083,-9.97986,0.0154495,0.0139999,0.00965118,0.00679016,0.0173569,-0.00465393,0.0190735,0.00862122
29,8,10.0097,0.00213623,-0.000457764,-2.42501,0.0565965,-0.0747579,0.0532125,0.0709703,-0.0916206,0.146539,-0.124851,-0.0816549,0.00968933,0.0281143,0.0128174,-0.00537872,0.0191116,0.00938416,0.0239182,0.0279999,-9.97986,0.0152588,0.00347137,0.0185013,0.00679016,0.0211716,-0.0088501,0.0131607,0.00740051
29,9,10.0097,0.00335693,0.000762939,-2.42501,0.0562914,-0.0735371,0.0544332,0.0724962,-0.0910102,0.146844,-0.124851,-0.0810445,0.0134277,0.0314713,0.00888824,-0.00686646,0.0165176,0.00991821,0.0240326,0.0214005,-9.97986,0.0144958,0.00492096,0.0151443,0.0050354,0.0226974,-0.00766754,0.0150681,0.00564575
30,0,9.87569,0.000305176,-0.00198364,-2.42653,0.0562914,-0.0741475,0.0526021,0.0297716,-0.0949775,0.145624,-0.127292,-0.0831808,0.0102615,0.0247955,0.00846863,-0.0160599,0.0156403,0.00774384,0.0233841,0.0172424,-9.97986,0.0111008,0.00576019,0.0102615,0.00293732,0.0151443,-0.00461578,0.0150299,0.00793457
30,1,1.66341,0.00152588,-0.00427246,-2.42684,0.0562914,-0.0729268,0.0532125,-0.011122,-0.0965034,0.14776,-0.129429,-0.0831808,0.00896454,0.0314713,0.0146866,-0.0131607,0.0140381,0.0112152,0.0287247,0.0147629,-9.97986,0.0124741,0.0012207,0.0176239,0.00507355,0.015564,0.00247955,0.0178909,0.00961304
30,2,-5.60344,0.0012207,-0.00473022,-2.42592,0.0569017,-0.073232,0.054128,-0.0160048,-0.0971137,0.146234,-0.129734,-0.0810445,0.00999451,0.0289536,0.0207901,-0.0166702,0.0131607,0.0125885,0.0294495,0.00881195,-9.97986,0.00988007,-0.00343323,0.013237,0.00652313,0.0209427,0.00476837,0.0173569,0.0056076
30,3,-9.99003,0.0012207,-0.00396729,-2.42531,0.0559862,-0.0738423,0.0547383,0.00749377,-0.0931465,0.147149,-0.128818,-0.0807394,0.0112915,0.0396729,0.0259018,-0.0194931,0.014534,0.00865936,0.0265884,0.00827789,-9.97986,0.0144958,-0.0112915,0.0116348,0.00598907,0.0217819,0.00629425,0.014801,0.00812531
30,4,-9.99003,0.0012207,-0.00228882,-2.4247,0.0559862,-0.0735371,0.0550435,0.0398424,-0.0903999,0.146844,-0.127598,-0.0804342,0.0105286,0.0429916,0.0286865,-0.0130081,0.0150681,0.0121307,0.0266266,0.00175476,-9.97986,0.0105667,-0.0175476,0.0145721,0.00904083,-0.00579834,0.00640869,0.0147629,0.00450134
30,5,-9.99003,-0.000305176,-0.000610352,-2.42501,0.0559862,-0.0744527,0.0556539,0.0566271,-0.0894843,0.144708,-0.126377,-0.0813497,0.00835419,0.0471115,0.0271606,0.00976563,0.0144958,0.00629425,0.0233078,0.00534058,-9.97986,0.0117874,-0.0155258,0.0164413,0.00572205,-0.0063324,0.00476837,0.0183487,0.00457764
30,6,-9.99003,0.00152588,0,-2.42745,0.0547655,-0.0744527,0.0547383,0.0618151,-0.0928413,0.145929,-0.126377,-0.0837911,0.00869751,0.0502396,0.0310135,0.027504,0.0165558,0.0118256,0.0263977,0.00614166,-9.97986,0.0136185,-0.011673,0.015564,0.00476837,-0.00747681,-0.00282288,0.0168228,0.00606537
30,7,-9.99003,0.000610352,0.00152588,-2.42592,0.0553758,-0.075063,0.0565694,0.110643,-0.0873481,0.145013,-0.12302,-0.0822652,0.00816345,0.0457764,0.0273132,0.0356293,0.0160599,0.0113297,0.0260925,0.00701904,-9.97986,0.0114441,-0.00331879,0.0125504,0.00728607,0.0159454,-0.00667572,0.016861,0.00957489
30,8,-3.01311,-0.000915527,0.00320435,-2.42745,0.0541551,-0.0753682,0.0562642,0.13933,-0.0876533,0.144708,-0.122715,-0.0844015,0.00659943,0.0428009,0.0214005,0.0510406,0.0170898,0.00801086,0.0221634,0.0153732,-9.97986,0.0178528,-0.00461578,0.00827789,0.00850677,0.0204086,-0.0107574,0.0154114,0.0062561
30,9,4.52901,-0.000305176,0.00473022,-2.42928,0.0535448,-0.0768941,0.0535176,0.154894,-0.0885688,0.143487,-0.121494,-0.0850118,0.0103378,0.0278473,0.0118637,0.0525284,0.0169373,0.0143433,0.0232697,0.0131607,-9.97986,0.015831,-0.00110626,0.0115967,0.00888824,0.0182724,-0.00537872,0.0129318,0.00331879
31,0,10.0097,-0.000610352,0.00457764,-2.42959,0.0535448,-0.0765889,0.0510762,0.149401,-0.0903999,0.141351,-0.122104,-0.0859274,0.0123215,-0.000267029,-0.000228882,0.0387192,0.0133133,0.0129318,0.0255966,0.0205231,-9.97986,0.0198364,-0.00537872,0.015831,0.00675201,0.0157166,-0.00232697,0.0178528,0.00709534
31,1,10.0097,0.000610352,0.00152588,-2.43172,0.0541551,-0.0768941,0.0498555,0.0987413,-0.0965034,0.143487,-0.126072,-0.0883688,0.00686646,-0.0146484,-0.00511169,0.0370026,0.0151443,0.0115967,0.0244904,0.0216675,-9.97986,0.0183105,-0.00530243,0.0126648,0.00968933,0.018692,-0.00553131,0.0154877,0.00652313
31,2,10.0097,0.000305176,-0.000305176,-2.42928,0.0529344,-0.0765889,0.0516866,0.0804308,-0.0965034,0.142572,-0.126682,-0.0865377,0.00648499,-0.0258255,-0.00617981,0.0409698,0.0159454,0.00801086,0.0213242,0.0189209,-9.97986,0.0166702,0.00648499,0.0159836,0.00553131,0.0174713,-0.00537872,0.0164413,0.00671387
31,3,10.0097,0.0012207,0.000305176,-2.42867,0.0532396,-0.0756734,0.0516866,0.0743273,-0.0943672,0.144708,-0.126377,-0.0865377,0.0100708,-0.0221252,0.000457764,0.0402832,0.0177765,0.0150681,0.0183105,0.0201035,-9.97986,0.020256,0.0155258,0.0162888,0.00762939,0.017662,-0.00518799,0.0164413,0.00686646
31,4,10.0097,-0.000610352,0,-2.42776,0.0547655,-0.0747579,0.0538228,0.0718859,-0.0949775,0.144708,-0.126987,-0.085317,0.00957489,-0.0146866,0.00350952,0.0315475,0.0193787,0.01091,0.02285,0.0180435,-9.97986,0.0192642,0.0198746,0.0102997,0.0075531,0.0179672,-0.00774384,0.0152588,0.00637054
31,5,10.0097,0.0012207,0.000610352,-2.42745,0.0547655,-0.0753682,0.0535176,0.0724962,-0.0937568,0.145929,-0.125766,-0.0844015,0.0121307,-0.00808716,-0.000572205,0.0259781,0.0187683,0.0112152,0.0225449,0.0179672,-9.97986,0.0202179,0.0139618,0.0150681,0.00904083,0.0183105,-0.0012207,0.0180817,0.00759125
31,6,10.0097,0,0.000305176,-2.42714,0.0547655,-0.0744527,0.0538228,0.0700548,-0.0925361,0.144708,-0.125766,-0.0844015,0.0107193,0.0108719,-0.00278473,0.0215912,0.0180054,0.013237,0.0209427,0.0169373,-9.97986,0.0146103,0.00370026,0.0160599,0.00648499,0.0156403,-0.00167847,0.0208282,0.00492096
31,7,10.0097,0.000610352,0.000305176,-2.42531,0.0553758,-0.0744527,0.0544332,0.07036,-0.0919257,0.146539,-0.125156,-0.0816549,0.0106049,0.0198364,0.00171661,0.0202179,0.0172424,0.0144196,0.0251007,0.0159454,-9.97986,0.018692,-0.00843048,0.0129318,0.00888824,0.0132751,-0.00377655,0.0195313,0.00473022
31,8,10.0097,0.0012207,0.000305176,-2.4244,0.0550706,-0.0735371,0.0538228,0.0712755,-0.0928413,0.146234,-0.125461,-0.0810445,0.0108337,0.0245667,0.00675201,0.0233078,0.0247955,0.0133133,0.0276184,0.0141907,-9.97986,0.0206757,-0.0143051,0.0128937,0.00919342,0.0120163,-0.00213623,0.0195694,0.00476837
31,9,10.0097,-0.000305176,0.000152588,-2.42501,0.0559862,-0.0738423,0.054128,0.0718859,-0.0919257,0.148065,-0.124241,-0.0816549,0.00961304,0.0251389,0.00911713,0.021019,0.0178909,0.0122833,0.0287628,0.0170517,-9.97986,0.0154114,-0.0103378,0.0125122,0.00774384,0.0146484,-0.00488281,0.0144196,0.00579834
32,0,9.91567,0.000610352,-0.00213623,-2.42684,0.0553758,-0.0744527,0.054128,0.0319078,-0.095893,0.145318,-0.127598,-0.0822652,0.0150681,0.0375748,0.0174332,0.0174713,0.0146484,0.00946045,0.0286484,0.0131226,-9.97986,0.0161362,-0.00534058,0.0131989,0.0069046,0.0193405,-0.00610352,0.0188065,0.00537872
32,1,1.56301,0.0012207,-0.00518799,-2.42653,0.0565965,-0.0735371,0.0522969,-0.0105116,-0.0977241,0.146234,-0.129123,-0.0831808,0.0129318,0.0284958,0.0170898,0.0165176,0.0162125,0.00854492,0.0284958,0.0153351,-9.97986,0.018692,-0.00133514,0.0150299,0.00534058,0.0212479,-0.00366211,0.019722,0.0043869
32,2,-5.56865,0.000915527,-0.00518799,-2.42653,0.0553758,-0.0741475,0.0532125,-0.0147841,-0.0965034,0.147149,-0.129429,-0.0813497,0.00720978,0.00759125,0.0190735,0.013237,0.0175095,0.00907898,0.0229645,0.0147629,-9.97986,0.0156021,-0.00320435,0.0138092,0.0062561,0.0185776,0.000648499,0.0194931,0.00484467
32,3,-9.99003,0.000610352,-0.00411987,-2.42531,0.0572069,-0.073232,0.0550435,0.00627307,-0.0913154,0.145318,-0.128818,-0.0810445,0.0107193,0.00392914,0.0204849,0.0131989,0.0165558,0.00900269,0.0180817,0.0218964,-9.97986,0.0152588,-0.00358582,0.0141907,0.00442505,0.0194168,-0.00205994,0.0209045,0.00270844
32,4,-9.99003,0.000610352,-0.00183105,-2.4244,0.0569017,-0.0738423,0.0556539,0.0389269,-0.0897895,0.146539,-0.126377,-0.0807394,0.0127411,0.0149536,0.0177002,0.0198746,0.0121689,0.00473022,0.0182724,0.0167847,-9.97986,0.0162125,-0.00629425,0.0138092,0.00587463,-0.00759125,-0.00545502,0.0178909,0.00701904
32,5,-9.99003,0,0,-2.42592,0.055681,-0.0738423,0.0568746,0.0578478,-0.090705,0.145318,-0.126072,-0.0816549,0.0136185,0.0191879,0.0235367,0.0180435,0.0140762,0.00972748,0.0175476,0.015831,-9.97986,0.0134659,-0.00682831,0.0163651,0.00659943,-0.00682831,-0.00480652,0.0141144,0.00816345
32,6,-9.99003,0.00152588,0.000152588,-2.4247,0.0544603,-0.0747579,0.0544332,0.0636461,-0.090705,0.145624,-0.125766,-0.0834859,0.0109482,0.0215912,0.0259781,0.0126648,0.0143051,0.0113678,0.0183487,0.0171661,-9.97986,0.0128937,-0.00770569,0.0126266,0.00534058,-0.00923157,-0.0043869,0.0166321,0.00846863
32,7,-9.99003,-0.000610352,0.00137329,-2.42592,0.0550706,-0.0747579,0.0565694,0.11339,-0.0873481,0.146844,-0.122715,-0.0822652,0.0111389,0.0185776,0.0227737,0.0149918,0.0151443,0.0126266,0.0230026,0.0196457,-9.97986,0.0149536,-0.000686646,0.014534,0.00862122,0.0176239,-0.00495911,0.0140762,0.00473022
32,8,-3.01372,0.000915527,0.00457764,-2.42714,0.0538499,-0.0762837,0.0535176,0.137499,-0.088874,0.143792,-0.122715,-0.0844015,0.0130081,0.0118256,0.0166321,0.0144958,0.0126266,0.0101852,0.022049,0.0238037,-9.97986,0.0175095,-0.00541687,0.0201416,0.00759125,0.0207138,-0.00671387,0.0179291,0.00797272
32,9,4.40694,-0.000610352,0.00396729,-2.42745,0.0541551,-0.075063,0.0544332,0.153673,-0.0891792,0.144403,-0.120884,-0.0844015,0.00862122,0.0153351,0.0199509,0.0148392,0.0139999,0.0107574,0.0259781,0.0201416,-9.97986,0.0136566,-0.00408173,0.0157547,0.00480652,0.0171661,-0.00682831,0.0174332,0.00534058
33,0,10.0097,0.000915527,0.0050354,-2.42898,0.0538499,-0.0759786,0.0522969,0.149401,-0.0925361,0.145013,-0.122715,-0.0859274,0.0128174,0.0205612,0.0276947,0.0104523,0.0177002,0.0100708,0.0230026,0.0173569,-9.97986,0.0156403,-0.00293732,0.0123596,0.00617981,0.0148773,-0.0120163,0.0186539,0.0056076
33,1,10.0097,0.00213623,0.00152588,-2.43172,0.0532396,-0.0771993,0.0504659,0.0987413,-0.0968086,0.143487,-0.125461,-0.0886739,0.00808716,0.0209427,0.0223541,0.01091,0.0200653,0.0120163,0.0205231,0.0175858,-9.97986,0.0126648,-0.00720978,0.0120926,0.0069046,0.0165939,-0.0114822,0.0157547,0.00907898
33,2,10.0097,0.000610352,0.000305176,-2.42928,0.0532396,-0.0756734,0.0513814,0.0819567,-0.0955879,0.142267,-0.127598,-0.0874532,0.00953674,0.022316,0.0227356,0.00732422,0.0147247,0.00782013,0.0187683,0.0187302,-9.97986,0.0120163,-0.00297546,0.0156021,0.00770569,0.0164032,-0.0110245,0.0188828,0.0088501
33,3,10.0097,0.000610352,-0.00137329,-2.42867,0.0559862,-0.0762837,0.0529073,0.0752428,-0.0949775,0.143792,-0.126682,-0.0868429,0.00736237,0.0240326,0.0258255,0.00530243,0.0185013,0.00957489,0.0186539,0.0193024,-9.97986,0.0128937,-0.00198364,0.0160599,0.00862122,0.0172806,-0.0056076,0.0175858,0.00751495
33,4,10.0097,0.00152588,0,-2.42837,0.0547655,-0.075063,0.0519917,0.0724962,-0.0949775,0.145624,-0.124851,-0.0850118,0.0144577,0.0263596,0.0248337,0.00911713,0.0174332,0.00827789,0.0190735,0.0167847,-9.97986,0.0159836,-0.00331879,0.0138474,0.00457764,0.017662,-0.00331879,0.0172806,0.00434875
33,5,10.0097,-0.00152588,-0.000762939,-2.42684,0.0550706,-0.0756734,0.0538228,0.07036,-0.0946723,0.145929,-0.126072,-0.085317,0.00766754,0.0252151,0.0296402,0.00988007,0.0178909,0.00888824,0.0253677,0.0204468,-9.97986,0.0148392,-0.00476837,0.0163651,0.00133514,0.0147247,-0.00415802,0.0172806,0.00671387
33,6,10.0097,-0.000610352,0,-2.42623,0.0565965,-0.0747579,0.054128,0.0700548,-0.0925361,0.145013,-0.125461,-0.0834859,0.0105286,0.0246811,0.0269318,0.00507355,0.0148392,0.01297,0.0175476,0.0192642,-9.97986,0.01194,0.000343323,0.0139618,0.0087738,0.0139236,7.62939e-005,0.0147247,0.00953674
33,7,10.0097,-0.000915527,0.000610352,-2.4244,0.0547655,-0.0738423,0.054128,0.072191,-0.0925361,0.146234,-0.124546,-0.0819601,0.0110626,0.023613,0.0237274,0.00595093,0.0204849,0.00736237,0.0188828,0.0151443,-9.97986,0.0118637,-0.0056076,0.0149155,0.00980377,0.017662,0.00595093,0.014801,0.00682831
33,8,10.0097,0,0.000305176,-2.42562,0.0572069,-0.0744527,0.0550435,0.0718859,-0.0934516,0.145624,-0.12363,-0.0828756,0.0143814,0.0283432,0.0289917,0.00465393,0.018425,0.0120544,0.0221634,0.0219345,-9.97986,0.0144196,-0.00362396,0.0130844,0.0100708,0.0139618,0.00362396,0.0160599,0.00751495
33,9,10.0097,0.00183105,0.000305176,-2.42501,0.055681,-0.073232,0.0550435,0.0709703,-0.0913154,0.146234,-0.124546,-0.0804342,0.0102997,0.0275803,0.0258255,0.00759125,0.0175476,0.0104904,0.0207901,0.0193024,-9.97986,0.0139236,-0.000190735,0.0127792,0.00564575,0.0153351,0.00221252,0.0131226,0.010376
34,0,9.73409,0.000610352,-0.00244141,-2.42653,0.0559862,-0.0744527,0.054128,0.0285509,-0.0977241,0.146234,-0.127598,-0.0819601,0.00919342,0.0253296,0.024147,0.00579834,0.0141907,0.00991821,0.0217438,0.0208282,-9.97986,0.0130081,0.00267029,0.0143051,0.00606537,0.0181961,0.00553131,0.0130081,0.00896454
34,1,1.49953,0.0012207,-0.00518799,-2.42501,0.0572069,-0.0735371,0.0538228,-0.0114271,-0.0980293,0.146844,-0.129734,-0.0822652,0.00823975,0.024147,0.0233459,0.00282288,0.0156403,0.00770569,0.0186157,0.0207138,-9.97986,0.0168228,-0.00167847,0.00934601,0.00377655,0.0209808,0.00434875,0.0153732,0.00972748
34,2,-5.68309,0.000915527,-0.00473022,-2.42501,0.0565965,-0.073232,0.054128,-0.0144789,-0.0961982,0.146539,-0.130954,-0.0819601,0.00648499,0.0253677,0.0263214,0.00267029,0.0177765,0.0114822,0.0193405,0.0206375,-9.97986,0.0122833,0.00114441,0.0167084,0.00717163,0.0151443,0.00499725,0.0149536,0.00526428
34,3,-9.99003,0.000915527,-0.00366211,-2.4247,0.0572069,-0.073232,0.0562642,0.00871447,-0.0922309,0.146539,-0.128513,-0.0807394,0.013237,0.0286865,0.0280762,0.00667572,0.0172043,0.0119019,0.0170517,0.0313187,-9.97986,0.0153351,-0.000457764,0.0179672,0.00804901,0.0179672,0.00392914,0.0150299,0.00644684
34,4,-9.99003,0.000915527,-0.00167847,-2.42379,0.055681,-0.0729268,0.0562642,0.0395372,-0.0900947,0.145929,-0.126072,-0.0810445,0.0118637,0.0244904,0.0246048,0.00785828,0.0162506,0.0102615,0.0203705,0.0297546,-9.97986,0.0154495,-0.00331879,0.019989,0.00640869,-0.0087738,0.000801086,0.0141525,0.00938416
34,5,-9.99003,-0.000915527,-0.000305176,-2.42776,0.055681,-0.0744527,0.0547383,0.0569322,-0.0916206,0.145013,-0.126682,-0.0813497,0.0123978,0.0296402,0.0218964,0.00549316,0.013237,0.00892639,0.0164032,0.0291061,-9.97986,0.014801,-0.00305176,0.0123215,0.0104904,-0.0156403,-0.00240326,0.0123215,0.00728607
34,6,-9.99003,-0.0012207,0.000152588,-2.42623,0.0559862,-0.0747579,0.0550435,0.0636461,-0.0916206,0.144403,-0.126987,-0.0831808,0.014534,0.0290298,0.0278091,0.00732422,0.0192261,0.0107193,0.0173187,0.0213242,-9.97986,0.0136185,-0.00247955,0.0158691,0.00846863,-0.0104141,-0.00576019,0.0127029,0.0094223
34,7,-9.99003,0.000610352,0.00167847,-2.4244,0.0547655,-0.0738423,0.0556539,0.111559,-0.0864326,0.145624,-0.12241,-0.0825704,0.0094223,0.0290298,0.0247192,0.00583649,0.0177383,0.0111771,0.0168991,0.0167847,-9.97986,0.0143433,-0.00228882,0.0177383,0.0120544,0.0175095,-0.00171661,0.0164795,0.00812531
34,8,-2.97893,0.00183105,0.00396729,-2.42806,0.0547655,-0.0762837,0.0550435,0.139025,-0.0891792,0.143487,-0.12241,-0.0844015,0.00736237,0.0259781,0.0262451,0.00209808,0.016861,0.00652313,0.0131226,0.0114822,-9.97986,0.0162125,-0.00377655,0.0117111,0.00862122,0.0156403,-0.00350952,0.015564,0.00450134
34,9,4.39748,0.000610352,0.00442505,-2.42867,0.0535448,-0.0759786,0.0532125,0.155809,-0.0891792,0.144098,-0.122104,-0.0856222,0.0130844,0.023613,0.0217438,0.00713348,0.017662,0.0087738,0.0189209,0.0138855,-9.97986,0.0171661,-3.8147e-005,0.0136948,0.0087738,0.0151443,-0.00476837,0.015831,0.00984192
35,0,10.0097,0.00152588,0.00427246,-2.42928,0.0541551,-0.0756734,0.0519917,0.149401,-0.0913154,0.143792,-0.121799,-0.0856222,0.00843048,0.0273895,0.0174332,0.00694275,0.0176239,0.013237,0.0189972,0.00850677,-9.97986,0.0164413,-0.00293732,0.0165558,0.00976563,0.0160599,-0.000762939,0.0158691,0.00812531
35,1,10.0097,0.000915527,0.00167847,-2.43111,0.0523241,-0.0759786,0.050771,0.098131,-0.0968086,0.142877,-0.126072,-0.0892843,0.0107956,0.0276184,0.0198364,0.00205994,0.0151443,0.00831604,0.0138092,0.0107193,-9.97986,0.0113297,-0.000839233,0.0175476,0.00984192,0.0154495,0.00350952,0.0179672,0.00808716
35,2,10.0097,-0.000915527,-0.000152588,-2.42928,0.0538499,-0.0762837,0.050771,0.0810411,-0.0968086,0.142572,-0.126377,-0.0883688,0.00984192,0.0289154,0.0223541,0.00175476,0.0167465,0.00587463,0.0161362,0.0123596,-9.97986,0.015831,0.000152588,0.0157928,0.0112152,0.0120544,0.001297,0.0172806,0.00579834
35,3,10.0097,0.000305176,-0.000152588,-2.42776,0.0544603,-0.0762837,0.0516866,0.0743273,-0.095893,0.144708,-0.127292,-0.0862325,0.0125885,0.0313187,0.0244522,0.00709534,0.0189209,0.0123978,0.0211716,0.0188446,-9.97986,0.0170135,0.000152588,0.0176239,0.00724792,0.0131607,-0.00400543,0.0167847,0.00579834
35,4,10.0097,0.000305176,-0.000305176,-2.42928,0.0547655,-0.075063,0.0526021,0.0724962,-0.094062,0.144098,-0.126682,-0.0859274,0.0127029,0.0257111,0.0209808,0.00621796,0.0175095,0.0101471,0.0209427,0.0152588,-9.97986,0.0103378,0.0019455,0.0144196,0.00541687,0.0122833,-0.00522614,0.0154495,0.00469208
35,5,10.0097,0.000305176,-0.000457764,-2.42745,0.0541551,-0.0735371,0.0519917,0.0712755,-0.0946723,0.145318,-0.125766,-0.085317,0.0138474,0.0294113,0.0250626,0.00404358,0.0162506,0.0129318,0.0198364,0.0153732,-9.97986,0.0131989,-0.00236511,0.0162125,0.0101089,0.0144577,-0.00278473,0.0148392,0.00465393
35,6,10.0097,0.00213623,0.00106812,-2.42684,0.055681,-0.0738423,0.0544332,0.0706652,-0.0931465,0.145013,-0.126072,-0.0837911,0.0148773,0.0292587,0.0232315,0.00770569,0.017662,0.0115585,0.0165176,0.0177383,-9.97986,0.0178909,-0.00301361,0.0148392,0.00900269,0.0118256,-0.00457764,0.0147247,0.00751495
35,7,10.0097,0.000915527,0.000457764,-2.42562,0.0559862,-0.0741475,0.0553487,0.0715807,-0.0922309,0.146539,-0.123935,-0.0816549,0.0119019,0.0261688,0.0199127,0.00648499,0.0127411,0.00881195,0.0211334,0.0187683,-9.97986,0.0141525,-0.000762939,0.0127411,0.00812531,0.015831,-0.00282288,0.0176239,0.00564575
35,8,10.0097,-0.00152588,0.000305176,-2.42653,0.0562914,-0.0741475,0.0544332,0.0724962,-0.0922309,0.146539,-0.124851,-0.0819601,0.0147247,0.0279999,0.0185394,0.00473022,0.0139999,0.00816345,0.0212097,0.0159073,-9.97986,0.0151825,-0.00286102,0.0127029,0.00965118,0.0128937,-0.00526428,0.0171661,0.00564575
35,9,10.0097,0.000610352,-0.000152588,-2.42501,0.0565965,-0.0741475,0.0544332,0.0724962,-0.0916206,0.147455,-0.124546,-0.0807394,0.0126266,0.0304413,0.0207138,0.00923157,0.016098,0.0116348,0.0190735,0.0183868,-9.97986,0.0149536,-0.00610352,0.0152206,0.00370026,0.0164032,0.00423431,0.0160599,0.00595093
36,0,9.84883,0.000610352,-0.00198364,-2.42653,0.0572069,-0.0741475,0.0529073,0.0300768,-0.0961982,0.145929,-0.128208,-0.0828756,0.0125504,0.0241852,0.0175476,0.0050354,0.0150681,0.00759125,0.017662,0.0183868,-9.97986,0.0141144,-0.00259399,0.0142288,0.00785828,0.0169754,0.00324249,0.0196838,0.0075531
36,1,1.55995,0.00183105,-0.00457764,-2.42623,0.0553758,-0.0744527,0.054128,-0.0120375,-0.09925,0.147149,-0.130344,-0.0831808,0.0108337,0.0262451,0.0191498,0.0019455,0.0194931,0.00782013,0.0182343,0.0176239,-9.97986,0.0122452,0.000152588,0.00995636,0.00152588,0.0147247,-0.00152588,0.0156403,0.00377655
36,2,-5.74199,-0.000305176,-0.00457764,-2.42531,0.0562914,-0.0738423,0.0544332,-0.0153944,-0.0961982,0.146539,-0.130344,-0.0813497,0.0168228,0.0340652,0.0244904,0.013504,0.0207901,0.0118637,0.0276184,0.02388,-9.97986,0.0164032,0.00286102,0.0181198,0.0122833,0.0181198,0.00514984,0.0196075,0.0101852
36,3,-9.99003,0.000915527,-0.00427246,-2.42501,0.0572069,-0.0735371,0.055959,0.00688342,-0.0913154,0.147149,-0.128513,-0.0810445,0.00843048,0.0231171,0.0180054,0.000114441,0.0155258,0.000991821,0.0233078,0.0161362,-9.97986,0.0118637,-0.00469208,0.0149536,0.00263214,0.0104523,0.00217438,0.0163651,0.00453949
36,4,-9.99003,0.0012207,-0.00167847,-2.42501,0.0565965,-0.073232,0.055959,0.0410631,-0.0900947,0.146234,-0.126072,-0.0810445,0.013237,0.0252151,0.0193024,0.01091,0.0146103,0.0114822,0.0290298,0.0223923,-9.97986,0.0159073,-0.000267029,0.0143433,0.00988007,-0.0145721,-0.00179291,0.0127029,0.00774384
36,5,-9.99003,-0.000610352,-0.000610352,-2.42592,0.055681,-0.0744527,0.0550435,0.0572374,-0.0910102,0.144708,-0.125766,-0.0816549,0.0113678,0.026741,0.0209427,0.0094223,0.0185776,0.00797272,0.0252151,0.021286,-9.97986,0.0167847,0.000648499,0.0107956,0.00801086,-0.00961304,-0.00160217,0.0177383,0.00335693
36,6,-9.99003,-0.0012207,-0.000152588,-2.42745,0.0559862,-0.0747579,0.0544332,0.0642565,-0.0922309,0.146539,-0.126377,-0.0831808,0.0131226,0.0284576,0.0227356,0.00740051,0.0149536,0.0101471,0.0271606,0.016861,-9.97986,0.0128937,-0.0037384,0.0183487,0.00881195,-0.00938416,-0.00278473,0.0196457,0.00583649
36,7,-9.99003,0.0012207,0.00198364,-2.42592,0.0559862,-0.075063,0.0574849,0.108202,-0.0873481,0.145013,-0.123325,-0.0828756,0.0110245,0.025177,0.018692,0.00553131,0.0139618,0.00709534,0.0180817,0.0270081,-9.97986,0.0139236,-0.00427246,0.0146866,0.00743866,0.0144577,-0.00228882,0.0137711,0.00572205
36,8,-3.07231,-0.00152588,0.0038147,-2.42806,0.0547655,-0.0744527,0.0544332,0.13994,-0.0879585,0.144403,-0.121494,-0.0840963,0.0164413,0.0295639,0.0202179,0.0069046,0.0163269,0.00865936,0.0145721,0.017662,-9.97986,0.0154114,-0.00236511,0.0104523,0.0088501,0.0133133,-0.0012207,0.0130463,0.00801086
36,9,4.43715,0.000610352,0.0050354,-2.42776,0.0526292,-0.0747579,0.0547383,0.154894,-0.088874,0.143182,-0.121189,-0.0847066,0.0146484,0.0252914,0.0211334,0.00839233,0.0189972,0.0124741,0.0185013,0.0195694,-9.97986,0.00835419,-0.000419617,0.0140381,0.00461578,0.0139236,-0.00110626,0.0157547,0.00537872
37,0,10.0097,0.000610352,0.00457764,-2.42837,0.0523241,-0.0756734,0.0529073,0.147875,-0.0913154,0.143792,-0.121494,-0.0856222,0.0142288,0.0271225,0.0208282,0.0111771,0.021019,0.0145721,0.0217819,0.0202942,-9.97986,0.012207,-0.00190735,0.0141144,0.00865936,0.0122833,-0.00282288,0.0154877,0.00595093
37,1,10.0097,-0.0012207,0.00137329,-2.43142,0.0535448,-0.0765889,0.0498555,0.0993517,-0.0971137,0.143182,-0.126072,-0.0892843,0.0119781,0.0271225,0.0207901,0.0115967,0.0187683,0.0127792,0.0223541,0.0195313,-9.97986,0.0133133,-0.00350952,0.0120163,0.00541687,0.0172043,-0.00190735,0.0144196,0.00682831
37,2,10.0097,-0.00183105,0.000305176,-2.42959,0.0532396,-0.0759786,0.0498555,0.0813463,-0.095893,0.142572,-0.126987,-0.0880636,0.0165558,0.026741,0.0244522,0.0109482,0.0189209,0.0106812,0.0259781,0.0183868,-9.97986,0.0118637,-0.0030899,0.0131607,0.00869751,0.0214005,-0.00244141,0.0151825,0.00488281
37,3,10.0097,0.000610352,-0.000152588,-2.42867,0.0547655,-0.0756734,0.0519917,0.075548,-0.095893,0.143182,-0.126072,-0.0868429,0.0136566,0.0260544,0.0212479,0.00888824,0.0147247,0.0094986,0.0246811,0.0175476,-9.97986,0.0185013,-0.00148773,0.0178909,0.00751495,0.0201416,-0.0122452,0.0146866,0.00495911
37,4,10.0097,-0.000915527,0.000457764,-2.42745,0.0550706,-0.0756734,0.0529073,0.072191,-0.0946723,0.143182,-0.126072,-0.0856222,0.00976563,0.0252151,0.0149536,0.00793457,0.018692,0.00976563,0.0252914,0.019455,-9.97986,0.0137329,0.00576019,0.0140762,0.0030899,0.0194931,-0.0182724,0.0143051,0.00663757
37,5,10.0097,0.000915527,-0.000152588,-2.42837,0.0553758,-0.0741475,0.0535176,0.0700548,-0.0928413,0.144098,-0.126072,-0.085317,0.0103378,0.0271988,0.0177383,0.0120926,0.0217438,0.00984192,0.0271988,0.0201035,-9.97986,0.014801,0.01297,0.0160599,0.00587463,0.0175476,-0.018959,0.010376,0.00537872
37,6,10.0097,0.000610352,0.000305176,-2.42806,0.0547655,-0.0747579,0.0535176,0.0706652,-0.0937568,0.145624,-0.126072,-0.0840963,0.0108337,0.024147,0.0200272,0.0146103,0.0208664,0.0111389,0.0284958,0.0131607,-9.97986,0.0167847,0.0120163,0.0140762,0.0056839,0.0203323,-0.00862122,0.0123215,0.00640869
37,7,10.0097,0.000610352,0.000457764,-2.42592,0.055681,-0.0747579,0.0547383,0.0709703,-0.0928413,0.145013,-0.123935,-0.0825704,0.0105286,0.0221252,0.0191116,0.014534,0.017128,0.00900269,0.0251007,0.0167084,-9.97986,0.0139999,0.0149918,0.0133133,0.00785828,0.0209427,-0.00404358,0.015564,0.00644684
37,8,10.0097,-0.000305176,0.000305176,-2.4247,0.0562914,-0.0738423,0.0535176,0.072191,-0.0922309,0.146234,-0.125156,-0.0807394,0.00652313,0.0239182,0.0177765,0.0165176,0.0168991,0.0103378,0.021553,0.0167084,-9.97986,0.0135803,0.00816345,0.011673,0.00652313,0.0188446,0.00297546,0.0169754,0.00656128
37,9,10.0097,0.000610352,0.000305176,-2.42501,0.0562914,-0.073232,0.0550435,0.072191,-0.0900947,0.146234,-0.124546,-0.0810445,0.0138855,0.0252151,0.0223923,0.0141907,0.0212479,0.0063324,0.0245285,0.0212097,-9.97986,0.0167465,0.0043869,0.0172806,0.00606537,0.0189209,0.00720978,0.0141144,0.00675201
38,0,9.88057,-0.00183105,-0.00259399,-2.42562,0.0569017,-0.0753682,0.0538228,0.0288561,-0.0971137,0.145624,-0.127598,-0.0825704,0.0133514,0.0223541,0.019722,0.0112534,0.0164795,0.00926971,0.0225449,0.0205231,-9.97986,0.00968933,-0.0019455,0.0159073,0.00572205,0.0154877,0.0136948,0.0159454,0.00610352
38,1,1.63777,0.000915527,-0.0050354,-2.42592,0.0569017,-0.0744527,0.0532125,-0.0102064,-0.0977241,0.145929,-0.129734,-0.0828756,0.0117874,0.0304413,0.0175476,0.015564,0.0226974,0.00785828,0.0191498,0.019455,-9.97986,0.0101852,-0.01091,0.0131989,0.0069046,0.0130463,0.014534,0.0167847,0.00823975
38,2,-5.54942,-0.000305176,-0.00473022,-2.42623,0.0575121,-0.0720113,0.054128,-0.0160048,-0.0955879,0.146844,-0.130039,-0.0816549,0.0122452,0.0234985,0.0137711,0.0126648,0.0174332,0.00549316,0.0245667,0.0212479,-9.97986,0.0165558,-0.0119781,0.0144958,0.00965118,0.0147629,0.0117493,0.0174332,0.00804901
38,3,-9.99003,0.000610352,-0.00427246,-2.42501,0.0569017,-0.0744527,0.0547383,0.00657824,-0.0937568,0.144098,-0.127903,-0.0804342,0.0119019,0.0148392,0.00938416,0.0119781,0.0206757,0.0131226,0.0232697,0.0159073,-9.97986,0.0142288,-0.00801086,0.0149536,0.00793457,0.0183105,-0.000305176,0.0171661,0.00770569
38,4,-9.99003,0.000915527,-0.00213623,-2.42409,0.0565965,-0.0735371,0.055959,0.0395372,-0.0894843,0.145929,-0.127292,-0.0810445,0.0115585,0.0193405,0.00812531,0.0119781,0.0151443,0.011673,0.0239944,0.0150681,-9.97986,0.0148392,-0.00377655,0.0153351,0.0069046,-0.01091,-0.00827789,0.0161743,0.00675201
38,5,-9.99003,0.00244141,-0.000610352,-2.42592,0.0550706,-0.0744527,0.054128,0.0572374,-0.0900947,0.145013,-0.126987,-0.0816549,0.0115204,0.0153732,0.0124359,0.00587463,0.0130081,0.0115204,0.0242233,0.0165176,-9.97986,0.0185394,-0.00804901,0.0139618,0.00583649,-0.00904083,-0.00984192,0.017395,0.00610352
38,6,-9.99003,-0.000305176,-0.000457764,-2.42684,0.0553758,-0.0738423,0.0538228,0.0642565,-0.0910102,0.146234,-0.126377,-0.0831808,0.00770569,0.0178146,0.0107956,-0.00743866,0.0172043,0.0121689,0.0273895,0.0156021,-9.97986,0.0136948,-0.0094223,0.0114059,0.00476837,-0.0107193,-0.00190735,0.0145721,0.00499725
38,7,-9.99003,0.000915527,0.00183105,-2.42623,0.0544603,-0.0762837,0.055959,0.110643,-0.0873481,0.144403,-0.122715,-0.0825704,0.011673,0.0228119,0.0130844,-0.00637054,0.019455,0.0134659,0.0304794,0.0128555,-9.97986,0.0166321,-0.0038147,0.0155258,0.00576019,0.0188828,-0.00087738,0.017395,0.000572205
38,8,-2.75279,0.000915527,0.00411987,-2.42806,0.0529344,-0.0756734,0.0544332,0.139025,-0.0882636,0.144098,-0.121799,-0.0837911,0.00896454,0.0226593,0.0107956,-0.00827789,0.0196075,0.0113678,0.0284958,0.0162125,-9.97986,0.0133133,-0.00114441,0.0136948,0.0094223,0.0185394,0.00675201,0.0166702,0.00518799
38,9,4.76644,0.00152588,0.00457764,-2.42684,0.0559862,-0.0768941,0.0538228,0.153673,-0.0894843,0.144403,-0.120273,-0.085317,0.01194,0.0273514,0.0132751,-0.00720978,0.0157166,0.00816345,0.0283813,0.0164032,-9.97986,0.0113297,-0.00221252,0.0151825,0.0106812,0.0162125,0.0088501,0.0133133,0.00457764
39,0,10.0097,0,0.00442505,-2.42867,0.0538499,-0.0765889,0.0532125,0.14818,-0.0931465,0.143182,-0.122104,-0.0865377,0.0123596,0.0239182,0.0188065,0.00190735,0.0162506,0.0116348,0.0223541,0.00770569,-9.97986,0.0151825,0.00427246,0.0120926,0.00648499,0.0150681,0.0115967,0.0109863,0.00766754
39,1,10.0097,0.00244141,0.0012207,-2.4305,0.0532396,-0.0765889,0.0504659,0.0978258,-0.0983344,0.143182,-0.126072,-0.0883688,0.0114441,0.0244141,0.0204086,-0.00244141,0.016098,0.0118637,0.0149536,0.0118256,-9.97986,0.0143433,0.00411987,0.0152969,0.00541687,0.0203705,0.0143814,0.0152206,0.00637054
39,2,10.0097,-0.000305176,0.000762939,-2.42989,0.0544603,-0.0765889,0.0513814,0.0801256,-0.0955879,0.144708,-0.126072,-0.0874532,0.0141907,0.0236893,0.0173569,0.00190735,0.018425,0.0136948,0.0218964,0.014534,-9.97986,0.0137329,0.00324249,0.0156403,0.00644684,0.0136948,0.00915527,0.0162125,0.00476837
39,3,10.0097,0.000915527,0,-2.42806,0.0541551,-0.0762837,0.0513814,0.0749376,-0.0949775,0.143487,-0.126987,-0.0868429,0.01091,0.0191116,0.0196838,0.00865936,0.0192261,0.0102234,0.0152969,0.0175095,-9.97986,0.0105286,0.000991821,0.0125885,0.00617981,0.0153732,0.00644684,0.0169754,0.00816345
39,4,10.0097,0.000610352,-0.000457764,-2.42867,0.0553758,-0.0753682,0.0532125,0.0731066,-0.0934516,0.143792,-0.126072,-0.0856222,0.011673,0.0185776,0.0161362,0.0127792,0.0139999,0.0129318,0.014267,0.0162506,-9.97986,0.0175476,0.00385284,0.0147629,0.00629425,0.0120926,0.000457764,0.0144196,0.00679016
39,5,10.0097,0.00366211,0.000152588,-2.42776,0.0550706,-0.075063,0.0522969,0.0712755,-0.0928413,0.145013,-0.125766,-0.0837911,0.00812531,0.0163651,0.018425,0.00492096,0.0172806,0.0112915,0.0145721,0.0196075,-9.97986,0.0127411,0.00572205,0.0153351,0.00701904,0.0134277,-0.0031662,0.0163651,0.00663757
39,6,10.0097,0.00152588,-0.000152588,-2.42531,0.0547655,-0.0747579,0.0526021,0.0712755,-0.0925361,0.145013,-0.125461,-0.0837911,0.0131989,0.0191116,0.021019,0.0121307,0.0140381,0.00919342,0.0140762,0.014534,-9.97986,0.0109482,0.000152588,0.0142288,0.00709534,0.0148392,-0.00453949,0.0188065,0.00694275
39,7,10.0097,0.000915527,0.000457764,-2.42501,0.0559862,-0.0744527,0.0544332,0.0715807,-0.0931465,0.145929,-0.124546,-0.0831808,0.00827789,0.0202942,0.0194168,0.0315857,0.0190353,0.0145721,0.019722,0.0159073,-9.97986,0.0134277,-0.00267029,0.0154114,0.00328064,0.0185394,-0.00747681,0.0195694,0.00728607
39,8,10.0097,0.000305176,-0.000152588,-2.42592,0.0550706,-0.0744527,0.0538228,0.0718859,-0.0925361,0.14776,-0.12363,-0.0816549,0.0105667,0.0189972,0.0234985,0.0440598,0.020256,0.00953674,0.021286,0.017662,-9.97986,0.0126266,-0.00141144,0.0151443,0.00705719,0.0185394,-0.0135422,0.0203323,0.00705719
39,9,10.0097,0.00183105,0.000457764,-2.42531,0.0562914,-0.073232,0.0535176,0.0718859,-0.0916206,0.145929,-0.124241,-0.0816549,0.0128937,0.0243759,0.0276566,0.0452805,0.0150299,0.0138092,0.024147,0.0181961,-9.97986,0.0144577,7.62939e-005,0.0137711,0.00900269,0.0196075,-0.0116348,0.0151062,0.00637054
40,0,9.72829,0,-0.00274658,-2.42684,0.0559862,-0.0729268,0.0535176,0.0273302,-0.0961982,0.145624,-0.126682,-0.0825704,0.00831604,0.0221252,0.0331879,0.0329971,0.0156021,0.01194,0.0243378,0.0128555,-9.97986,0.0123215,-0.00400543,0.00926971,0.00667572,0.0187683,-0.0146484,0.0163651,0.00602722
40,1,1.35182,0.00152588,-0.00488281,-2.42318,0.0587328,-0.0723164,0.0547383,-0.00990125,-0.0971137,0.146844,-0.129734,-0.0831808,0.00686646,0.0299072,0.0424194,0.0171661,0.0154495,0.0128937,0.0289154,0.0151062,-9.97986,0.0199127,-0.00450134,0.0119019,0.00522614,0.0173187,-0.00930786,0.0131989,0.00465393
40,2,-5.85185,0.0152588,-0.00411987,-2.42531,0.0581224,-0.0741475,0.0532125,-0.0160048,-0.0971137,0.157525,-0.130954,-0.0831808,0.00888824,0.0307846,0.0449371,-0.001297,0.0185013,0.0108719,0.034256,0.0166321,-9.97986,0.01194,-0.00537872,0.00988007,0.00583649,0.0180054,-0.0056076,0.0162125,0.00583649
40,3,-9.99003,0.00152588,-0.00366211,-2.42531,0.0562914,-0.0735371,0.0553487,0.00627307,-0.0922309,0.149286,-0.127598,-0.0804342,0.00526428,0.0233459,0.0458908,-0.00850677,0.0136948,0.0167084,0.0274277,0.0105286,-9.97986,0.017128,-0.00289917,0.0157928,0.00782013,0.0165176,-0.00125885,0.014267,0.00629425
40,4,-9.99003,0.00152588,-0.00183105,-2.42501,0.0559862,-0.0738423,0.0553487,0.0407579,-0.0894843,0.148065,-0.126987,-0.0807394,0.00370026,0.0249863,0.0366211,0.017128,0.0168991,0.00740051,0.0324249,0.0167084,-9.97986,0.0167847,-0.00598907,0.0138092,0.00999451,-0.00640869,-0.000724792,0.0154114,0.00823975
40,5,-9.99003,-0.000305176,-0.000610352,-2.42592,0.0553758,-0.0738423,0.0553487,0.0587633,-0.0913154,0.146539,-0.126072,-0.0816549,0.00732422,0.0235367,0.019455,0.034523,0.0152969,0.0107956,0.0274658,0.0168991,-9.97986,0.0157166,-0.00598907,0.0152969,0.00701904,-0.00812531,0.00427246,0.015564,0.00358582
