
Devices
1200
,,BP Load cell - Voltage,String Length - Voltage,Clutch Active - Voltage,#7 iPecs - Voltage,,,,,,,,,EMG 1-8 Left - Voltage,,,,,,,,Pylon Force - Voltage,EMG 9-16 Right - Voltage,,,,,,,,
Frame,Sub Frame,BP Load Cell,String Length,From Arduino Logic,A45,A135,A225,A315,S0,S90,S180,S270,ZSum,EMG 1 Glut Max,EMG 2 Glut Med,EMG 3 Biceps Femoris Long,EMG 4 Rectus Femoris,EMG 5 Vastus Medialis,EMG 6 Tib Ant,EMG 7 Med Gas,EMG 8 Soleus,Pylon volts,EMG 9 Glut Max,EMG 10 Glut Med,EMG 11 Biceps Femoris Long,EMG 12 Rectus Femoris,EMG 13 Vastus Medialis,EMG 14 Tib Ant,EMG 15 Med Gas,EMG 16 Soleus
,,V,V,V,V,V,V,V,V,V,V,V,V,V,V,V,V,V,V,V,V,V,V,V,V,V,V,V,V,V
1,0,-9.99003,0.00244141,0.0038147,-2.4247,0.0559862,-0.073232,0.0544332,0.00932483,-0.0925361,0.146234,-0.128513,-0.0786031,0.00946045,0.0237656,0.0309372,-0.0497818,0.0466919,0.0101471,0.125389,0.302162,-9.97986,-0.00968933,-0.00892639,0.00759125,1.01311,0.00293732,-0.00118256,0.02491,0.00411987
1,1,-9.99003,0.000305176,0.00564575,-2.42562,0.0569017,-0.0735371,0.055959,0.0438097,-0.0894843,0.145013,-0.126682,-0.0789083,0.00267029,0.0412369,0.0432587,-0.0408936,0.0553513,0.00354767,0.132599,0.267525,-9.97986,-0.017128,-0.00976563,0.0102997,1.0672,-0.0146103,-0.00598907,0.0279617,0.00419617
1,2,-9.99003,0.000305176,0.00457764,-2.42653,0.0553758,-0.075063,0.0556539,0.0569322,-0.0900947,0.145624,-0.125461,-0.0813497,0.00843048,0.0504684,0.0498199,-0.0214386,0.0549698,0.0069046,0.159454,0.200119,-9.97986,-0.0217056,-0.00709534,0.00679016,1.09234,-0.0133133,-0.00648499,0.0307846,0.00484467
1,3,-9.99003,-0.00213623,0.0012207,-2.42592,0.0547655,-0.0759786,0.0535176,0.0636461,-0.0916206,0.14776,-0.125766,-0.0825704,0.00442505,0.0465393,0.0512695,0.00106812,0.0508118,-0.0018692,0.18734,0.127716,-9.97986,-0.0262833,-0.00782013,0.00652313,1.08803,-0.00747681,-0.00595093,0.026207,0.00743866
1,4,-9.99003,-0.00183105,0.00305176,-2.42623,0.0541551,-0.0747579,0.0562642,0.128343,-0.0842964,0.146234,-0.12302,-0.0816549,0.00305176,0.039444,0.044899,0.0362778,0.0465775,-0.00366211,0.203629,-0.0331497,-9.97986,-0.028801,-0.00305176,0.00663757,1.09062,0.0196838,-0.00198364,0.0256348,0.00480652
1,5,-2.35942,-0.00152588,0.00396729,-2.42776,0.0535448,-0.0753682,0.0550435,0.144213,-0.0882636,0.143792,-0.12241,-0.0844015,-0.00144958,0.0444412,0.0473022,0.088768,0.0514984,-0.000610352,0.225945,-0.182991,-9.97986,-0.0275421,-0.00297546,0.00457764,1.0928,0.0226212,0.00328064,0.0278091,0.00530243
1,6,5.8318,-0.000305176,0.00473022,-2.42867,0.0538499,-0.0771993,0.054128,0.153368,-0.0891792,0.143792,-0.121799,-0.0847066,-0.00713348,0.018692,0.0572205,0.130234,0.0482178,-0.00514984,0.239525,-0.199547,-9.97986,-0.0196457,-0.00770569,0.00827789,1.08826,0.0243759,-0.000190735,0.0260162,0.00408173
1,7,10.0097,-0.000610352,0.0038147,-2.43081,0.0535448,-0.0762837,0.0516866,0.137804,-0.0925361,0.142877,-0.12363,-0.0877584,-0.0012207,0.0144577,0.0537109,0.106392,0.0474548,-0.00606537,0.247154,-0.173645,-9.97986,-0.00583649,-0.00911713,0.00812531,1.08089,0.0247574,7.62939e-005,0.0244904,0.00488281
1,8,10.0097,0,-0.000305176,-2.43081,0.0535448,-0.0762837,0.050771,0.0938585,-0.0983344,0.144708,-0.126377,-0.0883688,0.00282288,0.0287628,0.0417328,0.0833511,0.0498581,-0.00701904,0.259285,-0.189667,-9.97986,0.00293732,-0.00976563,0.00915527,1.05621,0.0275803,-0.000534058,0.0236511,0.00576019
1,9,10.0097,0.000305176,-0.000610352,-2.43081,0.0529344,-0.0762837,0.050771,0.0798204,-0.0968086,0.142877,-0.126377,-0.0874532,0.00320435,0.0272369,0.0334549,0.071907,0.044632,-0.00858307,0.270691,-0.197906,-9.97986,0.0127411,-0.00343323,0.00492096,1.04168,0.0268936,-0.0050354,0.0253677,0.00476837
2,0,10.0097,0.00183105,-0.000457764,-2.42867,0.0541551,-0.0762837,0.0510762,0.0761583,-0.095893,0.143182,-0.127598,-0.0877584,0.0150681,0.0206757,0.0249481,0.043869,0.0432205,-0.0147629,0.274849,-0.173988,-9.97986,0.0200653,-0.00377655,0.00476837,1.04427,0.0227737,-0.00297546,0.0251007,0.00629425
2,1,10.0097,0.000610352,-0.000457764,-2.42714,0.0553758,-0.0747579,0.0526021,0.0728014,-0.095893,0.143792,-0.123325,-0.0850118,0.0187302,-0.00339508,0.0154495,0.0317383,0.0476837,-0.0137329,0.278625,-0.111389,-9.97986,0.0353622,-0.0043869,0.00858307,1.0461,0.0267029,0.00038147,0.0292206,0.00858307
2,2,10.0097,0.00152588,0,-2.42745,0.0541551,-0.0726216,0.055959,0.0712755,-0.0937568,0.144708,-0.125766,-0.0844015,0.0166702,-0.0139618,-0.00205994,0.0116348,0.0362778,-0.0148773,0.276909,-0.0507355,-9.97986,0.0405502,-0.00389099,0.00823975,1.03119,0.0293732,-0.00205994,0.0297546,0.00522614
2,3,10.0097,0.000610352,-0.000915527,-2.42653,0.0572069,-0.0735371,0.0553487,0.0712755,-0.0928413,0.145624,-0.126072,-0.0840963,0.0269318,-0.00904083,-0.00255585,0.00740051,0.0376892,-0.00770569,0.277252,0.0101471,-9.97986,0.0386429,0.000648499,0.00339508,1.01219,0.0324631,-0.00598907,0.0302124,0.00709534
2,4,10.0097,0.000610352,-0.00106812,-2.42562,0.0562914,-0.0738423,0.054128,0.0706652,-0.0910102,0.146844,-0.127292,-0.0828756,0.0178146,-0.00598907,-0.0118637,-0.00125885,0.0383759,-0.0111389,0.271873,0.00556946,-9.97986,0.034256,0.00179291,0.00743866,0.984802,0.0328445,-0.0044632,0.0275421,0.00606537
2,5,10.0097,0.00183105,-0.00335693,-2.42562,0.055681,-0.0729268,0.0550435,0.0712755,-0.0919257,0.147149,-0.124546,-0.0828756,0.0141907,0.00572205,-0.01091,-0.00926971,0.0403976,-0.013237,0.264969,-0.00144958,-9.97986,0.0350952,0.00537872,0.00854492,0.934181,0.0350952,-0.00213623,0.0250626,0.00782013
2,6,10.0097,0.00213623,-0.00411987,-2.42592,0.0553758,-0.073232,0.055959,0.0682238,-0.0934516,0.145624,-0.124851,-0.0825704,0.0156784,0.00720978,-0.0205612,-0.00858307,0.0350952,-0.0101471,0.262337,0.0454712,-9.97986,0.0333405,0.00358582,0.00858307,0.895386,0.042572,-0.000190735,0.0257874,0.00801086
2,7,9.24733,0.000610352,-0.0038147,-2.42684,0.0553758,-0.0744527,0.0522969,0.0169542,-0.0977241,0.146844,-0.130649,-0.0834859,0.000190735,-0.00640869,-0.0149918,-0.0165176,0.0403976,-0.0112152,0.262184,0.0891876,-9.97986,0.0218964,0.00354767,0.00862122,0.878639,0.0441742,0.00244141,0.0294495,0.0094986
2,8,-0.0931832,-0.0012207,-0.00732422,-2.42592,0.0578172,-0.073232,0.0532125,-0.00471326,-0.0971137,0.147455,-0.129734,-0.0822652,0.0113678,-0.00236511,-0.00312805,-0.0185394,0.0386429,-0.0112915,0.247917,0.0893402,-9.97986,0.0149536,0.0110626,0.00965118,0.848885,0.0495148,0.00377655,0.029068,0.0108719
2,9,-7.23033,0,-0.00762939,-2.42562,0.0565965,-0.0738423,0.054128,-0.0153944,-0.0961982,0.147149,-0.131565,-0.0822652,0.010376,0.0108337,0.00980377,-0.0123215,0.0384903,-0.0149155,0.241318,0.0579071,-9.97986,0.0125122,0.0115585,0.0069046,0.818672,0.051651,0.00400543,0.0279999,0.00743866
3,0,-9.99003,-0.000610352,-0.00640869,-2.42531,0.055681,-0.0735371,0.0556539,0.00963,-0.0931465,0.147149,-0.129123,-0.0819601,0.0179291,0.0276947,0.00816345,0.00431061,0.0328445,-0.0169754,0.231895,0.0129318,-9.97986,0.0127411,0.0113678,0.0082016,0.78167,0.0453568,0.00183105,0.0293732,0.00991821
3,1,-9.99003,0.000610352,-0.00534058,-2.4247,0.0562914,-0.0747579,0.055959,0.0453356,-0.0900947,0.146539,-0.126682,-0.0813497,0.0161743,0.0280762,0.00488281,0.0181198,0.0353241,-0.0242233,0.221748,-0.0544357,-9.97986,0.0220871,0.00404358,0.0102997,0.746346,0.0331116,-0.00087738,0.0312042,0.00740051
3,2,-9.99003,0.000610352,-0.0038147,-2.42653,0.0538499,-0.0747579,0.0544332,0.0572374,-0.0913154,0.144708,-0.125156,-0.0831808,0.0154114,0.0289536,0.000572205,0.038414,0.0350571,-0.0235748,0.210228,-0.102844,-9.97986,0.0202179,-0.00110626,0.0130844,0.701752,0.0352859,-0.00419617,0.0258255,0.00774384
3,3,-9.99003,0,-0.00473022,-2.42684,0.0550706,-0.075063,0.0529073,0.0645616,-0.0919257,0.145013,-0.124851,-0.0844015,0.0102997,0.0471115,0.00598907,0.0380325,0.0365067,-0.0227356,0.208168,-0.101852,-9.97986,0.0158691,0.00724792,0.0114822,0.640106,0.0344467,-0.0030899,0.023613,0.0056076
3,4,-9.99003,0.00152588,-0.00457764,-2.42562,0.0553758,-0.0747579,0.0562642,0.125597,-0.0858222,0.144708,-0.122104,-0.0837911,0.000953674,0.0319672,0.00431061,0.0238037,0.0346375,-0.0197601,0.194473,-0.0757217,-9.97986,0.022316,0.00415802,0.00869751,0.568924,0.0660706,0.00137329,0.0241089,0.00980377
3,5,-2.51719,0.000305176,-0.00320435,-2.42653,0.0541551,-0.0747579,0.0556539,0.144823,-0.0870429,0.143792,-0.121799,-0.0862325,0.0156403,-0.00465393,0.000610352,0.029068,0.0310898,-0.0190353,0.185242,-0.0333786,-9.97986,0.0196457,0.00202179,0.00923157,0.496292,0.0659561,-0.0018692,0.0243759,0.00602722
3,6,5.4601,0.000610352,-0.00198364,-2.42806,0.0544603,-0.0753682,0.0538228,0.155504,-0.088874,0.143792,-0.121189,-0.0874532,0.0231171,-0.0211716,0.00736237,0.0376892,0.0299072,-0.0193787,0.175247,-0.00442505,-9.97986,0.0245667,0.00900269,0.0108337,0.433655,0.0719833,-0.00606537,0.0168228,0.00617981
3,7,10.0097,-0.000610352,-0.00167847,-2.43081,0.0547655,-0.0756734,0.0513814,0.137499,-0.0931465,0.143182,-0.122715,-0.0892843,0.0182343,-0.0106812,0.0125504,0.0344849,0.0296402,-0.0234604,0.164146,0.00961304,-9.97986,0.0246811,0.0102997,0.0107956,0.36232,0.0792313,-0.00804901,0.0183105,0.00679016
3,8,10.0097,-0.000305176,-0.0050354,-2.4302,0.0532396,-0.0768941,0.0498555,0.0950792,-0.0977241,0.143487,-0.126072,-0.0898946,0.00843048,0.00301361,0.0190353,0.027771,0.0299454,-0.0320816,0.155563,0.0144196,-9.97986,0.0231934,0.00598907,0.00694275,0.29953,0.0813293,-0.00717163,0.019455,0.00656128
3,9,10.0097,0.000305176,-0.00488281,-2.42959,0.0541551,-0.0765889,0.0519917,0.0785997,-0.0968086,0.143487,-0.127598,-0.0892843,0.00263214,0.0128174,0.0218582,0.0269699,0.0273514,-0.0250626,0.1474,0.0238037,-9.97986,0.0252533,0.0107193,0.0104904,0.245667,0.0901031,-0.00179291,0.0151825,0.00701904
4,0,10.0097,-0.000305176,-0.00549316,-2.42837,0.0541551,-0.0756734,0.0519917,0.0749376,-0.0943672,0.144098,-0.126377,-0.0877584,0.00453949,0.0249481,0.0269699,0.0141525,0.0268173,-0.0235748,0.145111,0.0371933,-9.97986,0.0239563,0.0102234,0.00549316,0.198021,0.0924683,-0.00202179,0.0103378,0.00785828
4,1,10.0097,-0.000610352,-0.00579834,-2.42684,0.0541551,-0.0756734,0.0504659,0.0731066,-0.0946723,0.146539,-0.126682,-0.0868429,0.00556946,0.0370407,0.0266647,0.00881195,0.0279236,-0.0279236,0.139275,0.032692,-9.97986,0.0296021,0.00988007,0.0107574,0.14473,0.100441,0.000114441,0.0102997,0.00583649
4,2,10.0097,0,-0.00595093,-2.42745,0.0550706,-0.0747579,0.0538228,0.0706652,-0.0928413,0.145013,-0.126987,-0.0859274,0.00640869,0.030098,0.0280762,0.00694275,0.0260162,-0.0263214,0.128555,0.0185013,-9.97986,0.0320435,0.0181961,0.00953674,0.0789642,0.100822,0.00312805,0.00862122,0.00537872
4,3,10.0097,0.000610352,-0.00534058,-2.42745,0.0553758,-0.0756734,0.0544332,0.07036,-0.0937568,0.145318,-0.126072,-0.0856222,0.0110245,0.0325012,0.0214005,0.0038147,0.0213242,-0.0283051,0.118065,0.0165176,-9.97986,0.0310516,0.0147629,0.010643,0.0192642,0.0993347,-0.00602722,0.0121689,0.00545502
4,4,10.0097,0.00152588,-0.00396729,-2.42592,0.055681,-0.0741475,0.0553487,0.0712755,-0.0925361,0.145624,-0.124546,-0.0828756,0.0113297,0.0566101,0.0263977,0.0019455,0.0211334,-0.0256348,0.115509,0.0136185,-9.97986,0.0294113,0.0203705,0.00984192,-0.0162888,0.106773,-0.00770569,0.0102615,0.00671387
4,5,10.0097,0.000610352,-0.00228882,-2.42531,0.0562914,-0.0729268,0.0544332,0.0712755,-0.0916206,0.147149,-0.125766,-0.0822652,0.0113297,0.0609207,0.0220871,0.00549316,0.0229263,-0.0283051,0.105705,0.0107574,-9.97986,0.0236893,0.0180054,0.00679016,-0.0370407,0.107384,-0.00972748,0.0104904,0.00812531
4,6,10.0097,0.00152588,-0.00274658,-2.42531,0.0569017,-0.0738423,0.054128,0.07036,-0.0928413,0.147455,-0.123935,-0.0819601,0.0135803,0.0749207,0.0263214,0.00156403,0.0212479,-0.0257111,0.0944901,0.0031662,-9.97986,0.0252533,0.0110626,0.0131226,-0.0585175,0.108604,-0.0120544,0.0063324,0.0056076
4,7,9.33003,0.000305176,-0.00473022,-2.42776,0.055681,-0.075063,0.0526021,0.0184801,-0.0983344,0.143487,-0.128513,-0.0831808,0.00995636,0.0925827,0.0329208,-0.000724792,0.0169754,-0.0268555,0.0819397,0.014801,-9.97986,0.0193405,0.00694275,0.0131989,-0.079689,0.10704,-0.0195694,0.00392914,0.00160217
4,8,0.0667289,0.00274658,-0.0062561,-2.42531,0.0565965,-0.0744527,0.054128,-0.00654431,-0.095893,0.148065,-0.129429,-0.0834859,0.0143814,0.0823593,0.0492859,0.00366211,0.0173187,-0.0243378,0.0769806,0.0391388,-9.97986,0.0169373,0.00812531,0.0140762,-0.0811768,0.108604,-0.0143051,0.0044632,0.00476837
4,9,-7.08049,0.00152588,-0.00518799,-2.42531,0.0559862,-0.0729268,0.0547383,-0.0147841,-0.0974189,0.146539,-0.130039,-0.0822652,0.0154495,0.0689316,0.0457764,-0.0101471,0.0119781,-0.0267029,0.0737,0.0524139,-9.97986,0.0136185,0.00923157,0.0127411,-0.0795746,0.108681,-0.0075531,0.00656128,0.00793457
5,0,-9.99003,-0.00183105,-0.00427246,-2.4247,0.0559862,-0.0738423,0.0550435,0.00932483,-0.0937568,0.144403,-0.127903,-0.0810445,0.0173187,0.046196,0.0271225,-0.019722,0.0134277,-0.0266647,0.0621414,0.0405121,-9.97986,0.0175095,0.00991821,0.0154114,-0.0969315,0.104408,-0.00205994,0.00766754,0.00862122
5,1,-9.99003,-0.000305176,-0.00335693,-2.42623,0.0565965,-0.0735371,0.0562642,0.0447252,-0.0897895,0.145013,-0.126682,-0.0810445,0.0183105,0.0370026,-0.00843048,0.001297,0.0137329,-0.0281143,0.0503922,0.0419617,-9.97986,0.0185013,0.00637054,0.0158691,-0.12104,0.0876617,0.0030899,0.00404358,0.00770569
5,2,-9.99003,-0.000915527,-0.00244141,-2.42531,0.0559862,-0.0735371,0.055959,0.0584581,-0.0897895,0.146539,-0.125461,-0.0825704,0.0159836,0.0149155,-0.0267792,0.0187302,0.0114059,-0.0208664,0.0387573,0.0535202,-9.97986,0.0235748,0.00934601,0.0147247,-0.140457,0.0862122,0.00301361,0.00545502,0.0105667
5,3,-9.99003,-0.00183105,-0.00213623,-2.42562,0.0547655,-0.0741475,0.054128,0.0648668,-0.0913154,0.144403,-0.126072,-0.0844015,0.0130081,-0.0261307,-0.0157928,0.0270844,0.014267,-0.016861,0.0291824,0.00213623,-9.97986,0.0240707,0.00984192,0.0127029,-0.159988,0.0863647,0.00198364,0.00190735,0.00778198
5,4,-9.99003,0.000610352,0.000610352,-2.42531,0.0559862,-0.0735371,0.0571797,0.126817,-0.0849067,0.145929,-0.12241,-0.0822652,0.0156403,-0.0227356,0.00495911,0.0300598,0.0118637,-0.0123215,0.0234222,-0.0282288,-9.97986,0.0223923,0.0142288,0.0163269,-0.161629,0.112686,0.0094223,0.0044632,0.00743866
5,5,-2.34782,0.00213623,0.00244141,-2.42806,0.0553758,-0.0762837,0.0553487,0.145128,-0.0864326,0.143792,-0.121189,-0.0844015,0.0161743,-0.00946045,0.0151062,0.0257111,0.0105667,-0.0212479,0.00457764,0.0138474,-9.97986,0.026741,0.0207901,0.0143814,-0.161591,0.109024,0.0050354,0.00366211,0.00839233
5,6,5.83455,0.000915527,0.00457764,-2.42806,0.0541551,-0.0747579,0.0501607,0.154894,-0.0891792,0.143792,-0.122104,-0.0847066,0.00988007,0.00270844,0.0178528,0.0228119,0.0121689,-0.0180435,-0.0056839,0.0289154,-9.97986,0.0236511,0.0272751,0.0132751,-0.151863,0.109749,0.000495911,0.00587463,0.00747681
5,7,10.0097,0,0.00473022,-2.43081,0.0529344,-0.0765889,0.0513814,0.136278,-0.0934516,0.143487,-0.12302,-0.0871481,0.0062561,0.00160217,0.014267,0.0186157,0.00656128,-0.0200653,-0.0165939,0.0140762,-9.97986,0.0205231,0.0260544,0.0131226,-0.161743,0.108871,0.00347137,0.00385284,0.0069809
5,8,10.0097,0.000610352,0,-2.4305,0.0535448,-0.0759786,0.0513814,0.0941637,-0.0968086,0.142877,-0.126377,-0.0889791,0.000953674,-0.00442505,0.00484467,0.014801,0.0056839,-0.0133896,-0.0226974,0.0131226,-9.97986,0.0230789,0.0286865,0.0157547,-0.182228,0.105553,0.00125885,0.00694275,0.00576019
5,9,10.0097,-0.000305176,-0.00183105,-2.42928,0.0541551,-0.0762837,0.0510762,0.0804308,-0.0968086,0.143182,-0.126072,-0.0877584,0.000572205,-0.0108719,-0.000953674,0.0178146,0.00537872,-0.00930786,-0.0287247,-0.00465393,-9.97986,0.0216675,0.0272751,0.00999451,-0.195732,0.104866,0.00118256,0.00453949,0.00946045
6,0,10.0097,-0.000915527,-0.00183105,-2.42959,0.0538499,-0.0756734,0.0519917,0.0728014,-0.0943672,0.144403,-0.125461,-0.0868429,-0.000305176,-0.0126648,0.0025177,0.0175858,0.00556946,-0.00701904,-0.0407028,-0.0127792,-9.97986,0.0217819,0.0171661,0.0144196,-0.204048,0.105515,-0.00339508,0.00419617,0.00808716
6,1,10.0097,0,-0.00137329,-2.42898,0.0553758,-0.0744527,0.0529073,0.0709703,-0.094062,0.145013,-0.126072,-0.0859274,0.00305176,-0.00991821,0.013504,0.0220108,0.00507355,-0.0107956,-0.0532532,-0.0189972,-9.97986,0.0237274,0.0144958,0.00961304,-0.199089,0.102768,-0.0018692,0.00282288,0.00709534
6,2,10.0097,0.000305176,0.000610352,-2.42837,0.0550706,-0.0741475,0.0535176,0.0715807,-0.0937568,0.145318,-0.126072,-0.0847066,0.00148773,-0.000648499,0.018425,0.0143051,-7.62939e-005,-0.0141525,-0.058403,-0.0117111,-9.97986,0.0191879,0.0125122,0.0136185,-0.199051,0.0971222,-0.00556946,0.001297,0.00518799
6,3,10.0097,-0.000305176,0.000305176,-2.42776,0.0553758,-0.075063,0.0538228,0.0694445,-0.0925361,0.144403,-0.126377,-0.0840963,0.00900269,0.00614166,0.0127792,0.00720978,0.00144958,-0.0109482,-0.0582886,0.0175858,-9.97986,0.0111008,0.0170898,0.015831,-0.204544,0.0920105,-0.00335693,0.0050354,0.00835419
6,4,10.0097,0.0012207,-0.000610352,-2.42714,0.0565965,-0.0741475,0.0532125,0.0718859,-0.0919257,0.146234,-0.124241,-0.0825704,0.0152588,0.0125885,0.00507355,-0.0150681,-0.000686646,-0.00747681,-0.05867,0.0367737,-9.97986,0.0125122,0.0108337,0.0128937,-0.198593,0.0809479,-0.0112152,0.00743866,0.00400543
6,5,10.0097,0.000610352,0.0012207,-2.42531,0.0559862,-0.0729268,0.0550435,0.0715807,-0.0922309,0.146539,-0.124851,-0.0795187,0.0163651,0.033226,0.0111008,-0.0326157,0.00205994,-0.00667572,-0.0590897,0.0589371,-9.97986,0.00991821,0.0069046,0.0200653,-0.183525,0.0796127,-0.00598907,0.00366211,0.00450134
6,6,10.0097,0.000305176,0.00213623,-2.42501,0.0565965,-0.0735371,0.0553487,0.0700548,-0.0913154,0.146234,-0.124241,-0.0813497,0.0193405,0.0340652,0.00858307,-0.0416946,0.00190735,-0.00995636,-0.0663376,0.0537109,-9.97986,0.00717163,0.0149155,0.0149918,-0.155907,0.0719452,-0.0056839,0.00255585,0.0075531
6,7,9.35506,0.00152588,0.000610352,-2.42806,0.055681,-0.073232,0.0516866,0.0184801,-0.0983344,0.145929,-0.127903,-0.0828756,0.0123215,0.0193405,0.0140381,-0.0648117,-0.00282288,-0.00896454,-0.0626755,0.030098,-9.97986,0.00679016,0.0154114,0.0134277,-0.122566,0.0736237,-0.00663757,0.00591278,0.00629425
6,8,0.116778,0.000915527,-0.00228882,-2.42592,0.0562914,-0.0723164,0.0538228,-0.00593396,-0.0971137,0.147455,-0.128818,-0.0807394,0.0137329,0.0240707,0.0156403,-0.0769043,0.00038147,-0.00606537,-0.0645447,0.0312805,-9.97986,0.0037384,0.0267792,0.0189972,-0.100708,0.0730133,0.00141144,0.00297546,0.00816345
6,9,-7.0402,0.000915527,-0.00289917,-2.42501,0.0565965,-0.0744527,0.0529073,-0.0166151,-0.0971137,0.145013,-0.129734,-0.0813497,0.0144577,0.0177765,0.021553,-0.0836945,0.00217438,-0.000152588,-0.0660324,0.0392914,-9.97986,0.00339508,0.0180817,0.017662,-0.0804901,0.0710678,0.00358582,0.00564575,0.00297546
7,0,-9.99003,0.000305176,-0.00213623,-2.42409,0.0572069,-0.0741475,0.0544332,0.00871447,-0.0916206,0.145624,-0.128513,-0.0807394,0.0127411,0.0148392,0.0183487,-0.079689,0.000762939,0.0018692,-0.0595093,0.0593185,-9.97986,0.00362396,0.0132751,0.0118637,-0.0739288,0.0641632,0.0056839,0.00553131,0.0044632
7,1,-9.99003,0.00274658,-0.00137329,-2.42501,0.0572069,-0.073232,0.0565694,0.0431993,-0.090705,0.146539,-0.125156,-0.0810445,0.010643,0.0146103,0.023613,-0.0789261,-0.000991821,-0.00160217,-0.0498581,0.091095,-9.97986,0.000648499,0.00808716,0.0172424,-0.0732803,0.0352859,-0.00450134,0.00549316,0.00377655
7,2,-9.99003,-0.000610352,-0.000305176,-2.42714,0.0550706,-0.0753682,0.0556539,0.0584581,-0.0919257,0.146234,-0.126682,-0.0828756,0.0186157,0.00835419,0.0246048,-0.0714111,-0.000305176,-0.00236511,-0.0444031,0.106697,-9.97986,0.00038147,0.0120544,0.0190735,-0.0894165,0.0308609,-0.00831604,0.00564575,0.0038147
7,3,-9.99003,-0.0012207,-0.00167847,-2.42501,0.0553758,-0.0741475,0.054128,0.0679186,-0.0916206,0.146234,-0.126072,-0.0834859,0.0162125,0.00614166,0.0282669,-0.0069809,-0.00377655,-0.00576019,-0.0458145,0.101547,-9.97986,0.00160217,0.0183487,0.0165176,-0.108452,0.0278473,-0.0184631,0.00526428,0.00534058
7,4,-9.99003,0.00183105,0.000457764,-2.42531,0.0553758,-0.0744527,0.0565694,0.128038,-0.0839912,0.145013,-0.121189,-0.0825704,0.0172043,0.024147,0.0350189,0.0804901,0.00171661,3.8147e-005,-0.0457764,0.0981522,-9.97986,-0.00530243,0.0146484,0.0161743,-0.116539,0.0502396,-0.0215149,0.00556946,0.00457764
7,5,-2.12199,0.00183105,0.00274658,-2.42684,0.0541551,-0.0756734,0.0544332,0.145738,-0.0873481,0.143792,-0.121494,-0.0837911,0.0146484,0.0367737,0.0512695,0.08461,-0.00118256,-0.00392914,-0.0432587,0.109596,-9.97986,0.00602722,0.0190353,0.0177002,-0.122757,0.0412369,-0.0215912,0.00297546,0.00583649
7,6,5.89192,-0.000305176,0.00320435,-2.42714,0.0538499,-0.0756734,0.0535176,0.154894,-0.0882636,0.145013,-0.121189,-0.085317,0.0140762,0.0417709,0.0701523,0.0572586,0.000953674,-0.000534058,-0.0451279,0.120544,-9.97986,0.0153351,0.0177002,0.0132751,-0.124626,0.0395203,-0.0094223,0.00427246,0.0062561
7,7,10.0097,0.0012207,0.00335693,-2.4302,0.0517137,-0.0778096,0.0504659,0.134752,-0.0955879,0.141656,-0.123935,-0.0883688,0.0069046,0.0652695,0.0809479,0.0307465,-0.00167847,0.00846863,-0.0404739,0.0909042,-9.97986,0.0154495,0.0165176,0.024147,-0.144615,0.0381088,0.0107574,0.00854492,0.0094986
7,8,10.0097,-0.00183105,-0.0012207,-2.4302,0.0532396,-0.0762837,0.0504659,0.0935533,-0.09925,0.141961,-0.126072,-0.0886739,-0.00938416,0.0627136,0.0680542,0.0199509,-0.00881195,0.0019455,-0.0453568,0.0738525,-9.97986,0.00339508,0.0104523,0.0094986,-0.176468,0.0238037,0.00339508,0.00144958,0.00324249
7,9,10.0097,-0.000305176,-0.00244141,-2.42928,0.0535448,-0.0759786,0.0513814,0.0779894,-0.0961982,0.144403,-0.126682,-0.0883688,-0.0100708,0.0857925,0.0691223,0.0231552,0.000457764,0.0069046,-0.0372696,0.0304794,-9.97986,0.00659943,0.0178909,0.017128,-0.19825,0.0247192,0.00858307,0.0094223,0.0094223
8,0,10.0097,-0.0012207,-0.0038147,-2.42867,0.0559862,-0.0775044,0.0510762,0.0743273,-0.0949775,0.143487,-0.127598,-0.0877584,-0.000953674,0.0868225,0.051918,0.0365448,-0.00965118,0.00888824,-0.0401688,-0.0281143,-9.97986,-0.00137329,0.0125122,0.0174713,-0.251884,0.0213242,0.00526428,0.00125885,0.00404358
8,1,10.0097,0.00335693,-0.00350952,-2.42806,0.0547655,-0.0759786,0.0526021,0.072191,-0.0943672,0.145013,-0.126987,-0.0850118,0.0130463,0.0536346,0.038681,0.0697327,-0.0127029,0.013237,-0.0327682,0.0210953,-9.97986,-0.0152588,0.00896454,0.0180435,-0.277977,0.0205612,0.00759125,0.00328064,0.00556946
8,2,10.0097,-0.000305176,-0.00259399,-2.42653,0.0547655,-0.0747579,0.0522969,0.0715807,-0.0931465,0.143792,-0.126377,-0.085317,0.0285339,0.0437927,0.0405502,0.090332,-0.0069809,0.0101471,-0.033989,0.0551224,-9.97986,-0.0138474,0.00968933,0.0183868,-0.306435,0.015831,0.0151062,0.00377655,0.00854492
8,3,10.0097,0.000610352,-0.00396729,-2.42653,0.0553758,-0.0771993,0.054128,0.0706652,-0.0937568,0.144098,-0.123935,-0.0850118,0.0235748,0.0356293,0.0358963,0.103531,-0.0143433,0.0100708,-0.03582,0.0281525,-9.97986,-0.0170898,0.0125122,0.0139236,-0.347519,0.0136185,0.00782013,0.0069046,0.0062561
8,4,10.0097,-0.00183105,-0.00274658,-2.42592,0.0562914,-0.0735371,0.054128,0.0718859,-0.0925361,0.147455,-0.123935,-0.0831808,0.0115967,0.0440979,0.0187683,0.0957108,-0.0115204,0.00999451,-0.0257111,-0.0282288,-9.97986,-0.017395,0.00904083,0.018425,-0.382919,0.0104141,0.0056839,0.00545502,0.00896454
8,5,10.0097,0.00213623,-0.00259399,-2.42562,0.0569017,-0.0738423,0.0547383,0.0718859,-0.0910102,0.146539,-0.124241,-0.0816549,0.0179672,0.0393295,0.00801086,0.0634003,-0.0150299,0.0100327,-0.0286102,-0.038681,-9.97986,-0.00904083,0.00801086,0.0135422,-0.413589,0.00865936,0.0037384,0.00610352,0.0113297
8,6,10.0097,0,-0.00289917,-2.42653,0.0569017,-0.0735371,0.0553487,0.07036,-0.0913154,0.145624,-0.124241,-0.0825704,0.0240707,0.0293732,0.0117874,0.0521088,-0.0167084,0.0115967,-0.023613,0.00411987,-9.97986,0.0158691,0.00656128,0.0142288,-0.45826,0.00724792,-0.001297,0.00541687,0.00492096
8,7,9.38222,-0.000915527,-0.00640869,-2.42776,0.0550706,-0.0729268,0.0519917,0.0190905,-0.0980293,0.150506,-0.127292,-0.0844015,0.0143814,0.0429153,0.0105667,0.0446701,-0.014267,0.0125122,-0.0207138,-0.0200653,-9.97986,0.0252151,0.00312805,0.0178909,-0.493393,-0.00167847,-0.00827789,0.00377655,0.00743866
8,8,0.180254,-0.0012207,-0.00732422,-2.42501,0.0569017,-0.073232,0.0547383,-0.00654431,-0.0974189,0.147149,-0.130039,-0.0828756,0.0124359,0.0465775,0.0122452,0.0398636,-0.0190353,0.0153732,-0.0211334,-0.0679016,-9.97986,0.0247955,0.00629425,0.0149918,-0.525398,-0.00305176,-0.00473022,0.00205994,0.00976563
8,9,-7.03685,0,-0.00701904,-2.42531,0.0562914,-0.0747579,0.054128,-0.0153944,-0.0961982,0.146844,-0.128818,-0.0825704,0.0108337,0.0334549,0.00209808,0.0338364,-0.016861,0.0196075,-0.02491,-0.0632477,-9.97986,0.0255966,0.0038147,0.016098,-0.54863,-0.0025177,-0.00267029,0.00492096,0.00839233
9,0,-9.99003,0.000915527,-0.00564575,-2.42501,0.0572069,-0.0744527,0.0547383,0.0105455,-0.0919257,0.14776,-0.129429,-0.0819601,0.00724792,0.0128937,-0.0102615,0.0309372,-0.0190353,0.0154877,-0.0263977,-0.0669098,-9.97986,0.0356674,0.00263214,0.018158,-0.576935,-0.0107956,-0.00530243,0.00434875,0.00865936
9,1,-9.99003,-0.000305176,-0.00335693,-2.4244,0.0547655,-0.0738423,0.0553487,0.0435045,-0.0903999,0.145929,-0.126377,-0.0816549,0.0102615,-0.015564,-0.020256,0.0262833,-0.0176239,0.0193787,-0.0235748,-0.0823212,-9.97986,0.0370026,-0.0018692,0.0151062,-0.588722,-0.0292587,-0.00743866,0.000686646,0.00701904
9,2,-9.99003,-0.0012207,-0.00183105,-2.42592,0.0550706,-0.0741475,0.0556539,0.0587633,-0.0919257,0.145929,-0.125766,-0.0825704,0.0122833,-0.0239182,-0.0244904,0.025444,-0.0214767,0.0205612,-0.02491,-0.114021,-9.97986,0.0424576,-0.0101089,0.0178909,-0.602417,-0.0307846,-0.00595093,0.00293732,0.00831604
9,3,-9.99003,0.00213623,-0.00198364,-2.42653,0.0550706,-0.0756734,0.0538228,0.0676134,-0.0919257,0.141961,-0.129734,-0.0847066,0.00911713,-0.0112534,-0.0199127,0.0219727,-0.0179672,0.0161362,-0.0249481,-0.11631,-9.97986,0.0425339,-0.00240326,0.0157166,-0.629616,-0.030098,-0.00926971,0.000801086,0.010376
9,4,-9.99003,0.00335693,0.000152588,-2.4247,0.0553758,-0.075063,0.0565694,0.126512,-0.0852119,0.145318,-0.122715,-0.0825704,0.0136566,-0.0012207,-0.0177383,0.019989,-0.0205612,0.0153732,-0.0326157,-0.0676727,-9.97986,0.0394821,0.00137329,0.0156784,-0.638123,-0.00102997,-0.00713348,0.000343323,0.0102615
9,5,-2.02067,0.000915527,0.00228882,-2.42806,0.0547655,-0.075063,0.055959,0.142992,-0.0885688,0.144708,-0.12241,-0.0847066,0.01297,-0.00396729,-0.0094986,0.0168228,-0.0250626,0.0167084,-0.0313187,-0.0340271,-9.97986,0.032196,-0.000762939,0.0165558,-0.648117,-0.00392914,-0.00476837,-0.00335693,0.00808716
9,6,5.73415,-0.000915527,0.00305176,-2.42837,0.0535448,-0.0759786,0.0535176,0.153978,-0.0900947,0.144403,-0.120884,-0.0859274,0.0128174,-0.00377655,-0.0117111,0.0147247,-0.0193405,0.016861,-0.0244522,-0.0201035,-9.97986,0.0282288,0.00404358,0.0127411,-0.668335,-0.00976563,-0.00202179,-0.000534058,0.00839233
9,7,10.0097,-0.000305176,0.00274658,-2.43172,0.0514085,-0.0771993,0.0513814,0.136278,-0.0937568,0.142267,-0.123325,-0.0883688,0.0102615,0.0126266,-0.0292206,0.00846863,-0.022316,0.0148392,-0.0328445,-0.0124741,-9.97986,0.0295258,0.00675201,0.0135422,-0.683823,-0.0170135,0.000152588,0.00175476,0.00823975
9,8,10.0097,0.00213623,0.000152588,-2.4305,0.0529344,-0.0756734,0.0513814,0.094774,-0.0977241,0.141351,-0.125766,-0.0883688,0.0145721,0.000762939,-0.0278473,0.00400543,-0.0207138,0.0166702,-0.0378799,-0.00423431,-9.97986,0.0317764,0.00766754,0.0127792,-0.69416,-0.0208282,0.00205994,0.00534058,0.0108719
9,9,10.0097,0.00152588,-0.000152588,-2.42959,0.0520189,-0.0762837,0.0513814,0.0779894,-0.0971137,0.141961,-0.126987,-0.0874532,0.0118256,-0.0310516,-0.00736237,0.0118637,-0.0141144,0.018425,-0.0376511,0.00797272,-9.97986,0.0336456,0.00595093,0.0183105,-0.690994,-0.02491,0.00286102,0.00312805,0.00972748
10,0,10.0097,0.000610352,-0.000305176,-2.42776,0.0535448,-0.0762837,0.0535176,0.075548,-0.0949775,0.145318,-0.127292,-0.0862325,0.00835419,-0.0205231,-0.00747681,0.00553131,-0.0167084,0.0101089,-0.0466919,0.0191498,-9.97986,0.0278091,0.00324249,0.0134277,-0.693741,-0.0369644,-0.00148773,0.00263214,0.00602722
10,1,10.0097,0.00152588,0.000305176,-2.42776,0.0553758,-0.0756734,0.0516866,0.0712755,-0.0946723,0.144708,-0.126987,-0.0856222,0.0110245,0.00347137,-0.00225067,0.00743866,-0.0150299,0.0136566,-0.0484467,0.0511551,-9.97986,0.0249863,0.00263214,0.0167084,-0.680084,-0.0417328,-0.00263214,0.00686646,0.00572205
10,2,10.0097,-0.000915527,0.00152588,-2.42776,0.0538499,-0.0744527,0.0535176,0.07036,-0.0931465,0.145013,-0.126377,-0.085317,0.00175476,0.00976563,-0.00961304,0.00553131,-0.0120544,0.00846863,-0.0558853,0.0647736,-9.97986,0.019989,-0.0037384,0.017662,-0.659599,-0.0500107,-0.00324249,0.00595093,0.00984192
10,3,10.0097,0.000610352,0.00152588,-2.42592,0.0562914,-0.0747579,0.0547383,0.0706652,-0.0931465,0.144403,-0.126377,-0.0834859,0.00679016,0.00614166,0.00171661,0.00541687,-0.0116348,0.00946045,-0.0640106,0.0647736,-9.97986,0.0108719,0.00175476,0.0163269,-0.648232,-0.0563049,-7.62939e-005,0.00663757,0.00579834
10,4,10.0097,0.000305176,0.00137329,-2.42623,0.0559862,-0.0735371,0.0544332,0.0715807,-0.0922309,0.147455,-0.12363,-0.0813497,0.00553131,0.0118256,0.0127029,0.00450134,-0.0117874,0.00465393,-0.0722122,0.0862885,-9.97986,0.00518799,0.0056839,0.0165939,-0.629845,-0.0537491,0.0037384,0.00965118,0.00694275
10,5,10.0097,-0.000305176,0.00183105,-2.42562,0.055681,-0.0741475,0.0544332,0.0724962,-0.0913154,0.146844,-0.124241,-0.080129,0.0109863,0.0214386,0.0204849,0.0069046,-0.00526428,0.00545502,-0.0719452,0.120697,-9.97986,0.00392914,0.00789642,0.016861,-0.607224,-0.057869,0.000648499,0.00953674,0.0062561
10,6,10.0097,0,0.00366211,-2.42837,0.0553758,-0.0738423,0.0544332,0.0691393,-0.0919257,0.14776,-0.124546,-0.080129,0.0147629,0.034523,0.0298309,0.00434875,-0.0037384,0.00728607,-0.0780106,0.123138,-9.97986,-0.00255585,0.0030899,0.0160217,-0.571938,-0.0564194,0.001297,0.0162888,0.0110245
10,7,9.2928,0,0.00106812,-2.42653,0.0575121,-0.075063,0.0519917,0.0203112,-0.0980293,0.145929,-0.128208,-0.0825704,0.0184631,0.0313568,0.0284576,-0.00232697,-0.00198364,0.0088501,-0.0836563,0.105591,-9.97986,-0.00202179,0.00926971,0.0154877,-0.533295,-0.055542,-0.00232697,0.0128555,0.00759125
10,8,0.0859549,-0.000915527,-0.00228882,-2.42379,0.0565965,-0.0741475,0.0532125,-0.00501844,-0.0968086,0.147149,-0.129123,-0.0789083,0.0203323,0.0102234,0.0161362,-0.00541687,-0.0025177,0.014534,-0.088768,0.0914764,-9.97986,0.00778198,0.0152969,0.0149918,-0.508041,-0.0563431,-0.000305176,0.0125504,0.0110626
10,9,-7.13572,0.0012207,-0.00198364,-2.42379,0.0569017,-0.0735371,0.054128,-0.0163099,-0.0961982,0.146234,-0.130344,-0.0810445,0.0192261,0.00419617,0.00507355,-0.00865936,0.000762939,0.0170898,-0.0915909,0.0547409,-9.97986,0.0115204,0.0117493,0.0115585,-0.489006,-0.0556183,-0.00213623,0.015831,0.00865936
11,0,-9.99003,-0.000915527,-0.00137329,-2.4247,0.0559862,-0.073232,0.0544332,0.0120714,-0.0931465,0.145013,-0.128818,-0.0807394,0.0146103,0.0152969,0.0112915,-0.0105667,-0.000457764,0.0131607,-0.0920486,0.0201035,-9.97986,0.00587463,0.0108337,0.0168991,-0.467339,-0.0597382,0.00087738,0.014267,0.00682831
11,1,-9.99003,-0.000915527,0.000305176,-2.42501,0.0562914,-0.0741475,0.0568746,0.0450304,-0.090705,0.147149,-0.126377,-0.0792135,0.00434875,0.0122452,0.0200272,-0.0143433,0.000648499,0.0198364,-0.093689,0.00228882,-9.97986,0.0136948,0.00530243,0.0163651,-0.444908,-0.0761032,0.00556946,0.0122833,0.0104141
11,2,-9.99003,0.00152588,0.00167847,-2.42531,0.0544603,-0.0738423,0.0550435,0.0602892,-0.0900947,0.145318,-0.126072,-0.0813497,-0.000114441,0.019722,0.0218201,-0.0185776,0.00328064,0.0188065,-0.0967407,-0.0331879,-9.97986,0.015831,0.00450134,0.0165176,-0.427399,-0.071106,0.000915527,0.0144196,0.0104141
11,3,-9.99003,-0.000610352,0.00213623,-2.42653,0.0553758,-0.0756734,0.054128,0.0663927,-0.0928413,0.145013,-0.126377,-0.0831808,0.00587463,0.0143051,0.0208664,-0.0163269,0.00442505,0.0186157,-0.0935364,-0.0379562,-9.97986,0.00915527,0.00274658,0.0129318,-0.406876,-0.0705719,-0.00621796,0.0119781,0.00980377
11,4,-9.99003,0.000610352,0.00442505,-2.42592,0.0553758,-0.0744527,0.0565694,0.126207,-0.0849067,0.145929,-0.121799,-0.0813497,0.0174332,0.0192261,0.0330734,-0.0063324,0.00457764,0.0234604,-0.0913239,-0.04776,-9.97986,0.00972748,0.00293732,0.016861,-0.381432,-0.0440216,-0.00423431,0.0111008,0.0102615
11,5,-2.39726,0.000610352,0.00595093,-2.42623,0.0541551,-0.0768941,0.0547383,0.143907,-0.0879585,0.143792,-0.121494,-0.0837911,0.0187302,0.0253296,0.0383377,-0.00450134,0.00770569,0.0238419,-0.0947571,-0.0680542,-9.97986,0.00778198,0.00259399,0.0130844,-0.34771,-0.0460815,-0.00934601,0.0125122,0.00793457
11,6,5.65602,0.000610352,0.00732422,-2.42837,0.0538499,-0.0753682,0.054128,0.153978,-0.0900947,0.144098,-0.121799,-0.0840963,0.0159836,0.0238419,0.0301361,0.00450134,0.00850677,0.024147,-0.0953674,-0.0391769,-9.97986,0.00946045,0.00213623,0.0137711,-0.313225,-0.0479889,-0.00926971,0.0150299,0.0104141
11,7,10.0097,0.000915527,0.00778198,-2.42959,0.0538499,-0.0762837,0.0510762,0.137499,-0.0937568,0.142267,-0.12241,-0.0877584,0.00888824,0.0288773,0.0311661,0.00495911,0.00770569,0.0259781,-0.103645,-0.00667572,-9.97986,0.00659943,0.00270844,0.0148392,-0.2771,-0.0508118,-0.00881195,0.0112152,0.0108719
11,8,10.0097,0.000915527,0.00457764,-2.42928,0.0532396,-0.0768941,0.050771,0.0941637,-0.0971137,0.142572,-0.125766,-0.0871481,0.00576019,0.0335312,0.0392532,0.0118637,0.0133514,0.0269699,-0.103912,0.0168228,-9.97986,0.00190735,0.00183105,0.0177002,-0.232811,-0.0478745,-0.00411987,0.0148392,0.0106049
11,9,10.0097,-0.000610352,0.00396729,-2.42867,0.0532396,-0.0756734,0.0516866,0.0801256,-0.0971137,0.144403,-0.126987,-0.0859274,0.00640869,0.0315475,0.0365067,0.0114059,0.0146866,0.0335312,-0.0971603,0.042572,-9.97986,0.00190735,0.000534058,0.0157547,-0.198059,-0.0532532,-0.00656128,0.0113297,0.00549316
12,0,10.0097,0.0012207,0.00335693,-2.42837,0.0535448,-0.0759786,0.0513814,0.0746324,-0.0952827,0.143487,-0.126682,-0.085317,0.0150299,0.0312424,0.027504,-0.00286102,0.00816345,0.0305557,-0.0978088,0.0559616,-9.97986,0.0159073,0.00213623,0.0182343,-0.1717,-0.049324,-0.00354767,0.0118256,0.00988007
12,1,10.0097,-0.000915527,0.00274658,-2.42776,0.0553758,-0.0747579,0.0516866,0.0724962,-0.0937568,0.144708,-0.126377,-0.0847066,0.0113678,0.0150299,0.0243759,-0.00205994,0.00869751,0.0311279,-0.091362,0.0821686,-9.97986,0.0189972,0.00038147,0.0188828,-0.146179,-0.0508499,0.00141144,0.0140762,0.00595093
12,2,10.0097,-0.000610352,0.00259399,-2.42714,0.0550706,-0.0738423,0.0544332,0.0694445,-0.0949775,0.144403,-0.126682,-0.0840963,0.00202179,0.00789642,0.0175858,-0.0254822,0.0146484,0.0332642,-0.0911713,0.0851822,-9.97986,0.0177002,0.00553131,0.0211716,-0.125809,-0.0481033,0.00175476,0.0111008,0.0101471
12,3,10.0097,0.000610352,0.00244141,-2.42684,0.0559862,-0.0735371,0.054128,0.0724962,-0.0922309,0.145318,-0.125766,-0.0834859,-0.00591278,0.0113297,0.0196457,-0.0335312,0.0202179,0.0304031,-0.0900269,0.083046,-9.97986,0.0172424,-0.00331879,0.0204849,-0.102882,-0.0475311,0.0030899,0.0141907,0.00915527
12,4,10.0097,0,0.00228882,-2.42653,0.0569017,-0.073232,0.0553487,0.0712755,-0.0919257,0.147149,-0.124851,-0.0810445,-0.00801086,0.0258255,0.0199509,0.000534058,0.0185776,0.0376129,-0.0799179,0.0984573,-9.97986,0.00526428,-0.00434875,0.0161362,-0.0809479,-0.053215,0.00347137,0.0136185,0.0101852
12,5,10.0097,-0.00366211,0.00244141,-2.42379,0.0559862,-0.0756734,0.0544332,0.0694445,-0.0919257,0.146234,-0.123935,-0.0807394,-0.0123978,0.0201416,0.0117493,0.00602722,0.0174713,0.036087,-0.0797653,0.0776672,-9.97986,-0.00732422,-0.0119781,0.0196457,-0.0553894,-0.0489044,0.000801086,0.0112915,0.0104523
12,6,10.0097,0.00244141,0.00244141,-2.42623,0.0575121,-0.0747579,0.0544332,0.0712755,-0.0925361,0.146844,-0.124241,-0.0807394,-0.013504,0.0381088,0.0123215,0.00591278,0.0203323,0.0409698,-0.0766373,0.0598145,-9.97986,-0.0121307,-0.00709534,0.0194168,-0.0335693,-0.0416946,-0.00038147,0.0134277,0.0104904
12,7,9.26839,0.000915527,0,-2.42684,0.0559862,-0.0738423,0.0526021,0.0175646,-0.09925,0.145929,-0.128208,-0.0822652,-0.00915527,0.0541687,0.0172424,0.0154495,0.0152588,0.042038,-0.0741196,0.077858,-9.97986,-0.0104904,-0.00663757,0.0225067,-0.0184631,-0.0372696,-0.000915527,0.0101852,0.00972748
12,8,0.0227836,0.000305176,-0.00289917,-2.42409,0.0569017,-0.0738423,0.0526021,-0.00501844,-0.0965034,0.145624,-0.128513,-0.0813497,0.00896454,0.0428391,0.0188065,0.0365829,0.0206375,0.0426102,-0.064621,0.0777054,-9.97986,0.000114441,-0.00629425,0.0196838,-0.0094986,-0.030899,-0.00282288,0.00816345,0.0082016
12,9,-7.18181,-0.00213623,-0.00335693,-2.42592,0.0572069,-0.0735371,0.0556539,-0.0147841,-0.0949775,0.146844,-0.130039,-0.0813497,0.0254822,0.0262833,0.013237,0.0371933,0.0112534,0.0349426,-0.0667572,0.00637054,-9.97986,0.00499725,-0.00530243,0.0213623,0.00255585,-0.019989,0.000152588,0.0107574,0.00839233
13,0,-9.99003,-0.00213623,-0.00259399,-2.42501,0.0569017,-0.0735371,0.0565694,0.0108507,-0.0922309,0.145318,-0.128818,-0.0816549,0.0299072,0.0231171,0.0170517,0.0297928,0.019455,0.0399399,-0.0623703,-0.118637,-9.97986,0.0152969,-0.00278473,0.021553,0.00320435,-0.0274277,0.000114441,0.00984192,0.0104523
13,1,-9.99003,0.000305176,-0.000610352,-2.42501,0.0550706,-0.0744527,0.0562642,0.0456407,-0.0903999,0.144708,-0.127292,-0.0807394,0.0279617,0.0226593,0.0220108,0.0304031,0.0194168,0.0377655,-0.0561523,-0.140266,-9.97986,0.0306702,-0.00556946,0.0206375,0.00156403,-0.0378418,-0.00102997,0.0105286,0.0094223
13,2,-9.99003,0.00305176,0.000305176,-2.42501,0.0559862,-0.0741475,0.0556539,0.0596788,-0.0897895,0.145929,-0.126682,-0.0828756,0.0433731,0.0263977,0.018158,0.0380707,0.0178146,0.0399399,-0.0511169,-0.0562668,-9.97986,0.0508499,-0.00801086,0.0240707,0.0115967,-0.0370026,0.00164032,0.0153732,0.0100327
13,3,-9.99003,0.0012207,0.00152588,-2.42684,0.0550706,-0.0744527,0.0538228,0.065172,-0.0913154,0.144403,-0.126682,-0.0834859,0.0380325,0.0323868,0.018158,0.0292587,0.0176239,0.0383759,-0.0501251,0.00576019,-9.97986,0.0549698,-0.00720978,0.0238037,0.0213242,-0.0315857,-0.00118256,0.0130463,0.0104523
13,4,-9.99003,0.00213623,0.00289917,-2.42562,0.0562914,-0.0741475,0.0577901,0.133531,-0.0833808,0.145624,-0.120578,-0.0810445,0.0165176,0.070076,0.0183868,0.0225067,0.0222015,0.0447845,-0.0404739,0.0440598,-9.97986,0.050621,-0.00408173,0.0217819,0.0289917,-0.00457764,-0.00621796,0.0137329,0.0117111
13,5,-2.3347,-0.000305176,0.00396729,-2.42745,0.0535448,-0.0765889,0.0544332,0.143602,-0.0891792,0.143792,-0.121799,-0.0844015,0.00736237,0.060997,0.0192642,0.0247574,0.0218201,0.04673,-0.029068,0.0543213,-9.97986,0.0392914,-0.00778198,0.0257111,0.0354004,-0.00274658,-0.00274658,0.012207,0.00823975
13,6,5.68654,0,0.0050354,-2.42745,0.0550706,-0.0753682,0.0538228,0.155504,-0.0885688,0.144098,-0.120273,-0.0847066,0.00480652,0.0105286,0.0135422,0.0253296,0.0199127,0.0508118,-0.0236893,0.0185394,-9.97986,0.0322723,-0.0174332,0.0231934,0.0409698,-0.00160217,0.00156403,0.0108337,0.00972748
13,7,10.0097,-0.000610352,0.00564575,-2.4305,0.0526292,-0.0771993,0.0516866,0.139635,-0.094062,0.142877,-0.124241,-0.0868429,0.0204086,0.00610352,0.0134277,0.0254059,0.0196457,0.0487518,-0.0138855,-0.0540161,-9.97986,0.037117,-0.0139618,0.0249863,0.0566483,-0.0038147,-0.00217438,0.0126266,0.00915527
13,8,10.0097,0.0012207,0.00244141,-2.42898,0.0535448,-0.0759786,0.0498555,0.0938585,-0.0968086,0.142267,-0.125766,-0.0889791,0.0154877,0.0121307,0.0203705,0.0223923,0.0200653,0.0537872,-0.00831604,-0.0832367,-9.97986,0.0243378,-0.015564,0.0222778,0.0632477,-0.00564575,-0.00366211,0.0116348,0.00679016
13,9,10.0097,0.000915527,0.000762939,-2.42959,0.0532396,-0.0768941,0.050771,0.0801256,-0.0965034,0.144403,-0.127598,-0.0883688,0.00904083,0.0244141,0.0226212,0.0140381,0.0198364,0.0536346,-0.000762939,-0.0705719,-9.97986,0.0170135,-0.00473022,0.0251007,0.0709534,-0.0141144,-0.0063324,0.0106049,0.00816345
14,0,10.0097,0.000610352,0.000915527,-2.42806,0.0547655,-0.0753682,0.0522969,0.0752428,-0.0949775,0.144098,-0.126682,-0.0868429,0.00190735,0.0345993,0.0162888,0.00411987,0.0193024,0.0537872,0.000457764,-0.094223,-9.97986,0.0171661,-0.00274658,0.0282288,0.0818634,-0.0162506,-0.00629425,0.00694275,0.0100327
14,1,10.0097,0.00274658,0.0012207,-2.42623,0.0550706,-0.075063,0.0526021,0.072191,-0.0946723,0.143792,-0.125461,-0.0859274,0.00473022,0.0396729,0.00934601,0.0113297,0.0190353,0.0524521,0.00610352,-0.0844955,-9.97986,0.0124359,-0.00602722,0.025444,0.0930023,-0.0159073,-0.00396729,0.00953674,0.00488281
14,2,10.0097,0.00183105,0.000915527,-2.42684,0.0550706,-0.0753682,0.0529073,0.072191,-0.094062,0.145013,-0.126377,-0.0847066,0.00679016,0.0346756,0.00591278,0.0125885,0.0252151,0.0525284,0.00656128,-0.0472641,-9.97986,0.0117493,-0.00816345,0.0270081,0.100403,-0.015831,-0.00167847,0.010376,0.00865936
14,3,10.0097,0.000915527,0.00137329,-2.42592,0.0565965,-0.075063,0.0544332,0.0712755,-0.094062,0.144708,-0.124851,-0.0834859,0.00965118,0.0289536,0.0104904,0.0166702,0.0234604,0.0527954,0.0117493,0.00156403,-9.97986,0.00854492,-0.00679016,0.0255966,0.102425,-0.0228119,-0.00209808,0.00923157,0.00808716
14,4,10.0097,-0.000305176,0.000762939,-2.42592,0.0547655,-0.073232,0.0538228,0.0728014,-0.0922309,0.146844,-0.12363,-0.0828756,0.00770569,0.0310898,0.00785828,0.0112152,0.0229645,0.0540543,0.0143814,0.0294113,-9.97986,0.00617981,-0.000953674,0.0227737,0.107536,-0.0225067,0.00038147,0.0125504,0.00827789
14,5,10.0097,0.000305176,0.000305176,-2.42501,0.0553758,-0.0738423,0.0544332,0.0706652,-0.0919257,0.146844,-0.124546,-0.0819601,0.00114441,0.029068,0.00888824,0.00736237,0.0279617,0.0607681,0.0152588,-0.00274658,-9.97986,0.00213623,0.00247955,0.0297165,0.109406,-0.0257111,-0.00240326,0.0119019,0.00720978
14,6,10.0097,0.000915527,0.000152588,-2.42501,0.0559862,-0.0747579,0.0547383,0.0712755,-0.0922309,0.146539,-0.124241,-0.0819601,0.00152588,0.0356293,0.0142288,-0.00141144,0.0268555,0.0606155,0.0177002,-0.0213242,-9.97986,-0.00270844,-0.00617981,0.0281525,0.116196,-0.0265503,0.00247955,0.00972748,0.00946045
14,7,9.41518,0.00335693,-0.0012207,-2.42837,0.0559862,-0.0744527,0.0513814,0.0203112,-0.0974189,0.146234,-0.128208,-0.0828756,0.010376,0.056839,0.0215149,-0.0025177,0.028038,0.0601196,0.0180435,0.0186539,-9.97986,0.00179291,-0.00778198,0.0292587,0.124664,-0.0283432,-0.0025177,0.00938416,0.00797272
14,8,0.199175,0.00183105,-0.00427246,-2.4244,0.0565965,-0.073232,0.0535176,-0.00745984,-0.0965034,0.145318,-0.129429,-0.0822652,0.014534,0.0645065,0.0230789,-0.0164413,0.029068,0.0620651,0.0166321,0.0431061,-9.97986,0.0120544,-0.00629425,0.0307846,0.125542,-0.0310516,-0.00232697,0.0115967,0.00831604
14,9,-6.97551,-0.000610352,-0.00457764,-2.42592,0.055681,-0.0747579,0.0547383,-0.0153944,-0.0961982,0.146844,-0.130344,-0.0792135,0.0122452,0.0553131,0.0234985,-0.0569916,0.0299072,0.0659561,0.0202942,0.0531769,-9.97986,0.0181198,-0.00164032,0.0261307,0.125618,-0.0320816,-0.000228882,0.0109482,0.00862122
15,0,-9.99003,0.000610352,-0.00259399,-2.42348,0.0559862,-0.075063,0.055959,0.0084093,-0.0925361,0.146234,-0.129123,-0.0816549,0.0114822,0.0340271,0.022583,-0.0862122,0.0304031,0.0636673,0.0217819,0.0541306,-9.97986,0.023613,0.00301361,0.0364304,0.13195,-0.0406647,-0.000572205,0.0088501,0.0119781
15,1,-9.99003,0.000305176,-0.00106812,-2.42379,0.0550706,-0.0738423,0.055959,0.0435045,-0.0900947,0.146539,-0.126987,-0.0810445,0.00965118,0.0128937,0.0214386,-0.0411606,0.0299454,0.0684357,0.0233459,0.0398254,-9.97986,0.0212097,0.0123596,0.0320816,0.132637,-0.0580597,-0.00221252,0.00717163,0.00644684
15,2,-9.99003,0.00152588,-0.000152588,-2.42714,0.055681,-0.0735371,0.0587056,0.0590685,-0.0910102,0.146234,-0.125766,-0.0822652,0.00110626,0.016861,0.035553,-3.8147e-005,0.0305939,0.0653458,0.0267792,0.0578308,-9.97986,0.0236511,0.0120163,0.0336456,0.138893,-0.056572,-0.00534058,0.0119781,0.0111771
15,3,-9.99003,0.00244141,-0.000152588,-2.42562,0.0553758,-0.0747579,0.0553487,0.067003,-0.0922309,0.144708,-0.125156,-0.0834859,0.00179291,0.0254059,0.0501251,0.00396729,0.0288773,0.0648117,0.0236893,0.0806808,-9.97986,0.0244904,0.0110245,0.0354385,0.135117,-0.0534439,-0.00583649,0.00541687,0.00659943
15,4,-9.85454,-0.000305176,0.00289917,-2.42592,0.0550706,-0.0744527,0.0568746,0.123461,-0.0864326,0.146844,-0.12241,-0.0825704,0.00198364,0.0353622,0.0705338,0.025444,0.0350952,0.0696564,0.0200653,0.074501,-9.97986,0.0166702,0.00392914,0.0308609,0.135841,-0.0206757,-0.00324249,0.00675201,0.00511169
15,5,-2.1873,0.000610352,0.00335693,-2.42776,0.0547655,-0.0753682,0.0538228,0.142992,-0.0879585,0.145624,-0.121799,-0.0850118,0.00606537,0.038414,0.0786972,0.0346756,0.036087,0.0678635,0.0257492,0.0602341,-9.97986,0.0113297,0.00556946,0.0339127,0.14225,-0.0160217,-0.01297,0.00858307,0.00652313
15,6,5.82204,0.000915527,0.00595093,-2.42714,0.0535448,-0.0759786,0.0544332,0.154588,-0.088874,0.143487,-0.120884,-0.0856222,0.0155258,0.043869,0.0812912,0.0337219,0.0357056,0.0652695,0.0262451,0.0479507,-9.97986,0.0157928,0.00751495,0.0362396,0.143204,-0.0114441,-0.0112152,0.00705719,0.00953674
15,7,10.0097,0.00152588,0.00457764,-2.43081,0.0541551,-0.0775044,0.0501607,0.134447,-0.0943672,0.143487,-0.12241,-0.0880636,0.0196457,0.0378418,0.0932312,0.0178528,0.0416946,0.0645447,0.0221634,0.050621,-9.97986,0.0138092,0.00339508,0.0299454,0.143547,-0.0112915,-0.00904083,0.0104523,0.0094986
15,8,10.0097,0.00152588,0.00137329,-2.43172,0.0535448,-0.0771993,0.04894,0.0935533,-0.0965034,0.144403,-0.125461,-0.0895895,0.0233459,0.0424194,0.0892258,0.0245285,0.036087,0.0629044,0.0226974,0.0465012,-9.97986,0.0123596,0.0087738,0.034256,0.143661,-0.0117874,-0.00492096,0.00862122,0.00732422
15,9,10.0097,0.000610352,0,-2.42837,0.0535448,-0.0759786,0.0501607,0.0789049,-0.0974189,0.143182,-0.128208,-0.0883688,0.0162506,0.0485992,0.0898361,0.0426102,0.0393295,0.0674438,0.0260162,0.0447083,-9.97986,0.00972748,0.00999451,0.0327682,0.14286,-0.0156784,0.00335693,0.0114822,0.00572205
16,0,10.0097,-0.000305176,-0.000152588,-2.42867,0.0541551,-0.075063,0.0516866,0.0734117,-0.0955879,0.143792,-0.127292,-0.0865377,0.00976563,0.0405884,0.0756454,0.0508499,0.0401306,0.0655746,0.0253677,0.0483704,-9.97986,0.00736237,0.0122833,0.0299835,0.137558,-0.0164413,0.00747681,0.0135422,0.00911713
16,1,10.0097,0.000610352,0,-2.42745,0.0538499,-0.0747579,0.0532125,0.072191,-0.0949775,0.143487,-0.126682,-0.0859274,0.0102234,0.0203323,0.0688171,0.0283051,0.03685,0.0570679,0.0200272,0.0567245,-9.97986,0.00766754,0.0182724,0.0329971,0.136414,-0.0199509,0.00869751,0.00915527,0.00640869
16,2,10.0097,0.000610352,-0.000305176,-2.42714,0.0550706,-0.0747579,0.0535176,0.0697496,-0.0931465,0.142877,-0.126072,-0.0850118,0.00934601,-0.0164795,0.0471497,0,0.0410461,0.0588226,0.0244522,0.0585556,-9.97986,0.00816345,0.014534,0.0339508,0.13485,-0.0218964,0.0146866,0.0106812,0.0115585
16,3,10.0097,0.00152588,-0.000305176,-2.42592,0.0547655,-0.073232,0.0538228,0.07036,-0.0931465,0.146234,-0.125156,-0.0834859,0.00686646,-0.00286102,0.02285,0.00480652,0.0356674,0.0556564,0.0258636,0.0662231,-9.97986,0.00461578,0.0101471,0.0265884,0.127678,-0.0202942,0.0110626,0.00743866,0.0125122
16,4,10.0097,0.000610352,-0.000152588,-2.42592,0.0562914,-0.0735371,0.055959,0.0712755,-0.0913154,0.146539,-0.124851,-0.0828756,0.0130463,0.0340652,0.0177002,0.0211716,0.0384521,0.0543976,0.0232697,0.0885773,-9.97986,-0.00457764,0.00862122,0.0297165,0.129585,-0.0178528,0.00789642,0.00980377,0.00850677
16,5,10.0097,-0.000915527,0.000457764,-2.42379,0.0565965,-0.0738423,0.0553487,0.0709703,-0.0913154,0.146234,-0.124241,-0.0810445,0.0118256,0.0463104,0.0148773,0.0177383,0.0419235,0.0519562,0.0265121,0.0515747,-9.97986,-0.00267029,0.00892639,0.0281906,0.130615,-0.0161362,0.00598907,0.0113678,0.00953674
16,6,10.0097,0.000305176,0,-2.42714,0.055681,-0.0744527,0.0547383,0.07036,-0.0903999,0.146234,-0.123935,-0.0816549,0.0123215,0.0518799,-0.00396729,0.046463,0.0416946,0.0469589,0.027771,0.0177383,-9.97986,0.00587463,0.00617981,0.0308609,0.12825,-0.00984192,0.00213623,0.00667572,0.00629425
16,7,9.44509,-0.000305176,-0.00274658,-2.42745,0.0559862,-0.0741475,0.050771,0.0190905,-0.0980293,0.146844,-0.128513,-0.0844015,0.0151443,0.0402069,-0.0159073,0.0684357,0.0437546,0.0409698,0.0281906,0.0323868,-9.97986,0.0174713,0.00404358,0.0275803,0.131493,-0.00667572,0.000495911,0.00720978,0.00938416
16,8,0.25899,0,-0.00442505,-2.42348,0.0587328,-0.0723164,0.0526021,-0.00440808,-0.0952827,0.146234,-0.129429,-0.0813497,0.0150299,0.0223923,-0.0291443,0.0689316,0.0373077,0.0376511,0.0300217,0.0575638,-9.97986,0.0163651,0.00789642,0.0272369,0.132637,-0.00442505,-0.00518799,0.00999451,0.00968933
16,9,-6.94133,0,-0.00457764,-2.4247,0.0562914,-0.0744527,0.0538228,-0.0166151,-0.095893,0.145318,-0.129123,-0.0804342,0.0118637,0.015831,-0.0282288,0.0548553,0.0402069,0.0351715,0.0324249,0.0630569,-9.97986,0.0199127,0.0105667,0.026474,0.131454,-0.0018692,-0.0117111,0.00720978,0.00965118
17,0,-9.99003,-0.000610352,-0.00396729,-2.42531,0.0569017,-0.0744527,0.0574849,0.0105455,-0.0931465,0.145929,-0.128208,-0.0804342,0.00598907,0.0178909,-0.0245285,0.0440598,0.0396729,0.0305176,0.0385666,0.055275,-9.97986,0.0146103,0.0154495,0.0258255,0.126762,-0.00457764,-0.00740051,0.0123978,0.00789642
17,1,-9.99003,0.00183105,-0.00106812,-2.42592,0.055681,-0.0747579,0.0550435,0.042589,-0.088874,0.145624,-0.127292,-0.0819601,0.000534058,0.0164413,-0.00450134,0.0417709,0.0397491,0.0276947,0.0405502,0.0220871,-9.97986,0.0102615,0.0172806,0.0233459,0.127449,-0.0237274,-0.00579834,0.0128174,0.0105286
17,2,-9.99003,0,-0.000305176,-2.42592,0.0550706,-0.073232,0.0565694,0.0578478,-0.0913154,0.146539,-0.126072,-0.0822652,0.00518799,0.00228882,0.00255585,0.0479889,0.0370026,0.0236511,0.0353241,0.0292206,-9.97986,-0.00816345,0.0132751,0.0242996,0.130081,-0.016098,-0.00915527,0.0112152,0.0102234
17,3,-9.99003,0.00152588,-0.000152588,-2.42623,0.055681,-0.0747579,0.0544332,0.0666979,-0.0919257,0.144708,-0.125461,-0.0834859,0.0115204,-0.00343323,0.00514984,0.0577927,0.0328445,0.0214005,0.0415421,0.0788116,-9.97986,-0.00701904,0.0104904,0.0205612,0.127602,-0.0159454,-0.0152588,0.00919342,0.0115585
17,4,-9.99003,0.00244141,0.0012207,-2.42531,0.0559862,-0.0744527,0.0571797,0.129564,-0.0842964,0.145929,-0.122104,-0.0819601,0.0157547,0.0254059,0.00320435,0.0785065,0.0352859,0.0180435,0.0454712,0.119476,-9.97986,-0.00408173,0.00637054,0.0216675,0.124664,0.0151062,-0.0110626,0.00747681,0.0127411
17,5,-2.10307,0.000915527,0.00320435,-2.42714,0.0550706,-0.0759786,0.0544332,0.146349,-0.0882636,0.143792,-0.121189,-0.0844015,0.00564575,0.0334549,0.0120544,0.0727463,0.0333405,0.00865936,0.0506973,0.146828,-9.97986,0.00759125,0.000228882,0.0197983,0.125427,0.0153732,-0.00114441,0.0114441,0.0101852
17,6,5.96181,0.000610352,0.00457764,-2.42714,0.0541551,-0.075063,0.0535176,0.154588,-0.088874,0.143182,-0.12241,-0.0856222,0.00324249,0.0163269,0.00953674,0.0362396,0.0320053,0.0127029,0.050354,0.190964,-9.97986,0.0210571,0.00244141,0.017128,0.128517,0.022049,0.00629425,0.0129318,0.0117111
17,7,10.0097,-0.00183105,0.00427246,-2.43081,0.0532396,-0.0756734,0.0504659,0.133837,-0.094062,0.143792,-0.12363,-0.0871481,0.00366211,0.0239563,0.0148773,0.0158691,0.0307465,0.00476837,0.0491714,0.138664,-9.97986,0.0252151,0.00274658,0.0197983,0.124435,0.0208664,0.0100327,0.0134659,0.0115204
17,8,10.0097,-0.00213623,0,-2.42989,0.0547655,-0.0765889,0.0516866,0.0935533,-0.0980293,0.141961,-0.125766,-0.0883688,0.00255585,0.0405884,0.0112915,0.0217819,0.0282669,0.00144958,0.0500488,0.00656128,-9.97986,0.0183868,0.00255585,0.0191879,0.118446,0.0253677,0.00553131,0.0111008,0.0152588
17,9,10.0097,-0.00183105,0,-2.42898,0.0538499,-0.075063,0.0519917,0.0798204,-0.0971137,0.143792,-0.125156,-0.0880636,0.00816345,0.070343,0.00312805,0.0192642,0.0318909,-0.00907898,0.0489426,-0.0873947,-9.97986,0.00869751,0.00671387,0.0191879,0.117989,0.0279617,0.0104141,0.0128555,0.0124359
18,0,10.0097,-0.00305176,0.000152588,-2.42867,0.0544603,-0.0753682,0.0532125,0.0734117,-0.0955879,0.144708,-0.125461,-0.0874532,0.0087738,0.0816727,0.00228882,0.0152588,0.0249481,-0.00740051,0.0540161,-0.179367,-9.97986,0.00862122,0.00358582,0.0143814,0.119209,0.0266266,0.0063324,0.0135422,0.0136566
18,1,10.0097,0.000610352,0.000152588,-2.42684,0.0547655,-0.0756734,0.0544332,0.0715807,-0.094062,0.143792,-0.126987,-0.0859274,0.0203705,0.0515747,0.00720978,0.014267,0.0274277,-0.00988007,0.0525284,-0.196953,-9.97986,0.00957489,0.00602722,0.0184631,0.116882,0.0236893,0.0063324,0.00869751,0.0108337
18,2,10.0097,0.0012207,0,-2.42837,0.0562914,-0.0756734,0.0532125,0.0700548,-0.0925361,0.143792,-0.126072,-0.0831808,0.0268173,0.0109863,0.000228882,0.00923157,0.022583,-0.0152588,0.054245,-0.117645,-9.97986,0.0111771,-0.00205994,0.0193024,0.119743,0.0263596,-0.000762939,0.013237,0.0164413
18,3,10.0097,0,0.000152588,-2.42623,0.0550706,-0.0747579,0.0538228,0.0700548,-0.0943672,0.145013,-0.126072,-0.0840963,0.029068,0.00125885,-0.000686646,0.00530243,0.0199509,-0.0251007,0.0617981,-0.115662,-9.97986,0.0115967,-0.0119019,0.017662,0.122604,0.0271988,-0.00602722,0.0166321,0.0146484
18,4,10.0097,0.00152588,0.000915527,-2.42592,0.0565965,-0.0741475,0.0550435,0.0709703,-0.0913154,0.147455,-0.125461,-0.0828756,0.0252533,0.00991821,0.00598907,0.00602722,0.0255966,-0.0247955,0.0627899,-0.100594,-9.97986,0.0111389,-0.021286,0.0152206,0.124817,0.030632,-0.0122833,0.0143433,0.0149536
18,5,10.0097,0.00396729,0.000305176,-2.42562,0.0581224,-0.073232,0.0544332,0.0718859,-0.0919257,0.147149,-0.123935,-0.0822652,0.0109482,0.0351715,0.0120926,0.00434875,0.0238419,-0.035553,0.0569916,0.00469208,-9.97986,0.0141144,-0.0186539,0.018692,0.126953,0.0366592,-0.0094986,0.0153732,0.0151825
18,6,10.0097,0.000915527,-0.000152588,-2.4244,0.0562914,-0.0717061,0.054128,0.07036,-0.0919257,0.14776,-0.123935,-0.0813497,-0.00114441,0.0510025,0.0207901,0.00259399,0.0113678,-0.0315857,0.0621414,0.102921,-9.97986,0.0166702,-0.0128937,0.0209808,0.129051,0.0355148,-0.00747681,0.00766754,0.0139999
18,7,9.28151,0,-0.00152588,-2.42684,0.0559862,-0.075063,0.0522969,0.0184801,-0.0986396,0.146234,-0.127903,-0.0825704,0.00350952,0.0294113,0.0131607,-0.00301361,0.0153351,-0.0377655,0.063858,0.128212,-9.97986,0.0154495,-0.0115585,0.0249863,0.130692,0.0403214,-0.00770569,0.0122833,0.0130844
18,8,-0.00285121,-0.000915527,-0.00427246,-2.42653,0.055681,-0.0738423,0.0526021,-0.00654431,-0.0983344,0.145929,-0.129123,-0.0792135,0.00106812,0.0144577,0.00087738,0.000762939,0.0141144,-0.0429535,0.0619125,0.102539,-9.97986,0.0204086,-0.00724792,0.0183487,0.130196,0.0399399,-0.0112534,0.010643,0.0124741
18,9,-7.1342,-0.00244141,-0.0050354,-2.42409,0.0578172,-0.0744527,0.0532125,-0.0153944,-0.0961982,0.147149,-0.130039,-0.0822652,0.00713348,0.0228882,-0.000190735,0.00209808,0.017395,-0.0444031,0.0666046,0.0494003,-9.97986,0.0311279,-0.00377655,0.0188446,0.126801,0.0430298,-0.0069046,0.0135422,0.0152969
19,0,-9.99003,-0.0012207,-0.00427246,-2.4247,0.0547655,-0.073232,0.0544332,0.00901965,-0.0931465,0.146539,-0.129429,-0.0816549,0.00926971,-0.00663757,0.00297546,-0.00740051,0.0177765,-0.0471497,0.0607681,-0.0227356,-9.97986,0.0305939,-0.00526428,0.0246429,0.121841,0.0370026,7.62939e-005,0.0154495,0.017662
19,1,-9.99003,-0.0012207,-0.00167847,-2.42501,0.0553758,-0.0735371,0.0553487,0.0447252,-0.0919257,0.145318,-0.126377,-0.0807394,0.00823975,-0.0275803,0.0110626,-0.00461578,0.0178146,-0.0483704,0.063858,-0.0868988,-9.97986,0.0245285,0.00392914,0.022049,0.119972,0.0229645,0.00102997,0.0167084,0.0147247
19,2,-9.99003,0.00213623,-0.000152588,-2.42531,0.0547655,-0.0741475,0.0550435,0.0572374,-0.0910102,0.146844,-0.126377,-0.0822652,0.00564575,-0.0258255,0.0182343,0.00198364,0.0128555,-0.0485611,0.064888,-0.0906754,-9.97986,0.0295258,0.000724792,0.0190353,0.122871,0.0271606,0.00270844,0.0177002,0.0166321
19,3,-9.99003,0.000610352,0.000305176,-2.42714,0.0523241,-0.0747579,0.0538228,0.0648668,-0.0922309,0.145318,-0.126377,-0.0834859,-0.00675201,-0.0231171,0.0234222,0.00038147,0.0163651,-0.0473404,0.0608444,-0.0709915,-9.97986,0.0174713,0.00511169,0.0191498,0.121193,0.0280762,-0.00106812,0.0203323,0.0125504
19,4,-9.99003,-0.000305176,0.00183105,-2.42592,0.0541551,-0.0741475,0.055959,0.125292,-0.0873481,0.146844,-0.121799,-0.0825704,-0.0196838,-0.0109482,0.026207,-0.00656128,0.0144196,-0.0448227,0.0651932,-0.0553131,-9.97986,0.00789642,-0.00484467,0.0185776,0.117683,0.0559235,-0.00644684,0.0182724,0.0127029
19,5,-2.0515,0.00152588,0.00350952,-2.42653,0.0541551,-0.0747579,0.0550435,0.143907,-0.0876533,0.144708,-0.121494,-0.0837911,-0.0114059,0.0109482,0.0297546,-0.00869751,0.0149536,-0.0488281,0.0601959,-0.0444031,-9.97986,0.00484467,-0.0056839,0.0211716,0.112648,0.0548553,-0.00484467,0.0252914,0.0141907
19,6,5.67067,0.00152588,0.00427246,-2.42837,0.0520189,-0.0756734,0.0538228,0.153978,-0.0882636,0.144708,-0.121799,-0.0856222,0.00747681,0.0308228,0.0382233,-0.00713348,0.0177765,-0.0471115,0.0639725,-0.0361633,-9.97986,-0.00244141,-0.00427246,0.0224304,0.112686,0.0598526,-0.00572205,0.0218201,0.0136948
19,7,10.0097,0,0.00427246,-2.43081,0.0535448,-0.0771993,0.0510762,0.137499,-0.0931465,0.143182,-0.123325,-0.0880636,0.0204086,0.0399399,0.0333786,-0.00984192,0.0125885,-0.0466156,0.0616074,-0.0198364,-9.97986,0.000495911,0.000114441,0.0198364,0.110664,0.0576782,-0.0031662,0.0233078,0.0156021
19,8,10.0097,-0.000915527,0.000762939,-2.43081,0.0529344,-0.0765889,0.0498555,0.0932482,-0.0977241,0.142877,-0.126377,-0.0880636,0.0121689,0.0432968,0.0239563,-0.00431061,0.00919342,-0.0441742,0.0593948,-0.00183105,-9.97986,0.00759125,-0.00392914,0.0172806,0.110931,0.0617981,-0.00495911,0.022316,0.0127792
19,9,10.0097,-0.000915527,0.000305176,-2.42989,0.0514085,-0.075063,0.0504659,0.0795153,-0.0974189,0.143487,-0.126987,-0.0874532,0.0113297,0.0426483,0.021019,-0.00999451,0.0118256,-0.0473404,0.0600433,-0.0364304,-9.97986,0.00545502,-0.0111008,0.0164413,0.106468,0.0656509,-0.00255585,0.0241089,0.0148392
20,0,10.0097,0.00152588,0,-2.42837,0.0544603,-0.0753682,0.0516866,0.0749376,-0.0952827,0.143487,-0.126072,-0.0865377,0.0125885,0.0274658,0.0172043,-0.0355911,0.00602722,-0.0473785,0.0595856,-0.0616074,-9.97986,0.0128555,-0.0124359,0.0207901,0.110664,0.063858,-0.000915527,0.0234985,0.0152206
20,1,10.0097,0,-0.000152588,-2.42776,0.0547655,-0.075063,0.0532125,0.0728014,-0.0943672,0.143792,-0.126072,-0.085317,0.00743866,0.0332642,0.016861,-0.0528336,0.00854492,-0.0490189,0.0592041,-0.0441742,-9.97986,0.0297165,-0.0265884,0.0144577,0.104103,0.0566483,-0.00400543,0.0205612,0.00522614
20,2,10.0097,0.000305176,0.000305176,-2.42745,0.0547655,-0.0753682,0.0526021,0.07036,-0.0946723,0.144403,-0.126072,-0.0850118,0.01091,0.0311279,0.0114822,-0.0600433,0.0112915,-0.0448608,0.0574112,-0.0821686,-9.97986,0.0319672,-0.00869751,0.0175858,0.103416,0.0648499,0.00988007,0.023613,0.0141525
20,3,10.0097,-0.000610352,-0.000762939,-2.42653,0.0553758,-0.0735371,0.0526021,0.072191,-0.0937568,0.142877,-0.126682,-0.0840963,0.0122452,0.00873566,0.000419617,-0.0609589,0.00556946,-0.0470734,0.0588989,-0.111771,-9.97986,0.0290298,-0.0116348,0.0143051,0.0982285,0.0593948,0.00377655,0.0279999,0.014267
20,4,10.0097,0.0012207,-0.000152588,-2.42562,0.0565965,-0.0738423,0.0547383,0.07036,-0.0931465,0.145318,-0.124851,-0.0819601,0.0257111,-0.018425,0.00179291,-0.041008,0.00507355,-0.0415039,0.059433,-0.0563431,-9.97986,0.0361633,-0.0050354,0.0185776,0.0974274,0.0619888,0.0069046,0.0279617,0.0126266
20,5,10.0097,0.00213623,0,-2.42714,0.0562914,-0.0741475,0.0544332,0.072191,-0.0919257,0.146844,-0.124241,-0.0807394,0.0159073,-0.0337219,0.0094986,-0.0414658,0.00518799,-0.0402069,0.0587845,-0.0118256,-9.97986,0.0362778,0.00652313,0.0146103,0.0937653,0.0596619,0.00232697,0.0266647,0.0154495
20,6,10.0097,0.00183105,-0.000305176,-2.42592,0.0565965,-0.073232,0.054128,0.0706652,-0.0931465,0.147149,-0.124241,-0.0819601,0.0104141,-0.0149155,0.0194168,-0.0216675,0.00793457,-0.0426865,0.0527191,0.0038147,-9.97986,0.0179291,0.00659943,0.0150299,0.0892639,0.0616837,3.8147e-005,0.0267029,0.0176239
20,7,9.45027,-0.000305176,-0.00259399,-2.42684,0.055681,-0.0744527,0.0519917,0.0197008,-0.0965034,0.146234,-0.127903,-0.0834859,0.0102615,0.020752,0.030098,-0.0183868,0.00904083,-0.0390244,0.0557327,0.0050354,-9.97986,0.0173187,0.00648499,0.0146103,0.0856781,0.0540543,-0.00453949,0.0287247,0.0154495
20,8,0.226336,0.0012207,-0.00534058,-2.42562,0.0569017,-0.073232,0.0535176,-0.00501844,-0.095893,0.147455,-0.129734,-0.0816549,0.0094223,0.0263214,0.0328827,-0.0433731,0.00774384,-0.0395584,0.0499344,0.00881195,-9.97986,0.0227737,0.00164032,0.0127792,0.0811386,0.060463,-0.00358582,0.0318146,0.0152969
20,9,-6.94713,0.00213623,-0.00518799,-2.42653,0.0569017,-0.0744527,0.0544332,-0.0160048,-0.095893,0.145929,-0.128818,-0.0825704,-0.000610352,-0.00190735,0.0294113,-0.028038,0.00789642,-0.0369644,0.0522232,0.0281906,-9.97986,0.0244522,-0.00740051,0.01194,0.0770187,0.0530243,-0.00873566,0.0282669,0.0124741
21,0,-9.99003,0.00152588,-0.00366211,-2.42531,0.0550706,-0.0735371,0.0562642,0.00871447,-0.0928413,0.146234,-0.128513,-0.0813497,-0.0031662,-0.00740051,0.0325394,0.0207138,0.0151443,-0.034523,0.0539398,0.0337982,-9.97986,0.0270081,-0.00869751,0.012207,0.0733948,0.0489807,0.00038147,0.0278091,0.0138855
21,1,-9.99003,0.000305176,-0.00213623,-2.4244,0.0550706,-0.075063,0.0547383,0.0450304,-0.0897895,0.146234,-0.126987,-0.0810445,-0.00579834,0.00694275,0.0275803,0.0158691,0.0130844,-0.0325012,0.0473404,0.0273514,-9.97986,0.0180817,-0.00038147,0.00598907,0.0651932,0.0265503,-0.00297546,0.0302887,0.0136185
21,2,-9.99003,0.0012207,-0.00137329,-2.42592,0.055681,-0.0744527,0.054128,0.0575426,-0.0931465,0.144708,-0.126072,-0.0822652,-0.00152588,0.0289917,0.0296783,0.00362396,0.0178146,-0.0320435,0.0497437,0.04673,-9.97986,0.00324249,-0.00511169,0.00953674,0.0566101,0.0273514,-0.00293732,0.0272369,0.0131989
21,3,-9.99003,0.00213623,-0.000457764,-2.42684,0.0544603,-0.0738423,0.0547383,0.0663927,-0.0919257,0.145013,-0.126987,-0.0834859,-0.00572205,0.03479,0.0167847,0.0156021,0.0210953,-0.0289154,0.0458527,0.0792694,-9.97986,0.001297,-0.00743866,0.0110626,0.0552368,0.0249481,0.00362396,0.0263596,0.0152969
21,4,-9.99003,0.00213623,0.00152588,-2.42501,0.0550706,-0.0738423,0.0565694,0.126207,-0.0852119,0.145929,-0.12241,-0.0819601,0.00362396,0.0314713,0.0139236,0.00762939,0.0213623,-0.0317383,0.0458527,0.111122,-9.97986,0.00133514,-0.00999451,0.00907898,0.0522995,0.0471115,-0.000190735,0.0279236,0.00946045
21,5,-2.37376,0.000610352,0.00259399,-2.42745,0.0544603,-0.0753682,0.0547383,0.145433,-0.0882636,0.145318,-0.122104,-0.0847066,0.00801086,0.0384521,0.017662,-0.0376129,0.0119019,-0.0257874,0.0387573,0.0925827,-9.97986,0.0121689,-0.00770569,0.0082016,0.050087,0.0452423,0.00324249,0.0273514,0.00980377
21,6,5.65297,0.000610352,0.00427246,-2.42745,0.0547655,-0.0756734,0.0535176,0.154894,-0.0891792,0.143792,-0.122715,-0.0856222,0.0226212,0.0527573,0.0162506,-0.0503159,0.0183487,-0.0280762,0.0416946,0.0630951,-9.97986,0.0211334,-0.00804901,0.0094986,0.0485611,0.0423813,-0.00553131,0.0240326,0.0129318
21,7,10.0097,0.0012207,0.00396729,-2.4305,0.0532396,-0.0771993,0.0513814,0.133226,-0.0934516,0.142267,-0.123935,-0.0877584,0.022583,0.052681,0.0248718,0.00423431,0.0120163,-0.0263977,0.0470352,0.0437546,-9.97986,0.0327682,-0.00694275,0.00686646,0.0476074,0.039444,-0.00209808,0.0278473,0.0134277
21,8,10.0097,0.000610352,0.000305176,-2.43081,0.0523241,-0.0759786,0.0504659,0.094774,-0.0983344,0.141656,-0.125156,-0.0892843,0.0330353,0.043335,0.0270844,0.0495911,0.0152206,-0.02491,0.0446701,0.0258636,-9.97986,0.0344467,-0.00862122,0.00782013,0.0445175,0.0435257,-0.00522614,0.0244522,0.00839233
21,9,10.0097,0,-0.000915527,-2.42959,0.0538499,-0.0759786,0.0495503,0.0810411,-0.0971137,0.142572,-0.126682,-0.0883688,0.038681,0.0219727,0.0163269,0.0526047,0.0165176,-0.0257492,0.0392532,0.0248337,-9.97986,0.0329971,-0.00976563,0.00537872,0.038681,0.0379562,-0.00377655,0.0252533,0.00881195
22,0,10.0097,-0.000305176,-0.000457764,-2.42898,0.0538499,-0.0762837,0.0510762,0.0737169,-0.0965034,0.143487,-0.126072,-0.0874532,0.0270462,0.0177765,0.0155258,0.0718689,0.0154114,-0.0221252,0.0409698,0.030632,-9.97986,0.0324631,-0.0170135,0.00812531,0.027504,0.0399399,-0.00705719,0.0311279,0.00965118
22,1,10.0097,-0.000305176,-0.000610352,-2.42837,0.0550706,-0.0744527,0.0532125,0.0724962,-0.0949775,0.144098,-0.126072,-0.0862325,0.0167084,0.0130844,0.0147247,0.0997543,0.0120926,-0.0242233,0.0413895,0.0371933,-9.97986,0.0284958,-0.0157928,0.00495911,0.0230408,0.0424194,-0.0134659,0.0267029,0.010643
22,2,10.0097,0.00152588,-0.000305176,-2.4302,0.0550706,-0.0747579,0.0526021,0.0700548,-0.094062,0.144708,-0.124851,-0.0850118,0.00812531,0.0063324,0.00156403,0.0907135,0.0130844,-0.0236511,0.0403595,0.0414276,-9.97986,0.0206375,-0.0196075,0.00988007,0.022316,0.0333405,-0.00801086,0.0243378,0.0125885
22,3,10.0097,-0.000915527,0.000305176,-2.42714,0.0553758,-0.0747579,0.0522969,0.0715807,-0.0928413,0.144708,-0.126377,-0.0834859,0.0161743,0.00465393,-0.00362396,0.0597382,0.00385284,-0.0190353,0.0379944,0.0473022,-9.97986,0.0206375,-0.018425,0.00343323,0.0233459,0.0379181,-0.00175476,0.0263977,0.0149918
22,4,10.0097,0.000915527,0.000152588,-2.42592,0.0569017,-0.0735371,0.0532125,0.072191,-0.0919257,0.145624,-0.124851,-0.0828756,0.0185394,0.0227737,0.0112915,0.0339508,0.0037384,-0.021286,0.0426102,0.0485229,-9.97986,0.0122452,-0.0129318,0.00476837,0.0265503,0.032692,0.000305176,0.0263596,0.00858307
22,5,10.0097,0.000915527,0.000457764,-2.4247,0.0575121,-0.0726216,0.0550435,0.0709703,-0.0919257,0.146234,-0.12363,-0.0819601,0.0178528,0.0370789,0.0210571,0.0220108,0.0082016,-0.0169754,0.0403976,0.0547028,-9.97986,0.0156403,-0.00946045,0.00167847,0.0295639,0.0350952,0.00530243,0.0218964,0.00743866
22,6,10.0097,0.000305176,-0.000305176,-2.4244,0.0562914,-0.0738423,0.0535176,0.072191,-0.0928413,0.146539,-0.124851,-0.0807394,0.0184631,0.0407791,0.017128,0.0133896,0.00434875,-0.0188828,0.0355911,0.0605011,-9.97986,0.0173187,0.00453949,0.00110626,0.038147,0.0324631,0.00480652,0.0234222,0.00785828
22,7,9.40969,0.000915527,-0.00228882,-2.42745,0.0578172,-0.0735371,0.0522969,0.0203112,-0.0977241,0.147149,-0.128513,-0.0831808,0.0135803,0.0310516,0.00274658,0.0266266,0.00278473,-0.0146484,0.0415039,0.0631332,-9.97986,0.0192261,0.0133133,0.00514984,0.0350952,0.0344849,0.00514984,0.024147,0.00843048
22,8,0.217791,-0.000915527,-0.00534058,-2.42562,0.0569017,-0.073232,0.0538228,-0.00623914,-0.0961982,0.146234,-0.129429,-0.0816549,0.010376,0.0162125,-0.00415802,0.0309372,0.00179291,-0.0172043,0.0367737,0.0605392,-9.97986,0.018692,0.0179672,0.00255585,0.0266266,0.0297928,0.00938416,0.0268555,0.00797272
22,9,-6.92943,-0.000610352,-0.00564575,-2.4244,0.0572069,-0.0741475,0.0538228,-0.0160048,-0.0965034,0.146539,-0.130954,-0.0825704,0.0143814,0.0160217,-0.00312805,0.00450134,0.0031662,-0.0147247,0.0345993,0.0570679,-9.97986,0.0163651,0.0178909,0.0030899,0.02388,0.0268173,0.00720978,0.0211334,0.0082016
23,0,-9.99003,0.00305176,-0.00427246,-2.42501,0.0559862,-0.073232,0.055959,0.0071886,-0.0916206,0.14776,-0.127292,-0.0810445,0.0143051,0.021553,0.00854492,0.000572205,-0.000114441,-0.0141907,0.0379944,0.0564957,-9.97986,0.0124359,0.022316,0.00198364,0.0170135,0.0247574,0.00522614,0.0232697,0.00823975
23,1,-9.99003,0.00152588,-0.00213623,-2.42531,0.0553758,-0.0741475,0.0556539,0.042589,-0.0913154,0.145013,-0.126377,-0.0810445,0.0161743,0.0409317,0.0233841,0.0367355,0.000457764,-0.01297,0.0348663,0.0523758,-9.97986,0.0132751,0.0148392,0.00247955,0.00656128,-0.000114441,-0.00442505,0.0274658,0.00534058
23,2,-9.99003,0.000610352,-0.00137329,-2.42562,0.055681,-0.0759786,0.0538228,0.0584581,-0.0925361,0.145929,-0.126377,-0.0825704,0.0124359,0.0418472,0.0366974,0.0717545,-0.00282288,-0.00545502,0.0309753,0.0585938,-9.97986,0.00797272,0.00682831,0.00133514,-0.00301361,-3.8147e-005,-0.00476837,0.0260544,0.0043869
23,3,-9.99003,0.000305176,-0.000457764,-2.42714,0.0544603,-0.0738423,0.0544332,0.0654772,-0.0919257,0.145624,-0.125461,-0.0840963,0.0112152,0.0314713,0.0347137,0.0779724,-0.000839233,-0.00267029,0.0320816,0.0598907,-9.97986,0.00846863,-0.000114441,0.00507355,-0.0139618,-0.00404358,-0.00293732,0.0252151,0.00804901
23,4,-9.99003,0,0.000610352,-2.4247,0.0541551,-0.0747579,0.0568746,0.126512,-0.0849067,0.145624,-0.122715,-0.0840963,0.0110245,0.0189209,0.0278473,0.057106,-0.00232697,-0.00247955,0.0320053,0.0444412,-9.97986,0.0139999,0.000495911,-0.00236511,-0.022049,0.0215912,-0.00408173,0.0286865,0.00659943
23,5,-2.33806,0.00244141,0.00244141,-2.42745,0.0532396,-0.0759786,0.0535176,0.143907,-0.0879585,0.144708,-0.121494,-0.0850118,0.00965118,0.0249863,0.0379944,0.0440216,0.00247955,-0.00038147,0.0296402,0.0537872,-9.97986,0.0110245,0.00125885,-0.00038147,-0.0210953,0.0234985,-0.00686646,0.0281525,0.00301361
23,6,5.73659,0.000610352,0.0038147,-2.42898,0.0538499,-0.0762837,0.0544332,0.158861,-0.088874,0.144403,-0.120884,-0.0856222,0.010643,0.0562286,0.0600433,0.0383759,0.00221252,-0.00125885,0.0310898,0.0618744,-9.97986,0.00572205,0.000762939,0.00297546,-0.021019,0.0222778,-0.00324249,0.0255203,0.00511169
23,7,10.0097,0.00305176,0.00427246,-2.43081,0.0523241,-0.0762837,0.0513814,0.135668,-0.0937568,0.142877,-0.124546,-0.0871481,0.00724792,0.0764084,0.0686264,0.0536346,-0.00087738,0.0037384,0.0310135,0.0574875,-9.97986,0.00869751,0.00255585,-0.00133514,-0.0217438,0.0226974,-0.00808716,0.0278091,0.00358582
23,8,10.0097,-0.000610352,0.00106812,-2.43081,0.0538499,-0.0759786,0.0501607,0.0935533,-0.0977241,0.142877,-0.126072,-0.0883688,0.00782013,0.0594711,0.0641632,0.0605011,0.000343323,0.00617981,0.0334549,0.0558853,-9.97986,0.0100327,-0.00236511,-0.00236511,-0.0166321,0.0162506,-0.00740051,0.0283051,0.00358582
23,9,10.0097,-0.00152588,0.000457764,-2.42898,0.0538499,-0.0756734,0.050771,0.0804308,-0.0965034,0.143792,-0.126682,-0.0877584,0.00782013,0.0326157,0.0524521,0.0554276,0.00423431,0.00583649,0.0297546,0.0392914,-9.97986,0.0128937,0.00213623,-0.000953674,-0.0108337,0.0145721,-0.00396729,0.0233078,0.00629425
24,0,10.0097,-0.000305176,0.000305176,-2.42959,0.0538499,-0.0778096,0.0501607,0.0743273,-0.0949775,0.142572,-0.126377,-0.0862325,0.00358582,0.0211334,0.0352859,0.0470734,0.00286102,0.00740051,0.0323486,0.0289154,-9.97986,0.0145721,-0.00587463,-0.00240326,-0.00431061,0.014267,-0.00476837,0.0286865,0.0056076
24,1,10.0097,-0.000915527,0.000305176,-2.42806,0.055681,-0.075063,0.0532125,0.0712755,-0.0934516,0.144708,-0.127292,-0.085317,0.00350952,0.0317383,0.0287247,0.0178909,0.00644684,0.00659943,0.034523,0.0231934,-9.97986,0.0128555,-0.00274658,-0.0025177,-0.00366211,0.0109863,-0.00545502,0.0271225,0.00228882
24,2,10.0097,0.000915527,0.000610352,-2.42806,0.055681,-0.0738423,0.0529073,0.072191,-0.0925361,0.145624,-0.126072,-0.085317,0.00564575,0.0353622,0.0292969,-0.0184631,0.00762939,0.00965118,0.0301743,0.0115585,-9.97986,0.0107956,-0.00404358,-0.00209808,-0.00217438,0.0116348,-0.00213623,0.0302887,0.00354767
24,3,10.0097,0.0012207,0,-2.42592,0.0547655,-0.0753682,0.0547383,0.0712755,-0.0937568,0.145929,-0.125461,-0.0844015,0.00747681,0.0430298,0.0341797,-0.010643,0.00534058,0.0118256,0.0311661,0.0140762,-9.97986,0.0123978,-0.00793457,-0.00259399,-0.000419617,0.00862122,-0.00526428,0.0284958,0.00106812
24,4,10.0097,-0.000305176,0.000610352,-2.42592,0.0572069,-0.0735371,0.054128,0.0718859,-0.0928413,0.144708,-0.123935,-0.0822652,0.0075531,0.0503159,0.0217056,0.00541687,0.0118256,0.0122452,0.0292969,0.0192261,-9.97986,0.00808716,-0.00530243,-0.00148773,-0.00236511,0.00701904,-0.00118256,0.0271225,0.000572205
24,5,10.0097,-0.000305176,-0.000762939,-2.42592,0.0562914,-0.0729268,0.0544332,0.0712755,-0.0925361,0.146234,-0.123935,-0.0813497,0.0102615,0.0331497,0.0117493,0.0127792,0.0111008,0.0162506,0.0288391,0.0434113,-9.97986,0.0117111,-0.00385284,-0.00492096,-0.00484467,0.00766754,-0.00312805,0.0265121,0.000534058
24,6,10.0097,0.000915527,0.000152588,-2.42501,0.0559862,-0.0729268,0.054128,0.072191,-0.0922309,0.146234,-0.125156,-0.0813497,0.00259399,0.0172043,0.013237,0.00759125,0.00999451,0.0179291,0.0242233,0.0534821,-9.97986,0.00839233,-0.0119019,-0.00686646,-0.00274658,0.00808716,-0.00843048,0.0251007,0.00133514
24,7,9.40999,-0.000610352,-0.00259399,-2.42623,0.0565965,-0.0741475,0.0529073,0.0197008,-0.0980293,0.145929,-0.128208,-0.0828756,0.000495911,0.0431061,0.00183105,0.00869751,0.0115204,0.0196838,0.0297928,0.0564575,-9.97986,0.00564575,-0.00797272,-0.00217438,-0.00553131,0.00862122,-0.00629425,0.0281525,0.00297546
24,8,0.164385,-0.000915527,-0.00518799,-2.42501,0.0575121,-0.0738423,0.0526021,-0.00654431,-0.0965034,0.148065,-0.126987,-0.0816549,-0.00495911,0.0725174,-0.0127029,0.0069809,0.00705719,0.0180054,0.0278091,0.0257874,-9.97986,0.00827789,-0.00946045,0.000953674,-0.0110245,0.00789642,-0.00782013,0.0252151,0.00358582
24,9,-6.97368,0,-0.00534058,-2.42623,0.0565965,-0.0738423,0.0544332,-0.0141737,-0.095893,0.145624,-0.129734,-0.0822652,-0.00305176,0.0485992,-0.0180054,0.0152588,0.00911713,0.0217438,0.0242233,0.01194,-9.97986,0.0147629,-0.0114441,-0.00267029,-0.020256,0.0130081,-0.0075531,0.022316,0.00114441
25,0,-9.99003,0.000610352,-0.00411987,-2.42623,0.0559862,-0.0738423,0.055959,0.00963,-0.0934516,0.145318,-0.129123,-0.0810445,0.00499725,-0.0198364,-0.0279617,0.0142288,0.00980377,0.0231552,0.0279617,0.0537491,-9.97986,0.0198364,-0.00843048,0.00202179,-0.0267029,0.00965118,-0.00610352,0.0234604,0.00286102
25,1,-9.99003,0.00152588,-0.00228882,-2.42531,0.0550706,-0.0738423,0.0562642,0.0435045,-0.088874,0.145013,-0.127598,-0.0810445,0.0063324,-0.0588608,-0.0260925,0.00167847,0.00450134,0.0235748,0.0295258,0.0814438,-9.97986,0.0189972,-0.00259399,-0.000801086,-0.0350189,-0.015564,-0.00900269,0.0226212,0.00293732
25,2,-9.99003,0.00183105,-0.000457764,-2.42501,0.0553758,-0.0747579,0.0562642,0.0593737,-0.0913154,0.145929,-0.125461,-0.0822652,0.0160217,-0.0476456,-0.00938416,-0.00961304,0.00591278,0.0231934,0.025444,0.110435,-9.97986,0.0147247,0.00389099,-0.00652313,-0.0403595,-0.0115967,-0.00553131,0.0256348,-0.0031662
25,3,-9.99003,0.00152588,-0.000152588,-2.42562,0.055681,-0.075063,0.054128,0.0657823,-0.0916206,0.145624,-0.125156,-0.0828756,0.0208282,-0.0190735,-0.00705719,-0.0186539,0.00160217,0.0263596,0.0273132,0.173798,-9.97986,0.0102997,-0.00205994,0.00225067,-0.0361633,-0.0106812,0.000228882,0.0233841,-0.00221252
25,4,-9.99003,0.00152588,0.00228882,-2.42531,0.055681,-0.0744527,0.0565694,0.125902,-0.0846015,0.145624,-0.121189,-0.0822652,0.0348663,0.0125885,0.00156403,-0.0212097,0.00408173,0.0275421,0.029068,0.193787,-9.97986,0.00656128,-0.00259399,-0.0018692,-0.0353241,0.00888824,-0.000915527,0.0210953,0.000953674
25,5,-2.1522,0.0012207,0.0038147,-2.42684,0.0550706,-0.0741475,0.0553487,0.144518,-0.0867378,0.145318,-0.12241,-0.0847066,0.0481033,0.0305939,0.0206375,-0.030899,-0.00247955,0.0271606,0.0302887,0.230904,-9.97986,0.00782013,-0.00141144,0.00087738,-0.0333786,0.0069809,-0.0031662,0.0208282,0.00133514
25,6,5.73262,0.000305176,0.00427246,-2.42837,0.0547655,-0.0759786,0.0535176,0.155199,-0.0882636,0.143792,-0.121494,-0.0856222,0.0476837,0.0263596,0.0344086,-0.0302887,0.0018692,0.0267029,0.0290298,0.264168,-9.97986,-0.00843048,-0.000228882,-0.000724792,-0.0348282,0.00232697,-0.00370026,0.0247192,-0.00125885
25,7,10.0097,-0.00274658,0.00427246,-2.42989,0.0532396,-0.0762837,0.0504659,0.137193,-0.0934516,0.144098,-0.123325,-0.0874532,0.0455475,0.0468445,0.057373,-0.0242615,-3.8147e-005,0.0294495,0.0284576,0.133781,-9.97986,-0.00408173,-0.00160217,0.000495911,-0.0379944,0.00255585,-0.00217438,0.0240707,-0.00038147
25,8,10.0097,-0.00183105,0.000762939,-2.43111,0.0532396,-0.0765889,0.0510762,0.0935533,-0.0983344,0.143792,-0.126377,-0.0889791,0.0265503,0.0618744,0.0559235,-0.0507355,-0.00652313,0.0226593,0.0265884,-0.00473022,-9.97986,-0.00312805,-0.00469208,0.00156403,-0.0379562,0.00286102,-0.00514984,0.026207,-0.0043869
25,9,10.0097,-0.00183105,0.000305176,-2.4305,0.0532396,-0.0756734,0.0516866,0.0792101,-0.0961982,0.141351,-0.126682,-0.0886739,0.00118256,0.0347137,0.0283813,-0.0229645,-0.00808716,0.0231171,0.026207,-0.0628281,-9.97986,-0.0037384,-0.00743866,0.00179291,-0.0473022,0.000686646,-0.0130844,0.0222778,-0.000839233
26,0,10.0097,-0.00213623,-0.000457764,-2.42837,0.0541551,-0.0768941,0.0522969,0.0734117,-0.0952827,0.146844,-0.127598,-0.0868429,-0.0170135,0.000572205,0.000457764,0.0284195,-0.00411987,0.0250626,0.0266266,-0.132904,-9.97986,0.00102997,-0.000915527,0.00205994,-0.0478745,-0.00247955,-0.0200272,0.0234985,-0.00110626
26,1,10.0097,-0.000610352,0.000457764,-2.42928,0.0544603,-0.0756734,0.0526021,0.0724962,-0.0931465,0.144708,-0.125766,-0.0856222,-0.0245667,-0.00774384,-0.00881195,0.0349045,-0.0147247,0.0284576,0.027771,-0.228767,-9.97986,0.00102997,0.0043869,0.00156403,-0.0387955,0.00530243,-0.0220108,0.024147,-0.00408173
26,2,10.0097,-0.0012207,0.000152588,-2.42592,0.0550706,-0.0747579,0.0532125,0.0715807,-0.0931465,0.145013,-0.126072,-0.0850118,-0.0169373,0.0043869,-0.0140381,0.0157928,-0.0177002,0.0252151,0.021553,-0.316505,-9.97986,-0.00156403,-0.00629425,-0.000648499,-0.0449753,0.00102997,-0.0174713,0.0251389,-0.00171661
26,3,10.0097,0.0012207,0.000305176,-2.42653,0.0553758,-0.0741475,0.0538228,0.0718859,-0.0937568,0.145929,-0.126987,-0.0837911,-0.00537872,0.00934601,-0.0158691,-7.62939e-005,-0.0223541,0.0300217,0.0305557,-0.301933,-9.97986,0.0094986,-0.0154495,0.00679016,-0.0413132,0.00183105,-0.00743866,0.0175476,-0.0031662
26,4,10.0097,0.00274658,0.000305176,-2.42562,0.0553758,-0.0735371,0.054128,0.072191,-0.0913154,0.147149,-0.125461,-0.0822652,-0.0108337,0.0330734,-0.0117493,-0.0138092,-0.0239182,0.0263596,0.0242233,-0.225983,-9.97986,0.0102997,-0.0127792,0.00541687,-0.0362015,0.00801086,0.00289917,0.0218582,-7.62939e-005
26,5,10.0097,0.00274658,-0.000762939,-2.42623,0.0553758,-0.0741475,0.0553487,0.0731066,-0.0922309,0.14776,-0.124851,-0.0819601,-0.00450134,0.0615311,-0.0171661,0.00278473,-0.025444,0.0265884,0.0244904,-0.191994,-9.97986,0.0159454,-0.00511169,0.00293732,-0.0464249,0.00648499,0.00965118,0.0231934,0.000572205
26,6,10.0097,0.00213623,0.000152588,-2.42501,0.0553758,-0.0738423,0.055959,0.0715807,-0.0916206,0.144098,-0.123325,-0.0816549,0.00335693,0.0218582,-0.0291061,0.0119781,-0.0338745,0.0260162,0.0288391,-0.118523,-9.97986,0.0265121,-0.00160217,0.00640869,-0.0452423,0.00320435,0.0094223,0.0216293,-0.00118256
26,7,9.37123,0.00152588,-0.00259399,-2.42776,0.0569017,-0.0744527,0.0510762,0.0206163,-0.0977241,0.145929,-0.128208,-0.0831808,0.00785828,0.0191116,-0.0180054,0.0126648,-0.0321579,0.0244522,0.02491,-0.0510025,-9.97986,0.0149155,-0.00286102,0.00404358,-0.0450516,0.00740051,0.0121307,0.022316,3.8147e-005
26,8,0.227862,0.00183105,-0.0050354,-2.42501,0.0578172,-0.073232,0.0535176,-0.00623914,-0.0971137,0.146539,-0.129123,-0.0822652,0.0102234,0.0234604,0.0140762,0.00736237,-0.032959,0.0274277,0.0273132,-0.0496674,-9.97986,0.0063324,-0.00358582,0.0062561,-0.0522232,0.00850677,0.00644684,0.0221252,-0.00205994
26,9,-6.94102,0.000610352,-0.00518799,-2.42592,0.0565965,-0.0735371,0.0526021,-0.0147841,-0.0965034,0.144098,-0.130039,-0.0810445,0.00526428,-0.0234222,0.0366974,0.00217438,-0.0354767,0.0267029,0.0299454,-0.0413132,-9.97986,0.00648499,-0.00144958,0.00686646,-0.0596619,0.00938416,0.0019455,0.0223541,-0.00297546
27,0,-9.99003,0.0012207,-0.00457764,-2.42562,0.0559862,-0.0738423,0.055959,0.00779895,-0.094062,0.145624,-0.127903,-0.0819601,-0.000762939,-0.0498199,0.0396729,-0.00347137,-0.034523,0.0278091,0.029335,0.0458908,-9.97986,0.00213623,0.00179291,0.00720978,-0.0634003,0.00183105,-0.00205994,0.0242996,-0.001297
27,1,-9.99003,0.00183105,-0.00152588,-2.42501,0.0559862,-0.0771993,0.0568746,0.04442,-0.0897895,0.145929,-0.126377,-0.0804342,-0.000534058,-0.0268555,0.0311279,-0.0019455,-0.0347519,0.0257874,0.0339127,0.103569,-9.97986,-0.00244141,0.00293732,0.00846863,-0.0577545,-0.0118256,-0.00671387,0.0241852,0.000419617
27,2,-9.99003,0.000610352,0.000610352,-2.42592,0.0550706,-0.075063,0.0550435,0.058153,-0.0900947,0.146234,-0.126377,-0.0822652,-0.00141144,0.0149918,0.044632,0.00457764,-0.0409317,0.0263977,0.0269318,0.077858,-9.97986,0.00202179,-0.0038147,0.00469208,-0.046196,-0.00999451,-0.00572205,0.0229263,-0.00392914
27,3,-9.99003,0.000610352,-0.000152588,-2.42592,0.055681,-0.075063,0.054128,0.0666979,-0.0916206,0.146539,-0.126072,-0.0828756,-0.00133514,0.0511551,0.0579071,0.00602722,-0.0353622,0.0247574,0.0284576,0.0699234,-9.97986,0.0175476,-0.00419617,0.00999451,-0.0344086,-0.00366211,0.000228882,0.0239944,-0.00278473
27,4,-9.99003,-0.0012207,0.00289917,-2.42501,0.0544603,-0.0753682,0.0571797,0.126207,-0.0846015,0.145318,-0.122104,-0.0813497,0.00305176,0.0400543,0.0666809,0.0141907,-0.0347137,0.0270844,0.0275421,0.0338745,-9.97986,0.0215912,-0.00835419,0.00881195,-0.0297165,0.0182343,-0.00148773,0.0229263,-0.000572205
27,5,-2.4171,0.000305176,0.00442505,-2.42653,0.0535448,-0.0762837,0.0538228,0.144518,-0.0879585,0.146539,-0.121799,-0.0840963,0.0127029,0.0585938,0.0758362,0.0230408,-0.0316238,0.0242996,0.0313568,-0.00648499,-9.97986,0.0237656,-0.0136185,0.00648499,-0.0118256,0.0200272,0.000839233,0.0241852,-0.00148773
27,6,5.61757,0.00183105,0.00579834,-2.42867,0.0547655,-0.0759786,0.054128,0.15642,-0.0894843,0.144403,-0.121189,-0.0840963,0.0188446,0.0912857,0.0752258,0.0199127,-0.0327682,0.025177,0.0265121,0.0625992,-9.97986,0.0247955,-0.0185776,0.00793457,0.00644684,0.0217819,0.00221252,0.0255585,-0.00331879
27,7,10.0097,0.0012207,0.00564575,-2.42989,0.0532396,-0.0775044,0.0516866,0.138414,-0.0946723,0.143182,-0.123935,-0.0871481,0.0195694,0.0954437,0.0659561,0.0105667,-0.0350189,0.0279617,0.0260544,0.121002,-9.97986,0.0345993,-0.011673,0.00938416,0.0117111,0.0219345,-0.00087738,0.022583,-0.00339508
27,8,10.0097,0.000610352,0.00228882,-2.42959,0.0532396,-0.0762837,0.0510762,0.094774,-0.0974189,0.143182,-0.125461,-0.0883688,0.0135422,0.116539,0.0421906,0.00450134,-0.0329208,0.0236893,0.0230789,0.0927353,-9.97986,0.037117,-0.011673,0.0120163,0.0252151,0.0148773,0.00274658,0.0220871,-0.00255585
27,9,10.0097,-0.00305176,0.00152588,-2.42928,0.0538499,-0.0768941,0.0516866,0.0792101,-0.0949775,0.144098,-0.126377,-0.0874532,0.0169373,0.120735,0.028038,-0.00839233,-0.0317383,0.0241089,0.0235748,0.046196,-9.97986,0.0317764,-0.0101852,0.0108337,0.0370026,0.0167084,0.00427246,0.0228119,-0.00255585
28,0,10.0097,-0.00152588,0.00152588,-2.42928,0.0544603,-0.0747579,0.0513814,0.0746324,-0.0946723,0.143487,-0.126682,-0.0862325,0.0156021,0.099411,0.0235367,-0.0321198,-0.0304413,0.0243378,0.0213623,-0.000114441,-9.97986,0.0244904,0.000343323,0.0130081,0.0584412,0.0135803,-0.00202179,0.0217819,-0.00328064
28,1,10.0097,-0.000915527,0.00305176,-2.42776,0.0544603,-0.0741475,0.0522969,0.0712755,-0.094062,0.142877,-0.126072,-0.0837911,0.0159454,0.0883484,0.0188065,-0.0424576,-0.030365,0.0266647,0.0235367,-0.0318527,-9.97986,0.026741,0.0103378,0.014267,0.0792313,0.013237,-0.00259399,0.0239563,0.001297
28,2,10.0097,0.000305176,0.0012207,-2.42806,0.0544603,-0.0762837,0.0538228,0.0715807,-0.0928413,0.144098,-0.125766,-0.0837911,0.0197983,0.0454712,0.0331497,-0.0468826,-0.031662,0.0230408,0.0266266,-0.0720978,-9.97986,0.03479,0.0111771,0.0162125,0.0917816,0.0141907,-0.00797272,0.0241852,-0.00175476
28,3,10.0097,-0.000915527,0.00152588,-2.42684,0.055681,-0.0747579,0.054128,0.07036,-0.0919257,0.146234,-0.126682,-0.0837911,0.019989,0.0407028,0.0271225,-0.0511169,-0.0289154,0.0234604,0.0247955,-0.0991058,-9.97986,0.0353241,-0.00549316,0.018158,0.104828,0.0088501,-0.0115204,0.0216293,-0.000953674
28,4,10.0097,-0.000305176,0.00167847,-2.42501,0.0559862,-0.0738423,0.0550435,0.0706652,-0.0897895,0.146844,-0.125461,-0.0813497,0.0156403,0.0726318,0.000457764,-0.0613022,-0.0281906,0.0256348,0.0190735,-0.066185,-9.97986,0.033226,-0.0102997,0.0148392,0.120659,0.0208282,-0.00946045,0.026741,-0.000190735
28,5,10.0097,0.000915527,0.000915527,-2.42531,0.0553758,-0.0741475,0.0535176,0.0718859,-0.0919257,0.145624,-0.124851,-0.0813497,0.0128174,0.0473022,-0.0119019,-0.0610733,-0.0284958,0.0231934,0.019989,-0.0309372,-9.97986,0.0302505,-0.00350952,0.0156021,0.12867,0.0206757,-0.00770569,0.0283813,-0.00160217
28,6,10.0097,0,0.00137329,-2.42562,0.0559862,-0.0747579,0.0544332,0.07036,-0.0916206,0.146844,-0.124241,-0.0807394,0.0155258,0.0296783,-0.00549316,-0.0221634,-0.0303268,0.0224304,0.0230789,-0.00881195,-9.97986,0.033226,0.00152588,0.0186157,0.141182,0.0251389,-0.00389099,0.022583,0.00038147
28,7,9.60195,-0.0012207,-0.00137329,-2.42806,0.0550706,-0.0747579,0.0526021,0.0206163,-0.0980293,0.143182,-0.128513,-0.0834859,0.0143433,-0.0368881,-0.0163269,-0.00740051,-0.0341797,0.0194931,0.0174713,-0.0141907,-9.97986,0.0337601,0.00160217,0.0181198,0.146255,0.0251007,-0.00675201,0.020256,-0.000724792
28,8,0.484515,0.000305176,-0.00259399,-2.42592,0.0572069,-0.0738423,0.054128,-0.00440808,-0.0974189,0.145013,-0.129429,-0.0816549,0.0175858,-0.111694,-0.0644684,-0.010376,-0.0336456,0.0259018,0.0199127,-0.0337982,-9.97986,0.0379944,0.000953674,0.0140762,0.172615,0.0246429,0.000267029,0.0188065,-3.8147e-005
28,9,-6.76646,0.0012207,-0.00213623,-2.42501,0.0565965,-0.0747579,0.0538228,-0.0147841,-0.0968086,0.145013,-0.130344,-0.0798238,0.0125885,-0.122223,-0.0764084,0.00743866,-0.0320816,0.0225067,0.0240707,-0.0415802,-9.97986,0.0439453,-0.00522614,0.0129318,0.199089,0.020752,0.00228882,0.0230026,0.000648499
29,0,-9.99003,0.00244141,-0.00183105,-2.42501,0.0565965,-0.0738423,0.0562642,0.00810412,-0.0919257,0.145624,-0.128208,-0.0813497,0.0128174,-0.167809,-0.07267,0.0200272,-0.0359344,0.0227356,0.0217438,-0.010376,-9.97986,0.0415421,-0.00930786,0.0164795,0.211029,0.0147629,0.00385284,0.0215149,-0.0012207
29,1,-9.99003,0.000915527,-0.000610352,-2.42501,0.0562914,-0.0741475,0.0562642,0.042589,-0.0903999,0.146844,-0.126682,-0.0810445,0.0111771,-0.177002,-0.0600815,-0.00617981,-0.0340652,0.0201035,0.0250244,0.0215149,-9.97986,0.044899,-0.00522614,0.0223923,0.214767,-0.00827789,0.00495911,0.0226212,-0.000839233
29,2,-9.99003,0.0012207,0.00152588,-2.42592,0.0553758,-0.0744527,0.0556539,0.058153,-0.0903999,0.146539,-0.126987,-0.0819601,0.00984192,-0.110245,-0.0328064,-0.0656509,-0.0337982,0.0185013,0.0204086,0.0298691,-9.97986,0.0354767,-0.0012207,0.016098,0.238075,-0.00835419,0.000190735,0.0252151,-0.001297
29,3,-9.99003,0.000915527,0.0012207,-2.42653,0.0550706,-0.0735371,0.0550435,0.0676134,-0.090705,0.147149,-0.125156,-0.0822652,0.00976563,-0.0762177,-0.00762939,-0.0685501,-0.027504,0.0229645,0.0170898,0.0210571,-9.97986,0.0242996,-0.00957489,0.0154877,0.253868,-0.00686646,-0.00293732,0.0182343,-0.000343323
29,4,-9.99003,-0.000610352,0.00244141,-2.42531,0.0541551,-0.0744527,0.0565694,0.124986,-0.0839912,0.145929,-0.121799,-0.0819601,0.00892639,-0.0553131,0.013504,0.0236511,-0.0232697,0.0155258,0.0188828,0.00564575,-9.97986,0.017395,-0.00183105,0.0205612,0.244675,0.0165558,-0.00911713,0.020752,-0.000839233
29,5,-2.23735,0.000610352,0.00396729,-2.42776,0.0544603,-0.0768941,0.0544332,0.145433,-0.0864326,0.144708,-0.122104,-0.0847066,0.00938416,-0.00915527,0.0188446,0.121803,-0.0222778,0.0145721,0.0159454,0.010643,-9.97986,0.0135803,0.0031662,0.019455,0.245857,0.00968933,-0.0147247,0.0193024,-0.00202179
29,6,5.79518,0.000305176,0.00411987,-2.42837,0.0544603,-0.0765889,0.0532125,0.154894,-0.0897895,0.144098,-0.121189,-0.0859274,0.0111771,0.0409317,0.0179291,0.150681,-0.0176239,0.0161362,0.0213623,0.0244141,-9.97986,0.0175858,0.00240326,0.0189972,0.240707,0.00907898,-0.0101852,0.0198746,-0.00289917
29,7,10.0097,-0.000610352,0.00305176,-2.42928,0.0529344,-0.0765889,0.0519917,0.135973,-0.0937568,0.143182,-0.122715,-0.0886739,0.0130844,0.0352478,0.0179291,0.113297,-0.0117874,0.0178528,0.0226212,0.0257492,-9.97986,0.0196075,0.00286102,0.0204468,0.215569,0.0106812,-0.00263214,0.0217438,-0.00240326
29,8,10.0097,0,-0.000457764,-2.4305,0.0529344,-0.0762837,0.0501607,0.092943,-0.0977241,0.142572,-0.126377,-0.0898946,0.0111771,0.0206375,0.0279617,0.0867844,-0.00686646,0.0193405,0.0130463,0.0249481,-9.97986,0.0152588,0.00358582,0.0204849,0.196304,0.00553131,-0.00526428,0.0209427,-0.00362396
29,9,10.0097,0.00183105,-0.000915527,-2.42928,0.0547655,-0.0768941,0.0510762,0.0795153,-0.0977241,0.142572,-0.127292,-0.0886739,0.0147629,0.0124741,0.0262451,0.0788116,-0.00514984,0.0274277,0.0165939,0.0189209,-9.97986,0.0148773,-0.000648499,0.0178909,0.184937,0.00602722,-0.001297,0.0182724,-0.0031662
30,0,10.0097,-0.0012207,-0.00167847,-2.42928,0.0541551,-0.0762837,0.0522969,0.0743273,-0.0952827,0.143487,-0.126987,-0.0874532,0.0130081,0.000915527,0.0180054,0.0616837,-0.00743866,0.022583,0.0208282,0.00419617,-9.97986,0.0212097,-0.00225067,0.0180435,0.172424,0.0111389,0.00152588,0.0193787,-0.00259399
30,1,10.0097,0.000915527,-0.00152588,-2.42806,0.0544603,-0.0756734,0.0519917,0.0718859,-0.094062,0.144098,-0.126072,-0.0859274,0.00762939,-0.00728607,0.014267,0.0273514,-0.000991821,0.0305557,0.0135803,0.00724792,-9.97986,0.0215912,0.0030899,0.0201035,0.158043,0.0204468,0.00816345,0.0226593,-0.0056076
30,2,10.0097,0.000610352,-0.00137329,-2.42684,0.0559862,-0.075063,0.0544332,0.07036,-0.0946723,0.145013,-0.125766,-0.0850118,0.0069046,-0.00335693,0.0123215,-0.00522614,0.00839233,0.0282669,0.0125504,0.0176239,-9.97986,0.0174713,0.000686646,0.0157166,0.135841,0.0247955,-0.000152588,0.0213623,-0.00118256
30,3,10.0097,0,-0.00259399,-2.42684,0.0544603,-0.0744527,0.0535176,0.07036,-0.0928413,0.147149,-0.125156,-0.0850118,0.00606537,0.0536728,0.0134277,0.00923157,0.0105286,0.0357056,0.0168991,0.0239563,-9.97986,0.0136948,0.00453949,0.0170517,0.111961,0.0362015,-0.00404358,0.0188065,0.00125885
30,4,10.0097,0,-0.00198364,-2.42562,0.0575121,-0.0735371,0.0556539,0.0709703,-0.0922309,0.146234,-0.125156,-0.0828756,0.00911713,0.079155,0.0162125,0.036087,0.0102234,0.0275421,0.019989,0.0211334,-9.97986,0.0101852,0.000572205,0.0186157,0.0969315,0.0416565,-0.00686646,0.0210953,-0.00286102
30,5,10.0097,0.0012207,-0.00106812,-2.42531,0.0572069,-0.075063,0.0562642,0.0718859,-0.0900947,0.146844,-0.12363,-0.0822652,0.00465393,0.0644302,0.0159454,0.0323105,0.0133896,0.030365,0.0155258,0.022316,-9.97986,0.00892639,-0.00911713,0.0161362,0.0849152,0.0457001,-0.00930786,0.0210571,-0.001297
30,6,10.0097,0.00152588,-0.000457764,-2.42501,0.0569017,-0.0741475,0.0544332,0.072191,-0.0916206,0.146234,-0.124241,-0.0810445,0.00774384,0.0264359,-0.000228882,0.0264359,0.0189209,0.0328445,0.0119019,0.0310135,-9.97986,0.00873566,-0.00293732,0.0196838,0.077858,0.0431824,-0.0118256,0.0224686,-0.00167847
30,7,9.38863,-0.000915527,-0.00274658,-2.42684,0.0562914,-0.075063,0.0513814,0.0206163,-0.0980293,0.144403,-0.127598,-0.0837911,0.00751495,-0.00923157,-0.000152588,0.0244141,0.0146866,0.0318909,0.0133133,0.0354385,-9.97986,0.0168228,0.00320435,0.0151825,0.0714493,0.0320816,-0.0152969,0.0249481,-0.00141144
30,8,0.17293,0.00152588,-0.00579834,-2.42562,0.0572069,-0.0735371,0.0538228,-0.00532361,-0.0974189,0.14776,-0.128818,-0.0828756,0.00957489,0.00392914,0.0147629,0.0203705,0.0141907,0.0314713,0.0139618,0.0466919,-9.97986,0.0133514,-0.00335693,0.0205994,0.0536728,0.0197983,-0.0119781,0.0226593,-0.000495911
30,9,-7.03868,0.00183105,-0.00686646,-2.42623,0.0565965,-0.0735371,0.0532125,-0.0156996,-0.0961982,0.14837,-0.130649,-0.0819601,0.0100327,0.03685,0.03582,0.0173569,0.0130081,0.030365,0.0117874,0.0693893,-9.97986,0.014534,0.00770569,0.0188065,0.030365,0.00808716,-0.00862122,0.022049,-0.00278473
31,0,-9.99003,0,-0.00534058,-2.42562,0.0562914,-0.0738423,0.0544332,0.0084093,-0.0928413,0.145929,-0.128818,-0.0810445,0.00904083,0.0583267,0.0440216,0.0135803,0.0127792,0.0254059,0.00762939,0.0705719,-9.97986,0.0133514,0.000534058,0.0178909,0.00892639,-0.0102997,-0.0129318,0.0244522,-0.000228882
31,1,-9.99003,0.000610352,-0.00274658,-2.42562,0.0559862,-0.0744527,0.0553487,0.0431993,-0.0910102,0.146844,-0.126072,-0.0807394,0.00576019,0.0746536,0.0579071,0.0110626,0.0150681,0.0259018,0.00976563,0.0528717,-9.97986,0.00457764,-0.00751495,0.0168228,0.00457764,-0.0321579,-0.012207,0.0218201,-0.000534058
31,2,-9.99003,0.000915527,-0.00106812,-2.42684,0.0550706,-0.0738423,0.0553487,0.0590685,-0.0913154,0.145929,-0.125461,-0.0819601,0.00347137,0.0736237,0.0540161,0.0245285,0.00766754,0.0206757,0.00640869,0.07267,-9.97986,0.0012207,-0.000801086,0.0175095,0.00282288,-0.0364304,-0.0155258,0.0221634,-0.00328064
31,3,-9.99003,0.000305176,0.000152588,-2.42653,0.0535448,-0.0747579,0.0547383,0.0654772,-0.090705,0.144708,-0.125461,-0.0834859,0.00679016,0.0880814,0.0465012,0.0517654,0.00595093,0.0279236,0.00972748,0.0917435,-9.97986,-0.00141144,0.0114822,0.019722,0.0043869,-0.0309372,-0.0157166,0.0258255,-0.00343323
31,4,-9.99003,0.000305176,0.0012207,-2.42562,0.0547655,-0.0747579,0.0565694,0.124681,-0.0867378,0.145929,-0.122104,-0.0819601,0.00205994,0.0669479,0.0374222,0.0463867,0.00175476,0.0297165,0.01091,0.0764847,-9.97986,0.000724792,0.0123215,0.0149918,0.00537872,-0.000686646,-0.00934601,0.02285,0.0018692
31,5,-2.48881,0.000610352,0.00305176,-2.42684,0.0550706,-0.0747579,0.0544332,0.145738,-0.0879585,0.144403,-0.121494,-0.0844015,-0.000953674,0.0480652,0.0296021,0.0340652,-0.0019455,0.0234604,0.01194,0.0677109,-9.97986,-0.000343323,-0.00175476,0.0191879,-0.00621796,0.00217438,-0.0144958,0.0203323,-0.0030899
31,6,5.54647,0.000305176,0.00411987,-2.42928,0.0544603,-0.0759786,0.0544332,0.154588,-0.0891792,0.143182,-0.121189,-0.0856222,0.00431061,0.0604248,0.045929,0.0349045,-0.00442505,0.0203323,0.00930786,0.062294,-9.97986,-0.00843048,0.00507355,0.0191498,-0.00423431,0.00831604,-0.0163269,0.0233459,-3.8147e-005
31,7,10.0097,0.000610352,0.00335693,-2.42928,0.0535448,-0.0787251,0.0513814,0.138414,-0.0925361,0.142572,-0.12363,-0.0874532,0.00175476,0.065155,0.0522232,0.0275421,-0.00240326,0.0216293,0.00587463,0.0754547,-9.97986,-0.010376,0.00965118,0.0188065,-0.00709534,0.018158,-0.0136948,0.0191498,-0.00202179
31,8,10.0097,0.000915527,0.0012207,-2.4305,0.0523241,-0.0756734,0.050771,0.094774,-0.0980293,0.142267,-0.126987,-0.0889791,0.0106812,0.0624466,0.0522614,0.0212479,0.00209808,0.026207,0.0114441,0.113106,-9.97986,-0.00385284,-0.00244141,0.0183868,0.0037384,0.0221252,-0.00564575,0.018425,0.000534058
31,9,10.0097,-0.000915527,0,-2.43081,0.0550706,-0.0759786,0.0492452,0.0798204,-0.0971137,0.144098,-0.126987,-0.0886739,0.0100708,0.0628281,0.0397491,0.0165558,-0.00148773,0.0233078,0.00862122,0.119324,-9.97986,-0.000495911,-0.0109863,0.0207901,0.00774384,0.0222397,0.0025177,0.0186157,-0.00244141
32,0,10.0097,0.00152588,-0.000457764,-2.42898,0.0550706,-0.0762837,0.0510762,0.0752428,-0.095893,0.144098,-0.126987,-0.0865377,0.0109482,0.0400925,0.0365067,0.00789642,-0.000267029,0.0287247,0.00827789,0.0951767,-9.97986,-0.0012207,-0.0106049,0.017662,-0.00270844,0.0200272,0.00930786,0.0156021,-0.00370026
32,1,10.0097,0.00244141,-0.000915527,-2.42776,0.0535448,-0.075063,0.0532125,0.0718859,-0.0955879,0.144098,-0.126682,-0.085317,0.0211334,0.0088501,0.051918,0.0112915,0.00301361,0.0289536,0.00801086,0.119133,-9.97986,0.00434875,-0.00354767,0.0196075,-0.0108719,0.015831,0.0113678,0.015564,-0.0030899
32,2,10.0097,0.00152588,-0.000305176,-2.42837,0.0550706,-0.0756734,0.0532125,0.0715807,-0.0946723,0.144403,-0.126072,-0.0859274,0.0206757,-0.00282288,0.0587845,0.0141144,-0.00595093,0.0263977,0.0106812,0.160332,-9.97986,0.00617981,-0.0043869,0.0205994,-0.020256,0.0126648,0.00865936,0.013237,0.00038147
32,3,10.0097,0.00244141,0,-2.42653,0.0562914,-0.0744527,0.0535176,0.0700548,-0.0931465,0.145318,-0.126072,-0.0828756,0.00766754,0.0177765,0.0729752,0.0183487,-0.00846863,0.025177,0.00904083,0.175285,-9.97986,0.000572205,-0.00114441,0.0181961,-0.0166702,0.00495911,0.00972748,0.0126648,-0.00209808
32,4,10.0097,0.000610352,0.000915527,-2.42592,0.055681,-0.0741475,0.0544332,0.072191,-0.0922309,0.146539,-0.124241,-0.0813497,0.00587463,0.052948,0.0957489,0.00923157,-0.00617981,0.0165176,0.0062561,0.161781,-9.97986,0.00324249,0.00160217,0.0198746,0.000152588,0.00160217,-0.00862122,0.0177765,-0.00305176
32,5,10.0097,-0.000610352,0.000762939,-2.42531,0.0559862,-0.0741475,0.0544332,0.0709703,-0.0925361,0.146234,-0.123935,-0.0816549,0.0101089,0.0415421,0.102577,0.00495911,-0.00240326,0.021553,0.00583649,0.115547,-9.97986,0.00648499,0.00629425,0.0186157,-0.000305176,-0.00236511,-0.0231552,0.0148392,-0.00240326
32,6,10.0097,-0.000305176,0,-2.42501,0.0565965,-0.0741475,0.0556539,0.0712755,-0.0922309,0.146234,-0.124546,-0.0810445,0.0154877,0.0187683,0.104485,0.000534058,0.00404358,0.0141144,0.00991821,0.0845337,-9.97986,-0.00148773,0.00751495,0.020752,-0.0111771,-0.0031662,-0.0249863,0.0167084,-3.8147e-005
32,7,9.43959,-0.000305176,-0.00228882,-2.42745,0.0559862,-0.0744527,0.0526021,0.0206163,-0.0986396,0.145624,-0.127598,-0.0834859,0.0232697,0.0111771,0.0942612,0.00469208,0.0143051,0.00659943,0.00743866,0.0730133,-9.97986,-0.00686646,0.0113297,0.0193405,-0.00530243,0.00511169,-0.0205231,0.0133896,-0.00335693
32,8,0.327959,-0.000915527,-0.0038147,-2.42531,0.0572069,-0.0723164,0.0532125,-0.00562879,-0.0965034,0.147149,-0.129734,-0.0819601,0.0197601,0.0217438,0.0907516,0.0121307,0.0253677,0.0128174,0.00923157,0.0268555,-9.97986,-0.0144958,0.0105667,0.0182343,0.0044632,0.00782013,-0.0111008,0.0165939,-0.00167847
32,9,-6.91935,-0.00213623,-0.00457764,-2.42409,0.0569017,-0.0741475,0.0535176,-0.0147841,-0.0952827,0.14776,-0.130039,-0.0813497,0.0158691,0.0488281,0.0887299,0.00480652,0.0357056,0.0115204,0.0125885,0.000801086,-9.97986,-0.017128,0.00892639,0.014534,0.00289917,0.00743866,-0.00831604,0.0152969,-0.00217438
33,0,-9.99003,-0.000610352,-0.00442505,-2.42501,0.0569017,-0.0744527,0.0550435,0.00749377,-0.0931465,0.147455,-0.128513,-0.0816549,0.0154114,0.0716782,0.0731277,0.000228882,0.042572,0.00911713,0.0105286,0.0339508,-9.97986,-0.0136948,0.0143814,0.0190353,0.00175476,0.00953674,-0.00358582,0.0117493,-0.00205994
33,1,-9.99003,-0.00183105,-0.00198364,-2.4247,0.0559862,-0.0747579,0.0568746,0.0428942,-0.0879585,0.145929,-0.126682,-0.0816549,0.0136566,0.0669861,0.0309753,-0.00793457,0.0564575,0.00732422,0.0101089,0.0173187,-9.97986,-0.00125885,0.0152969,0.016861,-0.00431061,-0.00919342,0.00408173,0.0121307,-0.00156403
33,2,-9.99003,-0.00213623,-0.0012207,-2.42592,0.0559862,-0.0744527,0.0547383,0.0578478,-0.0913154,0.145013,-0.126072,-0.0825704,0.0151062,0.0436783,-0.0359726,-0.00991821,0.0673676,0.000724792,0.0110626,-0.0914764,-9.97986,0.00637054,0.00576019,0.0167847,-0.00797272,-0.00934601,0.00545502,0.0121689,0.000610352
33,3,-9.99003,0.000610352,0.000152588,-2.42714,0.055681,-0.0741475,0.0547383,0.0648668,-0.0913154,0.145624,-0.126682,-0.0831808,0.0205231,0.0757217,-0.0546646,-0.00240326,0.0793076,0.00347137,0.0115585,-0.118561,-9.97986,0.0172043,-0.000457764,0.0169373,-0.0107956,-0.00343323,0.00713348,0.0123215,-0.000114441
33,4,-9.99003,0.00183105,0.00228882,-2.42592,0.0559862,-0.0738423,0.0565694,0.124376,-0.0858222,0.145318,-0.12302,-0.0816549,0.0206757,0.100746,-0.0463486,-0.00431061,0.0892639,0.000801086,0.00888824,-0.0917053,-9.97986,0.0252151,-0.00370026,0.0174332,-0.00354767,0.0200653,0.00522614,0.0151825,-0.00270844
33,5,-2.57213,0.000305176,0.00411987,-2.42776,0.0538499,-0.075063,0.0556539,0.142992,-0.0876533,0.143182,-0.122104,-0.0837911,0.0191498,0.0787354,-0.0547028,-0.00457764,0.0973129,0.00713348,0.0133514,-0.10273,-9.97986,0.0321198,-0.00453949,0.0160217,0.0069046,0.0160217,0.0126266,0.00759125,0.000152588
33,6,5.43569,-0.000305176,0.0038147,-2.42867,0.0547655,-0.0756734,0.054128,0.154283,-0.088874,0.144403,-0.120884,-0.0850118,0.00804901,0.0389481,-0.0580597,-0.00305176,0.107651,0.00705719,0.0141144,-0.1157,-9.97986,0.0376892,-0.00286102,0.0155258,-0.00350952,0.0118637,0.0127029,0.0119781,-0.00148773
33,7,10.0097,-0.000915527,0.00259399,-2.42989,0.0529344,-0.0756734,0.0522969,0.13933,-0.0900947,0.142572,-0.12363,-0.0877584,-0.000419617,0.0556183,-0.059967,-0.00617981,0.117302,0.00717163,0.0141525,-0.129623,-9.97986,0.0407791,0.00137329,0.0157166,-0.0193405,0.0143051,0.0214386,0.0131989,-0.000114441
33,8,10.0097,-0.000610352,0.000610352,-2.42959,0.0541551,-0.0762837,0.0492452,0.0941637,-0.0977241,0.142267,-0.125766,-0.0880636,0.000686646,0.0347137,-0.0764084,-0.00362396,0.126801,0.00778198,0.0134277,-0.134277,-9.97986,0.0405502,0.0025177,0.0133133,-0.0385284,0.0102234,0.0222778,0.0088501,-0.00492096
33,9,10.0097,0.000915527,-0.000610352,-2.43081,0.0523241,-0.0762837,0.0513814,0.0810411,-0.0955879,0.14013,-0.126072,-0.0883688,0.00289917,-0.0854874,-0.0618362,0.00152588,0.133667,0.00267029,0.0213242,-0.133286,-9.97986,0.0376129,0.00659943,0.0171661,-0.0421906,0.0104904,0.0219345,0.0104141,0.00198364
34,0,10.0097,0.000610352,-0.000610352,-2.42898,0.0547655,-0.0753682,0.0513814,0.0746324,-0.095893,0.143792,-0.126072,-0.0865377,-0.000724792,-0.114212,-0.032692,-0.000953674,0.148163,0.00419617,0.0165176,-0.11528,-9.97986,0.0328827,-0.00205994,0.0141525,-0.0438309,0.0110245,0.0153732,0.00957489,-0.00247955
34,1,10.0097,0.000305176,-0.000305176,-2.42837,0.0547655,-0.0741475,0.0535176,0.0709703,-0.0928413,0.145624,-0.126377,-0.0862325,0.000190735,-0.0343323,-0.0153351,0.00213623,0.159836,-0.000610352,0.0147247,-0.0847626,-9.97986,0.0365829,-0.00305176,0.0152969,-0.0533295,0.0156021,0.00915527,0.0152588,-0.000114441
34,2,10.0097,0,-0.000152588,-2.42653,0.0550706,-0.0747579,0.0522969,0.0718859,-0.0934516,0.145624,-0.126377,-0.085317,0.00507355,0.0147247,-0.00350952,0.00907898,0.167313,0.000801086,0.0167465,-0.0631714,-9.97986,0.0305176,0.000457764,0.0165558,-0.0661087,0.0126648,0.00171661,0.0114822,0.000267029
34,3,10.0097,0.0012207,-0.000915527,-2.42653,0.0559862,-0.075063,0.0529073,0.072191,-0.0937568,0.147455,-0.125156,-0.0847066,-0.00106812,0.0205231,-0.000724792,0.0146103,0.178757,-0.00274658,0.0203323,-0.0437546,-9.97986,0.025177,0.00274658,0.0117874,-0.0802231,0.0169373,0.00236511,0.0164795,-0.00217438
34,4,10.0097,0.0012207,-0.000915527,-2.42623,0.055681,-0.0741475,0.0544332,0.07036,-0.0913154,0.145929,-0.121799,-0.0825704,0.00324249,-0.0143433,-0.0110626,0.00976563,0.182495,-0.00991821,0.0153732,-0.0193787,-9.97986,0.0299835,-0.00926971,0.0146484,-0.0930786,0.0185394,0.00274658,0.0153351,-0.0019455
34,5,10.0097,0.00152588,-0.000762939,-2.42776,0.0550706,-0.0744527,0.0553487,0.0718859,-0.0903999,0.147149,-0.125156,-0.0822652,0.0012207,-0.0372696,-0.0159073,0.00709534,0.188484,-0.00480652,0.0181198,0.014267,-9.97986,0.0349808,-0.00259399,0.0203323,-0.0955582,0.0212097,0.0100708,0.015564,-0.00152588
34,6,10.0097,0.000915527,-0.000610352,-2.42501,0.0562914,-0.0735371,0.0547383,0.0718859,-0.0910102,0.148065,-0.124546,-0.0825704,0.0114441,-0.0115204,-0.0197601,0.00717163,0.195961,-0.0116348,0.0218201,0.0244141,-9.97986,0.0328445,0.014534,0.0164795,-0.114174,0.0232315,0.0122452,0.0123978,-0.00164032
34,7,9.3224,0.00274658,-0.00335693,-2.42684,0.0562914,-0.0744527,0.0529073,0.0206163,-0.0974189,0.146844,-0.127903,-0.0837911,0.0193024,0.00499725,-0.0193405,0.0100327,0.20649,-0.0123596,0.0199509,0.0699234,-9.97986,0.0305557,0.029068,0.0139618,-0.11673,0.0264359,0.00396729,0.0165939,-0.00247955
34,8,0.16408,0.00213623,-0.00610352,-2.42623,0.0572069,-0.0735371,0.0532125,-0.00807019,-0.0980293,0.14837,-0.129429,-0.0819601,0.0167465,0.000343323,-0.0218964,0.0107956,0.204811,-0.0146484,0.0219727,0.168304,-9.97986,0.019989,0.00923157,0.0181198,-0.141029,0.024147,-0.00297546,0.0144577,0.000152588
34,9,-7.02006,-0.000305176,-0.00595093,-2.4244,0.0559862,-0.0738423,0.0535176,-0.0172255,-0.095893,0.145929,-0.129429,-0.0813497,0.00774384,-0.0108337,-0.0310135,0.0136948,0.202065,-0.0118256,0.0196075,0.176086,-9.97986,0.0111389,-0.0205994,0.0197983,-0.147552,0.0232315,-0.0167847,0.0137711,0.0025177
35,0,-9.99003,-0.000610352,-0.00411987,-2.42501,0.0565965,-0.0744527,0.055959,0.00749377,-0.0928413,0.147455,-0.130039,-0.0813497,-0.0121307,-0.00919342,-0.0359726,0.0118256,0.211334,-0.0185394,0.0264359,0.109863,-9.97986,0.00324249,-0.0236893,0.0135422,-0.157776,0.0157166,-0.0130844,0.0169754,0.00148773
35,1,-9.99003,-0.000305176,-0.00259399,-2.42562,0.0547655,-0.0741475,0.0562642,0.0441149,-0.0897895,0.14776,-0.127292,-0.0810445,-0.0137329,0.00526428,-0.0231171,0.0157928,0.210991,-0.0185013,0.0220871,0.0685501,-9.97986,-0.00213623,-0.0200653,0.014267,-0.170403,-0.00762939,-0.00713348,0.0142288,0.00461578
35,2,-9.99003,-0.00152588,-0.000610352,-2.42501,0.055681,-0.0747579,0.0513814,0.0593737,-0.0916206,0.145318,-0.126072,-0.0822652,-0.00564575,0.0175476,0.00530243,0.016861,0.207787,-0.0236893,0.0303268,0.0239563,-9.97986,-0.0043869,-0.0122833,0.0165939,-0.161133,-0.00747681,-0.00549316,0.0166702,0.0025177
35,3,-9.99003,-0.000915527,0.000457764,-2.42653,0.0547655,-0.0741475,0.054128,0.0645616,-0.0913154,0.145624,-0.129429,-0.0831808,0.00972748,0.0381851,0.043602,0.0182343,0.217743,-0.0261688,0.0299072,-0.0159836,-9.97986,0.00087738,-0.00278473,0.0143814,-0.161018,-0.00934601,-0.00614166,0.0165176,0.00495911
35,4,-9.99003,-0.000610352,0.00198364,-2.42562,0.0550706,-0.0741475,0.0568746,0.124681,-0.0852119,0.146844,-0.121799,-0.0813497,0.00984192,0.0494385,0.0625992,0.0181198,0.213776,-0.0276184,0.0260925,-0.0568771,-9.97986,0.0141907,-0.00740051,0.0165176,-0.163727,0.0132751,-0.00679016,0.0172424,0.00648499
35,5,-2.55748,-0.000305176,0.00183105,-2.42745,0.0541551,-0.075063,0.0553487,0.143602,-0.088874,0.144403,-0.12241,-0.0850118,0.0177765,0.0641632,0.074501,0.0141144,0.21698,-0.0359726,0.0289536,-0.0850296,-9.97986,0.0087738,-0.00583649,0.0148392,-0.178261,0.0136948,-0.00797272,0.0156021,0.0019455
35,6,5.42745,0.00274658,0.00320435,-2.42776,0.0541551,-0.0747579,0.0532125,0.154283,-0.0885688,0.144403,-0.12302,-0.0859274,0.0259399,0.068779,0.0737762,0.0140381,0.214005,-0.0397491,0.030632,-0.0883484,-9.97986,0.0141907,-0.00694275,0.0138855,-0.192757,0.0214386,-0.00797272,0.019722,0.00514984
35,7,10.0097,0,0.0038147,-2.42959,0.0483568,-0.0756734,0.0516866,0.141161,-0.0928413,0.143792,-0.122104,-0.0874532,0.0218582,0.0682449,0.0775146,0.00537872,0.213318,-0.0389481,0.0340271,-0.0528717,-9.97986,0.0196457,0.00492096,0.0139999,-0.203705,0.0165939,-0.00408173,0.0214386,0.00686646
35,8,10.0097,0.00335693,0.000152588,-2.4302,0.0532396,-0.0759786,0.050771,0.0956896,-0.0971137,0.143792,-0.125766,-0.0874532,0.023613,0.0797653,0.0883484,0.00759125,0.210228,-0.0362396,0.0344849,-0.038147,-9.97986,0.0260162,0.00511169,0.0157928,-0.215492,0.0214005,-0.0044632,0.0181198,0.0056839
35,9,10.0097,0.0012207,-0.000305176,-2.42989,0.0529344,-0.0765889,0.0504659,0.0785997,-0.0977241,0.144098,-0.126377,-0.0877584,0.0191498,0.078392,0.0938034,0.00923157,0.208168,-0.0381088,0.0369644,-0.0336838,-9.97986,0.0154114,0.0108719,0.0159454,-0.217438,0.0213242,-0.00759125,0.0185776,0.00686646
36,0,10.0097,0.0012207,-0.000457764,-2.42837,0.055681,-0.0759786,0.0529073,0.0752428,-0.0949775,0.143487,-0.126377,-0.0871481,0.00717163,0.0814819,0.0876236,0.00225067,0.202789,-0.0356293,0.0362015,0.0127792,-9.97986,0.00881195,0.0281143,0.0156021,-0.221062,0.021553,-0.0175476,0.0176239,0.00324249
36,1,10.0097,0.000305176,0.000152588,-2.42684,0.055681,-0.0753682,0.0522969,0.0712755,-0.0937568,0.145929,-0.126682,-0.0850118,0.000648499,0.110016,0.083313,0.0075531,0.192642,-0.0345612,0.0383377,0.0424957,-9.97986,0.0102615,0.0191879,0.0120544,-0.214729,0.0210953,-0.0183105,0.0180054,0.00457764
36,2,10.0097,0.00152588,0.000457764,-2.42745,0.0532396,-0.0753682,0.0538228,0.0728014,-0.0934516,0.145318,-0.126072,-0.0840963,0.00411987,0.112572,0.0686646,0.00743866,0.188599,-0.0301743,0.0363541,0.0455475,-9.97986,0.0144577,0.00488281,0.0118256,-0.206261,0.0196838,-0.0162888,0.0165939,0.00743866
36,3,10.0097,-0.0012207,0.00137329,-2.42837,0.0581224,-0.0744527,0.0519917,0.0715807,-0.0934516,0.144098,-0.125461,-0.0844015,0.0115585,0.0947571,0.044899,0.00896454,0.179787,-0.0266266,0.0364685,0.0505829,-9.97986,0.0248718,-0.00911713,0.0160599,-0.199623,0.0196838,-0.0159073,0.0169754,0.00675201
36,4,10.0097,-0.000915527,0.000610352,-2.42592,0.055681,-0.073232,0.0538228,0.0706652,-0.0913154,0.144708,-0.124241,-0.0819601,0.0162506,0.0465393,0.0285339,0.00911713,0.174675,-0.0285339,0.0387573,0.0291824,-9.97986,0.0292969,-0.0138855,0.0123978,-0.199852,0.018959,-0.0122833,0.0108337,0.00743866
36,5,10.0097,0,0.000152588,-2.42562,0.0565965,-0.0744527,0.0532125,0.0706652,-0.0903999,0.146234,-0.123935,-0.0813497,0.0151443,0.000267029,0.0151825,0.00835419,0.168762,-0.0224304,0.0409317,0.0255585,-9.97986,0.0291824,-0.0179291,0.0172806,-0.200882,0.0193787,-0.0056076,0.0154877,0.00457764
36,6,10.0097,0.00152588,0.000457764,-2.42653,0.0578172,-0.0738423,0.0547383,0.0697496,-0.0925361,0.146234,-0.12363,-0.0816549,0.0103378,-0.0140381,0.00808716,0.00434875,0.157928,-0.0232315,0.038414,0.050087,-9.97986,0.0255966,-0.00759125,0.0115967,-0.188408,0.0149918,0.000305176,0.0128555,0.00640869
36,7,9.23665,0.000915527,-0.00137329,-2.42653,0.0569017,-0.0741475,0.0516866,0.0212267,-0.0955879,0.145624,-0.127292,-0.0825704,0.0139236,-0.0386047,-0.00228882,-0.001297,0.151596,-0.02285,0.0417328,0.0750732,-9.97986,0.0218582,0.00934601,0.0164032,-0.1754,0.0186157,0.00648499,0.0175858,0.00923157
36,8,0.0880912,-0.000610352,-0.00320435,-2.42562,0.055681,-0.0729268,0.0535176,-0.00532361,-0.0965034,0.14898,-0.129123,-0.0819601,0.0150299,-0.035553,-0.00865936,-0.00289917,0.138206,-0.0205994,0.0393295,0.0487518,-9.97986,0.0217819,0.0122833,0.0149918,-0.153847,0.0134659,0.0102615,0.0178146,0.00797272
36,9,-7.06553,0,-0.00335693,-2.42531,0.0572069,-0.0729268,0.0538228,-0.0169203,-0.0968086,0.146844,-0.130344,-0.0816549,0.00946045,-0.00686646,-0.0252914,0.0107956,0.133629,-0.018158,0.0389481,-0.00717163,-9.97986,0.0225449,0.0181198,0.0116348,-0.145226,0.0145721,0.00270844,0.0159454,0.00602722
37,0,-9.99003,-0.00213623,-0.00274658,-2.4244,0.0553758,-0.0729268,0.0556539,0.00901965,-0.0937568,0.146539,-0.127903,-0.0810445,0.00335693,-0.00492096,-0.0577164,0.00892639,0.125084,-0.0121689,0.0410461,-0.046463,-9.97986,0.0276566,0.00377655,0.0119781,-0.130653,0.0111389,0.00137329,0.0155258,0.00991821
37,1,-9.99003,0.000305176,0.000152588,-2.42501,0.0559862,-0.0744527,0.0553487,0.0462511,-0.090705,0.146539,-0.126072,-0.080129,0.00835419,-0.0225067,-0.0547791,0.00972748,0.113525,-0.0140381,0.0392532,-0.0520325,-9.97986,0.0365448,-0.0161743,0.0130081,-0.111237,-0.0120163,0.00133514,0.0182724,0.00831604
37,2,-9.99003,0.00213623,0.00167847,-2.42531,0.0553758,-0.075063,0.0556539,0.0593737,-0.0913154,0.144708,-0.126682,-0.0819601,0.00831604,-0.0468063,-0.0276184,0.00907898,0.107231,-0.0101089,0.0374985,-0.0365829,-9.97986,0.030632,-0.0200653,0.0131607,-0.0949478,-0.00499725,-0.00389099,0.0178528,0.00713348
37,3,-9.99003,0.000610352,0.00183105,-2.42592,0.0553758,-0.0741475,0.0538228,0.065172,-0.0910102,0.145624,-0.126377,-0.0834859,0.0101089,-0.0402069,-0.00759125,0.0101089,0.0970078,-0.00545502,0.0424194,-0.0321579,-9.97986,0.0234985,-0.0094223,0.0156784,-0.0748444,-0.00602722,-0.00331879,0.0183487,0.00411987
37,4,-9.99003,0.000610352,0.00427246,-2.42623,0.0544603,-0.0738423,0.0565694,0.123155,-0.0849067,0.146234,-0.121189,-0.0816549,0.00846863,-0.0168228,0.00183105,0.0123596,0.0810242,-0.00289917,0.0392532,-0.0409317,-9.97986,0.0149918,-0.0038147,0.00953674,-0.0481796,0.0193405,-0.00125885,0.0167465,0.00572205
37,5,-2.69877,0.00213623,0.0062561,-2.42714,0.0541551,-0.0747579,0.054128,0.143907,-0.0858222,0.144403,-0.121494,-0.0828756,0.0122833,-0.0075531,0.0087738,0.0102615,0.0733566,-0.00205994,0.0401688,-0.0159073,-9.97986,0.0120926,-0.00339508,0.01091,-0.0326157,0.0173569,-0.00793457,0.0181961,0.00686646
37,6,5.28615,0.000915527,0.00747681,-2.42806,0.0529344,-0.0753682,0.0550435,0.155199,-0.0885688,0.144403,-0.121799,-0.0847066,0.0273895,0.00724792,0.0128937,0.0128937,0.0634766,0.001297,0.0400543,0.00675201,-9.97986,0.0131989,-0.00659943,0.0107574,-0.000152588,0.0193024,-0.00648499,0.0204086,0.00617981
37,7,10.0097,0.000915527,0.00701904,-2.43081,0.0520189,-0.0768941,0.0526021,0.141161,-0.0931465,0.141351,-0.122715,-0.0862325,0.0255203,0.00289917,0.00675201,0.00766754,0.0544739,0.00282288,0.0390625,0.0102234,-9.97986,0.0114822,-0.00801086,0.0169754,0.0218201,0.0167084,7.62939e-005,0.0172806,0.0082016
37,8,10.0097,-0.000610352,0.00396729,-2.4302,0.0541551,-0.0762837,0.0510762,0.0966051,-0.0965034,0.143487,-0.126072,-0.0886739,0.0199127,-0.0124359,-0.0172043,0.00858307,0.0493622,0.00221252,0.0396347,0.0221634,-9.97986,0.0178146,-0.0127411,0.00892639,0.0539017,0.0177383,-0.00530243,0.0226212,0.00556946
37,9,10.0097,0.000610352,0.00305176,-2.42959,0.0541551,-0.0756734,0.050771,0.0792101,-0.0968086,0.143182,-0.125461,-0.0877584,0.0128937,-0.0114059,-0.0313568,0.00724792,0.0373459,0.000228882,0.0395966,0.0176239,-9.97986,0.0163269,-0.0132751,0.0137329,0.0748825,0.0205231,-0.00492096,0.0201797,0.00705719
38,0,10.0097,0.000915527,0.00183105,-2.42837,0.0538499,-0.0759786,0.0522969,0.0746324,-0.095893,0.142267,-0.125461,-0.085317,0.01297,-0.00709534,-0.0357437,0.00789642,0.0276947,0.0106049,0.0407791,0.014267,-9.97986,0.0225449,-0.0135803,0.0103378,0.0954819,0.0199127,-0.00377655,0.0177383,0.00816345
38,1,10.0097,0.0012207,0.00167847,-2.42837,0.0559862,-0.0756734,0.0519917,0.0724962,-0.0943672,0.144403,-0.126682,-0.0847066,0.0126648,-0.00621796,-0.0386047,0.0147629,0.0236511,0.00747681,0.0380707,0.0227356,-9.97986,0.030899,-0.00160217,0.0124741,0.119858,0.0194931,-0.00656128,0.020752,0.00686646
38,2,10.0097,0.00244141,0.00228882,-2.42684,0.055681,-0.0759786,0.0535176,0.0709703,-0.0934516,0.145929,-0.125461,-0.0837911,0.0165558,-0.00965118,-0.0204468,0.0134659,0.0125122,0.00556946,0.0379944,0.0324631,-9.97986,0.0344849,0.00778198,0.0128555,0.138817,0.0198364,-0.00274658,0.0196838,0.00892639
38,3,10.0097,0.000610352,0.0012207,-2.42806,0.0550706,-0.075063,0.0529073,0.0715807,-0.0931465,0.145318,-0.125461,-0.0837911,0.0122833,-0.00476837,-0.0105667,0.00831604,0.00499725,0.0101089,0.0350571,0.0403214,-9.97986,0.0365448,0.00770569,0.0143433,0.144463,0.0217056,-0.00240326,0.0165176,0.0063324
38,4,10.0097,0.00213623,0.000762939,-2.42592,0.0541551,-0.0744527,0.0553487,0.07036,-0.0925361,0.146539,-0.125156,-0.0822652,0.0141144,0.00576019,0.0125122,0.0123215,-0.0031662,0.0106812,0.034523,0.0321579,-9.97986,0.0285721,0.0112915,0.0110245,0.146103,0.0222778,-0.00774384,0.0192261,0.00968933
38,5,10.0097,0.00183105,0.000305176,-2.42531,0.0547655,-0.0741475,0.0556539,0.0728014,-0.0922309,0.147149,-0.123935,-0.0804342,0.00953674,0.0134277,0.0159836,0.0133514,-0.0114059,0.0124741,0.0299072,0.0356293,-9.97986,0.0229645,-0.00297546,0.01194,0.15213,0.0208282,-0.0164413,0.0146866,0.00972748
38,6,10.0097,0.00152588,0,-2.42623,0.0559862,-0.0729268,0.0556539,0.0712755,-0.0922309,0.14776,-0.123935,-0.0813497,0.0140762,0.0185394,0.016861,0.0125885,-0.0153351,0.00801086,0.0252151,0.0370026,-9.97986,0.021286,-0.0108719,0.0164413,0.14576,0.0209045,-0.0180817,0.0186157,0.00907898
38,7,9.48415,-0.000915527,-0.00228882,-2.42776,0.0553758,-0.0744527,0.0522969,0.0212267,-0.0971137,0.145929,-0.127292,-0.0825704,0.00862122,0.0137711,0.0138855,0.0141144,-0.0223923,0.0144577,0.0286484,0.0384521,-9.97986,0.0175858,-0.00148773,0.0167084,0.14576,0.0220871,-0.0183868,0.017395,0.00999451
38,8,0.349016,-0.000305176,-0.00396729,-2.4244,0.0569017,-0.0729268,0.0535176,-0.00410291,-0.0983344,0.14776,-0.128513,-0.0819601,0.013237,0.0133514,0.0228119,0.0134659,-0.0246429,0.00827789,0.0274277,0.0427246,-9.97986,0.0142288,0.00225067,0.0131607,0.15274,0.0225067,-0.0177002,0.0147629,0.010376
38,9,-6.79118,0.00152588,-0.00427246,-2.42562,0.0569017,-0.0747579,0.0544332,-0.0163099,-0.0961982,0.14776,-0.129734,-0.0813497,0.0115204,0.0228119,0.027504,0.0123596,-0.0347137,0.0069809,0.027771,0.0409317,-9.97986,0.0134659,0.00461578,0.0156784,0.148773,0.0193024,-0.0161362,0.0139236,0.0119781
39,0,-9.99003,0.00213623,-0.00335693,-2.42562,0.0538499,-0.0738423,0.0568746,0.00749377,-0.0934516,0.146844,-0.127903,-0.0798238,0.0136185,0.0292587,0.0297928,0.0172806,-0.0362778,0.00415802,0.019989,0.0432587,-9.97986,0.0100708,0.00656128,0.0141907,0.145912,0.013504,-0.00415802,0.0148392,0.00522614
39,1,-9.99003,0.00213623,-0.00183105,-2.42501,0.0559862,-0.0726216,0.055959,0.0428942,-0.088874,0.146844,-0.126072,-0.0822652,0.0165939,0.0341415,0.0391006,0.0177002,-0.0405502,0.0123596,0.0187302,0.0426102,-9.97986,0.0082016,0.00869751,0.0100327,0.14637,-0.00766754,0.00423431,0.0149155,0.00938416
39,2,-9.99003,-0.000915527,-0.000610352,-2.42562,0.0562914,-0.0747579,0.0553487,0.0578478,-0.0916206,0.145624,-0.125766,-0.0825704,0.0132751,0.0350189,0.0359344,0.0169754,-0.0480652,0.00331879,0.0187683,0.0417328,-9.97986,0.00411987,0.00709534,0.0114059,0.138626,-0.00732422,0.00862122,0.012207,0.0111008
39,3,-9.99003,0.000305176,0.000305176,-2.42684,0.0553758,-0.0747579,0.0547383,0.0654772,-0.0913154,0.145318,-0.126682,-0.0834859,0.0154495,0.0378418,0.0392532,0.0179291,-0.0519943,0.00534058,0.0154877,0.039978,-9.97986,0.012207,0.00305176,0.0106812,0.141335,-0.00701904,0.0101089,0.0135422,0.0106812
39,4,-9.99003,0.0012207,0.00152588,-2.42562,0.0559862,-0.0753682,0.0568746,0.125902,-0.0858222,0.145318,-0.121494,-0.0816549,0.00701904,0.0405121,0.0382614,0.014534,-0.0509262,0.00411987,0.0149918,0.0415802,-9.97986,0.00843048,0.00328064,0.0143433,0.135307,0.0165176,0.0102997,0.0154114,0.0102615
39,5,-2.43876,0,0.00320435,-2.42623,0.0550706,-0.0765889,0.0535176,0.143602,-0.0864326,0.143792,-0.121799,-0.0840963,0.00591278,0.037384,0.0357819,0.0133514,-0.0578308,0.00148773,0.0128174,0.0428772,-9.97986,0.00495911,0.000839233,0.0141907,0.133057,0.0149155,0.00980377,0.0129318,0.0113678
39,6,5.63832,0.0012207,0.00396729,-2.42837,0.0559862,-0.0765889,0.054128,0.155504,-0.088874,0.143487,-0.120884,-0.0850118,0.011673,0.0388718,0.0416183,0.015564,-0.0602341,0.00202179,0.0167084,0.0288773,-9.97986,0.00591278,0.00881195,0.0112152,0.130272,0.0213242,-0.00488281,0.0124359,0.0101089
39,7,10.0097,0.000305176,0.00289917,-2.42989,0.0529344,-0.0762837,0.0516866,0.136278,-0.0931465,0.143792,-0.12302,-0.0871481,0.00354767,0.0381088,0.0414658,0.011673,-0.0655365,0.00320435,0.0135803,0.0207901,-9.97986,0.00934601,0.00312805,0.0136566,0.119896,0.0134277,-0.0125885,0.0156403,0.0121689
39,8,10.0097,0.0012207,0.0012207,-2.4305,0.0514085,-0.0768941,0.0498555,0.094774,-0.0968086,0.142877,-0.125461,-0.0880636,0.0037384,0.0414658,0.0428009,0.00984192,-0.0645828,0.00396729,0.0117493,0.0334549,-9.97986,0.0043869,0.00331879,0.0158691,0.11528,0.0123978,-0.0115204,0.0148773,0.0141144
39,9,10.0097,0.00244141,-0.000915527,-2.43081,0.0538499,-0.0762837,0.0504659,0.0804308,-0.0971137,0.143792,-0.126377,-0.0883688,0.00415802,0.0402451,0.0412369,0.011673,-0.0696564,0.00595093,0.0130463,0.04879,-9.97986,0.00514984,0.000228882,0.014801,0.112457,0.0162506,-0.0102615,0.014801,0.0131607
40,0,10.0097,-0.00244141,-0.000457764,-2.42806,0.0541551,-0.0747579,0.0516866,0.0737169,-0.094062,0.144403,-0.126987,-0.0871481,0.00595093,0.0429153,0.0419617,0.015564,-0.073204,0.0134659,0.0127792,0.0666428,-9.97986,0.00205994,-0.00370026,0.0153732,0.108109,0.00926971,-0.0131607,0.0105286,0.0138092
40,1,10.0097,0.000610352,-0.000915527,-2.42837,0.0547655,-0.0744527,0.0513814,0.072191,-0.0937568,0.144098,-0.126682,-0.085317,0.00850677,0.0471878,0.0502396,0.017395,-0.0735855,0.0139999,0.0108337,0.0596619,-9.97986,0.0030899,-0.00587463,0.014267,0.102196,0.0126266,-0.0245285,0.010376,0.0128937
40,2,10.0097,0.0012207,-0.000457764,-2.42745,0.0544603,-0.0753682,0.0529073,0.0712755,-0.0943672,0.144708,-0.126377,-0.0844015,0.0106812,0.0477219,0.0545502,0.0164413,-0.0741577,0.0136185,0.0101852,0.04673,-9.97986,0.00335693,0.00183105,0.00896454,0.0959778,0.00900269,-0.0273132,0.0123596,0.0124359
40,3,10.0097,0.000610352,0,-2.42592,0.0553758,-0.075063,0.0544332,0.072191,-0.0919257,0.145013,-0.125766,-0.0831808,0.0164413,0.0471497,0.0534058,0.0147247,-0.0783157,0.0148773,0.00789642,0.0489426,-9.97986,0.0037384,0.0038147,0.0146866,0.0880814,0.00541687,-0.0146866,0.0111771,0.0117111
