
Devices
1200
,,BP Load cell - Voltage,String Length - Voltage,Clutch Active - Voltage,#7 iPecs - Voltage,,,,,,,,,EMG 1-8 Left - Voltage,,,,,,,,Pylon Force - Voltage,EMG 9-16 Right - Voltage,,,,,,,,
Frame,Sub Frame,BP Load Cell,String Length,From Arduino Logic,A45,A135,A225,A315,S0,S90,S180,S270,ZSum,EMG 1 Glut Max,EMG 2 Glut Med,EMG 3 Biceps Femoris Long,EMG 4 Rectus Femoris,EMG 5 Vastus Medialis,EMG 6 Tib Ant,EMG 7 Med Gas,EMG 8 Soleus,Pylon volts,EMG 9 Glut Max,EMG 10 Glut Med,EMG 11 Biceps Femoris Long,EMG 12 Rectus Femoris,EMG 13 Vastus Medialis,EMG 14 Tib Ant,EMG 15 Med Gas,EMG 16 Soleus
,,V,V,V,V,V,V,V,V,V,V,V,V,V,V,V,V,V,V,V,V,V,V,V,V,V,V,V,V,V
1,0,8.32021,-0.000305176,-0.000152588,-2.42653,0.0559862,-0.0753682,0.0538228,0.0828722,-0.0897895,0.145013,-0.124851,-0.0834859,-0.00495911,0.0185776,0.00988007,0.00785828,0.0299835,-0.0100327,0.0270462,0.0246048,-9.97986,-0.0133133,-0.00545502,0.00511169,0.00320435,0.0105286,0.0100708,-0.00774384,0.00286102
1,1,10.0097,0.000305176,0.00106812,-2.42745,0.0538499,-0.0756734,0.0544332,0.109117,-0.0882636,0.144403,-0.124851,-0.0850118,0.00118256,0.0192261,0.0111389,0.00766754,0.0262451,-0.0125504,0.0313568,0.0238037,-9.97986,0.00301361,0.001297,0.010376,-0.00457764,0.01297,0.00274658,-0.010376,0.00087738
1,2,10.0097,0.000915527,-0.000152588,-2.42928,0.0541551,-0.0756734,0.0519917,0.082567,-0.095893,0.143182,-0.127292,-0.0877584,0.0127792,0.0175858,0.0108719,0.00320435,0.029068,-0.00686646,0.0285339,0.0246048,-9.97986,0.0182343,0.00991821,0.00183105,-0.00850677,0.0105286,-0.00209808,-0.00705719,0.00587463
1,3,10.0097,-0.00183105,-0.000610352,-2.42989,0.0547655,-0.0762837,0.0516866,0.0746324,-0.0961982,0.144098,-0.126987,-0.0865377,-0.00144958,0.0162506,0.0143433,0.0063324,0.0364304,-0.00988007,0.0282288,0.0260925,-9.97986,0.0164413,0.00900269,-0.00389099,-0.0171661,0.0115967,-0.000305176,-0.00675201,0.0196838
1,4,10.0097,0,-0.000915527,-2.4305,0.0523241,-0.0762837,0.0504659,0.07036,-0.0965034,0.144098,-0.128818,-0.0883688,-0.0138474,0.0194931,0.0094986,0.00911713,0.0316238,-0.00274658,0.0236893,0.0263596,-9.97986,0.00854492,0.00659943,-0.00743866,-0.0267792,0.0146103,-0.00175476,-0.00926971,0.0215912
1,5,10.0097,0.000610352,-0.00183105,-2.42867,0.0535448,-0.0756734,0.0522969,0.0688341,-0.0943672,0.142877,-0.126377,-0.0871481,-0.0248337,0.0152206,0.0130844,0.00740051,0.0234985,0.00339508,0.0241089,0.0280762,-9.97986,0.00312805,0.00415802,-0.00965118,-0.0343704,0.0114822,0.00679016,-0.00782013,0.0263596
1,6,10.0097,0.00152588,-0.00106812,-2.42928,0.0538499,-0.0762837,0.0522969,0.07036,-0.094062,0.144708,-0.128513,-0.0868429,-0.0274658,0.0178146,0.0139999,0.00701904,0.0245285,0.0119019,0.0237274,0.0236893,-9.97986,0.00286102,0.0108719,-0.0129318,-0.0388336,0.00858307,0.0100327,-0.000190735,0.0292587
1,7,10.0097,0.000610352,-0.00106812,-2.42837,0.0544603,-0.0753682,0.0529073,0.07036,-0.0931465,0.145013,-0.127292,-0.085317,-0.0212097,0.0180817,0.0175095,0.00953674,0.0185394,0.0215912,0.0257874,0.0154114,-9.97986,0.0115585,0.0137329,-0.00556946,-0.0411606,0.0166321,0.0102615,0.0118256,0.0283051
1,8,10.0097,0.00335693,-0.000610352,-2.42745,0.0553758,-0.0747579,0.0544332,0.0706652,-0.0934516,0.143487,-0.126072,-0.0847066,-0.00774384,0.0222015,0.0167084,0.0105667,0.0158691,0.0168991,0.0263977,0.014267,-9.97986,0.0082016,0.00839233,0.00679016,-0.0475311,0.0193405,0.0129318,0.0258255,0.0131607
1,9,10.0097,-0.000305176,-0.000305176,-2.42745,0.0544603,-0.0747579,0.054128,0.07036,-0.0925361,0.145013,-0.125461,-0.0844015,0.00629425,0.0253296,0.0195313,0.0107956,0.00770569,0.0115585,0.0299072,0.0217819,-9.97986,0.0149536,0.0126266,0.0233078,-0.0439072,0.03582,0.0137711,0.0328445,0.0075531
2,0,10.0097,-0.000305176,0,-2.42653,0.0547655,-0.0744527,0.0544332,0.0697496,-0.0937568,0.144098,-0.125461,-0.0825704,0.022316,0.020256,0.0198746,0.00965118,0.00541687,0.00350952,0.0301743,0.019989,-9.97986,0.0148773,0.00236511,0.0298309,-0.0470734,0.0395203,0.00610352,0.0435257,0.00793457
2,1,10.0097,0.000610352,0,-2.42379,0.0535448,-0.0735371,0.0544332,0.0715807,-0.0913154,0.145929,-0.123935,-0.0810445,0.0359344,0.0189972,0.0217056,0.00888824,0.0100708,-0.00221252,0.0365448,0.0159073,-9.97986,0.0175858,0.00610352,0.0405502,-0.0401688,0.0432587,0.00396729,0.0453568,0.00980377
2,2,10.0097,-0.000305176,-0.000457764,-2.42623,0.0569017,-0.0735371,0.0544332,0.07036,-0.090705,0.146844,-0.124851,-0.0819601,0.044632,0.0246048,0.0217819,0.0127792,0.0062561,-0.0156784,0.0311661,0.0141525,-9.97986,0.0218582,-0.00114441,0.0423431,-0.0465012,0.0368881,0.00225067,0.0393677,0.00965118
2,3,10.0097,-0.00152588,-0.000305176,-2.42501,0.0562914,-0.0744527,0.0544332,0.0715807,-0.0922309,0.145624,-0.12363,-0.0816549,0.0377655,0.0260162,0.0232697,0.00972748,0.0123596,-0.0190353,0.0327301,0.0140381,-9.97986,0.0270462,0.00328064,0.0376892,-0.052681,0.0330353,0.00793457,0.0281525,0.0122833
2,4,10.0097,0.000610352,0,-2.42409,0.0565965,-0.073232,0.0556539,0.07036,-0.0913154,0.14776,-0.12363,-0.0795187,0.00339508,0.0217438,0.021553,0.0166702,0.0172806,-0.0188065,0.0309753,0.0120544,-9.97986,0.0165939,-0.00465393,0.0233841,-0.057373,0.0235367,0.00644684,0.0219727,0.00911713
2,5,10.0097,-0.000610352,0.000152588,-2.42623,0.055681,-0.0741475,0.0544332,0.0584581,-0.0946723,0.146234,-0.125156,-0.0816549,-0.0130844,0.0249481,0.0198364,0.0177002,0.0219727,-0.0187683,0.0340271,0.0133514,-9.97986,0.012207,-0.00289917,0.0242233,-0.0605774,0.0222778,0.00732422,0.0157547,-0.00366211
2,6,9.97121,-0.000610352,-0.00183105,-2.4244,0.0562914,-0.0738423,0.054128,0.0395372,-0.0952827,0.145624,-0.125461,-0.0825704,-0.00453949,0.0244904,0.0190735,0.0133514,0.0227737,-0.0218582,0.0299072,0.0116348,-9.97986,0.0131607,-0.00038147,0.0312424,-0.0612259,0.0182343,0.00728607,0.0157547,-0.0165558
2,7,7.93691,-0.000610352,-0.00106812,-2.42714,0.0562914,-0.0735371,0.0544332,0.049608,-0.0919257,0.145929,-0.126682,-0.0816549,0.0259781,0.0264359,0.0242996,0.0153732,0.025177,-0.0156403,0.0245285,0.0101852,-9.97986,0.0157547,-0.00164032,0.0321579,-0.059433,0.017662,0.00938416,0.0189209,-0.0125504
2,8,7.40895,0,-0.000762939,-2.42592,0.0562914,-0.075063,0.0544332,0.0615099,-0.0922309,0.144708,-0.126072,-0.0825704,0.0331497,0.0205231,0.0221252,0.014534,0.0329971,-0.0226593,0.0307465,0.0110626,-9.97986,0.0124359,-0.00118256,0.0294876,-0.0701904,0.0161743,0.00175476,0.0178146,-0.00434875
2,9,7.46358,0.0012207,-0.000610352,-2.42623,0.0553758,-0.0744527,0.0535176,0.0676134,-0.0922309,0.145318,-0.125766,-0.0837911,0.0312042,0.0218964,0.0169373,0.0154877,0.0384903,-0.0177765,0.0288773,0.0149155,-9.97986,0.0118256,-0.00167847,0.0268936,-0.0721359,0.0175476,-0.000801086,0.0149155,0.00724792
3,0,8.36263,-0.000305176,0.000610352,-2.42989,0.0553758,-0.075063,0.0544332,0.0822618,-0.0900947,0.145013,-0.125156,-0.0834859,0.0349045,0.0194168,0.0175095,0.0127029,0.0375748,-0.013504,0.0292587,0.0207138,-9.97986,0.0226593,-0.00419617,0.029068,-0.0766373,0.0142288,-0.00553131,0.00862122,0.0211716
3,1,10.0097,0.000610352,0.00198364,-2.42745,0.0535448,-0.0756734,0.054128,0.109422,-0.0897895,0.144403,-0.123935,-0.0834859,0.0100708,0.0201797,0.0201416,0.0144577,0.0440216,-0.0115585,0.0286484,0.0266266,-9.97986,0.0183105,-0.00236511,0.0217819,-0.0779724,0.0138855,-0.00442505,0.00923157,0.0292969
3,2,10.0097,0.00183105,0.000610352,-2.4305,0.0532396,-0.0771993,0.0519917,0.082567,-0.0952827,0.144098,-0.126377,-0.0886739,-0.0165939,0.0227737,0.016861,0.0109863,0.0466537,-0.0177765,0.0256729,0.0323868,-9.97986,0.0133896,0.000114441,0.0215912,-0.0795364,0.0154877,-0.0141907,0.00938416,0.0321198
3,3,10.0097,-0.000610352,-0.000305176,-2.42989,0.0538499,-0.075063,0.0513814,0.0724962,-0.0952827,0.143792,-0.127292,-0.0871481,-0.00801086,0.0271606,0.0253296,0.0149536,0.0453949,-0.00728607,0.0312042,0.0376511,-9.97986,0.011673,0,0.0135803,-0.0716782,0.0327301,-0.00843048,0.00766754,0.0396347
3,4,10.0097,0,-0.000915527,-2.42959,0.0535448,-0.0765889,0.0526021,0.0718859,-0.0943672,0.144403,-0.127292,-0.0871481,-0.0159073,0.0214767,0.0136185,0.00648499,0.028801,-0.00392914,0.0239944,0.0302887,-9.97986,-0.00537872,-0.00812531,0.00469208,-0.0776291,0.0167465,-0.00705719,-0.00343323,0.028038
3,5,10.0097,0.000610352,-0.00106812,-2.42928,0.0538499,-0.0747579,0.0532125,0.0694445,-0.0943672,0.143487,-0.127903,-0.0868429,-0.00499725,0.0268555,0.019455,0.0114441,0.0348663,0.00831604,0.0354004,0.038147,-9.97986,-0.00507355,-0.00679016,0.0115204,-0.0812531,0.0130081,-0.00549316,0.00476837,0.0303268
3,6,10.0097,0.00183105,-0.00152588,-2.43081,0.0532396,-0.0768941,0.0526021,0.0700548,-0.0943672,0.142877,-0.126682,-0.0868429,0.0231552,0.022316,0.0164413,0.00606537,0.0267029,0.0274658,0.0237656,0.0473785,-9.97986,0.0146866,-0.00324249,0.00709534,-0.0801086,0.0180435,0.00228882,0.0128174,0.020256
3,7,10.0097,0.000915527,-0.000457764,-2.42837,0.0541551,-0.0753682,0.0532125,0.0694445,-0.0937568,0.143487,-0.127598,-0.0847066,0.0402832,0.0258636,0.021553,0.00930786,0.0214767,0.045433,0.0253677,0.0493622,-9.97986,0.0296783,-0.000991821,-0.00865936,-0.0844955,0.0154114,0.0104523,0.0244141,-0.0256729
3,8,10.0097,0.00152588,0.000152588,-2.42867,0.0547655,-0.0756734,0.0538228,0.0700548,-0.0928413,0.144708,-0.125461,-0.0847066,0.0325394,0.0246811,0.0231552,0.00865936,0.0169754,0.0326157,0.0256729,0.043869,-9.97986,0.0414658,-0.00526428,-0.0126266,-0.0773239,0.0259781,0.0121307,0.0272751,-0.0368118
3,9,10.0097,0.000610352,0,-2.42989,0.0544603,-0.0744527,0.0538228,0.0688341,-0.094062,0.144708,-0.125766,-0.0847066,0.0315857,0.0297546,0.0259781,0.0102997,0.0173569,0.0146866,0.0282288,0.0363159,-9.97986,0.0475693,-0.00293732,-0.00679016,-0.0765991,0.0291824,0.0161362,0.0106049,-0.0200653
4,0,10.0097,0.000610352,0.000305176,-2.42745,0.0550706,-0.0747579,0.054128,0.0706652,-0.094062,0.145624,-0.124851,-0.0834859,0.0304031,0.0341034,0.030632,0.00938416,0.0087738,0.0152206,0.0267792,0.029335,-9.97986,0.0455475,-0.000953674,0.00801086,-0.071106,0.0273895,0.0118637,0.00038147,-0.0075531
4,1,10.0097,-0.000305176,0.00152588,-2.42592,0.0572069,-0.0738423,0.0544332,0.07036,-0.0922309,0.147455,-0.125156,-0.0810445,0.0237656,0.0366211,0.0312424,0.0165558,0.00335693,0.0134277,0.0325775,0.0267792,-9.97986,0.041275,-0.00850677,0.0118637,-0.0676346,0.0333023,0.0124741,-0.0069046,0.0193787
4,2,10.0097,0.000915527,0.000610352,-2.4247,0.055681,-0.0747579,0.0544332,0.0700548,-0.0910102,0.148065,-0.124851,-0.0810445,-0.0145721,0.0411987,0.0322723,0.0175095,7.62939e-005,0.0115585,0.025177,0.0050354,-9.97986,0.0274658,-0.00564575,0.00141144,-0.0678253,0.0259018,0.00782013,-0.00484467,0.0319672
4,3,10.0097,0.000305176,0.000457764,-2.42531,0.0553758,-0.0747579,0.0550435,0.0654772,-0.0922309,0.146844,-0.124546,-0.080129,-0.0351334,0.0408173,0.0364685,0.0205612,0.00644684,0.00465393,0.0281525,-0.00511169,-9.97986,0.00991821,-0.00514984,0.000839233,-0.0663376,0.0275421,0.00797272,0.00602722,0.0418472
4,4,10.0097,0.000610352,-0.000305176,-2.4247,0.0562914,-0.0735371,0.0544332,0.0712755,-0.0922309,0.146539,-0.124851,-0.0810445,-0.0056839,0.0354767,0.0314331,0.0180054,0.0118637,-0.00488281,0.0339127,0.0056076,-9.97986,-0.0224686,-0.00247955,-0.0082016,-0.0658417,0.0267792,0.00740051,0.00980377,0.0404739
4,5,10.0097,0.00152588,-0.000152588,-2.42653,0.055681,-0.075063,0.0544332,0.0584581,-0.0937568,0.145624,-0.125156,-0.0816549,0.0215912,0.0377655,0.0305939,0.0144196,0.0181198,0.000534058,0.0273514,0.00530243,-9.97986,-0.0705719,-0.00297546,-0.0119781,-0.0687408,0.0166702,0.0117111,0.0238419,0.0330353
4,6,10.0097,-0.000305176,-0.00106812,-2.42653,0.0553758,-0.075063,0.0538228,0.0395372,-0.0946723,0.145624,-0.125766,-0.0822652,-0.00213623,0.0294113,0.0270462,0.0150299,0.0273514,0.00751495,0.0282288,-0.00236511,-9.97986,-0.102654,-0.00232697,-0.0187683,-0.064888,0.00728607,0.00793457,0.0411224,0.0189972
4,7,8.14809,0.00152588,-0.00106812,-2.42653,0.0550706,-0.0738423,0.0544332,0.0480822,-0.0931465,0.145624,-0.126682,-0.0825704,-0.033493,0.0213242,0.02388,0.0127029,0.0281525,0.00911713,0.0250244,-0.000648499,-9.97986,-0.128784,0.000495911,-0.0214005,-0.0650406,0.00915527,0.00617981,0.0418854,0.00572205
4,8,7.59267,-0.000305176,-0.000305176,-2.42623,0.0550706,-0.0744527,0.0553487,0.0605944,-0.0934516,0.145929,-0.125461,-0.0828756,-0.0375366,0.0175095,0.0193024,0.0115204,0.032692,0.00946045,0.023613,0.00740051,-9.97986,-0.109673,0.000762939,-0.00663757,-0.062294,0.00923157,0.00198364,0.0285339,-0.00968933
4,9,7.67293,0.00152588,0.000152588,-2.42653,0.0550706,-0.0747579,0.0547383,0.0706652,-0.0919257,0.145624,-0.126072,-0.0822652,-0.0279999,0.020256,0.0201035,0.0114822,0.0195313,0.0100327,0.026741,0.0114441,-9.97986,-0.0712204,-0.000419617,0.00556946,-0.0603485,0.0113678,-0.00267029,0.0296783,-0.0180817
5,0,8.57747,0.0012207,0.000762939,-2.42684,0.0547655,-0.0747579,0.0547383,0.0822618,-0.0925361,0.144403,-0.126682,-0.0837911,-0.00328064,0.0243759,0.0205612,0.0087738,0.0114441,0.0113297,0.0205612,0.00465393,-9.97986,-0.0736618,-0.00450134,0.0164032,-0.0585938,0.00556946,-0.0056839,0.0154877,-0.0260925
5,1,10.0097,0.00152588,0.00274658,-2.42776,0.0535448,-0.0768941,0.054128,0.10576,-0.0897895,0.143792,-0.124546,-0.0847066,0.00766754,0.0189972,0.0169754,0.0118637,0.0150299,0.0110245,0.0260162,-0.00087738,-9.97986,-0.0632858,-0.00415802,0.0317764,-0.0513077,0.00694275,-0.00644684,-0.00244141,-0.0177002
5,2,10.0097,0.000610352,0.000915527,-2.4302,0.0532396,-0.0759786,0.0526021,0.0804308,-0.0949775,0.143487,-0.127598,-0.0871481,-0.013504,0.0182343,0.0111389,0.0063324,0.0232697,0.014267,0.0239944,-0.000419617,-9.97986,-0.0218201,-0.00453949,0.0465775,-0.0505447,0.0123215,-0.00350952,-0.0031662,-0.00812531
5,3,10.0097,0.00152588,0.000610352,-2.42959,0.0541551,-0.0762837,0.0519917,0.0749376,-0.0946723,0.143792,-0.127598,-0.0862325,-0.0118637,0.0170517,0.0130463,0.0101852,0.0199509,0.0173187,0.0248718,-0.00663757,-9.97986,0.043602,-0.00286102,0.0497437,-0.044632,0.0132751,-0.00556946,0.00499725,-0.00827789
5,4,10.0097,0.0012207,0.000457764,-2.42959,0.0532396,-0.0762837,0.0510762,0.0718859,-0.094062,0.141656,-0.127903,-0.0871481,0.00667572,0.01297,0.0114059,0.00965118,0.0181198,0.02285,0.0239182,0.00038147,-9.97986,0.095253,-0.00556946,0.0513077,-0.0432968,0.0140762,-0.01091,0.0144958,-0.0406647
5,5,10.0097,0.000305176,-0.000305176,-2.42867,0.0547655,-0.0759786,0.0513814,0.0709703,-0.0952827,0.141961,-0.128208,-0.0865377,0.0195694,0.0131989,0.00759125,0.0110626,0.0220108,0.0230789,0.0284576,0.0062561,-9.97986,0.108452,-0.00263214,0.0423813,-0.0422287,0.0144196,-0.0075531,0.022316,-0.0838852
5,6,10.0097,-0.000915527,0.000305176,-2.42867,0.0532396,-0.0765889,0.0522969,0.0697496,-0.094062,0.143182,-0.128513,-0.0865377,0.0130081,0.0088501,0.00427246,0.00766754,0.0254059,0.021286,0.0279236,0.00679016,-9.97986,0.0989151,-0.00556946,0.0270844,-0.0414276,0.0120544,-0.0120926,0.0240707,-0.0928497
5,7,10.0097,0.000915527,-0.000305176,-2.42837,0.0535448,-0.0762837,0.0529073,0.0694445,-0.0943672,0.144098,-0.125766,-0.085317,0.0377655,0.00831604,0.0037384,0.00972748,0.0265884,0.0100708,0.024147,0.00896454,-9.97986,0.0716782,-0.00160217,0.0250244,-0.0393295,0.0125885,-0.0139236,0.0382614,-0.0702286
5,8,10.0097,0.000305176,-0.000915527,-2.42806,0.0535448,-0.0756734,0.0538228,0.0700548,-0.0934516,0.145318,-0.126682,-0.085317,0.0670624,0.00774384,0.00270844,0.0069809,0.0135422,0.00282288,0.0212097,0.00938416,-9.97986,0.0609589,-0.0043869,0.0314331,-0.0400543,0.00850677,-0.0147629,0.0477982,-0.0396347
5,9,10.0097,0.000915527,0.000915527,-2.42776,0.0547655,-0.0756734,0.0532125,0.0685289,-0.0928413,0.145624,-0.126377,-0.0850118,0.0564194,0.00606537,0.00396729,0.00984192,0.00148773,-0.00442505,0.0256729,0.01091,-9.97986,0.0457001,0.00274658,0.0237656,-0.0395966,0.0118637,-0.0127029,0.0540543,0.00976563
6,0,10.0097,0.000610352,-0.000152588,-2.42623,0.0547655,-0.0753682,0.0529073,0.0694445,-0.0937568,0.14776,-0.125461,-0.0834859,0.0384903,0.0087738,0.00282288,0.00671387,0.000839233,-0.01091,0.0276566,0.0126648,-9.97986,0.0449371,0.00114441,0.0102234,-0.0399399,0.0094986,-0.0138855,0.0558853,0.0521851
6,1,10.0097,0.00152588,0.000457764,-2.42562,0.0553758,-0.0738423,0.0538228,0.0718859,-0.0916206,0.14776,-0.124546,-0.0819601,0.042305,0.0138855,0.00324249,0.00778198,-0.000190735,-0.0088501,0.0286484,0.0156403,-9.97986,0.0823975,0.000305176,0.00907898,-0.0315475,0.0102234,-0.00965118,0.0447845,0.0754929
6,2,10.0097,0.000305176,-0.000305176,-2.42623,0.055681,-0.0729268,0.054128,0.0718859,-0.0913154,0.147455,-0.12363,-0.0813497,0.0350571,0.0130081,0.00297546,0.0104904,-0.0104141,0.00228882,0.0287247,0.0188828,-9.97986,0.112915,0.00160217,0.00202179,-0.0367737,0.0137711,-0.0094986,0.0440598,0.0791168
6,3,10.0097,0.000305176,0.000305176,-2.42501,0.0569017,-0.0738423,0.0550435,0.0718859,-0.0934516,0.147149,-0.124241,-0.0816549,0.0363541,0.0144577,0.00274658,0.0069809,-0.00179291,0.00183105,0.0240707,0.0170898,-9.97986,0.11116,0.0030899,-0.00175476,-0.032692,0.0143051,-0.0230026,0.0502014,0.068512
6,4,10.0097,0.000915527,0.000762939,-2.42501,0.0559862,-0.0726216,0.0550435,0.0688341,-0.090705,0.145318,-0.124546,-0.0804342,0.0263214,0.0183487,0.0050354,0.00888824,0.00961304,0.00652313,0.0229263,0.0245285,-9.97986,0.0965881,0.00537872,-0.00144958,-0.0290298,0.0137711,-0.0214005,0.0486755,0.0582886
6,5,10.0097,-0.000305176,0,-2.42653,0.055681,-0.0747579,0.0529073,0.0544908,-0.0946723,0.145318,-0.126072,-0.0822652,0.0187302,0.0147629,0.00778198,0.0140762,0.0185013,0.00556946,0.0204468,0.0214005,-9.97986,0.068779,-0.00148773,0.00133514,-0.021553,0.0105667,-0.0225449,0.0471115,0.0435257
6,6,9.93032,-0.00213623,-0.0012207,-2.42623,0.0559862,-0.0747579,0.0544332,0.0401476,-0.0946723,0.145318,-0.126072,-0.0810445,0.0188446,0.0208664,0.00526428,0.0102997,0.0118637,-0.00240326,0.0221634,0.0203705,-9.97986,0.0457764,-0.000152588,0.00156403,-0.0154495,0.0119019,-0.0260544,0.0424576,0.0231552
6,7,8.03182,0.000610352,-0.000152588,-2.42653,0.0550706,-0.0756734,0.0544332,0.0499132,-0.0928413,0.146844,-0.125766,-0.0825704,0.0113297,0.0198746,0.0126648,0.0165176,0.001297,-0.00232697,0.0212097,0.0196075,-9.97986,0.028801,0.00476837,-0.00488281,-0.00419617,0.0133133,-0.0183868,0.0374222,0.0139999
6,8,7.49867,0.000610352,0,-2.42745,0.0553758,-0.0747579,0.0535176,0.0602892,-0.0931465,0.146234,-0.124851,-0.0819601,0.00862122,0.0223923,0.0129318,0.00907898,-0.00427246,0.00164032,0.0234604,0.0197983,-9.97986,0.0178909,0.00038147,-0.0165558,-0.00717163,0.00907898,-0.022316,0.0259018,0.00461578
6,9,7.58229,-0.000610352,0.000457764,-2.42714,0.0550706,-0.0744527,0.0544332,0.0682238,-0.0919257,0.145318,-0.125156,-0.0834859,0.00934601,0.0239563,0.012207,0.0169373,-0.00640869,0.0107193,0.0236893,0.0246048,-9.97986,0.00926971,0.00453949,-0.0249481,-0.00667572,0.00675201,-0.0179291,0.0273895,0.000419617
7,0,8.54848,0.0012207,0.000305176,-2.42837,0.0550706,-0.0738423,0.0538228,0.0840929,-0.0903999,0.144708,-0.125156,-0.0840963,0.00759125,0.0223923,0.0125504,0.0111008,-0.00606537,0.00995636,0.0192642,0.0220108,-9.97986,0.0130081,-0.000495911,-0.0130081,-0.00995636,0.0050354,-0.0239182,0.0196838,0.000534058
7,1,10.0097,0.000915527,0.00137329,-2.42776,0.0535448,-0.0756734,0.054128,0.107286,-0.0900947,0.144403,-0.125156,-0.085317,0.00892639,0.022316,0.0135422,0.0108719,-0.00774384,0.00785828,0.021019,0.0200272,-9.97986,0.0255203,-0.00152588,-0.0124359,-0.00518799,0.00816345,-0.0322342,0.00602722,0.00236511
7,2,10.0097,-0.000305176,-0.000152588,-2.42959,0.0535448,-0.0762837,0.0510762,0.0819567,-0.0955879,0.143487,-0.126682,-0.0871481,0.00759125,0.0234604,0.0110245,0.0114822,-0.0087738,0.00637054,0.0197601,0.0231171,-9.97986,0.0302124,-0.00087738,-0.00385284,-0.00514984,0.00617981,-0.0383759,-0.00102997,-0.00659943
7,3,10.0097,-0.0012207,0,-2.4302,0.0541551,-0.075063,0.0519917,0.0728014,-0.0952827,0.144708,-0.127292,-0.0859274,0.0127792,0.0261688,0.0176239,0.012207,-0.00495911,0.00301361,0.0224686,0.0217819,-9.97986,0.0314331,0.0025177,0.00469208,-0.000267029,0.00770569,-0.0426483,0.00385284,-0.00484467
7,4,10.0097,-0.000915527,0.000305176,-2.4305,0.0538499,-0.0762837,0.0529073,0.0700548,-0.095893,0.143182,-0.127598,-0.0877584,0.016098,0.0217819,0.0167084,0.013237,-0.000495911,0.00213623,0.017395,0.0192261,-9.97986,0.028038,-0.00141144,0.00549316,-0.00545502,0.00328064,-0.039978,0.00312805,-0.00236511
7,5,10.0097,0.00213623,-0.000305176,-2.42959,0.0538499,-0.0753682,0.0513814,0.0697496,-0.0955879,0.143487,-0.128513,-0.0868429,0.0198746,0.0242233,0.0189972,0.0125504,0.00736237,0.00202179,0.0189972,0.0194168,-9.97986,0.0164032,-0.000495911,0.0162506,-0.0012207,0.00591278,-0.0344086,-0.00541687,0.000152588
7,6,10.0097,-0.000305176,-0.000457764,-2.42898,0.0553758,-0.0759786,0.0516866,0.0697496,-0.0949775,0.142572,-0.127292,-0.0868429,0.0123215,0.0245285,0.0175476,0.0135803,0.0172043,0.001297,0.019722,0.0201035,-9.97986,0.0135422,-0.00537872,0.019989,0.00152588,0.00743866,-0.02491,-0.0119781,0.000648499
7,7,10.0097,-0.000305176,-0.000457764,-2.42898,0.0541551,-0.0744527,0.0516866,0.0694445,-0.0937568,0.144403,-0.127598,-0.0859274,0.00968933,0.0266266,0.0166321,0.0126648,0.0217819,-0.00244141,0.0159836,0.0248718,-9.97986,0.00385284,-0.0030899,0.00656128,-0.00232697,-0.00175476,-0.0201416,-0.0146103,-0.00434875
7,8,10.0097,-0.000610352,-0.000457764,-2.42837,0.0544603,-0.0759786,0.0519917,0.0691393,-0.0937568,0.145318,-0.126072,-0.0847066,0.00785828,0.0276184,0.0175095,0.0196075,0.0198364,-0.00198364,0.0185776,0.0222015,-9.97986,0.00644684,7.62939e-005,0.000648499,0.00236511,0.000228882,-0.0236511,-0.0182724,-0.00392914
7,9,10.0097,0.000305176,0,-2.42714,0.0547655,-0.0762837,0.0535176,0.0688341,-0.0925361,0.143792,-0.126682,-0.0834859,0.00881195,0.0281143,0.0247955,0.0144958,0.0157547,0.00263214,0.015564,0.0194931,-9.97986,0.000152588,-0.00312805,0.00038147,0.00339508,-0.00183105,-0.020256,-0.020752,-0.00343323
8,0,10.0097,0,0.000610352,-2.42653,0.0562914,-0.0747579,0.0529073,0.0697496,-0.0934516,0.146234,-0.126377,-0.0837911,0.00530243,0.0278854,0.0222778,0.0127411,0.0197601,-0.000190735,0.0165558,0.0214767,-9.97986,7.62939e-005,-0.00541687,0.00434875,0.00705719,0.00274658,-0.0123596,-0.0212479,-0.00564575
8,1,10.0097,0.00152588,-0.000305176,-2.42562,0.0553758,-0.0741475,0.0553487,0.07036,-0.0919257,0.147149,-0.124241,-0.0813497,0.00606537,0.0220108,0.0231934,0.0114822,0.0231934,0.001297,0.0162506,0.0194168,-9.97986,0.00106812,-0.00152588,0.00572205,0.00904083,-0.00102997,-0.00988007,-0.021553,-0.0069809
8,2,10.0097,0.000915527,-0.000152588,-2.4244,0.0562914,-0.0738423,0.0547383,0.0706652,-0.0919257,0.147149,-0.125156,-0.0810445,0.00087738,0.0227356,0.0228882,0.0125885,0.0305557,0.00282288,0.0118256,0.0222778,-9.97986,-0.00038147,0.000343323,0.0146484,0.00423431,-0.00331879,-0.0143051,-0.0213242,0.00236511
8,3,10.0097,0,0.000305176,-2.4247,0.0572069,-0.0741475,0.0553487,0.0715807,-0.0922309,0.145929,-0.124851,-0.0813497,0.00370026,0.0255966,0.0213242,0.0143051,0.0307846,-0.00301361,0.0105667,0.0209808,-9.97986,0.00133514,-0.00167847,0.0160599,0.00923157,-0.00980377,-0.0159836,-0.0282288,0.00614166
8,4,10.0097,0.00152588,0.00106812,-2.4247,0.0569017,-0.0735371,0.055959,0.0728014,-0.0910102,0.146844,-0.124241,-0.0810445,0.0012207,0.0263596,0.022049,0.0147629,0.0352097,-0.000534058,0.00984192,0.0229645,-9.97986,-0.00205994,-0.000953674,0.0257492,0.0159454,-0.0121307,-0.0140762,-0.0267029,0.00171661
8,5,10.0097,-0.000915527,0.0012207,-2.42714,0.055681,-0.0741475,0.0532125,0.0572374,-0.0949775,0.147149,-0.125766,-0.0813497,0.00312805,0.0286484,0.0251389,0.0115585,0.0382996,-0.00255585,0.0103378,0.027504,-9.97986,-0.00240326,-0.000114441,0.0276184,0.0162506,-0.0102997,-0.0198746,-0.021286,0.00621796
8,6,9.87111,0.000610352,-0.0012207,-2.42714,0.0559862,-0.0747579,0.0535176,0.0395372,-0.0952827,0.145929,-0.126377,-0.0810445,0.000419617,0.0284195,0.0258255,0.017395,0.0408554,0.00469208,0.00827789,0.0249481,-9.97986,-0.00350952,-0.00862122,0.0213242,0.0223923,-0.00881195,-0.0285339,-0.0141144,0.0147247
8,7,7.95705,0.000915527,0,-2.42653,0.0559862,-0.0738423,0.0547383,0.0505236,-0.0928413,0.145929,-0.126072,-0.0816549,0.0050354,0.0304794,0.0262833,0.012207,0.0466156,0.00175476,0.011673,0.0244904,-9.97986,-0.00617981,-0.0030899,0.0209808,0.0311661,-0.00957489,-0.0282288,-0.0196457,0.0199127
8,8,7.45198,0.000610352,0,-2.42653,0.0547655,-0.0741475,0.054128,0.0615099,-0.0922309,0.146539,-0.125766,-0.0822652,0.00938416,0.0308228,0.0291824,0.0119781,0.0392914,0.00961304,0.00991821,0.0235748,-9.97986,-0.00442505,-0.00389099,0.018692,0.0398636,-0.00564575,-0.02285,-0.017128,0.0205612
8,9,7.52767,0.000305176,0,-2.42714,0.0547655,-0.0747579,0.0553487,0.0688341,-0.0931465,0.145624,-0.126072,-0.0831808,0.00526428,0.0285721,0.0299072,0.0146103,0.0392914,0.0167084,0.0110245,0.0214386,-9.97986,-0.00350952,-0.00358582,0.0163651,0.0427628,-0.00038147,-0.0231552,-0.0141907,0.0266266
9,0,8.46028,-0.000610352,0.00137329,-2.42714,0.0550706,-0.0747579,0.0556539,0.0837877,-0.0910102,0.144403,-0.126072,-0.0837911,0.0194168,0.032959,0.030365,0.0152206,0.0328827,0.020256,0.0118256,0.0199509,-9.97986,-0.00389099,-0.00209808,0.0242615,0.0511551,-0.00236511,-0.0263214,-0.0151825,0.0191116
9,1,10.0097,-0.000305176,0.00289917,-2.42867,0.0544603,-0.0759786,0.0547383,0.107897,-0.0913154,0.145013,-0.124546,-0.0844015,0.021286,0.0318146,0.0333405,0.0141144,0.0323486,0.0172424,0.00701904,0.0108337,-9.97986,-0.00774384,-0.00228882,0.0263977,0.0650406,-0.00492096,-0.0213623,-0.00862122,0.00404358
9,2,10.0097,-0.000915527,0.00152588,-2.42959,0.0535448,-0.0768941,0.0522969,0.0816515,-0.0943672,0.144403,-0.127903,-0.0871481,0.0174332,0.0388718,0.0336838,0.0151062,0.0255585,0.0193787,0.00465393,0.0172043,-9.97986,-0.0146484,-0.0019455,0.0480652,0.0771713,-0.00221252,-0.0174713,0.00118256,0.00617981
9,3,10.0097,0.000915527,0.000610352,-2.4302,0.0532396,-0.0759786,0.0516866,0.0734117,-0.0952827,0.144403,-0.126682,-0.0862325,0.00923157,0.0289536,0.0300217,0.012207,0.0258255,0.0214767,0.00629425,0.0213242,-9.97986,-0.0167084,-0.000190735,0.0593567,0.0864029,-0.00171661,-0.0120544,0.00110626,0.0169373
9,4,10.0097,0.0012207,0.000305176,-2.43081,0.0532396,-0.0762837,0.0519917,0.0706652,-0.095893,0.144098,-0.127598,-0.0877584,-0.00556946,0.0288391,0.0275803,0.0109863,0.0249863,0.0285721,0.00881195,0.0201797,-9.97986,-0.0088501,0.000114441,0.0414276,0.0947952,0.0056839,-0.00747681,0.00774384,0.0310516
9,5,10.0097,0.00244141,0,-2.42928,0.0541551,-0.0762837,0.0501607,0.0694445,-0.094062,0.143182,-0.127903,-0.0877584,-0.00171661,0.0291443,0.0292206,0.0157166,0.017128,0.0270081,0.00782013,0.0215149,-9.97986,0.000953674,-0.00427246,0.025177,0.104332,0.0147629,-0.00629425,0.00709534,0.0231552
9,6,10.0097,0.000915527,0.000457764,-2.42898,0.0538499,-0.0762837,0.050771,0.0700548,-0.0952827,0.142267,-0.127292,-0.0862325,0.0279236,0.0291824,0.0279236,0.0115585,0.0195694,0.0245667,0.00900269,0.0255203,-9.97986,-0.000343323,-0.00205994,0.0211716,0.110741,0.0130081,-0.00362396,0.00148773,0.0199509
9,7,10.0097,0,0.000457764,-2.42898,0.0544603,-0.0759786,0.0535176,0.0697496,-0.0931465,0.144403,-0.126987,-0.0856222,0.0395584,0.0289536,0.027504,0.0111771,0.0237274,0.0197601,0.00904083,0.0265121,-9.97986,-0.00453949,-0.0043869,0.0226593,0.116577,0.00549316,-0.00831604,-0.00282288,0.0205994
9,8,10.0097,-0.000305176,0.000152588,-2.42745,0.0541551,-0.0756734,0.0532125,0.0694445,-0.0946723,0.143792,-0.126682,-0.0847066,0.0237274,0.021553,0.0226593,0.0122833,0.0363922,0.00823975,0.00953674,0.0288391,-9.97986,-0.0240326,3.8147e-005,0.0231934,0.114441,0.0142288,-0.0113297,-0.00995636,0.0214767
9,9,10.0097,0.000610352,-0.000152588,-2.42745,0.0553758,-0.0756734,0.0532125,0.0691393,-0.0946723,0.145013,-0.126987,-0.0837911,-0.015831,0.0276566,0.0263214,0.0157547,0.0516129,0.00911713,0.00747681,0.0279999,-9.97986,-0.0331879,-0.000915527,0.0307083,0.123024,0.0161362,-0.0101852,-0.00724792,0.020256
10,0,10.0097,-0.000305176,0.000610352,-2.42684,0.0553758,-0.0747579,0.0532125,0.0694445,-0.0934516,0.145318,-0.125156,-0.0831808,-0.040741,0.027504,0.0240326,0.0111008,0.0668716,0.0109482,0.0130081,0.0288773,-9.97986,-0.039444,0.00167847,0.0247955,0.125618,0.011673,-0.00957489,-0.00835419,0.0197983
10,1,10.0097,0.000305176,0.000152588,-2.42714,0.055681,-0.0735371,0.0544332,0.0715807,-0.0925361,0.146539,-0.124851,-0.0813497,-0.0228119,0.0276184,0.0220871,0.00541687,0.0656891,0.0121307,0.00923157,0.0365448,-9.97986,-0.0324249,0.000953674,0.0204849,0.12867,0.0155258,-0.0124741,-0.00411987,0.0159073
10,2,10.0097,0.0012207,-0.000152588,-2.4244,0.0550706,-0.0744527,0.0550435,0.0712755,-0.0922309,0.145929,-0.124241,-0.0813497,-0.0219727,0.0306702,0.0223541,0.0111771,0.0741959,0.00747681,0.0107193,0.0353241,-9.97986,-0.0134277,0.00152588,0.018425,0.127411,0.0189209,-0.0143051,0.00102997,0.0194931
10,3,10.0097,0,0.000762939,-2.42592,0.0553758,-0.0744527,0.0538228,0.0712755,-0.0928413,0.146234,-0.122715,-0.0816549,-0.0403595,0.0296402,0.0229263,0.0130081,0.0783157,0.00686646,0.0108719,0.0321198,-9.97986,0.014801,0.00312805,0.0160217,0.130806,0.018692,-0.00495911,-0.00270844,0.023613
10,4,10.0097,0.000305176,0.000457764,-2.4244,0.0569017,-0.0741475,0.0544332,0.0712755,-0.0910102,0.147149,-0.123935,-0.0807394,-0.0363159,0.0301361,0.0240326,0.00553131,0.0679779,0.00621796,0.010376,0.0321198,-9.97986,0.046196,-0.00205994,0.0142288,0.130577,0.0135803,-0.00350952,-0.0148773,0.0202179
10,5,10.0097,-0.000610352,0.0012207,-2.42653,0.0578172,-0.0738423,0.0522969,0.0557115,-0.094062,0.146234,-0.124546,-0.0822652,-0.0230026,0.0304794,0.0273514,0.0110245,0.0542068,0.00404358,0.0114059,0.0330734,-9.97986,0.0537491,-0.00305176,0.0196838,0.131187,0.0165176,-0.0115204,-0.0240326,0.0144577
10,6,10.0097,0.000915527,-0.00152588,-2.42653,0.0569017,-0.0741475,0.0529073,0.0398424,-0.0977241,0.14776,-0.125766,-0.0831808,-0.0261688,0.031395,0.0244904,0.0131607,0.0354004,0.00823975,0.0109863,0.0302505,-9.97986,0.0377274,-0.00167847,0.0184631,0.125008,0.011673,-0.0113678,-0.0228119,0.00976563
10,7,8.19325,0.000610352,-0.0012207,-2.42653,0.0565965,-0.0741475,0.0538228,0.0508287,-0.0925361,0.146539,-0.126987,-0.0816549,-0.0227356,0.0344086,0.0295639,0.01194,0.0252151,0.0336456,0.0102234,0.0179291,-9.97986,0.0173187,-0.00267029,0.0038147,0.122185,0.00637054,-0.0094986,-0.0136566,0.00968933
10,8,7.64394,0.00244141,-0.000457764,-2.42592,0.0507982,-0.0741475,0.0544332,0.0627306,-0.0922309,0.145318,-0.124241,-0.0825704,0.0198364,0.0346756,0.0289917,0.0146866,0.0117111,0.047226,0.00904083,0.00572205,-9.97986,0.021019,0.000190735,-0.0133514,0.117645,0.0122833,-0.0146103,-0.00583649,0.0069809
10,9,7.7068,0.000610352,0.000152588,-2.42684,0.0547655,-0.075063,0.0544332,0.0685289,-0.0900947,0.145929,-0.125461,-0.0831808,0.0705719,0.0348663,0.0276184,0.0160599,0.00572205,0.0528717,0.0103378,-0.00484467,-9.97986,0.00892639,-0.00087738,-0.0175858,0.115967,0.0194931,-0.0195313,0.0102234,-0.00236511
11,0,8.64125,0.0012207,0.000762939,-2.42714,0.0559862,-0.075063,0.054128,0.0828722,-0.0903999,0.144708,-0.125156,-0.0831808,0.0784683,0.0243759,0.0273132,0.0175476,-0.00144958,0.0517654,0.0144196,0.00259399,-9.97986,0.00854492,-0.000648499,-0.00720978,0.120201,0.028801,-0.0194931,0.0185013,-0.00591278
11,1,10.0097,0.00274658,0.00198364,-2.42837,0.0535448,-0.0756734,0.0538228,0.104845,-0.0913154,0.143487,-0.124851,-0.0850118,0.0598145,0.0218201,0.0217438,0.0131607,-0.00759125,0.042305,0.0156403,0.00812531,-9.97986,0.00331879,0.00240326,0.00961304,0.120087,0.0296402,-0.0195313,0.0305939,-0.00850677
11,2,10.0097,0,0.000610352,-2.4305,0.0526292,-0.0762837,0.0513814,0.0804308,-0.0961982,0.144708,-0.126072,-0.0862325,0.0461578,0.0198364,0.0177765,0.00862122,-0.0157166,0.0222397,0.0150299,0.00583649,-9.97986,-0.020752,-0.00144958,0.0317383,0.122223,0.0330353,-0.0170517,0.0341415,-0.00827789
11,3,10.0097,-0.000610352,-0.000152588,-2.42959,0.0538499,-0.0744527,0.0516866,0.0724962,-0.0955879,0.143487,-0.127903,-0.0880636,0.0252151,0.0136948,0.0120544,0.00759125,-0.0134659,0.0208664,0.0178528,0.00495911,-9.97986,-0.0265121,-0.00255585,0.0296021,0.120697,0.0345612,-0.00865936,0.0201797,0.001297
11,4,10.0097,0.000610352,-0.000457764,-2.4305,0.0538499,-0.0765889,0.0516866,0.0697496,-0.0965034,0.143487,-0.128208,-0.0880636,0.0122833,0.0148773,0.0102234,0.0094986,-0.0114441,0.0215912,0.0205231,0.00156403,-9.97986,-0.0248718,0.00148773,0.0266647,0.112991,0.0356293,-0.00408173,0.0171661,0.00679016
11,5,10.0097,-0.000305176,-0.000610352,-2.4302,0.0544603,-0.0762837,0.0526021,0.0691393,-0.0989448,0.144403,-0.127598,-0.0871481,0.0151825,0.0135422,0.0131989,0.0116348,-0.00530243,0.0140762,0.0181961,-0.00179291,-9.97986,-0.0335693,0.000495911,0.0218582,0.106049,0.0259781,0.00148773,0.0196075,0.00263214
11,6,10.0097,0.000915527,-0.00228882,-2.42867,0.0535448,-0.0759786,0.0522969,0.0688341,-0.0949775,0.142572,-0.127903,-0.0865377,0.000305176,0.0162506,0.0127411,0.0103378,0.00598907,0.0135422,0.014534,-0.00144958,-9.97986,-0.0455856,0.000648499,0.0119781,0.0981903,0.0245285,0.000228882,0.0183868,0.00514984
11,7,10.0097,0.00152588,-0.00106812,-2.42867,0.0523241,-0.0753682,0.0529073,0.0709703,-0.0937568,0.144403,-0.126682,-0.0856222,-0.0118637,0.0125504,0.0136948,0.0116348,0.0143814,0.0154495,0.0126266,-0.00534058,-9.97986,-0.045433,-0.00209808,-0.00259399,0.0860596,0.0242233,0.00335693,0.0154877,0.0139999
11,8,10.0097,-0.00183105,-0.00106812,-2.42837,0.055681,-0.0747579,0.0529073,0.0691393,-0.0922309,0.14776,-0.126682,-0.085317,0.00198364,0.00762939,0.0111771,0.0182343,0.0113297,0.00957489,0.0159836,0.0031662,-9.97986,-0.0203705,-0.000991821,-0.015831,0.0801849,0.02388,0.00133514,0.0177002,0.00858307
11,9,10.0097,0.000305176,-0.00167847,-2.42745,0.0544603,-0.0747579,0.0526021,0.0715807,-0.0934516,0.143487,-0.126682,-0.0844015,0.00125885,0.00938416,0.0101471,0.0131989,0.015564,0.00553131,0.0166702,0.0130463,-9.97986,0.00469208,-0.00305176,-0.0324631,0.0789261,0.0225067,-0.0100708,0.0403976,0.00492096
12,0,10.0097,0,-0.000152588,-2.42623,0.0550706,-0.0729268,0.054128,0.0715807,-0.0916206,0.145624,-0.125461,-0.0840963,0.0088501,0.00793457,0.00732422,0.00778198,0.0144958,-0.00278473,0.018425,0.00839233,-9.97986,0.00617981,-0.00205994,-0.0279617,0.071106,0.0304794,-0.0162888,0.0588226,0.0069046
12,1,10.0097,0.0012207,-0.000152588,-2.42531,0.0559862,-0.0738423,0.054128,0.0715807,-0.0882636,0.142267,-0.124241,-0.0822652,0.0272369,0.00553131,0.00198364,0.00934601,0.00427246,-0.00995636,0.0237274,0.00915527,-9.97986,0.00522614,0.00087738,-0.00415802,0.0665283,0.0385666,-0.0208664,0.0596619,0.00350952
12,2,10.0097,0.000305176,-0.000152588,-2.4247,0.0544603,-0.0735371,0.0547383,0.0712755,-0.0916206,0.147455,-0.124241,-0.0813497,0.0328827,0.0105667,0.00991821,0.0100708,0.0105667,-0.0134659,0.018692,0.00774384,-9.97986,0.0400162,0.001297,0.0120544,0.0560379,0.0355148,-0.0201416,0.0484467,0.00499725
12,3,10.0097,0.000305176,-0.00152588,-2.42531,0.055681,-0.0729268,0.0550435,0.0712755,-0.0910102,0.147455,-0.123935,-0.0810445,0.0209427,0.00896454,0.00667572,0.011673,0.0137711,-0.0187302,0.0187683,0.00526428,-9.97986,0.0774765,0.00164032,0.0194168,0.039711,0.032692,-0.0154114,0.0248718,0.0112152
12,4,10.0097,0.000305176,-0.000915527,-2.42501,0.0559862,-0.0735371,0.0550435,0.0712755,-0.0931465,0.14776,-0.124241,-0.0810445,0.00507355,0.0154114,0.0108719,0.0100327,0.0189209,-0.0113678,0.0161362,0.00774384,-9.97986,0.089798,0.000839233,0.0125885,0.0289917,0.0262833,-0.0109863,0.0213242,0.0100327
12,5,10.0097,0.00152588,-0.000915527,-2.42623,0.0559862,-0.0741475,0.0538228,0.0563219,-0.0949775,0.147455,-0.125461,-0.0813497,-0.015564,0.0167465,0.0111008,0.01194,0.0215149,-0.000610352,0.0177383,0.00434875,-9.97986,0.0746536,-0.00164032,0.00419617,0.0258636,0.031395,-0.00602722,0.0163651,0.00465393
12,6,9.9059,0.0012207,-0.00228882,-2.42592,0.0584276,-0.0729268,0.054128,0.0404528,-0.094062,0.145624,-0.126377,-0.0825704,-0.0100708,0.0130081,0.0125504,0.00759125,0.028801,0.00778198,0.0209808,0.00648499,-9.97986,0.0551605,0.00152588,-0.000610352,0.0127411,0.0362015,0.000953674,0.0238419,0.00976563
12,7,8.04311,-0.000610352,-0.00274658,-2.42684,0.0559862,-0.073232,0.054128,0.0502184,-0.0919257,0.142267,-0.125766,-0.0819601,-0.00244141,0.0122833,0.00564575,0.0117874,0.0365448,0.0120544,0.0131989,0.00995636,-9.97986,0.0617981,-0.00164032,-0.00419617,-0.000572205,0.0313568,0.00766754,0.0395584,0.0138092
12,8,7.50234,0.000915527,-0.00183105,-2.42684,0.0550706,-0.0738423,0.0550435,0.0602892,-0.0910102,0.145013,-0.126072,-0.0831808,0.0212097,0.0134659,0.00988007,0.0116348,0.0403595,0.0237656,0.0120163,0.0157166,-9.97986,0.0857162,-0.000801086,-0.00343323,-0.00846863,0.0263214,0.00133514,0.043602,0.0082016
12,9,7.60793,0.000915527,-0.00167847,-2.42623,0.0559862,-0.0759786,0.0532125,0.0694445,-0.0919257,0.144403,-0.126377,-0.0837911,0.0291443,0.0156021,0.0104904,0.0111008,0.0294113,0.0171661,0.018692,0.0144577,-9.97986,0.0873184,-0.00144958,-0.00484467,-0.0196457,0.026474,-0.00320435,0.053215,-0.00240326
13,0,8.66567,0.00274658,-0.000457764,-2.42745,0.0550706,-0.075063,0.0516866,0.0831774,-0.090705,0.143182,-0.124241,-0.0831808,0.0250244,0.0168991,0.010376,0.00827789,0.0213623,0.0158691,0.0210571,0.0182343,-9.97986,0.0738525,0.00198364,-0.0135803,-0.0331116,0.0255203,-0.00610352,0.0639725,-0.00923157
13,1,10.0097,0.000610352,-0.000610352,-2.42745,0.0523241,-0.0771993,0.0532125,0.103319,-0.090705,0.144098,-0.124241,-0.0847066,0.0119781,0.0159454,0.0106049,0.0117493,0.0120163,0.013504,0.0181198,0.0136566,-9.97986,0.0490952,-0.00324249,-0.0264359,-0.054245,0.0256729,-0.0143051,0.0646973,-0.0197601
13,2,10.0097,-0.000305176,-0.000610352,-2.42959,0.0529344,-0.0741475,0.0522969,0.0801256,-0.0955879,0.142267,-0.127292,-0.0871481,0.00793457,0.0211334,0.0159836,0.0150681,0.00606537,0.0197983,0.0211716,0.0180054,-9.97986,0.0369263,-0.00331879,-0.0118256,-0.0604248,0.0251389,-0.0173569,0.0579453,-0.0242233
13,3,10.0097,0.000305176,-0.00106812,-2.42928,0.0538499,-0.0768941,0.0522969,0.0724962,-0.094062,0.144708,-0.126682,-0.0874532,0.00415802,0.0202179,0.0138474,0.0127029,-0.000534058,0.0119781,0.021553,0.0192261,-9.97986,0.0236511,0.0019455,0.018158,-0.0753784,0.0255585,-0.0230026,0.0500107,-0.0331879
13,4,10.0097,0,-0.0012207,-2.43081,0.0535448,-0.0756734,0.0529073,0.0700548,-0.0961982,0.142572,-0.128513,-0.0871481,0.00652313,0.0197601,0.0154114,0.0128937,0.0130081,0.0122833,0.0249481,0.0218582,-9.97986,0.0286484,0.00228882,0.0580215,-0.0791168,0.0338745,-0.0175858,0.0409698,-0.0347137
13,5,10.0097,0.000610352,-0.000762939,-2.42867,0.0532396,-0.0741475,0.0522969,0.0691393,-0.0968086,0.144403,-0.128208,-0.0874532,0.00785828,0.0208282,0.0156021,0.0121307,0.0149918,-0.00396729,0.0279236,0.0171661,-9.97986,0.0389862,-7.62939e-005,0.0712967,-0.0824356,0.0414276,-0.00896454,0.0479126,-0.0314331
13,6,10.0097,-0.00183105,-0.00106812,-2.42898,0.0523241,-0.0759786,0.0522969,0.0694445,-0.0955879,0.140741,-0.126072,-0.0862325,0.0224686,0.021019,0.0159073,0.0160217,0.0179672,-0.0120163,0.0291824,0.0177383,-9.97986,0.0476837,-0.000762939,0.0584412,-0.0902939,0.0357056,-0.00770569,0.0457764,-0.0238037
13,7,10.0097,0,0.000457764,-2.42837,0.0544603,-0.0759786,0.0532125,0.0697496,-0.0946723,0.143792,-0.127292,-0.085317,0.0359344,0.0239563,0.0176239,0.0162506,0.0138855,-0.00892639,0.0278473,0.0206757,-9.97986,0.0366592,-0.00160217,0.0588608,-0.0911713,0.0372314,-0.000610352,0.0500488,-0.0237274
13,8,10.0097,0,-0.000152588,-2.42745,0.0553758,-0.073232,0.0529073,0.0682238,-0.0937568,0.145013,-0.125766,-0.0847066,0.0396347,0.0239182,0.0194931,0.0136185,0.00923157,-0.0150299,0.0242615,0.0161743,-9.97986,0.0162125,-0.0018692,0.0555038,-0.0952148,0.0329971,0.0157928,0.0475693,-0.0268173
13,9,10.0097,-0.00183105,0.000457764,-2.42745,0.0550706,-0.0738423,0.0529073,0.0685289,-0.0919257,0.148065,-0.126682,-0.0844015,0.0284195,0.0213623,0.0205994,0.015831,0.0112152,-0.00812531,0.025444,0.0199509,-9.97986,-0.000839233,0.000991821,0.0399017,-0.0904083,0.032196,0.0175858,0.0434113,-0.0369263
14,0,10.0097,-0.000915527,0,-2.42562,0.0553758,-0.0744527,0.054128,0.0700548,-0.0922309,0.146539,-0.126072,-0.0837911,0.0228882,0.0213242,0.0249863,0.0123596,0.00492096,-0.0193787,0.0210953,0.0239944,-9.97986,0.00534058,-0.0012207,0.0419617,-0.0886917,0.034256,0.00759125,0.0380707,-0.0241089
14,1,10.0097,0.0012207,0.000152588,-2.42531,0.0553758,-0.0778096,0.0547383,0.0706652,-0.0925361,0.145624,-0.124241,-0.0819601,0.0249481,0.025177,0.019455,0.0119781,0.00488281,-0.021019,0.0310516,0.0188446,-9.97986,0.00312805,-0.00209808,0.0468445,-0.0927353,0.0317001,0.00328064,0.0389481,-0.0201416
14,2,10.0097,-0.000305176,-0.000457764,-2.42653,0.055681,-0.0753682,0.0553487,0.0715807,-0.0919257,0.146234,-0.124851,-0.0819601,0.0235367,0.0236511,0.018158,0.0138855,0.00846863,-0.0184631,0.0268173,0.0197983,-9.97986,0.00881195,0.000343323,0.0539017,-0.0941849,0.0292969,-0.0037384,0.0313568,-0.0235748
14,3,10.0097,0.000915527,-0.000152588,-2.42531,0.055681,-0.0747579,0.0547383,0.0709703,-0.0913154,0.14837,-0.123935,-0.080129,0.0128937,0.0253677,0.0165939,0.0114822,0.0133133,-0.019722,0.02491,0.0168991,-9.97986,0.00404358,-0.00598907,0.055542,-0.0925827,0.0244141,-0.00301361,0.0322342,-0.0221252
14,4,10.0097,0,0.000457764,-2.42531,0.0565965,-0.0738423,0.0547383,0.0715807,-0.0916206,0.146234,-0.124851,-0.0804342,0.00869751,0.0263977,0.0201416,0.0159454,0.0178909,-0.0199509,0.0304413,0.0183868,-9.97986,0.00644684,-0.00232697,0.0432205,-0.0878143,0.0207901,0.000305176,0.0339508,-0.0268936
14,5,10.0097,-0.000610352,0.000762939,-2.42653,0.0559862,-0.0744527,0.0538228,0.054796,-0.0946723,0.145318,-0.126072,-0.0813497,0.0147629,0.0271988,0.0214005,0.0162888,0.0327301,-0.0173187,0.027504,0.0244141,-9.97986,0.0127029,-0.0038147,0.0307846,-0.0827789,0.0175095,0.000991821,0.0305176,-0.0312805
14,6,9.76827,0,-0.000915527,-2.42531,0.0569017,-0.0756734,0.0535176,0.0392321,-0.0937568,0.146234,-0.127292,-0.0813497,0.0129318,0.0244522,0.0228119,0.00892639,0.0273895,-0.0149918,0.025177,0.0227737,-9.97986,0.0149536,-0.00724792,0.0250626,-0.0845718,0.0151825,0.0012207,0.0284195,-0.0152969
14,7,7.91982,-0.000610352,-0.000305176,-2.42531,0.0562914,-0.0704854,0.0544332,0.049608,-0.0937568,0.145624,-0.126377,-0.0822652,0.0131989,0.0284958,0.020752,0.0191116,0.0358963,-0.0105286,0.0238037,0.0229263,-9.97986,0.0173187,-0.0031662,0.0192642,-0.0739288,0.0152969,-0.000190735,0.0227356,-0.0031662
14,8,7.34792,-0.0012207,-0.000457764,-2.42562,0.0569017,-0.075063,0.054128,0.0615099,-0.094062,0.145318,-0.124851,-0.0822652,0.00991821,0.0244522,0.0212479,0.0123978,0.0404739,-0.00896454,0.0200653,0.0204849,-9.97986,0.0113678,-0.00350952,0.0124359,-0.0783539,0.0112534,-0.00606537,0.0188065,0.0222778
14,9,7.47335,0.000305176,-0.000152588,-2.42653,0.0541551,-0.075063,0.0544332,0.0682238,-0.0922309,0.146539,-0.124851,-0.0825704,0.00385284,0.0244141,0.0160599,0.0138474,0.03685,-0.00274658,0.0189209,0.0260925,-9.97986,0.0110626,-0.00205994,0.0075531,-0.0784683,0.00808716,-0.00576019,0.0172043,0.0554276
15,0,8.45296,0.000305176,0.0012207,-2.42714,0.0541551,-0.0717061,0.0535176,0.0840929,-0.0934516,0.145013,-0.124241,-0.0837911,0.00427246,0.0248718,0.0134659,0.0164795,0.0346756,0.00602722,0.0253677,0.0244904,-9.97986,0.0117874,-0.00484467,0.00202179,-0.0746918,0.00915527,-0.00953674,0.0133514,0.0711441
15,1,10.0097,0.000305176,0.00228882,-2.42776,0.0532396,-0.0759786,0.0532125,0.107897,-0.0900947,0.144098,-0.124851,-0.0847066,0.0031662,0.0233459,0.0206375,0.0155258,0.0334549,0.00648499,0.0256729,0.0224304,-9.97986,0.024147,0.00259399,-0.00259399,-0.0684357,0.0176239,-0.0025177,0.0185776,0.0816727
15,2,10.0097,-0.000610352,0.00183105,-2.42928,0.0535448,-0.0756734,0.0519917,0.0822618,-0.0949775,0.142267,-0.126987,-0.0868429,0.00606537,0.0282669,0.0170517,0.0114059,0.0233841,0.0104523,0.0159836,0.0228882,-9.97986,0.0211334,-0.00171661,-0.00606537,-0.0662231,0.018158,-0.00473022,0.0201035,0.0714111
15,3,10.0097,0.000610352,0.00106812,-2.42959,0.0547655,-0.0717061,0.0519917,0.0737169,-0.0955879,0.143792,-0.126987,-0.0865377,0.00736237,0.0281906,0.016861,0.015564,0.0202179,0.00762939,0.0265503,0.0188828,-9.97986,0.0127792,-0.00259399,0.0031662,-0.054245,0.0251389,-0.00431061,0.0179672,0.0519943
15,4,10.0097,0.00183105,0.000915527,-2.42928,0.0544603,-0.0765889,0.0516866,0.0697496,-0.0955879,0.147149,-0.127598,-0.0868429,0.00751495,0.0271225,0.0177383,0.0109863,0.0125504,0.00263214,0.0245667,0.0199127,-9.97986,0.000343323,0.00286102,-0.00267029,-0.0477219,0.0257111,-0.00286102,0.0197601,0.0380707
15,5,10.0097,-0.000610352,0.0012207,-2.42989,0.0523241,-0.0759786,0.0513814,0.0694445,-0.0952827,0.142572,-0.127598,-0.0874532,0.0111771,0.0260544,0.0203705,0.010643,0.00312805,-0.00202179,0.0233459,0.0231171,-9.97986,0.0056839,0.00202179,-0.00621796,-0.0394821,0.0247955,-0.00205994,0.0225067,0.0228882
15,6,10.0097,-0.000915527,0.000610352,-2.42928,0.0547655,-0.0781148,0.0532125,0.0679186,-0.0955879,0.144098,-0.127598,-0.0862325,0.00629425,0.0203323,0.0209427,0.00991821,0.00167847,-0.00778198,0.0260162,0.0246429,-9.97986,0.00453949,-0.00236511,-0.0044632,-0.0340652,0.0266647,-0.00312805,0.0227737,0.0156784
15,7,10.0097,0.0012207,0.000457764,-2.42867,0.0532396,-0.0747579,0.0532125,0.0700548,-0.0922309,0.143792,-0.127292,-0.0859274,0.0180817,0.0252533,0.0244522,0.0147247,0.00648499,0.00198364,0.0308228,0.0332642,-9.97986,0.0127411,-0.000801086,0.012207,-0.0260925,0.0235367,0.000572205,0.0239182,0.0142288
15,8,10.0097,0.0012207,0.00137329,-2.42684,0.0544603,-0.0744527,0.0544332,0.0694445,-0.0928413,0.144708,-0.126072,-0.0847066,0.00961304,0.0260925,0.0186157,0.00289917,0.00900269,-0.00804901,0.0245667,0.0272369,-9.97986,0.0121307,-0.00202179,0.0179291,-0.0188828,0.0185776,-0.00301361,0.0206757,0.0109863
15,9,10.0097,0,0.000762939,-2.42745,0.0559862,-0.0753682,0.0532125,0.0688341,-0.0925361,0.144708,-0.126987,-0.0840963,0.00953674,0.0326538,0.0210571,0.0107574,0.0159454,0.0012207,0.027504,0.0299072,-9.97986,0.00766754,-0.00259399,0.0291443,-0.0156403,0.0121689,-0.00526428,0.0159836,0.0134659
16,0,10.0097,0.000915527,0.000305176,-2.42745,0.0541551,-0.0747579,0.0538228,0.0706652,-0.094062,0.145318,-0.124851,-0.0831808,0.0069809,0.0283432,0.0202179,0.013237,0.0223541,0.00087738,0.0227356,0.0291443,-9.97986,0.00400543,-0.00354767,0.0477982,-0.00595093,0.00865936,-0.0069046,0.0188446,0.0134277
16,1,10.0097,0.000915527,0.00106812,-2.42653,0.0565965,-0.0747579,0.0562642,0.0697496,-0.0913154,0.146539,-0.124241,-0.0825704,0.00331879,0.0315094,0.0236511,0.0131989,0.030365,0.0025177,0.0247574,0.0201035,-9.97986,-0.00106812,-0.00133514,0.0420761,-0.00202179,0.000457764,-0.0157928,0.0146103,0.00965118
16,2,10.0097,-0.000305176,0.000762939,-2.4247,0.0569017,-0.0738423,0.054128,0.0712755,-0.0913154,0.146234,-0.123935,-0.0807394,0.00640869,0.0306702,0.0234604,0.0157928,0.0333023,0.000724792,0.0230408,0.0234604,-9.97986,-0.00907898,-0.00350952,0.026741,0.00846863,0.00549316,-0.0136566,0.0164413,0.00988007
16,3,10.0097,0,0.000915527,-2.42531,0.0569017,-0.0741475,0.0526021,0.0706652,-0.0925361,0.143792,-0.123935,-0.0813497,0.0134277,0.0270081,0.0217056,0.00995636,0.030098,0.00171661,0.0276947,0.0197601,-9.97986,-0.00930786,-0.00423431,0.0226974,0.0130081,0.00537872,-0.00938416,0.0198746,0.0105286
16,4,10.0097,0.000305176,-0.000457764,-2.4247,0.0562914,-0.0735371,0.0565694,0.0718859,-0.0916206,0.147149,-0.12363,-0.0804342,0.0160599,0.0283813,0.02388,0.0134659,0.0288391,0.00465393,0.0215149,0.0165176,-9.97986,-0.00518799,-0.0031662,0.0199509,0.0141144,0.00499725,-0.0056076,0.0121689,0.00419617
16,5,10.0097,0,0.000457764,-2.42653,0.0569017,-0.0717061,0.0535176,0.0566271,-0.0943672,0.145013,-0.126072,-0.0825704,0.0253296,0.0270081,0.0233841,0.0101852,0.0244904,0.00442505,0.0267029,0.0246811,-9.97986,0.000953674,-0.00499725,0.0265121,0.0149918,0.0104141,-0.00453949,0.000534058,0.00362396
16,6,9.76796,0.000305176,-0.00106812,-2.42653,0.0565965,-0.0741475,0.0544332,0.0395372,-0.0946723,0.148675,-0.126377,-0.0819601,0.0263977,0.0270844,0.0217056,0.0132751,0.0234985,0.00507355,0.0226593,0.0218582,-9.97986,0.00835419,-0.00198364,0.0309753,0.0202179,0.0130081,-0.00499725,-0.00286102,-0.00244141
16,7,7.96865,-0.0012207,-0.000305176,-2.42623,0.055681,-0.0735371,0.0535176,0.0505236,-0.0925361,0.146234,-0.125766,-0.0819601,0.00823975,0.0240707,0.0196075,0.013237,0.024147,-0.00289917,0.0222015,0.0285721,-9.97986,0.00228882,-0.000343323,0.027771,0.0229645,0.0169373,-0.00812531,0.00324249,0.00556946
16,8,7.4233,0.000305176,0.000305176,-2.42592,0.0550706,-0.0765889,0.054128,0.0615099,-0.0919257,0.145624,-0.126072,-0.0822652,0.00305176,0.0272751,0.0227737,0.0130463,0.0195313,0.00587463,0.0208664,0.0233078,-9.97986,0.0044632,-0.000648499,0.0216293,0.0254822,0.0222778,-0.00751495,0.00171661,0.0113297
16,9,7.50936,0.0012207,0.0012207,-2.42714,0.0553758,-0.073232,0.0547383,0.0682238,-0.0922309,0.144708,-0.125766,-0.0831808,-0.0056839,0.0242615,0.0243759,0.00797272,0.0133514,0.00915527,0.0260925,0.0180435,-9.97986,0.00679016,-0.00297546,0.017662,0.0334167,0.0177002,-0.0128937,0.0128937,0.0202942
17,0,8.49935,0.000305176,0.00137329,-2.42745,0.0550706,-0.0753682,0.0550435,0.0850084,-0.090705,0.144098,-0.124546,-0.0834859,-0.0105286,0.0307846,0.0244904,0.0118637,0.0158691,0.0206757,0.0226974,0.0179291,-9.97986,0.014534,-0.00553131,0.0141907,0.0366592,0.0151825,-0.013504,0.0202942,0.0232697
17,1,10.0097,0.0012207,0.00213623,-2.42745,0.0541551,-0.0747579,0.0535176,0.107897,-0.090705,0.145013,-0.125156,-0.0847066,-0.00232697,0.0299072,0.0242996,0.00904083,0.00652313,0.0252914,0.018158,0.0128937,-9.97986,0.0168991,-0.000457764,0.00740051,0.042038,0.0144577,-0.01297,0.02388,0.0262451
17,2,10.0097,-0.000610352,0.000762939,-2.42989,0.0529344,-0.0759786,0.0519917,0.080736,-0.0952827,0.140741,-0.126377,-0.0868429,-0.0100708,0.0260925,0.0248718,0.00976563,-0.00312805,0.0294876,0.0196457,0.0193787,-9.97986,0.029068,-0.00835419,0.0120544,0.0457382,0.015564,-0.0120544,0.020752,0.0166702
17,3,10.0097,0.000305176,0.000457764,-2.42928,0.0532396,-0.0747579,0.0519917,0.0743273,-0.0952827,0.142572,-0.126682,-0.0871481,-0.0124359,0.0302124,0.0200653,0.0101471,-0.0112152,0.0256348,0.0270081,0.0243759,-9.97986,0.0504684,-0.00572205,0.0131607,0.0535202,0.0177002,-0.0121689,0.0213623,0.000190735
17,4,10.0097,0.00183105,0.000152588,-2.43081,0.0535448,-0.0775044,0.0516866,0.0712755,-0.095893,0.143182,-0.127598,-0.0871481,-0.00164032,0.0235367,0.0268936,0.00892639,-0.0130081,0.0258255,0.0230026,0.0240326,-9.97986,0.042572,-0.00545502,0.0043869,0.0605392,0.0167084,-0.0137711,0.0220871,-0.0167847
17,5,10.0097,0.000305176,0,-2.42989,0.0532396,-0.0768941,0.0522969,0.0697496,-0.0949775,0.142267,-0.126682,-0.0868429,0.0143433,0.0260544,0.0194168,0.0106049,-0.00419617,0.0302887,0.0239182,0.0175858,-9.97986,0.0213623,-0.000343323,0.00244141,0.0602341,0.0177002,-0.0149155,0.0153351,-0.0117111
17,6,10.0097,-0.000305176,0.000152588,-2.42898,0.0535448,-0.0759786,0.0522969,0.0685289,-0.0949775,0.144098,-0.127598,-0.0868429,0.0190353,0.0281525,0.021553,0.0114822,0.00289917,0.0343323,0.0234604,0.0163269,-9.97986,0.00537872,-0.0030899,0.00114441,0.0569534,0.0183487,-0.015564,-0.00270844,-0.000343323
17,7,10.0097,0.000610352,0.000305176,-2.42745,0.0553758,-0.0753682,0.0522969,0.0694445,-0.094062,0.144403,-0.126377,-0.0859274,0.0209045,0.0279236,0.0231934,0.0106049,0.00953674,0.0362396,0.0215912,0.019989,-9.97986,-0.00839233,-0.0038147,0.00236511,0.0545883,0.0114822,-0.00679016,-0.00869751,0.0160599
17,8,10.0097,0,0.000152588,-2.42745,0.0547655,-0.0744527,0.054128,0.0700548,-0.0931465,0.146844,-0.127598,-0.085317,0.0194168,0.0264359,0.0167084,0.010643,0.0135422,0.0299835,0.0252151,0.0179291,-9.97986,-0.011673,0.000610352,0.00572205,0.0587082,0.0129318,-0.000305176,-0.00175476,0.0289536
17,9,10.0097,0.0012207,0.0012207,-2.42837,0.0553758,-0.075063,0.0526021,0.0691393,-0.0943672,0.146844,-0.126072,-0.0837911,0.0162506,0.0279617,0.0205231,0.0104904,0.0220108,0.0394058,0.0230408,0.0191879,-9.97986,-0.00629425,-0.00167847,0.0146484,0.0617981,0.0107193,0.00358582,0.00480652,0.0317764
18,0,10.0097,0.000305176,0.000305176,-2.42714,0.0562914,-0.0768941,0.0526021,0.0706652,-0.0928413,0.145318,-0.125461,-0.0834859,0.00736237,0.0221252,0.0193787,0.0088501,0.0212479,0.0362396,0.0210571,0.0151062,-9.97986,-0.00663757,-0.00377655,0.00965118,0.0568008,0.0103378,0.0124741,0.00469208,0.0313187
18,1,10.0097,0.000610352,-0.000762939,-2.42531,0.0578172,-0.0726216,0.055959,0.0709703,-0.0919257,0.146844,-0.124546,-0.0813497,0.0143814,0.0257874,0.0185013,0.0132751,0.0278091,0.0296783,0.0213242,0.0063324,-9.97986,-0.011673,-0.00167847,0.0210571,0.0594711,0.00869751,0.0183868,0.00228882,0.0239182
18,2,10.0097,0.000610352,0.00137329,-2.4247,0.055681,-0.0738423,0.0562642,0.07036,-0.0919257,0.147149,-0.124241,-0.0798238,0.0183487,0.0263977,0.018692,0.0105667,0.0242233,0.0245285,0.023613,-0.000457764,-9.97986,-0.0385284,-0.00358582,0.0272751,0.0563431,0.0151062,0.0230789,0.0107193,0.0190735
18,3,10.0097,0,-0.000610352,-2.4244,0.0553758,-0.0738423,0.0535176,0.07036,-0.0913154,0.146234,-0.123935,-0.0810445,0.00610352,0.0269318,0.0164032,0.00946045,0.028801,0.0222015,0.026741,0.00801086,-9.97986,-0.0453186,-0.00747681,0.024147,0.0583649,0.0151825,0.0272369,0.0169373,0.0215912
18,4,10.0097,0.000305176,-0.000305176,-2.42501,0.0572069,-0.0744527,0.0562642,0.0712755,-0.0913154,0.148675,-0.123935,-0.080129,0.00598907,0.018959,0.0138092,0.00663757,0.0264359,0.0208664,0.0247955,0.0150681,-9.97986,-0.026207,-0.00305176,0.019989,0.0533676,0.0152969,0.0210571,0.0138855,0.0226212
18,5,10.0097,0.000915527,-0.000762939,-2.42653,0.0544603,-0.0741475,0.0538228,0.0538805,-0.0943672,0.145929,-0.125156,-0.0813497,0.00896454,0.0258636,0.0166321,0.00915527,0.0288391,0.0223923,0.0222397,0.012207,-9.97986,-0.00480652,-0.00545502,0.0220871,0.0501633,0.0136566,0.0157547,0.00892639,0.0203323
18,6,9.71486,-0.000305176,-0.00198364,-2.42592,0.0562914,-0.0726216,0.0526021,0.0395372,-0.0934516,0.145929,-0.126987,-0.0825704,0.0164032,0.0202179,0.014267,0.0104904,0.0226212,0.0376892,0.0208664,0.0154495,-9.97986,0.00267029,-0.00751495,0.00492096,0.0374985,0.00976563,0.0156021,0.000305176,0.0148773
18,7,7.91219,0.000610352,-0.00228882,-2.42531,0.0562914,-0.0747579,0.0547383,0.0493029,-0.0934516,0.147455,-0.126987,-0.0825704,0.0176239,0.0203705,0.0153351,0.0109863,0.0218582,0.0452042,0.0177765,0.0153351,-9.97986,0.00995636,-0.00148773,-0.00350952,0.0310516,0.0128555,0.00991821,-0.00679016,0.0145721
18,8,7.37691,0.000915527,-0.00137329,-2.42684,0.0569017,-0.0744527,0.0538228,0.0608995,-0.0903999,0.145624,-0.126072,-0.0831808,0.00953674,0.0218582,0.0166321,0.013504,0.027771,0.0427628,0.0247574,0.0152588,-9.97986,0.0246811,-0.00377655,0.00377655,0.0221252,0.0185776,0.00362396,-0.00553131,0.0205231
18,9,7.47792,0,-0.000610352,-2.42714,0.0541551,-0.0738423,0.0529073,0.0688341,-0.0919257,0.147149,-0.124851,-0.0828756,0.00553131,0.0220871,0.0131989,0.00713348,0.0225067,0.0395966,0.0219345,0.00946045,-9.97986,0.0426865,-0.00549316,0.00999451,0.018692,0.0195313,0.0019455,0.00495911,0.0141525
19,0,8.53444,0.000305176,0.000305176,-2.42714,0.0550706,-0.0741475,0.0532125,0.0837877,-0.0910102,0.142267,-0.124851,-0.0840963,0.0056076,0.0181198,0.0107193,0.0103378,0.0175858,0.0418091,0.0273132,0.0108719,-9.97986,0.0469589,0.00152588,0.0135422,0.013504,0.0181198,-0.00202179,0.0203323,0.00450134
19,1,10.0097,0.000610352,0.00198364,-2.42806,0.0541551,-0.075063,0.0538228,0.106371,-0.0903999,0.144708,-0.124241,-0.0850118,0.0129318,0.0252533,0.014267,0.0204849,0.0187302,0.0466919,0.0243378,0.0136185,-9.97986,0.0502777,-0.000114441,0.0141907,0.0119781,0.0167084,-0.000419617,0.0315475,-0.0069046
19,2,10.0097,0.00213623,0.000152588,-2.4305,0.0535448,-0.0747579,0.0522969,0.082567,-0.0952827,0.143182,-0.126072,-0.0859274,0.0105286,0.0198364,0.0137329,0.00850677,0.016098,0.0497437,0.0202179,0.0100708,-9.97986,0.0625229,0.000648499,0.0167465,0.0132751,0.0204468,-0.00396729,0.0301743,-0.0169754
19,3,10.0097,-0.0012207,-0.000915527,-2.42959,0.0535448,-0.0759786,0.0513814,0.0737169,-0.0949775,0.13952,-0.126682,-0.0868429,0.0111771,0.0228882,0.0166702,0.0102615,0.0211716,0.0476837,0.0229263,0.0153351,-9.97986,0.0620651,-0.000419617,0.016861,0.0109482,0.0270844,0.00209808,0.0366211,-0.0192642
19,4,10.0097,-0.000305176,-0.000305176,-2.42898,0.0547655,-0.0765889,0.0513814,0.0697496,-0.0955879,0.143182,-0.127598,-0.0868429,0.0087738,0.0195694,0.0159836,0.0110626,0.0147247,0.030098,0.0268936,0.0139236,-9.97986,0.0500488,-0.00217438,0.0130463,0.0115204,0.0356293,0.000495911,0.0445175,-0.0190353
19,5,10.0097,0.0012207,0,-2.42898,0.0529344,-0.0771993,0.0522969,0.0688341,-0.0955879,0.141961,-0.128208,-0.0865377,0.00495911,0.0257111,0.018158,0.00999451,0.0150681,0.0155258,0.0250244,0.0188828,-9.97986,0.0469208,0.00228882,0.0196457,0.0113297,0.0403214,0.00278473,0.0427628,-0.0178146
19,6,10.0097,-0.000915527,-0.000305176,-2.42867,0.0538499,-0.0762837,0.0513814,0.0685289,-0.0955879,0.146844,-0.126377,-0.0868429,-0.00595093,0.0214767,0.0180054,0.00736237,0.0133133,0.0043869,0.0270462,0.020752,-9.97986,0.0346375,7.62939e-005,0.0247955,0.0111008,0.0392532,0.00484467,0.0319672,-0.0283051
19,7,10.0097,0.0012207,0,-2.42898,0.0535448,-0.0759786,0.0526021,0.0694445,-0.094062,0.143792,-0.127292,-0.0862325,0.00102997,0.0262451,0.022316,0.0110245,0.0189209,-0.00171661,0.0259399,0.0252914,-9.97986,0.0215149,0.00530243,0.0276566,0.0088501,0.0369644,0.00419617,0.0233459,-0.0180435
19,8,10.0097,0,0.000457764,-2.42776,0.0553758,-0.0756734,0.0526021,0.0709703,-0.0931465,0.145624,-0.126377,-0.0850118,0.00911713,0.021019,0.0244904,0.0110626,0.0256348,-0.00244141,0.0318146,0.0194168,-9.97986,0.0115967,0.00400543,0.0286102,0.0130463,0.0326538,-0.00301361,0.0199509,-0.00419617
19,9,10.0097,0.0012207,0.000305176,-2.42806,0.0550706,-0.0741475,0.0532125,0.0697496,-0.0931465,0.142877,-0.125156,-0.0850118,0.0178146,0.0277328,0.0189209,0.0114822,0.0304031,0.000724792,0.0283813,0.0185013,-9.97986,0.0142288,0.00190735,0.0236893,0.0124741,0.0282288,-0.00423431,0.00843048,-0.0193787
20,0,10.0097,0.00244141,0.000915527,-2.42653,0.0559862,-0.0753682,0.0538228,0.0718859,-0.0925361,0.145318,-0.125766,-0.0834859,0.0278854,0.0294113,0.0230789,0.0146866,0.0350189,0.0062561,0.0244141,0.016861,-9.97986,0.0214005,0.00217438,0.019989,0.0112534,0.0233078,-0.00652313,0.0146103,-0.0250244
20,1,10.0097,-0.000610352,0.000457764,-2.4247,0.0562914,-0.0723164,0.0547383,0.0718859,-0.0919257,0.146539,-0.124241,-0.0822652,0.0284576,0.0295258,0.0213242,0.00915527,0.0330734,0.0113678,0.0217438,0.0193787,-9.97986,0.026741,0.000610352,0.0198746,0.00617981,0.0191879,-0.0152206,0.0223923,-0.0114822
20,2,10.0097,0.000610352,-0.000457764,-2.42562,0.0572069,-0.0726216,0.0544332,0.0712755,-0.0916206,0.147149,-0.123935,-0.0825704,0.0309753,0.0244141,0.0235748,0.0123596,0.0276566,0.0134659,0.0138474,0.0199509,-9.97986,0.0225449,0.00087738,0.0128937,-0.00228882,0.0154877,-0.0136185,0.0214386,0.00785828
20,3,10.0097,0.000610352,-0.000305176,-2.4244,0.0562914,-0.073232,0.054128,0.0709703,-0.0913154,0.146539,-0.124241,-0.0810445,0.0338745,0.0257492,0.021553,0.0120544,0.013237,0.0212097,0.0146484,0.0204086,-9.97986,0.0193405,-0.00148773,0.0030899,-0.00202179,0.0130081,-0.00915527,0.0147247,0.0223541
20,4,10.0097,0.0012207,0,-2.42379,0.0569017,-0.0735371,0.0535176,0.0691393,-0.0910102,0.147149,-0.12363,-0.080129,0.0270081,0.0242996,0.0215912,0.0154495,0.00709534,0.027771,0.00579834,0.023613,-9.97986,0.0212479,7.62939e-005,-0.00335693,-0.00205994,0.0124359,-0.00350952,0.0114822,0.0359344
20,5,10.0097,0.000610352,0.000610352,-2.42653,0.0562914,-0.0747579,0.054128,0.0544908,-0.0949775,0.145624,-0.126072,-0.0822652,0.0159836,0.0286484,0.0244141,0.0164413,0.0104523,0.0333023,0.0117493,0.0226593,-9.97986,0.0157166,0.0043869,-0.00888824,-0.00240326,0.0134659,0.00038147,0.0125885,0.0476456
20,6,9.75362,0.00152588,-0.00198364,-2.42653,0.0559862,-0.0744527,0.0532125,0.0410631,-0.0943672,0.146539,-0.126377,-0.0819601,0.0164413,0.0258636,0.0207901,0.0106812,-0.00389099,0.0304413,0.0100708,0.0216675,-9.97986,0.0123596,-0.000724792,-0.0107956,-0.00713348,0.00724792,0.00320435,0.0111771,0.0434875
20,7,7.99611,0.000610352,-0.00152588,-2.42653,0.0569017,-0.0756734,0.0538228,0.0508287,-0.0922309,0.146234,-0.126377,-0.0819601,0.0152588,0.0250244,0.0242615,0.0132751,-0.00774384,0.0290298,0.0183105,0.0110626,-9.97986,0.0109863,0.00179291,-0.00823975,-0.00621796,0.0012207,0.00400543,0.0107193,0.0307465
20,8,7.45107,0.00152588,0.000305176,-2.42531,0.0553758,-0.075063,0.0535176,0.0612047,-0.0913154,0.142572,-0.126072,-0.0825704,0.0179672,0.0302887,0.025177,0.0117493,-0.0134659,0.028801,0.0206757,0.0144958,-9.97986,-0.001297,0.00217438,-0.0056839,-0.00610352,0.0056839,0.00583649,0.0265121,0.0152969
20,9,7.54964,0.000915527,0.000305176,-2.42562,0.0547655,-0.0738423,0.0544332,0.0679186,-0.0919257,0.145929,-0.126072,-0.0831808,0.0235367,0.0263214,0.0257111,0.0151062,-0.0144958,0.0254059,0.0259399,0.0147247,-9.97986,-0.00404358,0.00144958,0.00621796,-0.00904083,0.0118256,0.00522614,0.0355911,0.0119019
21,0,8.59914,0.000915527,0.000457764,-2.42653,0.0553758,-0.0747579,0.0538228,0.0837877,-0.0913154,0.145013,-0.125461,-0.0822652,0.0117874,0.0268555,0.0233841,0.00686646,-0.0149155,0.025444,0.0286865,0.0138474,-9.97986,-0.0102615,-0.00144958,0.00038147,-0.00759125,0.00846863,0.00289917,0.0374222,0.00434875
21,1,10.0097,0.000610352,0.00305176,-2.42806,0.0535448,-0.0756734,0.0532125,0.10515,-0.0903999,0.143182,-0.125156,-0.0847066,0.0139618,0.0266266,0.0227737,0.0151443,-0.00953674,0.0204086,0.0364304,0.0185394,-9.97986,0.00167847,0.000114441,0.00377655,0.000572205,0.0159454,-0.000953674,0.0371933,-0.00427246
21,2,10.0097,0.000305176,0.000762939,-2.42959,0.0538499,-0.0759786,0.0519917,0.0810411,-0.0952827,0.143792,-0.127292,-0.0865377,0.00835419,0.026207,0.0161362,0.0104523,-0.0132751,0.0153351,0.0389481,0.0218582,-9.97986,0.0063324,0.00164032,0.00541687,0.00236511,0.0308609,-0.0102234,0.0317383,-0.00774384
21,3,10.0097,0,-0.000152588,-2.42928,0.0538499,-0.0765889,0.0516866,0.0737169,-0.0961982,0.143182,-0.127292,-0.0868429,-0.00713348,0.0197983,0.018425,0.00865936,-0.0183487,0.00717163,0.0403976,0.021286,-9.97986,0.0162506,-0.00118256,-0.0037384,0.000839233,0.0337601,-0.0103378,0.0336075,-0.00694275
21,4,10.0097,0.00244141,-0.000762939,-2.42898,0.0529344,-0.0759786,0.0522969,0.0712755,-0.095893,0.143792,-0.128513,-0.0874532,-0.0167084,0.0225449,0.021553,0.0127411,-0.00663757,0.00804901,0.0405884,0.0127029,-9.97986,0.018692,0.00171661,-0.00804901,-0.00343323,0.0268555,-0.00816345,0.0349808,-0.00164032
21,5,10.0097,-0.000305176,-0.000610352,-2.42959,0.0535448,-0.0765889,0.0516866,0.0697496,-0.0955879,0.142877,-0.128208,-0.0880636,-0.01297,0.02285,0.0164413,0.0120544,-0.00282288,0.00232697,0.032692,0.0069809,-9.97986,0.0128937,0.00278473,-0.00419617,0.000953674,0.0185394,-0.00339508,0.028801,0.0031662
21,6,10.0097,0.00244141,-0.000457764,-2.42714,0.0535448,-0.0768941,0.0535176,0.0700548,-0.0946723,0.143487,-0.127292,-0.0865377,-0.00511169,0.0214005,0.0187302,0.0121307,-0.00839233,-0.000343323,0.0348663,0.013237,-9.97986,0.00762939,-0.000801086,-0.0115967,0.000457764,0.0168991,-0.00606537,0.0190353,0.00171661
21,7,10.0097,-0.000305176,-0.000610352,-2.42806,0.0550706,-0.0747579,0.0526021,0.0691393,-0.0952827,0.145318,-0.125766,-0.0859274,0.00106812,0.0226212,0.020752,0.00999451,0.00183105,-7.62939e-005,0.0279617,0.00732422,-9.97986,-0.00370026,-0.00217438,-0.014801,-0.000991821,0.0145721,-0.00549316,0.0128937,0.0111008
21,8,10.0097,0.000915527,0.000610352,-2.42806,0.0550706,-0.075063,0.054128,0.07036,-0.0943672,0.144403,-0.126377,-0.085317,0.01091,0.0236511,0.0188828,0.0125504,0.0155258,-0.001297,0.0254822,0.0151443,-9.97986,-0.0037384,0.00247955,-0.0069046,0.000152588,0.0160599,-0.00236511,0.00480652,0.0131989
21,9,10.0097,-0.000305176,-0.000457764,-2.42684,0.0553758,-0.0744527,0.0519917,0.07036,-0.0925361,0.143792,-0.126072,-0.0844015,0.0212479,0.019455,0.0155258,0.00492096,0.0313187,0.000228882,0.0191116,0.0215149,-9.97986,0.000495911,0.000801086,-0.00282288,-0.000991821,0.00816345,-0.00450134,0.0031662,0.000343323
22,0,10.0097,0.0012207,0,-2.42776,0.0559862,-0.0753682,0.0535176,0.0697496,-0.0931465,0.144403,-0.124851,-0.0828756,0.0232697,0.0180817,0.0162888,0.01091,0.0349808,0.00133514,0.0186539,0.0138092,-9.97986,0.0118637,0.00244141,-0.00495911,-0.000991821,0.00492096,-0.00534058,0.00652313,0.00106812
22,1,10.0097,0.000305176,-0.000305176,-2.42592,0.055681,-0.075063,0.0550435,0.0709703,-0.0916206,0.145929,-0.123325,-0.0813497,0.019455,0.0141525,0.00652313,0.00709534,0.0290298,-0.00576019,0.0156403,0.0103378,-9.97986,0.0263596,0.00236511,-0.00526428,0.00228882,0.00205994,-0.00549316,0.00518799,0.00362396
22,2,10.0097,-0.000305176,0.000610352,-2.42592,0.0565965,-0.0741475,0.0547383,0.07036,-0.0928413,0.146234,-0.124241,-0.0810445,0.0144577,0.0167465,0.0116348,0.010643,0.027504,-0.00240326,0.0146484,0.0121307,-9.97986,0.0364304,0.000724792,-0.00160217,0.00465393,-0.00385284,-0.00671387,0.00221252,0.0018692
22,3,10.0097,0.00213623,0,-2.4244,0.0565965,-0.0744527,0.0538228,0.0709703,-0.0913154,0.147149,-0.125156,-0.0810445,0.00328064,0.0174332,0.0119781,0.0063324,0.0174713,-0.00320435,0.0136185,0.0122833,-9.97986,0.0442505,0,0.0031662,-0.000343323,-0.00247955,-0.00335693,-0.00167847,0.00843048
22,4,10.0097,0.000305176,0,-2.4247,0.0575121,-0.0738423,0.0550435,0.07036,-0.0916206,0.147149,-0.124241,-0.0804342,0.0018692,0.017395,0.00686646,0.00709534,0.0139236,-0.0104904,0.0159836,0.0123215,-9.97986,0.045433,0.000839233,0.0063324,0.00278473,-0.00419617,-0.00434875,-0.00217438,0.0185776
22,5,10.0097,0,0.000457764,-2.42714,0.0559862,-0.0744527,0.0532125,0.0532701,-0.0955879,0.147149,-0.126682,-0.0825704,0.0069046,0.018158,0.0162506,0.00743866,0.0120544,-0.00816345,0.018692,0.0146103,-9.97986,0.0368118,-0.000839233,0.0111008,0.00663757,-0.00324249,-0.00823975,-0.00270844,0.0244522
22,6,9.64162,-0.00183105,-0.00137329,-2.42562,0.0550706,-0.0744527,0.0535176,0.0392321,-0.0946723,0.146539,-0.126682,-0.0819601,0.00640869,0.0183868,0.0126266,0.00835419,0.0102997,-0.00312805,0.0242615,0.0134277,-9.97986,0.0382233,0.00259399,0.0082016,0.00293732,-0.000724792,-0.00984192,-0.00312805,0.0307083
22,7,7.8777,0.000915527,-0.0012207,-2.42562,0.055681,-0.0738423,0.0538228,0.0505236,-0.090705,0.146844,-0.126682,-0.0819601,0.00297546,0.0156021,0.00961304,0.00915527,0.00984192,0.00347137,0.0178909,0.0157547,-9.97986,0.0524521,-0.00179291,0.00774384,-0.00160217,0.0012207,-0.00907898,-0.00549316,0.0241089
22,8,7.33205,0.000915527,0.000152588,-2.42653,0.055681,-0.075063,0.054128,0.0608995,-0.0922309,0.143792,-0.125766,-0.0825704,-0.000495911,0.0131607,0.0125122,0.00797272,0.00915527,0.00984192,0.021286,0.0191879,-9.97986,0.0601578,-0.0037384,0.00808716,0.00087738,0.00274658,-0.00759125,0.00217438,0.0221634
22,9,7.42208,0.000915527,0.000610352,-2.42684,0.0547655,-0.0744527,0.0538228,0.0673082,-0.0919257,0.143792,-0.125766,-0.0825704,-0.00564575,0.0193024,0.0131607,0.00709534,0.00793457,0.0128174,0.0202942,0.0188828,-9.97986,0.0492859,0.00312805,0.0178528,0.00839233,0.00961304,-0.00263214,0.00904083,0.0197601
23,0,8.50972,0.000305176,0.000610352,-2.42653,0.055681,-0.0744527,0.0538228,0.082567,-0.0916206,0.144403,-0.126072,-0.0828756,-0.00988007,0.016861,0.0087738,0.00938416,0.00923157,0.00202179,0.0273132,0.017128,-9.97986,0.0312805,-0.00125885,0.0310898,0.00713348,0.0131226,-0.00419617,0.0140762,0.0141907
23,1,10.0097,-0.000305176,0.00259399,-2.42867,0.0538499,-0.0753682,0.054128,0.106066,-0.0897895,0.144403,-0.124851,-0.0847066,0.00148773,0.0199127,0.0153351,0.0114059,0.0154495,-0.00606537,0.0250626,0.025177,-9.97986,0.0217056,0.00110626,0.0495148,0.00995636,0.0189972,-0.00125885,0.0173569,0.00686646
23,2,10.0097,0.00213623,0.000305176,-2.42959,0.0535448,-0.075063,0.0510762,0.0822618,-0.0955879,0.142877,-0.126987,-0.0868429,0.00774384,0.0157547,0.0172424,0.00919342,0.0189972,-0.015831,0.0258636,0.0286865,-9.97986,0.0261307,-0.00213623,0.0698471,0.01194,0.0208282,0.00705719,0.0166702,0.00682831
23,3,10.0097,-0.0012207,0.000152588,-2.4305,0.0538499,-0.0765889,0.0513814,0.0743273,-0.0961982,0.143487,-0.126682,-0.0874532,0.00133514,0.0220871,0.0150299,0.00686646,0.0287247,-0.0154877,0.0251007,0.0365067,-9.97986,0.0307846,0.00228882,0.0540924,0.01194,0.0185013,0.00747681,0.0164413,-0.00663757
23,4,10.0097,0,-0.000305176,-2.42898,0.0532396,-0.0762837,0.0513814,0.0706652,-0.0949775,0.143182,-0.127598,-0.0868429,-0.0170135,0.0168991,0.0199127,0.00667572,0.0391388,-0.0147247,0.0305557,0.0354004,-9.97986,0.0307846,0.00167847,0.030098,0.0094986,0.0121307,0.00644684,0.0188446,-0.0274277
23,5,10.0097,0.0012207,-0.000762939,-2.42928,0.0529344,-0.0759786,0.0522969,0.0682238,-0.0955879,0.143182,-0.126682,-0.0877584,-0.0363922,0.0213242,0.0223923,0.0106812,0.0358963,-0.0108337,0.0334167,0.0383759,-9.97986,0.0276566,-0.0038147,0.0305176,0.0104141,0.0157928,0.0111008,0.0160217,-0.0330353
23,6,10.0097,0.000305176,-0.000152588,-2.42928,0.0547655,-0.0762837,0.0522969,0.0691393,-0.0931465,0.144708,-0.127292,-0.0865377,-0.0430679,0.0242615,0.0168228,0.00839233,0.0365829,-0.0031662,0.0360107,0.0409317,-9.97986,0.0255203,-0.000305176,0.0401306,0.0110626,0.00991821,0.0044632,0.00881195,-0.0262833
23,7,10.0097,0,-0.000152588,-2.42837,0.0544603,-0.0744527,0.0532125,0.0694445,-0.095893,0.144403,-0.126072,-0.0859274,-0.0630569,0.023613,0.0214005,0.0075531,0.0407028,-0.0100708,0.0382233,0.0388336,-9.97986,0.030899,-0.00152588,0.0372696,0.0164795,0.0130844,0.00862122,0.0109482,-0.00843048
23,8,10.0097,0.000610352,-0.000152588,-2.42806,0.0544603,-0.0765889,0.0526021,0.07036,-0.0949775,0.145013,-0.126377,-0.0847066,-0.0799179,0.027771,0.0224304,0.0125885,0.039978,-0.0129318,0.0366211,0.0265121,-9.97986,0.0375748,-0.00282288,0.0313187,0.0173569,0.0183487,0.00617981,0.00957489,0.00453949
23,9,10.0097,-0.000915527,0.000305176,-2.42776,0.0547655,-0.0762837,0.0529073,0.0688341,-0.0919257,0.145318,-0.125766,-0.0834859,-0.0666428,0.03479,0.029335,0.0149536,0.0372696,-0.0227737,0.0312805,0.0165558,-9.97986,0.0444031,-0.00144958,0.0378036,0.0172424,0.0156403,-0.00102997,0.00659943,0.0226593
24,0,10.0097,0.000305176,0.000610352,-2.42714,0.055681,-0.0747579,0.0535176,0.0718859,-0.0922309,0.145318,-0.125461,-0.0834859,0.00289917,0.0365067,0.0271988,0.0126266,0.0398636,-0.0171661,0.0254059,0.00526428,-9.97986,0.0340652,-0.00255585,0.0313187,0.0192261,0.0149918,0.00244141,0.00427246,0.0422287
24,1,10.0097,0.0012207,0.000457764,-2.42684,0.0578172,-0.0744527,0.0547383,0.0731066,-0.0916206,0.147149,-0.124851,-0.0816549,0.0814819,0.0349808,0.0289536,0.014267,0.0328064,-0.0140762,0.0230026,-0.00247955,-9.97986,0.0304413,0.000152588,0.0279999,0.0206375,0.0113297,-0.0012207,0.00400543,0.0553513
24,2,10.0097,-0.000915527,0,-2.42531,0.0572069,-0.0726216,0.054128,0.0715807,-0.0910102,0.144708,-0.124546,-0.0813497,0.0998306,0.0346375,0.0308228,0.0127029,0.0214005,-0.0124359,0.0215149,-0.00534058,-9.97986,0.0218582,-0.000457764,0.0203705,0.0178146,0.00736237,0.00450134,0.0031662,0.0522995
24,3,10.0097,-0.000610352,-0.000152588,-2.42562,0.0565965,-0.0738423,0.0553487,0.0706652,-0.0922309,0.147149,-0.124851,-0.0813497,0.0651169,0.0374603,0.0320816,0.0172424,0.0221634,-0.00637054,0.0265121,-0.0130463,-9.97986,0.00358582,-0.000915527,0.0131989,0.0138855,0.00293732,0.00602722,0.0124741,0.0553131
24,4,10.0097,0.00152588,0.000305176,-2.4247,0.0569017,-0.0744527,0.055959,0.0706652,-0.0913154,0.147149,-0.124851,-0.0804342,0.0208282,0.032692,0.0260544,0.0140381,0.015564,-0.0108719,0.0160599,-0.0101089,-9.97986,-0.0230789,-0.00377655,0.00461578,0.0151825,0.000152588,0.00583649,0.011673,0.045166
24,5,10.0097,0.0012207,0.000305176,-2.42531,0.0559862,-0.0741475,0.0529073,0.0535753,-0.0937568,0.146539,-0.124851,-0.0819601,0.0335693,0.0309753,0.0236893,0.0198364,0.0148773,-0.00934601,0.0149155,0.00659943,-9.97986,-0.0423431,-0.00137329,0.00358582,0.0205994,0.00648499,0.0115967,0.017395,0.0444794
24,6,9.79787,0.000610352,-0.00152588,-2.4247,0.0572069,-0.073232,0.0547383,0.0401476,-0.0949775,0.146844,-0.126377,-0.0813497,0.0382614,0.0246048,0.0208282,0.00946045,0.0112915,-0.0108337,0.018425,0.0130081,-9.97986,-0.0638199,-0.00370026,0.000343323,0.0165939,0.00347137,0.0125122,0.0143814,0.0286102
24,7,8.03761,-0.000610352,-0.0012207,-2.42501,0.0565965,-0.0738423,0.0553487,0.049608,-0.0925361,0.145318,-0.126682,-0.0822652,0.0288773,0.030365,0.0229645,0.00934601,0.0161362,-0.0127792,0.018692,0.0114822,-9.97986,-0.0771713,-0.00183105,0.0018692,0.0110245,0.00427246,-0.00331879,0.00808716,0.00926971
24,8,7.50264,0.000610352,-0.000457764,-2.42684,0.0559862,-0.0741475,0.054128,0.0615099,-0.0913154,0.144708,-0.126682,-0.0831808,0.0331497,0.0247192,0.0177002,0.0100327,0.0144958,-0.0164032,0.0139618,0.0131607,-9.97986,-0.087204,-0.00225067,0.0104141,0.00888824,0.00167847,-0.0356293,0.00553131,-0.00175476
24,9,7.60579,-0.000610352,0.000305176,-2.42714,0.0550706,-0.0747579,0.054128,0.0694445,-0.0919257,0.143792,-0.125461,-0.0825704,0.0400543,0.0258636,0.0158691,0.0120163,0.0198364,-0.0105667,0.0188446,0.011673,-9.97986,-0.0699615,-0.00167847,0.0200272,0.00671387,0.00232697,-0.0365067,0.0138855,0.00209808
25,0,8.71266,0.000610352,0.000305176,-2.42684,0.0541551,-0.0738423,0.0553487,0.0859239,-0.0900947,0.145318,-0.124546,-0.0834859,0.04879,0.0179672,0.0127029,0.0136566,0.0215149,-0.00427246,0.0180817,0.00965118,-9.97986,-0.0379181,-0.00167847,0.0121307,0.0056839,0.00312805,-0.0206757,0.0240326,3.8147e-005
25,1,10.0097,0.00152588,0.00274658,-2.42806,0.0541551,-0.0756734,0.0538228,0.103929,-0.0913154,0.144098,-0.124851,-0.085317,0.0598526,0.0212479,0.0138855,0.00968933,0.0206375,-0.00247955,0.0148773,0.0115967,-9.97986,-0.0183868,0.0012207,0.00965118,0.001297,0.00553131,-0.00259399,0.0260925,-0.00114441
25,2,10.0097,-0.0012207,0.00152588,-2.4302,0.0538499,-0.0759786,0.0522969,0.0816515,-0.0946723,0.142572,-0.126072,-0.0868429,0.0574493,0.0142288,0.00507355,0.00782013,0.0170517,-0.0101852,0.0174713,0.0157547,-9.97986,0.0107956,0.000495911,0.0252151,0.00488281,0.00862122,0.0135803,0.0278091,-0.00827789
25,3,10.0097,0,0,-2.42867,0.0538499,-0.0756734,0.0522969,0.0743273,-0.0961982,0.143182,-0.126987,-0.0868429,0.0383759,0.0134659,0.0101852,0.00968933,0.0234985,-0.0133133,0.0257874,0.0162888,-9.97986,0.0369263,0.000801086,0.0274277,0.00659943,0.00965118,0.0314331,0.0240707,-0.0173187
25,4,10.0097,0.000305176,0.000457764,-2.4302,0.0535448,-0.0759786,0.0532125,0.07036,-0.0946723,0.143487,-0.128208,-0.0880636,0.0149536,0.0114059,0.0050354,0.0103378,0.0344086,-0.0111008,0.0285339,0.014801,-9.97986,0.0305939,0.00240326,0.0365067,0.00782013,0.0131607,0.0484848,0.0222015,-0.0113297
25,5,10.0097,0.0012207,-0.000915527,-2.42959,0.0535448,-0.0756734,0.0519917,0.0700548,-0.0952827,0.143182,-0.128208,-0.0880636,0.0050354,0.0063324,0.00473022,0.00984192,0.0341415,-0.011673,0.0202179,0.0167084,-9.97986,0.0347137,-0.00141144,0.0337601,0.0082016,0.0088501,0.0565338,0.0241852,-0.00793457
25,6,10.0097,-0.0012207,0,-2.42928,0.0538499,-0.0753682,0.0519917,0.0694445,-0.0943672,0.143792,-0.128208,-0.0868429,0.00610352,0.00961304,0.0044632,0.00850677,0.0362396,-0.00762939,0.0175095,0.0214386,-9.97986,0.0513458,0.00110626,0.0145721,0.00610352,0.00984192,0.0442505,0.0127029,-0.00934601
25,7,10.0097,0.00152588,-0.000305176,-2.42745,0.0547655,-0.0759786,0.0513814,0.0688341,-0.0934516,0.144403,-0.126072,-0.085317,0.0125504,0.00816345,0.0025177,0.00667572,0.0346375,0.001297,0.0150299,0.0273895,-9.97986,0.0821686,-0.00305176,0.0128937,0.00587463,0.0106812,0.0299072,0.00606537,-0.00923157
25,8,10.0097,0.000305176,-0.000762939,-2.42684,0.0550706,-0.075063,0.0535176,0.0697496,-0.0943672,0.144708,-0.126377,-0.0850118,0.0142288,0.0088501,0.00682831,0.0094223,0.0318527,0.00392914,0.0196075,0.0183487,-9.97986,0.0861359,0.000686646,0.00614166,0.00602722,0.0234222,0.0151825,0.00297546,-0.0104904
25,9,10.0097,0.00152588,0.000305176,-2.42745,0.0572069,-0.0753682,0.0529073,0.0700548,-0.0946723,0.143792,-0.126682,-0.0847066,0.00579834,0.0108337,0.00572205,0.0103378,0.0247574,0.0159836,0.0170898,0.0238037,-9.97986,0.0788116,-0.0012207,-0.00556946,-0.000305176,0.0358963,0.0118637,-0.00148773,-0.013504
26,0,10.0097,-0.000305176,0.000152588,-2.42653,0.0547655,-0.0741475,0.0532125,0.0691393,-0.0931465,0.143792,-0.126072,-0.0840963,0.00995636,0.0122452,0.00740051,0.0116348,0.0157547,0.0215912,0.0226593,0.0205612,-9.97986,0.0605774,-0.00152588,-0.00198364,-0.00328064,0.0272751,0.0122833,0.0108337,-0.0370407
26,1,10.0097,0.00152588,0.000457764,-2.4244,0.0553758,-0.0735371,0.059316,0.0700548,-0.0931465,0.146844,-0.124546,-0.0822652,0.00659943,0.00896454,0.0111008,0.00995636,0.00801086,0.0224304,0.02491,0.0166702,-9.97986,0.0460815,-0.00133514,0.00896454,0.00102997,0.027504,0.00663757,0.0253677,-0.0474167
26,2,10.0097,0.00152588,0.000152588,-2.4247,0.0565965,-0.0735371,0.0556539,0.07036,-0.0910102,0.147149,-0.124851,-0.0810445,0.00415802,0.0160599,0.0120926,0.0136566,0.00976563,0.0182343,0.0237274,0.0144196,-9.97986,0.0283051,0.00198364,0.0157928,0.0025177,0.0302887,-0.000343323,0.0365448,-0.0367355
26,3,10.0097,0.000610352,0.000152588,-2.4244,0.0575121,-0.0735371,0.0553487,0.0718859,-0.0913154,0.146539,-0.124851,-0.0816549,0.00545502,0.0172424,0.0149155,0.0114822,0.017395,0.0165939,0.0238419,0.0166702,-9.97986,0.0180817,0.00354767,0.0301743,0.00873566,0.0355911,0.00392914,0.0428772,-0.0260925
26,4,10.0097,0.0012207,0.000610352,-2.42592,0.0572069,-0.0735371,0.0550435,0.0715807,-0.0913154,0.146844,-0.123325,-0.0810445,0.001297,0.0173569,0.0162506,0.0115204,0.0196075,0.013237,0.0289536,0.0160599,-9.97986,0.00217438,0.0102615,0.0365829,0.00850677,0.0368118,0.000686646,0.0364685,-0.0255203
26,5,10.0097,0.000305176,0,-2.42592,0.0553758,-0.0735371,0.0538228,0.0557115,-0.0934516,0.145624,-0.125766,-0.0819601,0.0087738,0.0189209,0.0130081,0.0114059,0.0138092,0.0206375,0.0297928,0.0190735,-9.97986,0.00411987,0.00606537,0.0352859,0.00705719,0.0363541,0.00160217,0.0278091,-0.0286484
26,6,9.83205,-0.000610352,-0.00152588,-2.42592,0.0575121,-0.0744527,0.0532125,0.0410631,-0.0937568,0.146844,-0.126987,-0.0819601,0.012207,0.0201797,0.0151443,0.00957489,0.0138092,0.0262451,0.0264359,0.0156403,-9.97986,0.0136566,0.00602722,0.0267792,0.00705719,0.0383377,3.8147e-005,0.0246048,-0.018425
26,7,8.09865,-0.000915527,-0.0012207,-2.42653,0.0559862,-0.0753682,0.0538228,0.0502184,-0.0928413,0.146844,-0.126072,-0.0825704,0.0100708,0.0179291,0.0158691,0.0127411,0.0206375,0.02388,0.0270844,0.0182724,-9.97986,0.0181198,0.00453949,0.0190353,-0.00141144,0.0334549,-0.00160217,0.0240326,-0.00114441
26,8,7.55727,0.000305176,-0.000762939,-2.42592,0.055681,-0.0744527,0.054128,0.0615099,-0.0925361,0.145929,-0.122104,-0.0828756,0.0120926,0.019722,0.0165558,0.0113297,0.0320435,0.0135422,0.0238037,0.0166321,-9.97986,0.018425,0.00587463,0.0196457,-0.00102997,0.0323105,0.000648499,0.0108719,0.00881195
26,9,7.62319,0.00152588,0.000305176,-2.42684,0.0550706,-0.075063,0.0529073,0.0691393,-0.0910102,0.145624,-0.125461,-0.0822652,0.0141525,0.0219345,0.022049,0.0150299,0.0333023,0.0147629,0.0230789,0.0215912,-9.97986,0.018692,0.00411987,0.016861,-0.00232697,0.0290298,0.0037384,0.00892639,0.0110626
27,0,8.74837,0.000305176,0.000610352,-2.42653,0.0553758,-0.0753682,0.0550435,0.0822618,-0.090705,0.144403,-0.125766,-0.0834859,0.0127411,0.0200653,0.0209808,0.0133514,0.0313187,0.0181198,0.0221634,0.0258255,-9.97986,0.00392914,0.00156403,0.01091,-0.0043869,0.0206375,0.00331879,0.00541687,0.013237
27,1,10.0097,0.000305176,0.00213623,-2.42867,0.0535448,-0.0768941,0.0538228,0.103624,-0.0919257,0.145013,-0.123935,-0.0859274,0.0151062,0.0231552,0.0172043,0.0135422,0.0349426,0.00888824,0.0214386,0.0222397,-9.97986,-0.0103378,0.00236511,0.017128,-0.000572205,0.0190353,0.0125122,0.01297,0.0114822
27,2,10.0097,0.0012207,0.000762939,-2.42867,0.0535448,-0.0762837,0.0529073,0.0801256,-0.0968086,0.144403,-0.126072,-0.0871481,0.014267,0.0230408,0.0184631,0.0159836,0.0170517,0.00228882,0.0156021,0.0216675,-9.97986,-0.0159073,-0.00595093,0.0213242,-0.00537872,0.0209808,0.0161743,0.0105286,0.0148392
27,3,10.0097,0.000610352,-0.000610352,-2.42898,0.0529344,-0.0759786,0.0516866,0.0728014,-0.0955879,0.144098,-0.127292,-0.0871481,0.00946045,0.0208664,0.016861,0.0153732,0.00915527,0.00728607,0.018158,0.0233459,-9.97986,0.000648499,-0.000762939,0.0230026,-0.00637054,0.0192261,0.01297,0.0170898,0.0106812
27,4,10.0097,-0.000305176,-0.000152588,-2.42959,0.0532396,-0.0771993,0.0526021,0.0706652,-0.095893,0.142572,-0.124546,-0.0868429,0.0126648,0.0225449,0.0154495,0.0138092,0.0109482,0.00278473,0.0228119,0.0195313,-9.97986,0.0157928,0.00312805,0.0257111,-0.00572205,0.0178909,0.00854492,0.0224304,0.00324249
27,5,10.0097,0.000610352,0.000152588,-2.42837,0.0544603,-0.0753682,0.0529073,0.0688341,-0.0955879,0.142877,-0.127292,-0.0871481,0.0140762,0.0205612,0.0214005,0.0122833,0.0144958,0.00152588,0.0189972,0.0183868,-9.97986,0.0224304,0.00469208,0.0286484,-0.00926971,0.0170898,0.00202179,0.0163651,-0.0112534
27,6,10.0097,-0.000915527,-0.000457764,-2.42806,0.0532396,-0.0747579,0.0510762,0.0694445,-0.0943672,0.143487,-0.127598,-0.0868429,0.0102997,0.0205231,0.0221634,0.015564,0.0165176,0.00400543,0.0202942,0.0196457,-9.97986,0.0244141,0.00530243,0.0250626,-0.00331879,0.0149918,0.00209808,0.0178909,-0.00827789
27,7,10.0097,-0.000305176,0.000152588,-2.42806,0.0544603,-0.0762837,0.0522969,0.0700548,-0.0928413,0.144403,-0.125766,-0.085317,0.00926971,0.0286865,0.0175858,0.0154114,0.015564,-0.000495911,0.0175476,0.0217056,-9.97986,0.0225449,-0.000343323,0.0199127,-0.0101471,0.0110626,0.00530243,0.0181961,-0.001297
27,8,10.0097,0,0,-2.42806,0.0544603,-0.075063,0.0529073,0.0706652,-0.0934516,0.144403,-0.126987,-0.0859274,0.0100327,0.023613,0.0240326,0.0122452,0.0102234,-0.00190735,0.0102615,0.0218964,-9.97986,0.0258255,0.00541687,0.0188065,-0.0133514,0.00663757,0.00339508,0.0127411,0.0133514
27,9,10.0097,-0.00183105,0,-2.42684,0.0553758,-0.0747579,0.0538228,0.0706652,-0.0928413,0.145929,-0.126987,-0.085317,0.00671387,0.0245667,0.0221634,0.0141525,0.0139999,0.00335693,0.00583649,0.0255966,-9.97986,0.0215912,0.0025177,0.0183105,-0.0142288,0.0088501,0.0044632,0.00995636,0.0186539
28,0,10.0097,0.000305176,-0.000457764,-2.42684,0.0553758,-0.0735371,0.0544332,0.07036,-0.0934516,0.145318,-0.12363,-0.0831808,0.00793457,0.026474,0.0191879,0.0143051,0.0256729,0.00274658,0.00278473,0.0197983,-9.97986,0.0197983,-0.00171661,0.0274658,-0.0232697,0.0056839,0.00328064,0.0123978,0.02285
28,1,10.0097,0.000915527,-0.000457764,-2.42562,0.0562914,-0.0726216,0.0538228,0.072191,-0.0916206,0.145929,-0.124546,-0.0819601,0.00961304,0.023613,0.0222015,0.0141525,0.0336838,0.0158691,0.00968933,0.0194931,-9.97986,0.0211334,0,0.0287247,-0.0230026,0.00827789,0.00720978,0.0194168,0.0273132
28,2,10.0097,0.000610352,0.000457764,-2.4247,0.0569017,-0.0744527,0.0550435,0.0700548,-0.0919257,0.146844,-0.124241,-0.0813497,0.00862122,0.0318146,0.0180054,0.0136566,0.0268936,0.022049,0.00965118,0.0191498,-9.97986,0.0139236,-0.00038147,0.0253296,-0.0225449,0.0124741,0.00907898,0.0161362,0.0282288
28,3,10.0097,-0.000610352,0.000915527,-2.4247,0.0565965,-0.0735371,0.0547383,0.0712755,-0.090705,0.146234,-0.125461,-0.0804342,0.0087738,0.0276947,0.018959,0.0153351,0.030098,0.0244141,0.0118256,0.0214005,-9.97986,0.0108337,0.00232697,0.0280762,-0.0141525,0.00823975,0.00946045,0.0133514,0.0322723
28,4,10.0097,0.000305176,0.000152588,-2.4247,0.0569017,-0.0723164,0.0547383,0.0718859,-0.0916206,0.146844,-0.123935,-0.0804342,0.00762939,0.0277328,0.0225067,0.0148392,0.0325012,0.0299072,0.0150681,0.0190353,-9.97986,0.0131607,0.00102997,0.0158691,-0.0135422,0.00846863,0.00541687,0.0172043,0.0252151
28,5,10.0097,0,-0.000305176,-2.42653,0.0553758,-0.0735371,0.0529073,0.0544908,-0.0943672,0.145318,-0.125766,-0.0816549,0.00617981,0.0290298,0.0152206,0.0121689,0.0317001,0.0286484,0.0201035,0.0154495,-9.97986,0.0136948,-0.000762939,0.00644684,-0.0152206,0.00858307,0.0111008,0.0240707,0.0222397
28,6,9.67671,0.00244141,-0.00167847,-2.42562,0.0565965,-0.0738423,0.0547383,0.0404528,-0.0946723,0.146234,-0.125766,-0.0816549,0.00469208,0.0253296,0.0214005,0.0149155,0.0218201,0.0196075,0.0241852,0.022583,-9.97986,0.0117493,-0.00179291,0.00198364,-0.0129318,0.0106812,0.00804901,0.0352478,0.0206757
28,7,7.98024,-0.000305176,-0.000915527,-2.42623,0.0559862,-0.0744527,0.054128,0.0508287,-0.0928413,0.146539,-0.126682,-0.0816549,0.0119019,0.0211716,0.0227737,0.0116348,0.0215912,0.0172043,0.0317383,0.0174332,-9.97986,0.0112915,-0.00270844,0.00202179,-0.0152206,0.0138092,0.00610352,0.0440598,0.0175476
28,8,7.41353,0.00152588,-0.000610352,-2.42531,0.0553758,-0.0744527,0.0544332,0.0615099,-0.0913154,0.145929,-0.126072,-0.0822652,0.0111008,0.028038,0.0250626,0.0157166,0.0187302,0.0162125,0.0289536,0.0211334,-9.97986,0.0117874,-0.00141144,-0.0112915,-0.0205612,0.0119019,0.00934601,0.0377655,0.0174713
28,9,7.48891,0,-0.000457764,-2.42684,0.055681,-0.0735371,0.054128,0.0697496,-0.0934516,0.145929,-0.127292,-0.0828756,0.00797272,0.0287247,0.0241852,0.0141144,0.0162125,0.019989,0.0334167,0.0196075,-9.97986,0.0109863,-0.0019455,-0.00965118,-0.0166702,0.0135803,0.00972748,0.0346756,0.0132751
29,0,8.64766,0.000610352,0.000915527,-2.42745,0.0562914,-0.0756734,0.0538228,0.0837877,-0.0900947,0.145013,-0.125156,-0.0831808,0.0111389,0.0246048,0.0220108,0.0154114,0.0139618,0.0260925,0.0291824,0.0217819,-9.97986,0.0138092,-0.00255585,-0.00915527,-0.0177002,0.0111771,0.0146103,0.0288773,0.0116348
29,1,10.0097,0.00152588,0.00213623,-2.42806,0.0535448,-0.0756734,0.0526021,0.10454,-0.0916206,0.143792,-0.125156,-0.085317,0.010643,0.0244904,0.019455,0.0144577,0.0177002,0.0358582,0.029068,0.0175858,-9.97986,0.0147247,-0.00431061,-0.0151825,-0.0164032,0.00713348,0.0151825,0.0226593,0.014267
29,2,10.0097,-0.000610352,0.00106812,-2.42959,0.0535448,-0.0765889,0.0522969,0.0810411,-0.095893,0.145318,-0.12363,-0.0865377,0.00907898,0.0214386,0.022583,0.00862122,0.023613,0.0337601,0.0320053,0.0178146,-9.97986,0.0119781,-0.00347137,-0.0193405,-0.014534,0.00553131,0.0149155,0.0287247,0.00759125
29,3,10.0097,0.000915527,0.000152588,-2.42898,0.0529344,-0.0765889,0.0522969,0.0740221,-0.0949775,0.143792,-0.126072,-0.0871481,0.00347137,0.0237656,0.020752,0.00953674,0.0243759,0.0280762,0.0303268,0.0175095,-9.97986,0.0139236,-0.00377655,-0.0231171,-0.0167084,0.0151062,0.00915527,0.0366974,0.0043869
29,4,10.0097,0.00213623,0,-2.4302,0.0532396,-0.0765889,0.0519917,0.0718859,-0.0949775,0.143182,-0.127598,-0.0877584,0.0106049,0.0246048,0.0230789,0.0152206,0.0234604,0.0283051,0.0309753,0.0235748,-9.97986,0.00961304,-0.00141144,-0.0236893,-0.0113297,0.0328445,0.0109863,0.051651,0.00629425
29,5,10.0097,0,0.000152588,-2.42898,0.0550706,-0.0756734,0.0529073,0.0694445,-0.0968086,0.144098,-0.128513,-0.0865377,0.00999451,0.0246048,0.0198746,0.0133133,0.00797272,0.0175858,0.0283051,0.0218964,-9.97986,0.00988007,-0.00232697,-0.0269318,-0.0107193,0.0361252,0.01091,0.0511169,0.00385284
29,6,10.0097,0.000915527,0.000457764,-2.42776,0.0532396,-0.0759786,0.0522969,0.0688341,-0.0943672,0.143792,-0.126987,-0.0862325,0.0119781,0.0252533,0.0209808,0.0138855,0.00495911,0.0109482,0.029335,0.021286,-9.97986,0.00812531,-0.00301361,-0.0187302,-0.0038147,0.0322723,0.00778198,0.0379562,-0.000190735
29,7,10.0097,-0.000305176,0.000457764,-2.42714,0.0553758,-0.075063,0.0532125,0.0685289,-0.0949775,0.143487,-0.126682,-0.0847066,0.00801086,0.0209808,0.0222778,0.0115585,0.0127029,0.0109863,0.029335,0.0223541,-9.97986,0.00938416,-0.00236511,-0.00774384,0.0012207,0.0333786,0.00705719,0.0212097,-0.00968933
29,8,10.0097,0.000610352,0.000610352,-2.42714,0.0559862,-0.0744527,0.054128,0.0697496,-0.0946723,0.143792,-0.125766,-0.085317,0.00946045,0.0248718,0.0238419,0.0150681,0.00766754,0.00831604,0.0275421,0.0240707,-9.97986,0.0131226,-0.00118256,0.00782013,0.00350952,0.0299072,0.00240326,0.0146866,-0.00762939
29,9,10.0097,0.00274658,0.000610352,-2.42684,0.0544603,-0.0747579,0.0544332,0.0712755,-0.0922309,0.145013,-0.126072,-0.0844015,0.0104141,0.0227737,0.0218201,0.0103378,0.00473022,0.0121307,0.0274658,0.0219345,-9.97986,0.0181198,-0.00286102,0.0282669,0.00217438,0.0262833,-0.000419617,0.0162125,-0.00312805
30,0,10.0097,-0.00183105,0,-2.42714,0.0553758,-0.0759786,0.0538228,0.0700548,-0.0919257,0.146234,-0.126072,-0.0834859,0.00865936,0.0215912,0.0188065,0.00965118,0.00892639,0.0126648,0.0287628,0.0241089,-9.97986,0.0134659,-0.00488281,0.0209427,-0.00110626,0.0264359,-0.00488281,0.0202942,-0.00324249
30,1,10.0097,-0.000610352,0.000305176,-2.42501,0.0559862,-0.073232,0.0550435,0.0718859,-0.0913154,0.145318,-0.12302,-0.0813497,0.00953674,0.0252533,0.0219727,0.00980377,0.0206757,0.0164032,0.0226593,0.0215912,-9.97986,0.0141144,-0.00244141,0.0114441,-0.00213623,0.0268173,-0.0113297,0.0237274,0.000305176
30,2,10.0097,0,-0.000457764,-2.4244,0.0569017,-0.0747579,0.0532125,0.0709703,-0.0913154,0.146234,-0.125156,-0.0816549,0.00541687,0.0243378,0.0180054,0.014534,0.0159836,0.0149918,0.0248718,0.0252914,-9.97986,0.0108719,-0.00350952,0.00175476,-0.00484467,0.0282288,-0.0183105,0.0241852,7.62939e-005
30,3,10.0097,0.000610352,0.000152588,-2.4247,0.0559862,-0.073232,0.0550435,0.0709703,-0.0913154,0.145624,-0.124546,-0.080129,0.00782013,0.0257492,0.0245285,0.0112915,0.0196075,0.0197983,0.0230408,0.0227356,-9.97986,0.00736237,-0.00564575,-0.00694275,-0.00202179,0.0263214,-0.0270081,0.0193787,0.00480652
30,4,10.0097,-0.000610352,0.000305176,-2.4247,0.0562914,-0.0738423,0.0550435,0.0715807,-0.0919257,0.14898,-0.12302,-0.0804342,0.00804901,0.0279236,0.0210953,0.0125504,0.0206375,0.0212097,0.0231171,0.0262451,-9.97986,0.00823975,-0.00282288,-0.010376,0.00236511,0.0277328,-0.0170898,0.0143051,0.00431061
30,5,10.0097,-0.000305176,-0.000305176,-2.42592,0.0575121,-0.0747579,0.054128,0.0532701,-0.0952827,0.146234,-0.126682,-0.0816549,0.0082016,0.02388,0.0244522,0.00965118,0.0189209,0.018158,0.0232315,0.0276947,-9.97986,0.0124741,-0.00511169,-0.0222015,-0.000991821,0.0281906,-0.000114441,0.0180435,0.00614166
30,6,9.62239,0.000305176,-0.00137329,-2.4247,0.0565965,-0.0744527,0.0532125,0.0401476,-0.0949775,0.146234,-0.125766,-0.0825704,0.0157166,0.0234604,0.0210571,0.0110245,0.0191116,0.0195694,0.0229645,0.0268173,-9.97986,0.0161362,-0.00499725,-0.0165558,0.000114441,0.0210571,0.0121689,0.0105286,0.00980377
30,7,7.94942,-0.000305176,-0.000915527,-2.42562,0.055681,-0.0744527,0.0532125,0.0508287,-0.0925361,0.146234,-0.125156,-0.0816549,0.0221252,0.0274658,0.0274658,0.0102615,0.0218201,0.00720978,0.024147,0.0293732,-9.97986,0.0129318,-0.00915527,0.00293732,0.00812531,0.0244904,0.0204468,0.00835419,0.00724792
30,8,7.4178,0.0012207,0.000152588,-2.42592,0.0553758,-0.075063,0.0562642,0.0621202,-0.0922309,0.144098,-0.126072,-0.0825704,0.00614166,0.0244904,0.0216293,0.0105667,0.0201416,0.00972748,0.0218582,0.0310516,-9.97986,0.00347137,-0.00507355,0.0120926,0.00713348,0.0235367,0.0230408,0.00835419,-0.0038147
30,9,7.53804,0,0.000762939,-2.42653,0.055681,-0.0747579,0.0535176,0.0688341,-0.0931465,0.145318,-0.124546,-0.0831808,-0.00656128,0.0278473,0.0217438,0.0110245,0.0138092,0.0063324,0.0226593,0.0263596,-9.97986,0.0037384,-0.00205994,0.0168991,0.0105667,0.023613,0.0232315,0.0094223,-0.00888824
31,0,8.7032,0,0.000915527,-2.42684,0.0550706,-0.0747579,0.0547383,0.0831774,-0.0910102,0.144403,-0.124241,-0.0831808,-0.00225067,0.0275803,0.0241852,0.0119781,0.00545502,0.0075531,0.0218964,0.0253677,-9.97986,-0.0114059,-0.00270844,0.0144196,0.00667572,0.0228119,0.0239563,0.00324249,-0.00545502
31,1,10.0097,0.000610352,0.00259399,-2.42837,0.0544603,-0.0762837,0.0538228,0.103624,-0.0903999,0.145013,-0.124851,-0.0850118,0.00495911,0.0278854,0.0266266,0.0115967,0.00110626,0.0124359,0.0150681,0.022049,-9.97986,-0.0204468,-0.00354767,0.0180435,0.0107574,0.0235367,0.0226212,0.0110626,0.00965118
31,2,10.0097,0.000305176,0.000610352,-2.42928,0.0544603,-0.075063,0.0522969,0.0822618,-0.0946723,0.145013,-0.126072,-0.0871481,0.0109863,0.0269699,0.0285339,0.00789642,0.00759125,0.00743866,0.0208282,0.0195313,-9.97986,-0.0255585,-0.00217438,0.0195313,0.0151443,0.0201035,0.0177002,0.0118637,0.0210953
31,3,10.0097,0,-0.000152588,-2.42867,0.0544603,-0.0759786,0.0526021,0.0731066,-0.094062,0.143792,-0.128818,-0.0871481,0.0281525,0.0279999,0.0256348,0.0108337,0.00926971,0.0082016,0.0230026,0.0256729,-9.97986,-0.0139999,-0.00663757,0.0223541,0.0145721,0.019989,0.0162506,0.0168228,0.0260544
31,4,10.0097,0.000610352,-0.000152588,-2.42959,0.0529344,-0.0759786,0.0504659,0.0697496,-0.0943672,0.142572,-0.127292,-0.0877584,0.0385284,0.0307465,0.0245667,0.0118637,0.0107956,0.0082016,0.0203323,0.0255585,-9.97986,-7.62939e-005,-0.00370026,0.0263214,0.0130463,0.0182343,0.0139618,0.00663757,0.0238419
31,5,10.0097,0.000610352,-0.000610352,-2.42928,0.0547655,-0.0756734,0.0519917,0.0685289,-0.0955879,0.143792,-0.126987,-0.0868429,0.0579071,0.0300598,0.0314331,0.0125885,0.0185013,0.00488281,0.018158,0.0220108,-9.97986,0.00453949,-0.00244141,0.0316238,0.0146103,0.0120544,0.00980377,0.000610352,0.00705719
31,6,10.0097,0.0012207,-0.000762939,-2.42928,0.0538499,-0.0762837,0.0526021,0.0697496,-0.0955879,0.144403,-0.128818,-0.0862325,0.0673676,0.0291824,0.031929,0.0104904,0.0167084,0.00862122,0.0231552,0.0178146,-9.97986,0.00915527,-0.0050354,0.0367355,0.0117493,0.0138474,0.00526428,0.00434875,-0.0128555
31,7,10.0097,0.000610352,-0.000152588,-2.42837,0.0550706,-0.0756734,0.0529073,0.07036,-0.0952827,0.143487,-0.126682,-0.0844015,0.0571442,0.0358963,0.0301361,0.0143814,0.0233078,0.0105286,0.0235748,0.0238037,-9.97986,0.0153351,-0.00434875,0.031662,0.0179291,0.0161743,0.00518799,0.00602722,-0.0153351
31,8,10.0097,-0.0012207,0.000457764,-2.42776,0.0550706,-0.0747579,0.0538228,0.0685289,-0.0946723,0.145013,-0.126377,-0.0840963,0.0149155,0.0296402,0.0275421,0.0130463,0.0148392,0.00923157,0.0223541,0.020256,-9.97986,0.0140762,-0.00366211,0.0236511,0.0133896,0.00965118,-0.000114441,0.00442505,-0.00976563
31,9,10.0097,0.00244141,0,-2.42653,0.0547655,-0.0747579,0.0532125,0.0688341,-0.0934516,0.145318,-0.128513,-0.0847066,-0.0121307,0.0261307,0.0278091,0.0172424,0.0112534,0.00118256,0.0275803,0.0200272,-9.97986,0.0304794,0.00167847,0.0305939,0.0109863,0.0123978,0.00499725,0.00938416,0.00366211
32,0,10.0097,-0.000305176,0.000305176,-2.42684,0.0559862,-0.0744527,0.0538228,0.0706652,-0.094062,0.146539,-0.125766,-0.0834859,-0.030632,0.0256729,0.0234222,0.0105286,0.00911713,-0.0025177,0.0176239,0.0128555,-9.97986,0.0556183,-0.00385284,0.0326157,0.00934601,0.0037384,-0.0063324,0.00724792,0.0158691
32,1,10.0097,0.000915527,0.000305176,-2.42592,0.0565965,-0.0729268,0.0535176,0.0709703,-0.0919257,0.145318,-0.124546,-0.0816549,-0.0595093,0.0243759,0.0296402,0.0140381,0.0167465,-0.00171661,0.0242996,0.0069046,-9.97986,0.0619888,-0.00621796,0.0383377,0.00770569,0.00701904,-0.0107956,0.0123215,0.0291824
32,2,10.0097,0.000610352,0.000457764,-2.4247,0.0544603,-0.073232,0.0550435,0.0715807,-0.0919257,0.146539,-0.120884,-0.0810445,-0.0668335,0.0237274,0.0228119,0.00976563,0.0285721,-0.000610352,0.0161743,-0.000762939,-9.97986,0.0474167,-0.00175476,0.0311661,0.00980377,0.00564575,-0.0154877,0.0146484,0.001297
32,3,10.0097,0,0.000305176,-2.4247,0.0553758,-0.0741475,0.0553487,0.0715807,-0.0916206,0.146844,-0.12302,-0.0807394,-0.0375366,0.014801,0.0180054,0.0123215,0.0386047,0.00709534,0.0233841,0.00221252,-9.97986,0.019455,-0.00320435,0.0158691,0.0129318,0.0131607,-0.0169373,0.0298309,-0.0222397
32,4,10.0097,0,0.000610352,-2.4247,0.0569017,-0.0723164,0.0529073,0.0731066,-0.0903999,0.147455,-0.123935,-0.0807394,-0.00392914,0.0156403,0.0127029,0.0107574,0.0517654,0.00572205,0.0255585,0.00862122,-9.97986,0.0247574,-0.00473022,0.0108337,0.0189209,0.0141907,-0.0121307,0.0317764,-0.00991821
32,5,10.0097,0.000610352,0.000305176,-2.42684,0.0569017,-0.0744527,0.0532125,0.0538805,-0.094062,0.146844,-0.128208,-0.0819601,0.0132751,0.0132751,0.0146866,0.00579834,0.0513077,0.00228882,0.0231171,0.00976563,-9.97986,0.0476456,-0.00553131,0.00339508,0.0245285,0.0147629,-0.0214386,0.0156021,-0.00305176
32,6,9.68617,0.000610352,-0.00167847,-2.42623,0.0569017,-0.075063,0.054128,0.0404528,-0.0955879,0.147149,-0.126682,-0.0816549,0.00240326,0.0115585,0.0115204,0.0108337,0.0555801,0.00785828,0.0211716,0.016861,-9.97986,0.0587463,-0.000457764,0.000152588,0.0212479,0.0143433,-0.0229645,0.0112534,0.012207
32,7,8.0129,0.000915527,-0.000915527,-2.42684,0.0559862,-0.0741475,0.0519917,0.049608,-0.0922309,0.145013,-0.125156,-0.0816549,0.00629425,0.0178909,0.014534,0.00766754,0.0485611,0.019722,0.0175858,0.0152588,-9.97986,0.0425339,-7.62939e-005,-0.0151062,0.0196457,0.0194168,-0.019455,0.0187302,0.0434875
32,8,7.50173,0.000305176,0.000305176,-2.42653,0.0553758,-0.0753682,0.054128,0.0615099,-0.0928413,0.145624,-0.127292,-0.0813497,-0.00759125,0.0125885,0.0141144,0.00587463,0.0325775,0.0275803,0.018158,0.00724792,-9.97986,0.00232697,-0.00682831,-0.022316,0.0188065,0.017395,-0.0174713,0.0310135,0.0643158
32,9,7.62624,0.000915527,0.00106812,-2.42623,0.0550706,-0.0747579,0.0547383,0.0679186,-0.0903999,0.145318,-0.125461,-0.0831808,-0.0133896,0.0110626,0.0136566,0.00946045,0.0155258,0.0414276,0.0218201,0.00854492,-9.97986,-0.0304413,-0.00202179,-0.0123596,0.022316,0.0183487,-0.0207901,0.0391769,0.0699615
33,0,8.79354,0.00183105,0.00152588,-2.42653,0.055681,-0.0744527,0.0535176,0.0831774,-0.0916206,0.145929,-0.125156,-0.0834859,-0.0107956,0.0151825,0.00892639,0.00759125,-0.00572205,0.0543213,0.0187683,0.00461578,-9.97986,-0.00495911,0.00137329,-0.00240326,0.0255585,0.0251007,-0.0174713,0.0350189,0.0588989
33,1,10.0097,-0.000305176,0.00259399,-2.42959,0.0535448,-0.0762837,0.0544332,0.102709,-0.0922309,0.144098,-0.128513,-0.0850118,-0.0354767,0.0131226,0.00652313,0.00930786,-0.0180435,0.065155,0.0234604,0.00484467,-9.97986,0.0498199,0.00434875,-0.00862122,0.0232315,0.0169754,-0.0207901,0.0421906,0.0446701
33,2,10.0097,0,0.000762939,-2.42989,0.0535448,-0.0765889,0.0519917,0.0819567,-0.0937568,0.144403,-0.125766,-0.0868429,-0.0196075,0.0107193,0.00522614,0.00785828,-0.0234222,0.0650787,0.0219345,-0.000762939,-9.97986,0.095253,-0.000495911,-0.0125122,0.0260544,0.0224304,-0.0191498,0.058136,0.0322342
33,3,10.0097,0.000610352,-0.000457764,-2.42928,0.0541551,-0.0759786,0.055959,0.0728014,-0.0949775,0.142877,-0.126682,-0.0865377,0.00926971,0.0148392,0.00816345,0.0108337,-0.0255966,0.0612259,0.0218201,0.000534058,-9.97986,0.0905228,-0.0030899,-0.0126266,0.0253296,0.0266266,-0.0136566,0.0671387,0.0164032
33,4,10.0097,0.00152588,-0.000457764,-2.42898,0.0529344,-0.0765889,0.0522969,0.07036,-0.0952827,0.142877,-0.129734,-0.0874532,0.00125885,0.0139999,0.00743866,0.00766754,-0.0222397,0.0354385,0.0241089,0.00110626,-9.97986,0.0772858,-0.00682831,-0.00106812,0.0233841,0.0293732,-0.00984192,0.0579453,-0.00343323
33,5,10.0097,-0.000610352,-0.000610352,-2.42989,0.0535448,-0.0762837,0.0522969,0.0700548,-0.0952827,0.143487,-0.126987,-0.0874532,0.0108719,0.0131989,0.0131226,0.00808716,-0.0119781,0.0234222,0.0220871,0.00522614,-9.97986,0.0606537,-0.00442505,0.0114822,0.0257874,0.0397491,-0.00465393,0.0605774,-0.0180817
33,6,10.0097,0.000915527,0,-2.42867,0.0538499,-0.0747579,0.0477193,0.0682238,-0.0937568,0.144403,-0.127292,-0.0862325,0.0143051,0.0151443,0.00747681,0.0075531,0.00797272,0.00972748,0.0257874,0.0062561,-9.97986,0.0236511,-0.00610352,0.0187302,0.0259399,0.0304413,0.00442505,0.0641251,-0.0246811
33,7,10.0097,0.000305176,-0.000152588,-2.42745,0.0535448,-0.0756734,0.0529073,0.0685289,-0.0934516,0.143487,-0.121799,-0.0859274,0.0397491,0.0131226,0.00988007,0.00923157,0.020256,0.000228882,0.0288773,0.0144577,-9.97986,-0.0163651,-0.00240326,0.0401306,0.0279617,0.0304413,0.00125885,0.0617599,-0.0217819
33,8,10.0097,0.000305176,-0.000152588,-2.42653,0.0553758,-0.0762837,0.0538228,0.0688341,-0.0934516,0.144098,-0.126072,-0.0850118,0.0621414,0.017662,0.0118256,0.01091,0.0253677,0.00255585,0.0256729,0.0200272,-9.97986,-0.0579071,0.00297546,0.0498962,0.0307846,0.0240707,-0.00255585,0.0524521,-0.0138092
33,9,10.0097,0.000305176,0.000610352,-2.42653,0.055681,-0.0753682,0.0468038,0.0700548,-0.0946723,0.145013,-0.126377,-0.0834859,0.030365,0.0191879,0.0102997,0.00667572,0.0261307,0.0130463,0.0201416,0.0199127,-9.97986,-0.0674438,0.00259399,0.0426483,0.030632,0.0200653,-0.000572205,0.0302505,-0.0149155
34,0,10.0097,0,0.000610352,-2.42623,0.0541551,-0.0735371,0.0535176,0.0685289,-0.0937568,0.145624,-0.126682,-0.0844015,0.0044632,0.0160599,0.014267,0.00602722,0.0233078,0.0178528,0.0218582,0.0177765,-9.97986,-0.0685883,0.00160217,0.0439835,0.0273514,0.0172043,-0.00183105,0.0132751,-0.0348282
34,1,10.0097,0.000305176,-0.000457764,-2.42501,0.0559862,-0.0741475,0.0547383,0.07036,-0.0925361,0.144708,-0.125156,-0.0810445,-0.0050354,0.0168991,0.0128174,0.0109482,0.0264359,0.0117874,0.0232315,0.0216293,-9.97986,-0.0611496,0.00038147,0.0386047,0.0217056,0.0171661,-0.00125885,0.014801,-0.0521088
34,2,10.0097,0.000305176,0.000305176,-2.4247,0.0559862,-0.0723164,0.054128,0.0734117,-0.0919257,0.14776,-0.124546,-0.0819601,0.0174713,0.0218582,0.0151443,0.00652313,0.0231171,0.0062561,0.026474,0.0186157,-9.97986,-0.0338745,-0.00473022,0.0431061,0.0251007,0.0171661,-0.00469208,0.0043869,-0.0447083
34,3,10.0097,0.000915527,0.000152588,-2.42501,0.0559862,-0.0744527,0.0553487,0.0715807,-0.0919257,0.14776,-0.125766,-0.0807394,0.037384,0.0208282,0.0148392,0.00789642,0.00865936,0.0118637,0.0216293,0.019455,-9.97986,-0.00358582,-0.00328064,0.0468826,0.0213623,0.0166321,-0.000534058,0.0158691,-0.0292969
34,4,10.0097,-0.000610352,0.000305176,-2.42257,0.0562914,-0.0738423,0.0553487,0.0724962,-0.0919257,0.146844,-0.12363,-0.0810445,0.0361252,0.0231552,0.0209808,0.01194,0.00663757,0.0101471,0.0234604,0.0197601,-9.97986,0.0160599,-0.00484467,0.043335,0.0191116,0.00843048,0.00209808,0.0231552,-0.0223923
34,5,10.0097,0.000305176,0.000152588,-2.42531,0.0565965,-0.0744527,0.054128,0.0544908,-0.0937568,0.146234,-0.126377,-0.0828756,0.0476074,0.0230408,0.0172806,0.0101471,0.00442505,0.0145721,0.0197601,0.0198364,-9.97986,0.02491,0.000457764,0.0367737,0.018425,0.00740051,-0.00869751,0.0186539,-0.010643
34,6,9.46126,0.00274658,-0.00274658,-2.42592,0.0569017,-0.075063,0.0538228,0.0413683,-0.0955879,0.146234,-0.125156,-0.0828756,0.0482941,0.0216675,0.0183105,0.00873566,-0.00179291,0.0201035,0.0177383,0.020752,-9.97986,0.0244904,-0.000267029,0.0208282,0.0144196,0.000801086,-0.0195313,0.00892639,-0.00213623
34,7,7.8362,0,-0.00167847,-2.42623,0.0559862,-0.0747579,0.0538228,0.0502184,-0.0931465,0.146234,-0.126377,-0.0819601,0.0346756,0.0175858,0.0157928,0.00930786,-0.0069046,0.0260925,0.0262451,0.0153351,-9.97986,0.0413513,-0.000267029,0.0214386,0.00923157,0.0025177,-0.0240707,-0.00167847,0.00915527
34,8,7.32808,-0.000305176,-0.000915527,-2.42684,0.0559862,-0.0744527,0.0562642,0.0608995,-0.0913154,0.146234,-0.125461,-0.0822652,0.0302124,0.021553,0.0165939,0.0128555,0.00171661,0.0262833,0.0211334,0.0155258,-9.97986,0.0317383,-0.0018692,0.0294113,0.00724792,0.00484467,-0.0178146,-0.001297,0.0247574
34,9,7.44893,0.00152588,0.000152588,-2.42714,0.0544603,-0.075063,0.0544332,0.0700548,-0.0916206,0.145013,-0.126987,-0.0847066,0.0157547,0.0218964,0.0159836,0.0114822,0.00904083,0.0258255,0.013504,0.0217819,-9.97986,0.0283051,0.0038147,0.0305939,0.00247955,0.001297,-0.0187683,-0.00476837,0.029335
35,0,8.69466,0.000610352,0.000457764,-2.42745,0.0535448,-0.0747579,0.0532125,0.0840929,-0.090705,0.145013,-0.123935,-0.0831808,0.00846863,0.0188828,0.0170898,0.00873566,0.00595093,0.0194168,0.0162888,0.0187683,-9.97986,0.0368118,0.000610352,0.0214767,-0.00038147,-0.00221252,-0.0109863,-0.0018692,0.0336456
35,1,10.0097,0.000610352,0.00137329,-2.42837,0.0532396,-0.0756734,0.04894,0.103319,-0.0931465,0.144708,-0.124546,-0.085317,0.0203705,0.0227737,0.0198364,0.0104141,0.000991821,0.0200653,0.0181961,0.0214767,-9.97986,0.0462723,-0.00297546,0.018959,0,-0.000419617,-0.00324249,0.0166702,0.0291443
35,2,10.0097,0.00183105,0.000915527,-2.42959,0.0541551,-0.0759786,0.0519917,0.0810411,-0.0949775,0.143792,-0.126072,-0.0862325,0.0279236,0.0271606,0.0100327,0.0111008,-0.00778198,0.0232697,0.0187683,0.026474,-9.97986,0.0449371,0.00175476,0.00415802,-0.00267029,-0.000648499,-0.001297,0.0223923,0.0269699
35,3,10.0097,0.000915527,-0.000305176,-2.42867,0.0544603,-0.0744527,0.0513814,0.0737169,-0.095893,0.144098,-0.127598,-0.0871481,0.0263977,0.0256729,0.0214386,0.0120544,-0.0143814,0.0325775,0.0219727,0.0297546,-9.97986,0.0426865,0.00347137,-0.0225067,-0.00534058,0.00328064,-0.00724792,0.0244904,0.0201035
35,4,10.0097,0.0012207,-0.000457764,-2.42959,0.0535448,-0.0759786,0.0498555,0.0724962,-0.0965034,0.142267,-0.126682,-0.0883688,0.0128937,0.0254059,0.0175476,0.00968933,-0.0220108,0.0389099,0.0194168,0.0281143,-9.97986,0.0317764,0.00209808,-0.0429535,-0.00881195,0.0146484,-0.00705719,0.0104904,0.0224304
35,5,10.0097,0.000610352,-0.000305176,-2.42898,0.0535448,-0.0765889,0.0519917,0.0700548,-0.0955879,0.143792,-0.124851,-0.0880636,0.00110626,0.0294876,0.0193024,0.0115204,-0.0311279,0.0418472,0.021553,0.0309372,-9.97986,0.0439835,0.00377655,-0.0481415,-0.0133896,0.0198364,-0.0115204,0.00934601,0.0174332
35,6,10.0097,0.000610352,-0.000152588,-2.42959,0.0523241,-0.0756734,0.054128,0.0697496,-0.0937568,0.143792,-0.126987,-0.0859274,0.00579834,0.0309753,0.0220108,0.0101471,-0.0331116,0.0430679,0.0232315,0.0333786,-9.97986,0.0564957,0.00110626,-0.0453568,-0.0117111,0.0264359,-0.0120163,0.0165558,-0.00453949
35,7,10.0097,0.0012207,0,-2.42684,0.0550706,-0.0753682,0.0568746,0.0709703,-0.0931465,0.144708,-0.126072,-0.0850118,0.00621796,0.0323486,0.022583,0.00976563,-0.0453568,0.0430298,0.0234985,0.0378418,-9.97986,0.0556564,0.000457764,-0.0364685,-0.0147247,0.0316238,-0.00904083,0.022049,-0.0155258
35,8,10.0097,0.0012207,0.000152588,-2.42867,0.0547655,-0.075063,0.0535176,0.0694445,-0.0931465,0.145013,-0.128818,-0.0871481,0.0105667,0.0354004,0.0210571,0.0125122,-0.0534821,0.0353241,0.0167847,0.038147,-9.97986,0.0514221,0.00259399,-0.00576019,-0.0129318,0.0326157,-0.0131226,0.0245285,-0.019722
35,9,10.0097,0,0.000305176,-2.42989,0.0553758,-0.0759786,0.0550435,0.0691393,-0.0928413,0.145929,-0.126072,-0.0837911,0.0199127,0.0337601,0.0247955,0.0154114,-0.0523376,0.0242615,0.02388,0.0379562,-9.97986,0.0515366,-0.00392914,0.051384,-0.0146866,0.024147,-0.0164032,0.0213242,-0.0225067
36,0,10.0097,0.000305176,0.000610352,-2.42592,0.0553758,-0.0756734,0.055959,0.0697496,-0.0913154,0.144708,-0.126072,-0.0831808,0.0413132,0.0369644,0.0221252,0.0157166,-0.0450897,0.0183487,0.0233459,0.0368118,-9.97986,0.0328827,-0.000724792,0.0671387,-0.01091,0.0246429,-0.0138855,0.015831,-0.0180435
36,1,10.0097,0.000305176,0.000915527,-2.42592,0.055681,-0.0738423,0.0544332,0.0700548,-0.090705,0.145318,-0.123935,-0.0813497,0.0451279,0.0349045,0.0230026,0.0153732,-0.0394058,0.00961304,0.0231552,0.0263596,-9.97986,0.0213242,-0.00389099,0.045929,-0.0135803,0.0179291,-0.0110626,0.0127029,-0.0115967
36,2,10.0097,0.000915527,0.000152588,-2.42623,0.0572069,-0.0735371,0.0538228,0.0694445,-0.0913154,0.147149,-0.12363,-0.0810445,0.00667572,0.0413895,0.0314713,0.0178146,-0.0324249,0.0129318,0.0234985,0.00793457,-9.97986,0.00648499,-0.00312805,0.0355911,-0.0167847,0.0128937,-0.0160599,0.0156403,-0.0104904
36,3,10.0097,0.00152588,-0.000457764,-2.42531,0.0565965,-0.0729268,0.0574849,0.0709703,-0.0916206,0.147149,-0.125156,-0.0816549,0.00038147,0.0376129,0.0338364,0.0175476,-0.0240326,0.0063324,0.0202942,-0.00183105,-9.97986,-0.0102997,0.00370026,0.0341797,-0.0193024,0.0143814,-0.0180054,0.00522614,-0.0366592
36,4,10.0097,0.000915527,-0.000305176,-2.42379,0.0569017,-0.0735371,0.0565694,0.0715807,-0.0913154,0.146844,-0.121799,-0.0786031,0.0237656,0.0415421,0.0355911,0.0162888,-0.0253677,0.00400543,0.0201797,0.00202179,-9.97986,-0.0231171,0.00179291,0.0385284,-0.0249863,0.00968933,-0.0194931,0.00110626,-0.0614166
36,5,10.0097,0,0.000305176,-2.42409,0.0572069,-0.0744527,0.0529073,0.0523546,-0.0943672,0.146539,-0.125766,-0.0825704,0.0230026,0.038414,0.0324249,0.0161743,-0.0211716,0.00812531,0.0229645,0.00644684,-9.97986,-0.0468063,0.00110626,0.0408936,-0.0234604,0.00404358,-0.0182724,-0.00236511,-0.0487518
36,6,9.54854,0.00244141,-0.00137329,-2.42623,0.055681,-0.0744527,0.0538228,0.0413683,-0.094062,0.146844,-0.126072,-0.0816549,0.0176239,0.0389099,0.0296402,0.0178528,-0.0120163,0.000152588,0.0177002,0.00598907,-9.97986,-0.0693893,-0.00160217,0.0402451,-0.0230408,0.00705719,-0.0194931,-0.00400543,-0.0326157
36,7,7.91036,0.00274658,-0.000457764,-2.42592,0.055681,-0.0747579,0.0553487,0.0505236,-0.0925361,0.146539,-0.12241,-0.0828756,-0.0115585,0.0365829,0.0276566,0.0165176,-0.0019455,0.00167847,0.0194931,0.0135422,-9.97986,-0.0950241,0.000457764,0.0386429,-0.0220871,0.00400543,-0.0199127,-0.00953674,-0.00999451
36,8,7.36623,0.000610352,-0.000152588,-2.42409,0.0559862,-0.0738423,0.0538228,0.0608995,-0.0931465,0.146234,-0.126072,-0.0828756,-0.0498199,0.0326538,0.0272369,0.0146103,0.0115967,0.00125885,0.0162888,0.00434875,-9.97986,-0.116196,-0.00785828,0.0290298,-0.0181198,0.00617981,-0.0186539,-0.00946045,0.0130081
36,9,7.45717,-0.000610352,0.000305176,-2.42653,0.055681,-0.0753682,0.0529073,0.0694445,-0.0919257,0.144708,-0.125156,-0.0831808,-0.0548935,0.027504,0.0218964,0.0166702,0.0193024,0.000648499,0.0102997,-0.00225067,-9.97986,-0.101814,-0.00232697,0.0257492,-0.0193787,0.0062561,-0.0188446,-0.00205994,0.0374222
37,0,8.68672,0.00152588,0.000915527,-2.42623,0.055681,-0.0747579,0.0538228,0.0874498,-0.090705,0.145318,-0.124241,-0.0834859,-0.0516891,0.0224304,0.0159836,0.0143433,0.0194168,0.00232697,0.00514984,-0.00869751,-9.97986,-0.0888062,0.000953674,0.0210953,-0.0210953,0.00648499,-0.0190735,-0.0019455,0.0576782
37,1,10.0097,0.00183105,0.00305176,-2.42745,0.0547655,-0.075063,0.0529073,0.104845,-0.0913154,0.144098,-0.124546,-0.0856222,-0.0156403,0.0191498,0.0136566,0.0149155,0.0261307,0.00225067,0.00923157,-0.00144958,-9.97986,-0.0782394,-0.00175476,0.0196075,-0.018959,0.0132751,-0.0127411,-0.00213623,0.0628281
37,2,10.0097,0.00183105,0.000305176,-2.42959,0.0538499,-0.0759786,0.054128,0.0822618,-0.0949775,0.143182,-0.127292,-0.0868429,0.0142288,0.0107956,0.0123215,0.0133514,0.0244141,0.001297,0.0150681,0.00259399,-9.97986,-0.022583,-0.000267029,0.0204086,-0.0136566,0.0233459,-0.0101852,0.0012207,0.0625992
37,3,10.0097,0.000915527,-0.000305176,-2.42928,0.0547655,-0.0762837,0.0510762,0.0743273,-0.0952827,0.143487,-0.127903,-0.0865377,0.0380707,0.0126648,0.0132751,0.0144196,0.0281525,0.00621796,0.00965118,0.0030899,-9.97986,0.0335312,-0.00110626,0.0156403,-0.0161743,0.0194931,-0.01297,0.00774384,0.0450516
37,4,10.0097,0.000915527,-0.000305176,-2.4305,0.0523241,-0.0762837,0.0519917,0.0706652,-0.0955879,0.143182,-0.128208,-0.0877584,0.0455475,0.0198364,0.0118256,0.011673,0.0339508,0.00743866,0.0118256,0.00431061,-9.97986,0.0637054,-0.000839233,0.0155258,-0.0152206,0.0148773,-0.00358582,0.0154495,0.0362015
37,5,10.0097,0.00183105,0.000305176,-2.42928,0.0532396,-0.0762837,0.0532125,0.0691393,-0.0949775,0.142572,-0.126987,-0.0859274,0.0473785,0.0134277,0.00980377,0.0123215,0.031662,0.0136948,0.0164032,0.00205994,-9.97986,0.0653458,-0.000305176,0.0119019,-0.0125885,0.017395,-0.0056839,0.0213242,0.0228119
37,6,10.0097,0.000610352,-0.000152588,-2.42806,0.0541551,-0.0762837,0.0519917,0.0688341,-0.095893,0.143487,-0.127598,-0.0865377,0.0393677,0.012207,0.00404358,0.0138092,0.0345612,0.0127411,0.0146484,0.0104523,-9.97986,0.0735474,0.000152588,0.00892639,-0.0129318,0.0230026,0.00118256,0.0189972,0.0180435
37,7,10.0097,0,0.000152588,-2.42776,0.0544603,-0.0744527,0.0529073,0.0694445,-0.0934516,0.144403,-0.126072,-0.0865377,0.0162506,0.0109482,0.0037384,0.0105667,0.028038,0.0141525,0.0146866,0.0104904,-9.97986,0.08564,-7.62939e-005,0.0144577,-0.00850677,0.0218582,-0.00301361,0.0190353,0.00541687
37,8,10.0097,0.00152588,0.000610352,-2.42745,0.0547655,-0.075063,0.054128,0.0694445,-0.0928413,0.144403,-0.126072,-0.0847066,0.0101852,0.0114822,0.00411987,0.00556946,0.0247574,0.0102997,0.0156784,0.011673,-9.97986,0.119057,0.00133514,0.0178146,-0.010376,0.0174332,-0.00728607,0.00717163,-0.000724792
37,9,10.0097,0.000610352,-0.000457764,-2.42745,0.0547655,-0.0747579,0.0529073,0.07036,-0.0928413,0.144403,-0.125766,-0.0850118,0.0134277,0.00789642,-0.00038147,0.00988007,0.0279236,0.00740051,0.0178146,0.0153351,-9.97986,0.117912,0.000610352,0.0243378,-0.0101852,0.0140762,-0.00621796,0.00576019,0.00137329
38,0,10.0097,0.000610352,0.000152588,-2.42562,0.0559862,-0.0753682,0.054128,0.07036,-0.0925361,0.146234,-0.125766,-0.0837911,0.0123978,0.0110626,0.00148773,0.00850677,0.0304413,0.00392914,0.0153351,0.0154495,-9.97986,0.0743866,0.00450134,0.0274277,-0.00865936,0.0114822,-0.00862122,-0.00038147,-0.000152588
38,1,10.0097,0,0.000305176,-2.42623,0.055681,-0.0735371,0.0544332,0.0691393,-0.0919257,0.146844,-0.124851,-0.0810445,0.00862122,0.0108719,0.00320435,0.00797272,0.0356674,0.00331879,0.0137329,0.0181198,-9.97986,0.0392151,0.000610352,0.0281906,-0.00740051,0.00919342,-0.00816345,0.00118256,-0.00213623
38,2,10.0097,-0.000610352,0,-2.42592,0.0569017,-0.0729268,0.0550435,0.0712755,-0.0931465,0.14776,-0.124546,-0.0810445,0.00976563,0.0138474,0.00331879,0.00782013,0.0360489,-0.00141144,0.0157166,0.0208664,-9.97986,0.0247574,0.00190735,0.0240707,-0.00823975,0.00778198,-0.00244141,0.000190735,-0.000686646
38,3,10.0097,0.000915527,-0.000152588,-2.42501,0.0562914,-0.0738423,0.0547383,0.0706652,-0.0916206,0.146844,-0.124241,-0.0804342,0.0102997,0.016098,0.00797272,0.0117493,0.0381851,-0.000534058,0.0162888,0.0226593,-9.97986,0.0354767,0.00247955,0.0188446,7.62939e-005,0.00907898,-0.0038147,-0.001297,-0.000305176
38,4,10.0097,-0.00152588,0.000305176,-2.4244,0.0562914,-0.0738423,0.054128,0.0706652,-0.090705,0.148065,-0.123935,-0.080129,0.00553131,0.018158,0.00938416,0.00873566,0.0426102,-0.00640869,0.0148392,0.0212097,-9.97986,0.0471497,-0.00335693,0.0037384,-0.00728607,0.0075531,-0.00766754,-0.0056076,-0.0123596
38,5,10.0097,0.00152588,0.000305176,-2.42623,0.0544603,-0.0741475,0.0532125,0.0508287,-0.0949775,0.146234,-0.125156,-0.0819601,0.00839233,0.0160217,0.00904083,0.0115585,0.0450134,-0.00236511,0.0134659,0.0228882,-9.97986,0.0544739,-0.000801086,0.00247955,-0.0101852,0.00461578,-0.00797272,-0.0127411,-0.0170898
38,6,9.42861,-0.000305176,-0.00198364,-2.42623,0.055681,-0.0741475,0.0538228,0.0410631,-0.094062,0.147149,-0.125461,-0.0810445,0.00782013,0.0170517,0.0105667,0.00892639,0.0469208,-0.00751495,0.0161362,0.0197601,-9.97986,0.0429916,-0.00427246,0.010376,-0.00720978,0.00473022,-0.00915527,-0.0117111,-0.00671387
38,7,7.85665,0.000915527,-0.000915527,-2.42623,0.0547655,-0.0741475,0.055959,0.0520494,-0.0913154,0.145624,-0.126377,-0.0819601,0.0114059,0.0215149,0.0137329,0.0141144,0.0508118,-0.00957489,0.0160599,0.0260925,-9.97986,0.0296402,-0.00110626,0.0115204,-0.00579834,0.00328064,-0.0101852,-0.0126266,-0.00236511
38,8,7.32991,0.000305176,-0.000305176,-2.42623,0.0562914,-0.0741475,0.0538228,0.0612047,-0.0891792,0.145318,-0.127292,-0.0819601,0.00843048,0.0224686,0.0152588,0.0113297,0.0509262,-0.00965118,0.0146103,0.0273132,-9.97986,0.0228119,-0.00164032,0.0120163,-0.00869751,0.00396729,-0.00835419,-0.00873566,-0.001297
38,9,7.43245,-0.000305176,0.000457764,-2.42653,0.0550706,-0.0747579,0.0547383,0.0688341,-0.0919257,0.145013,-0.125156,-0.0828756,0.0113678,0.0232697,0.0162888,0.00965118,0.0565338,-0.0114059,0.0174332,0.0297546,-9.97986,0.0240326,-0.000114441,0.013504,-0.00514984,0.00495911,-0.00808716,-0.0104141,0.00793457
39,0,9.01967,-0.000915527,0.0012207,-2.42837,0.0535448,-0.0753682,0.0547383,0.0828722,-0.0903999,0.145013,-0.125156,-0.0847066,0.00930786,0.02388,0.0186157,0.00968933,0.0502396,-0.0127411,0.0174332,0.0269699,-9.97986,0.017395,-0.0019455,0.0152969,-0.00610352,0.00190735,-0.00968933,-0.00854492,0.0160217
39,1,10.0097,-0.000610352,0.00244141,-2.42745,0.0550706,-0.0759786,0.0544332,0.104234,-0.0910102,0.144708,-0.125156,-0.0859274,0.00865936,0.0260925,0.0213623,0.00930786,0.0519562,-0.00396729,0.015564,0.0260544,-9.97986,0.0203323,-0.00118256,0.0146484,-0.00549316,-0.00354767,-0.020256,-0.00724792,0.0252914
39,2,10.0097,0.00213623,0.00137329,-2.42959,0.0541551,-0.0771993,0.050771,0.0798204,-0.0943672,0.143792,-0.126377,-0.0871481,0.0147247,0.019455,0.0200653,0.00968933,0.0516129,0.00293732,0.016861,0.022049,-9.97986,0.0309372,-0.000495911,0.00865936,-0.00835419,-0.000572205,-0.0431442,-0.0075531,0.0274658
39,3,10.0097,0.000610352,0.000457764,-2.42837,0.0538499,-0.0762837,0.0513814,0.0724962,-0.0946723,0.142572,-0.126072,-0.0871481,0.0117111,0.0215149,0.0175095,0.00808716,0.04879,0.00862122,0.0173569,0.0200272,-9.97986,0.0346375,0.00125885,0.00946045,-0.0119781,0.00282288,-0.0389099,-0.00915527,0.0237274
39,4,10.0097,0.0012207,-0.000305176,-2.42989,0.0538499,-0.0771993,0.0526021,0.07036,-0.0949775,0.142877,-0.130039,-0.0871481,0.0063324,0.0214767,0.0165176,0.0101089,0.0379181,0.0163269,0.0213242,0.0162125,-9.97986,0.0333405,0.000839233,0.0138092,-0.0112534,0.00396729,-0.0305939,-0.00984192,0.0236511
39,5,10.0097,0.00183105,0,-2.42989,0.0547655,-0.0744527,0.0522969,0.0691393,-0.0952827,0.144403,-0.128208,-0.0871481,0.00991821,0.0191879,0.0202942,0.011673,0.0378418,0.0218201,0.0197983,0.0242615,-9.97986,0.0328064,-0.000495911,0.0185013,-0.00873566,0.0056076,-0.0213623,-0.00175476,0.0260162
39,6,10.0097,-0.000915527,-0.000305176,-2.42928,0.0538499,-0.0744527,0.0516866,0.0691393,-0.0934516,0.145013,-0.127292,-0.0859274,0.00953674,0.0226593,0.0163651,0.0113297,0.0397491,0.0212479,0.0211334,0.0226974,-9.97986,0.0265884,0.000801086,0.0167084,-0.0114822,0.00190735,-0.00473022,0.00659943,0.0145721
39,7,10.0097,0.000610352,-0.000610352,-2.42714,0.0541551,-0.0759786,0.054128,0.0694445,-0.0943672,0.143792,-0.126072,-0.085317,0.0063324,0.0210953,0.0234222,0.012207,0.0413895,0.0257874,0.0242233,0.0186539,-9.97986,0.0190353,-0.00442505,0.0249863,-0.0105286,0.00190735,0.0136185,0.0139999,-0.023613
39,8,10.0097,0,0.000457764,-2.42653,0.0547655,-0.0747579,0.0535176,0.07036,-0.0928413,0.143792,-0.127903,-0.0834859,0.00640869,0.026474,0.021286,0.0137329,0.0410843,0.0322342,0.0223541,0.0243378,-9.97986,0.0145721,-0.00152588,0.0209427,-0.0102997,0.00480652,0.0295258,0.0173569,-0.0419235
39,9,10.0097,0.000610352,-0.000305176,-2.42684,0.0544603,-0.0744527,0.055959,0.0700548,-0.0934516,0.145013,-0.125766,-0.0844015,0.00709534,0.02285,0.0212097,0.011673,0.0403976,0.0321579,0.0212097,0.0236893,-9.97986,0.0115585,-0.00328064,0.0161743,-0.00606537,0.00152588,0.0358963,0.0211716,-0.0426102
40,0,10.0097,0.000305176,0.0012207,-2.42684,0.0544603,-0.0741475,0.0538228,0.0715807,-0.0916206,0.146234,-0.124241,-0.0831808,0.0148392,0.0289917,0.0254822,0.0138474,0.0434113,0.0244522,0.0243378,0.0272369,-9.97986,0.00926971,0.00114441,0.0274277,-0.000762939,0.00400543,0.0297928,0.0194931,-0.039711
40,1,10.0097,-0.000305176,0.000152588,-2.42501,0.0572069,-0.0738423,0.0544332,0.0700548,-0.0913154,0.146844,-0.123935,-0.0816549,0.00907898,0.0246048,0.018158,0.00919342,0.039978,0.00804901,0.0215912,0.0230408,-9.97986,0.0106812,-0.00572205,0.0508881,-0.00255585,-0.000953674,0.0250626,0.0118256,-0.0248718
40,2,10.0097,-0.000305176,-0.000457764,-2.42501,0.0562914,-0.0741475,0.0550435,0.0709703,-0.0925361,0.147149,-0.124241,-0.0807394,0.00171661,0.0297546,0.0268936,0.0153351,0.0486374,0.00400543,0.0339508,0.0278854,-9.97986,0.0102615,0.00225067,0.0494385,0.00976563,0.00495911,0.018692,0.0176239,0.0138474
40,3,10.0097,-0.0012207,-0.000457764,-2.42409,0.0569017,-0.0738423,0.0553487,0.07036,-0.0919257,0.146844,-0.124546,-0.0819601,-0.00907898,0.0233459,0.0204086,0.00854492,0.0521469,-0.0124359,0.0249863,0.0285339,-9.97986,0.00396729,-0.00377655,0.026741,0.00160217,-0.00293732,0.00892639,0.0172806,0.041275
