
Devices
1200
,,BP Load cell - Voltage,String Length - Voltage,Clutch Active - Voltage,#7 iPecs - Voltage,,,,,,,,,EMG 1-8 Left - Voltage,,,,,,,,Pylon Force - Voltage,EMG 9-16 Right - Voltage,,,,,,,,
Frame,Sub Frame,BP Load Cell,String Length,From Arduino Logic,A45,A135,A225,A315,S0,S90,S180,S270,ZSum,EMG 1 Glut Max,EMG 2 Glut Med,EMG 3 Biceps Femoris Long,EMG 4 Rectus Femoris,EMG 5 Vastus Medialis,EMG 6 Tib Ant,EMG 7 Med Gas,EMG 8 Soleus,Pylon volts,EMG 9 Glut Max,EMG 10 Glut Med,EMG 11 Biceps Femoris Long,EMG 12 Rectus Femoris,EMG 13 Vastus Medialis,EMG 14 Tib Ant,EMG 15 Med Gas,EMG 16 Soleus
,,V,V,V,V,V,V,V,V,V,V,V,V,V,V,V,V,V,V,V,V,V,V,V,V,V,V,V,V,V
1,0,-7.03471,0.000610352,-0.00457764,-2.4247,0.0553758,-0.0735371,0.0538228,-0.0169203,-0.0977241,0.14837,-0.130649,-0.0816549,0.00587463,0.0296783,0.0249863,0.0139618,0.018692,0.0113678,0.0278854,0.0168228,-9.97986,0.00770569,-0.000839233,0.0156403,0.0063324,0.0179672,0.000495911,0.0160599,0.00614166
1,1,-9.99003,0.000610352,-0.00335693,-2.42592,0.055681,-0.073232,0.0553487,0.0132921,-0.0928413,0.145929,-0.128818,-0.0804342,0.0115204,0.0315475,0.0230026,-0.00961304,0.0146103,0.015564,0.0246429,0.0112534,-9.97986,0.0108337,-0.00541687,0.0122452,0.00591278,0.00930786,0.00167847,0.0144196,0.00701904
1,2,-9.99003,-0.000305176,-0.00198364,-2.4247,0.0559862,-0.0735371,0.0562642,0.04442,-0.0897895,0.145013,-0.127292,-0.0810445,0.00984192,0.0363541,0.0289536,-0.0340271,0.0185394,0.0115967,0.0232315,0.0168991,-9.97986,0.0126266,-0.001297,0.0128937,0.00686646,-0.0114822,-0.00331879,0.0140381,0.00583649
1,3,-9.99003,-0.0012207,-0.000305176,-2.42531,0.0550706,-0.0735371,0.0556539,0.0584581,-0.0910102,0.146539,-0.126072,-0.0819601,0.0109863,0.0379944,0.032692,0.000305176,0.0180435,0.00934601,0.0217438,0.0195694,-9.97986,0.0175476,-0.00164032,0.0107574,0.00782013,-0.0104523,-0.00431061,0.0133514,0.00865936
1,4,-9.99003,0.000305176,0.000152588,-2.42592,0.0550706,-0.0747579,0.0550435,0.0731066,-0.0913154,0.146844,-0.125156,-0.0828756,0.00999451,0.044899,0.0347519,0.0403595,0.0165939,0.00873566,0.0209808,0.0146103,-9.97986,0.0139236,0.00102997,0.0127792,0.00659943,-0.00862122,-0.00404358,0.0169373,0.00610352
1,5,-9.83165,0.0012207,0.00259399,-2.42501,0.0547655,-0.075063,0.0568746,0.129564,-0.0855171,0.143792,-0.121799,-0.0825704,0.0127411,0.0395203,0.0352859,0.0491333,0.0205994,0.0125504,0.019455,0.0156021,-9.97986,0.0117874,-0.00270844,0.0180054,0.00915527,0.00976563,-0.00484467,0.0156784,0.00534058
1,6,-1.44359,-0.000610352,0.0038147,-2.42714,0.0532396,-0.0756734,0.0556539,0.143907,-0.0873481,0.144403,-0.121189,-0.0844015,0.0110626,0.0276947,0.0336456,0.0369644,0.0181961,0.00831604,0.0203323,0.0172043,-9.97986,0.0175095,-0.0018692,0.0198746,0.00656128,0.0131989,-0.00236511,0.0141144,0.00793457
1,7,6.52333,0,0.00442505,-2.42898,0.0538499,-0.0756734,0.0535176,0.154283,-0.0897895,0.143487,-0.122104,-0.0859274,0.00869751,0.0255585,0.0324249,0.033989,0.019455,0.00808716,0.0177765,0.0151825,-9.97986,0.0187683,0.00244141,0.016861,0.00892639,0.0165176,-0.0037384,0.0152969,0.00854492
1,8,10.0097,0.000610352,0.00473022,-2.43111,0.0523241,-0.0775044,0.0492452,0.129259,-0.0946723,0.142572,-0.124546,-0.0883688,0.0144958,0.0279617,0.0361633,0.0232697,0.0198746,0.00686646,0.0172043,0.0135422,-9.97986,0.0141907,-0.00171661,0.0155258,0.0050354,0.0120163,-0.00572205,0.013504,0.00602722
1,9,10.0097,-0.000610352,0.000762939,-2.43111,0.0538499,-0.0753682,0.050771,0.0932482,-0.0977241,0.142877,-0.126377,-0.0880636,0.0112915,0.0336075,0.0318909,0.0114441,0.016098,0.00705719,0.0187683,0.013504,-9.97986,0.0160217,-0.00164032,0.0172043,0.00434875,0.0170898,-0.00934601,0.0159454,0.00770569
2,0,10.0097,0.00366211,0.000305176,-2.4302,0.0550706,-0.0768941,0.0504659,0.0785997,-0.095893,0.143487,-0.126072,-0.0877584,0.0103378,0.0363922,0.0358963,0.0101089,0.0165558,0.00835419,0.0231171,0.0188446,-9.97986,0.0149918,0.000610352,0.0147629,0.00740051,0.0163651,-0.00419617,0.0151825,0.00343323
2,1,10.0097,0,-0.000457764,-2.42898,0.0541551,-0.0741475,0.0513814,0.0734117,-0.0949775,0.143792,-0.126682,-0.0859274,0.0100708,0.0320816,0.0303268,0.0522614,0.0193405,0.0104904,0.0276566,0.018959,-9.97986,0.0180817,-0.00102997,0.0178909,0.00984192,0.0159836,-0.00392914,0.0160217,0.00762939
2,2,10.0097,0.00152588,-0.000610352,-2.42714,0.0544603,-0.075063,0.0529073,0.0737169,-0.0937568,0.145013,-0.126072,-0.0850118,0.00862122,0.0331497,0.03479,0.0669479,0.0171661,0.00804901,0.024147,0.0207138,-9.97986,0.01297,-0.0031662,0.0179672,0.00671387,0.0146866,-0.00663757,0.014801,0.00724792
2,3,10.0097,-0.000305176,0.000152588,-2.42684,0.0547655,-0.0741475,0.054128,0.0712755,-0.0928413,0.145013,-0.126072,-0.0847066,0.00907898,0.0304413,0.0351334,0.0508118,0.0172043,0.0123596,0.0290298,0.0183105,-9.97986,0.0164795,-0.00392914,0.0152969,0.00892639,0.0180435,-0.00988007,0.0143051,0.00587463
2,4,10.0097,-0.000305176,-0.000305176,-2.42684,0.0553758,-0.0765889,0.0538228,0.0706652,-0.0931465,0.145013,-0.124851,-0.0840963,0.00694275,0.0305939,0.0251007,0.0406647,0.0136566,0.00972748,0.0266647,0.0260925,-9.97986,0.0162888,-0.00480652,0.0196457,0.00488281,0.01091,-0.00904083,0.0156784,0.00507355
2,5,10.0097,0,0.000762939,-2.42562,0.0559862,-0.0744527,0.0532125,0.0718859,-0.0913154,0.145929,-0.124241,-0.0816549,0.013237,0.03582,0.0231552,0.0374985,0.018158,0.010376,0.0266647,0.0174713,-9.97986,0.0152969,-0.00770569,0.0151062,0.00793457,0.0164795,-0.00499725,0.0158691,0.00526428
2,6,10.0097,-0.000610352,0.000152588,-2.42501,0.055681,-0.0735371,0.0553487,0.0712755,-0.0922309,0.146539,-0.125156,-0.0813497,0.0102997,0.0371552,0.0199127,0.0257111,0.0188446,0.0124359,0.0271606,0.021019,-9.97986,0.0154114,-0.00648499,0.0152588,0.0030899,0.0153351,-0.000114441,0.0170135,0.0056076
2,7,10.0097,-0.000305176,0.000152588,-2.42745,0.0565965,-0.0744527,0.0532125,0.0608995,-0.0934516,0.145624,-0.124851,-0.0819601,0.0113678,0.0365067,0.0162125,0.019989,0.0172806,0.010643,0.0253677,0.0228882,-9.97986,0.0198364,-0.00312805,0.0175095,0.0102615,0.0153351,0.00366211,0.0152588,0.00488281
2,8,8.99159,-0.000915527,-0.00228882,-2.42684,0.0553758,-0.0744527,0.0526021,0.0132921,-0.0986396,0.145929,-0.127903,-0.0831808,0.00617981,0.034256,0.0117493,0.0147247,0.0149536,0.0100327,0.0213242,0.0172043,-9.97986,0.0127792,-0.00621796,0.0124359,0.00549316,0.0131607,-0.00564575,0.0147247,0.00343323
2,9,-0.146284,0.000610352,-0.00457764,-2.42592,0.0559862,-0.0744527,0.054128,-0.00562879,-0.0971137,0.147149,-0.129123,-0.0816549,0.00926971,0.0357437,0.0142288,0.0106812,0.0192261,0.0146103,0.0204849,0.0234604,-9.97986,0.0208282,-0.00171661,0.0174332,0.0101852,0.0172806,-0.000915527,0.0214005,0.0069046
3,0,-7.02311,0,-0.00473022,-2.42562,0.0584276,-0.0741475,0.0538228,-0.0141737,-0.0961982,0.148065,-0.129734,-0.0819601,0.01091,0.0287247,0.00587463,0.0116348,0.0154114,0.00873566,0.0193787,0.0205994,-9.97986,0.019989,-0.00400543,0.0131607,0.00770569,0.0169373,0.000114441,0.0155258,0.00286102
3,1,-9.99003,-0.000610352,-0.00259399,-2.42379,0.0562914,-0.0741475,0.0550435,0.0108507,-0.0925361,0.145318,-0.128513,-0.0813497,0.00694275,0.0316238,0.00343323,0.00602722,0.0153351,0.00675201,0.0198746,0.0195313,-9.97986,0.0216675,-0.00541687,0.0172806,0.00938416,0.0127411,0.00118256,0.0156784,0.00526428
3,2,-9.99003,-0.000610352,-0.00137329,-2.42501,0.0565965,-0.0747579,0.0556539,0.0450304,-0.0910102,0.145013,-0.126682,-0.0810445,0.0127792,0.0220108,0.00453949,0.0162888,0.0167084,0.0116348,0.0207138,0.017128,-9.97986,0.0133133,-0.00576019,0.0151443,0.00621796,-0.0056839,0.0030899,0.0162506,0.00545502
3,3,-9.99003,-0.000305176,0,-2.42562,0.0559862,-0.0744527,0.0544332,0.0584581,-0.0913154,0.145929,-0.126377,-0.0819601,0.0104904,0.00152588,0.0038147,0.030632,0.0156403,0.00686646,0.0229645,0.0112915,-9.97986,0.0198364,-0.00667572,0.0167465,0.00148773,-0.00762939,0.000152588,0.017395,0.00862122
3,4,-9.99003,0.000915527,-0.000152588,-2.42562,0.0553758,-0.0741475,0.0562642,0.0740221,-0.0903999,0.145318,-0.125156,-0.0825704,0.0111389,0.0102997,0.000534058,0.0343704,0.0154495,0.0108337,0.0256348,0.0172424,-9.97986,0.0136948,-0.00343323,0.0114822,0.0038147,-0.0037384,-0.00141144,0.0164413,0.00511169
3,5,-9.78587,0.0012207,0.00213623,-2.42592,0.0547655,-0.0747579,0.0565694,0.129869,-0.0864326,0.144403,-0.121799,-0.0819601,0.0105286,0.0147247,0.00423431,0.0205994,0.0150299,0.0135803,0.0229263,0.0191879,-9.97986,0.0165939,-0.00286102,0.0144958,0.0018692,0.0141907,-0.00232697,0.0164795,0.00362396
3,6,-1.62913,0.000915527,0.00411987,-2.42806,0.0535448,-0.075063,0.0547383,0.143907,-0.0879585,0.144708,-0.12241,-0.0844015,0.010376,0.0179672,0.00923157,0.0164795,0.0186157,0.00991821,0.0262451,0.0174332,-9.97986,0.0147247,0.000267029,0.0174713,0.00640869,0.0165176,-0.000991821,0.0203323,0.00743866
3,7,6.29445,0.0012207,0.00366211,-2.42776,0.0535448,-0.0756734,0.0544332,0.155199,-0.0894843,0.144403,-0.120884,-0.0859274,0.00839233,0.0222397,0.00354767,0.0114822,0.016861,0.00366211,0.0220108,0.015831,-9.97986,0.0173187,0.00564575,0.016098,0.0062561,0.0173187,0.00354767,0.0165939,0.00980377
3,8,10.0097,-0.0012207,0.00411987,-2.43111,0.0535448,-0.0768941,0.0513814,0.13109,-0.0949775,0.143792,-0.124241,-0.0877584,0.0144196,0.0204849,0.0136185,0.0154495,0.0167465,0.0130463,0.0205612,0.0151825,-9.97986,0.0139236,0.00164032,0.0127029,0.00171661,0.0114822,0.00171661,0.0154495,0.00370026
3,9,10.0097,0.000915527,0.00152588,-2.4305,0.0535448,-0.0765889,0.0498555,0.092943,-0.0955879,0.141656,-0.125461,-0.0880636,0.0123978,0.00595093,0.00804901,0.0125504,0.0172806,0.00823975,0.0149155,0.014267,-9.97986,0.0162888,0.0019455,0.01194,0.00396729,0.0164795,0.00541687,0.0189209,0.00686646
4,0,10.0097,-0.0012207,-0.000152588,-2.4305,0.0541551,-0.0747579,0.0504659,0.0795153,-0.0971137,0.142572,-0.126682,-0.0883688,0.0115204,0.012207,0.0122452,0.00801086,0.0168991,0.00614166,0.0157547,0.0167465,-9.97986,0.0172806,0.00141144,0.0154114,0.00583649,0.0129318,0.00797272,0.0177765,0.00427246
4,1,10.0097,0.000915527,0.000152588,-2.42867,0.0535448,-0.0765889,0.0519917,0.0734117,-0.0952827,0.144098,-0.126682,-0.0868429,0.010376,0.00919342,0.00846863,0.0111771,0.0136185,0.0105667,0.0181198,0.0185394,-9.97986,0.0150681,-0.000534058,0.0150299,0.00598907,0.00770569,0.00499725,0.014267,0.00484467
4,2,10.0097,0.000915527,0,-2.42684,0.055681,-0.0747579,0.0519917,0.0724962,-0.0937568,0.144708,-0.126377,-0.0844015,0.00930786,0.0164032,0.0109482,0.0105667,0.017395,0.0100708,0.0118256,0.0233459,-9.97986,0.0151443,0.00404358,0.0127411,0.00339508,0.00846863,0.00835419,0.0138092,0.0056076
4,3,10.0097,0.000915527,0.000152588,-2.42806,0.0547655,-0.0744527,0.0529073,0.0709703,-0.0934516,0.144708,-0.126072,-0.0844015,0.0128174,0.0231552,0.0180817,0.00587463,0.0175095,0.01091,0.0125885,0.0254822,-9.97986,0.0155258,0.00102997,0.0142288,0.00362396,0.0120544,0.0094223,0.0172806,0.00335693
4,4,10.0097,0.000610352,-0.000457764,-2.42684,0.0553758,-0.075063,0.0550435,0.0706652,-0.0943672,0.143792,-0.125156,-0.0837911,0.0123596,0.0201416,0.0214005,-0.00293732,0.0159454,0.0124359,0.0194168,0.0228882,-9.97986,0.013504,-0.000534058,0.0151825,0.00347137,0.0162506,0.0100708,0.0197601,0.0069046
4,5,10.0097,0.000305176,-0.000152588,-2.42562,0.0569017,-0.075063,0.0544332,0.0709703,-0.090705,0.145929,-0.125156,-0.0822652,0.0127029,0.0243759,0.0206757,0.00564575,0.0170898,0.0137329,0.0213242,0.019455,-9.97986,0.0127029,-0.00179291,0.0191116,0.00362396,0.018158,0.00499725,0.015831,0.00617981
4,6,10.0097,-0.000610352,-0.000152588,-2.42623,0.0562914,-0.073232,0.0553487,0.07036,-0.0928413,0.146234,-0.12363,-0.0816549,0.0119781,0.0268173,0.0203705,0.0101089,0.0183487,0.0130844,0.0289154,0.0167084,-9.97986,0.0133514,0,0.0196075,0.00263214,0.0181961,-0.0018692,0.0186157,0.00759125
4,7,10.0097,0.000610352,-0.000305176,-2.42745,0.0562914,-0.0738423,0.0544332,0.067003,-0.0925361,0.146234,-0.124851,-0.0816549,0.0087738,0.0290298,0.0197601,0.0102234,0.016861,0.0088501,0.0287628,0.0130081,-9.97986,0.0148773,0.00087738,0.0164413,0.00293732,0.0144196,-0.00411987,0.0213623,0.00118256
4,8,9.2101,0.000305176,-0.00213623,-2.42684,0.0553758,-0.0759786,0.0516866,0.016649,-0.0986396,0.145013,-0.128513,-0.0825704,0.00873566,0.0337601,0.0251007,0.00957489,0.0189209,0.01297,0.030365,0.0105667,-9.97986,0.0136948,0.000305176,0.0146866,0.00602722,0.0201797,-0.00461578,0.0211716,0.00465393
4,9,-0.0184152,0.000915527,-0.00457764,-2.42592,0.0569017,-0.0723164,0.0529073,-0.00410291,-0.095893,0.147149,-0.129734,-0.0813497,0.0131607,0.0259781,0.0252533,0.000190735,0.0159454,0.00858307,0.0326157,0.0131226,-9.97986,0.0141144,-0.00106812,0.0126648,0.00335693,0.021553,-0.00953674,0.0170517,0.000991821
5,0,-6.86503,-0.000305176,-0.00457764,-2.42501,0.0569017,-0.073232,0.054128,-0.0163099,-0.0961982,0.146234,-0.130039,-0.0825704,0.00995636,0.0315475,0.0246429,-0.00339508,0.0114059,0.0114441,0.0299454,0.0110626,-9.97986,0.0115585,0.00324249,0.0122833,0.00259399,0.0174713,-0.00484467,0.0164032,0.00663757
5,1,-9.99003,0,-0.00289917,-2.42592,0.0562914,-0.0747579,0.0553487,0.0123766,-0.0928413,0.146539,-0.129429,-0.0816549,0.0094986,0.0312805,0.0301361,-0.00839233,0.0144196,0.00957489,0.030632,0.0062561,-9.97986,0.0123215,0.00202179,0.0144196,0.00404358,0.0177383,0.00160217,0.0163651,0.00328064
5,2,-9.99003,0.000610352,-0.00213623,-2.42409,0.0547655,-0.073232,0.0574849,0.0438097,-0.090705,0.146234,-0.125766,-0.0810445,0.00953674,0.0156403,0.031395,-0.0157928,0.0181961,0.00854492,0.0205994,0.0127029,-9.97986,0.0110245,0.00400543,0.0138092,0.00652313,-0.00911713,0.00160217,0.0147247,-3.8147e-005
5,3,-9.99003,-0.000610352,-0.000610352,-2.42592,0.0550706,-0.075063,0.0550435,0.0593737,-0.0910102,0.145318,-0.126072,-0.0813497,0.0117874,0.0102234,0.0366211,-0.0239563,0.0183868,0.0127411,0.025444,0.014267,-9.97986,0.0151062,-0.0019455,0.0150681,0.00518799,-0.00629425,0.00370026,0.0193405,0.0037384
5,4,-9.99003,0.0012207,0.000152588,-2.42623,0.0550706,-0.0744527,0.0562642,0.0746324,-0.0910102,0.145929,-0.125156,-0.0822652,0.0120926,0.0153351,0.0346375,-0.0239182,0.0162506,0.0141144,0.0211334,0.0188446,-9.97986,0.0136185,-0.0038147,0.0159073,0.00720978,-0.00225067,0.00396729,0.0144577,0.0025177
5,5,-9.75627,0.0012207,0.00198364,-2.42501,0.0553758,-0.073232,0.0565694,0.128649,-0.0858222,0.144403,-0.121799,-0.0822652,0.0130463,0.019455,0.0274658,-0.0382996,0.0159073,0.0111008,0.0205994,0.0149536,-9.97986,0.0148773,-0.000495911,0.0146103,0.00801086,0.0148773,-0.00453949,0.018425,0.00335693
5,6,-1.48265,0.00183105,0.00366211,-2.42684,0.0553758,-0.0753682,0.0538228,0.144518,-0.0876533,0.143792,-0.121799,-0.0844015,0.00900269,0.0136948,0.0212479,-0.0602341,0.0164413,0.0110626,0.0197983,0.0180817,-9.97986,0.0130844,-0.00152588,0.0180054,0.00621796,0.0161743,-0.00263214,0.0158691,0.00553131
5,7,6.41622,0.000915527,0.00411987,-2.42714,0.0526292,-0.0753682,0.0538228,0.153978,-0.0894843,0.142572,-0.122104,-0.0850118,0.0094223,0.0118256,0.0200272,-0.0498962,0.0185776,0.0143051,0.0191116,0.0162888,-9.97986,0.0122452,0.000801086,0.0121307,0.00743866,0.0168228,-0.0112915,0.0126266,0.00858307
5,8,10.0097,0.000915527,0.00396729,-2.42989,0.0529344,-0.0762837,0.0498555,0.130785,-0.095893,0.142877,-0.124546,-0.0886739,0.0112152,0.0107574,0.0157928,-0.0314331,0.0172806,0.0147247,0.020752,0.0178528,-9.97986,0.0130463,-0.000495911,0.0152969,0.00541687,0.0138474,-0.0149536,0.0138092,0.00335693
5,9,10.0097,0.000915527,0.000762939,-2.43111,0.0526292,-0.0768941,0.04894,0.0923326,-0.0971137,0.144403,-0.125461,-0.0889791,0.00896454,0.0157928,0.0177765,-0.0110245,0.0190353,0.0124741,0.0198364,0.0142288,-9.97986,0.0154495,0.00087738,0.014267,0.00682831,0.0182343,-0.0130844,0.0112534,0.00640869
6,0,10.0097,0.00213623,0.000457764,-2.42959,0.0538499,-0.0759786,0.0513814,0.0795153,-0.0968086,0.142877,-0.126377,-0.0877584,0.0107956,0.0185394,0.0193024,0.0200653,0.0153732,0.0103378,0.0183105,0.0181961,-9.97986,0.0161743,0.001297,0.0179672,0.0044632,0.020256,-0.0126648,0.0149536,0.00663757
6,1,10.0097,0.000915527,0.000152588,-2.42898,0.0538499,-0.0756734,0.0516866,0.0734117,-0.0961982,0.143792,-0.126987,-0.0865377,0.0136948,0.018692,0.0205231,0.0338745,0.0169754,0.00804901,0.0207138,0.0162125,-9.97986,0.014267,-0.00358582,0.0147629,-0.00164032,0.0170517,-0.0159836,0.0143433,0.00488281
6,2,10.0097,0.000915527,0.000305176,-2.42745,0.0550706,-0.0747579,0.0538228,0.0712755,-0.0937568,0.143487,-0.126682,-0.0865377,0.0103378,0.0231552,0.0185776,0.0375366,0.0161362,0.00534058,0.0248718,0.019989,-9.97986,0.0153732,-0.000839233,0.0167084,0.00514984,0.0198746,-0.016861,0.0144196,0.00770569
6,3,10.0097,-0.000305176,0.000152588,-2.42837,0.0544603,-0.075063,0.0522969,0.0718859,-0.0943672,0.145929,-0.125766,-0.085317,0.00862122,0.0268173,0.0118256,0.0392914,0.0158691,0.00686646,0.0188065,0.0225449,-9.97986,0.0180817,-0.00152588,0.00919342,0.00747681,0.0161743,-0.0177002,0.0174332,0.00675201
6,4,10.0097,-0.000305176,0.000305176,-2.42714,0.0562914,-0.0747579,0.0532125,0.0697496,-0.0934516,0.146234,-0.125461,-0.0831808,0.00995636,0.028038,0.0109863,0.0340271,0.0218201,0.01091,0.0183868,0.022316,-9.97986,0.016861,-0.000991821,0.0124359,0.00286102,0.017662,-0.0221252,0.0139999,0.00591278
6,5,10.0097,0.000305176,-0.000152588,-2.42562,0.055681,-0.0747579,0.0553487,0.0709703,-0.0922309,0.145929,-0.124241,-0.0819601,0.011673,0.0326538,0.0107193,0.0115585,0.0214386,0.0133514,0.0234222,0.0255203,-9.97986,0.0172806,-0.00106812,0.0183105,0.00530243,0.0201416,-0.0292587,0.0164795,0.00713348
6,6,10.0097,-0.000305176,0,-2.42501,0.0559862,-0.0741475,0.0556539,0.0709703,-0.0919257,0.146539,-0.124851,-0.0816549,0.00717163,0.0299835,0.0195694,-0.00255585,0.017662,0.0113678,0.0229263,0.0201797,-9.97986,0.0205231,0.00152588,0.0106049,0.00923157,0.0209427,-0.0342941,0.0169754,0.00431061
6,7,10.0097,0.000610352,0.000305176,-2.42684,0.0562914,-0.0738423,0.054128,0.0618151,-0.094062,0.145318,-0.124546,-0.0816549,0.011673,0.02491,0.0205612,0.0115204,0.0173569,0.0119019,0.0253677,0.0198364,-9.97986,0.0181961,0.00534058,0.0121307,0.00923157,0.0193787,-0.0336456,0.0136566,0.00629425
6,8,8.91622,-0.0012207,-0.00213623,-2.42806,0.0559862,-0.0744527,0.0516866,0.0151232,-0.0980293,0.146234,-0.127598,-0.0834859,0.0137329,0.0289536,0.0233459,0.040741,0.0197601,0.0118637,0.0287628,0.0157166,-9.97986,0.017128,0.00267029,0.0154495,0.00797272,0.0225449,-0.0276184,0.0164795,0.00228882
6,9,-0.167951,0.000305176,-0.00411987,-2.42592,0.0575121,-0.0738423,0.0535176,-0.00379773,-0.0961982,0.146539,-0.129429,-0.0819601,0.00717163,0.0273132,0.0247955,0.050354,0.0187683,0.010643,0.0311279,0.016098,-9.97986,0.0197601,-0.00343323,0.015831,0.00740051,0.0194931,-0.0172043,0.0146103,0.00423431
7,0,-7.05699,0,-0.00442505,-2.42409,0.0565965,-0.0747579,0.054128,-0.0166151,-0.0965034,0.146539,-0.130039,-0.0813497,0.0117111,0.0320435,0.0175858,0.0393677,0.0143433,0.00919342,0.0273514,0.0136948,-9.97986,0.0121689,0.000190735,0.014267,0.00862122,0.0227356,-0.00671387,0.014801,0.00301361
7,1,-9.99003,0.0012207,-0.00335693,-2.42531,0.0565965,-0.0735371,0.0556539,0.0105455,-0.094062,0.146539,-0.128208,-0.0813497,0.00926971,0.0291061,0.0138092,0.0363159,0.0170517,0.0117874,0.0270462,0.013237,-9.97986,0.0146484,0.000343323,0.0165939,0.00255585,0.0173187,0.0031662,0.0165939,0.00572205
7,2,-9.99003,-0.000915527,-0.0012207,-2.42592,0.0544603,-0.0738423,0.0568746,0.0450304,-0.0894843,0.146539,-0.125766,-0.0810445,0.0148773,0.0114441,0.00652313,0.0312042,0.0139999,0.0122452,0.021019,0.0178528,-9.97986,0.0105667,0.0025177,0.0128555,0.00812531,-0.00507355,0.00724792,0.0167847,0.00221252
7,3,-9.99003,0.000610352,-0.000152588,-2.4244,0.0541551,-0.0747579,0.0553487,0.0596788,-0.0916206,0.144708,-0.125766,-0.0819601,0.0146484,0.00717163,0.0115204,0.0306702,0.0181961,0.0133133,0.0267029,0.0194931,-9.97986,0.0144958,0.00236511,0.0154495,0.00862122,-0.00415802,0.00473022,0.0169373,0.00637054
7,4,-9.99003,0.000915527,0.000305176,-2.42714,0.0553758,-0.0744527,0.0550435,0.0724962,-0.0913154,0.146234,-0.125766,-0.0822652,0.00888824,0.0206375,0.0111008,0.0256729,0.0199509,0.0129318,0.0240707,0.0224686,-9.97986,0.0182343,-0.00263214,0.0127029,0.00774384,0.00274658,0.00225067,0.0165558,0.00488281
7,5,-9.99003,0.00274658,0.00289917,-2.42501,0.0550706,-0.0744527,0.0571797,0.127428,-0.0852119,0.145013,-0.12241,-0.0828756,0.00938416,0.0253677,0.0100708,0.0203705,0.0133514,0.0123215,0.023613,0.0214005,-9.97986,0.0192642,-0.00240326,0.0146103,0.00747681,0.0212479,0.00247955,0.0168228,0.00434875
7,6,-1.70604,-0.000305176,0.00396729,-2.42684,0.0544603,-0.0747579,0.0562642,0.144213,-0.0879585,0.144098,-0.122715,-0.0850118,0.0105286,0.0239944,0.00900269,0.0152588,0.0147247,0.00957489,0.0195694,0.0213242,-9.97986,0.0147629,-0.00415802,0.0132751,0.00709534,0.0141525,-0.000419617,0.0144958,0.00564575
7,7,6.25905,0.000305176,0.00457764,-2.42867,0.0526292,-0.0762837,0.0550435,0.153673,-0.0894843,0.143792,-0.122104,-0.0856222,0.0113297,0.020256,0.00995636,0.0136948,0.0218201,0.0124359,0.0204849,0.0259781,-9.97986,0.0175858,-0.00377655,0.0121307,0.00816345,0.0181198,0.000114441,0.0152206,0.00541687
7,8,10.0097,-0.000305176,0.00488281,-2.43111,0.0532396,-0.0775044,0.0516866,0.132005,-0.0946723,0.140741,-0.124241,-0.0877584,0.00988007,0.0179291,0.010643,0.0122833,0.0178909,0.0117874,0.0196075,0.0247955,-9.97986,0.015564,-0.00183105,0.0122833,0.00480652,0.0172043,-0.00152588,0.0156021,0.00442505
7,9,10.0097,0.000610352,0.00152588,-2.43111,0.0529344,-0.0765889,0.0504659,0.0920275,-0.0980293,0.142267,-0.126072,-0.0889791,0.0102615,0.0246811,0.0125885,0.012207,0.0185013,0.00934601,0.020256,0.0178146,-9.97986,0.0143051,-0.00492096,0.0160599,0.00812531,0.0167847,-0.0037384,0.0168991,0.00751495
8,0,10.0097,0.000610352,-0.000152588,-2.43172,0.0535448,-0.0765889,0.0501607,0.0792101,-0.0968086,0.143792,-0.127292,-0.0877584,0.00915527,0.0219345,0.0127411,0.0138092,0.0207901,0.0117874,0.0239944,0.0207138,-9.97986,0.0141525,-0.00312805,0.0154495,0.00896454,0.0210953,-0.00637054,0.014801,0.00473022
8,1,10.0097,0.000610352,-0.000305176,-2.42867,0.0541551,-0.0762837,0.050771,0.0737169,-0.0961982,0.143487,-0.127292,-0.0865377,0.00846863,0.0175476,0.00740051,0.0104141,0.0167847,0.0106049,0.0175858,0.0206375,-9.97986,0.0151443,-0.0087738,0.0139999,0.00930786,0.0163651,-0.0179672,0.0141525,0.00587463
8,2,10.0097,0.000915527,0,-2.42714,0.0547655,-0.0762837,0.0532125,0.0734117,-0.0955879,0.145013,-0.126682,-0.0847066,0.00999451,0.0236511,0.00782013,0.0106812,0.0172806,0.01091,0.0186539,0.0196075,-9.97986,0.0180054,-0.00358582,0.0175858,0.00797272,0.0168228,-0.0118256,0.0149155,0.00751495
8,3,10.0097,0.000610352,0.000305176,-2.42776,0.0550706,-0.0741475,0.0535176,0.0715807,-0.0934516,0.145624,-0.125766,-0.0847066,0.00919342,0.0183105,0.00995636,0.00713348,0.0162506,0.00656128,0.0147629,0.0157166,-9.97986,0.0156021,-0.0043869,0.016861,0.0102615,0.0178909,-0.011673,0.0142288,0.00858307
8,4,10.0097,-0.000915527,0.000457764,-2.42684,0.0553758,-0.0747579,0.0532125,0.0718859,-0.0937568,0.145013,-0.124851,-0.0825704,0.00732422,0.0181961,0.0163651,0.0156403,0.0179291,0.0110626,0.0168228,0.0156784,-9.97986,0.0165176,-0.000457764,0.0149918,0.012207,0.0179291,-0.00591278,0.0144958,0.00713348
8,5,10.0097,0.000305176,0.000915527,-2.42531,0.0559862,-0.0738423,0.0550435,0.0718859,-0.0913154,0.145929,-0.125461,-0.0822652,0.0117493,0.0219727,0.014801,0.0155258,0.0179291,0.00915527,0.0175858,0.0195694,-9.97986,0.0151443,0.00331879,0.0130463,0.0105286,0.0172806,-0.00411987,0.0164413,0.00591278
8,6,10.0097,-0.000305176,0.000457764,-2.4247,0.0572069,-0.0738423,0.0547383,0.072191,-0.0910102,0.146539,-0.125156,-0.0822652,0.0110626,0.0233459,0.0144958,0.0130081,0.0208664,0.00606537,0.0195313,0.0209427,-9.97986,0.0150299,0.0044632,0.00907898,0.00751495,0.020256,0.00507355,0.0164413,0.0056839
8,7,10.0097,0.000610352,0.000457764,-2.42531,0.0559862,-0.0738423,0.0547383,0.0666979,-0.0934516,0.146539,-0.124851,-0.0816549,0.00682831,0.0214005,0.017128,0.0105667,0.017662,0.0105667,0.0212479,0.0278091,-9.97986,0.0144577,0.00354767,0.0150299,0.0126648,0.0209427,0.012207,0.0203705,0.00541687
8,8,9.26259,0.000305176,-0.00244141,-2.42714,0.0559862,-0.075063,0.0519917,0.0181749,-0.0974189,0.145624,-0.128208,-0.0831808,0.0143051,0.0251389,0.0201035,0.00953674,0.0134277,0.0108719,0.0167084,0.0257492,-9.97986,0.0130081,0.00411987,0.0166702,0.0135803,0.0170517,0.0170517,0.0146866,0.00686646
8,9,0.0587943,0,-0.00427246,-2.42531,0.0572069,-0.0720113,0.0544332,-0.00471326,-0.0968086,0.147149,-0.128818,-0.0813497,0.0103378,0.025177,0.018425,0.00965118,0.0170898,0.01194,0.0216675,0.0263214,-9.97986,0.0124741,0.00164032,0.0124359,0.0125504,0.0197601,0.0116348,0.0167847,0.00354767
9,0,-6.76463,0.00183105,-0.00457764,-2.4244,0.0559862,-0.075063,0.0535176,-0.0153944,-0.0961982,0.147455,-0.130039,-0.0819601,0.010376,0.0282288,0.0173569,0.00190735,0.0177383,0.00629425,0.0244904,0.0215912,-9.97986,0.0151443,0.00209808,0.0102234,0.00915527,0.0228119,0.0050354,0.0154114,0.00904083
9,1,-9.99003,0.000305176,-0.00305176,-2.42531,0.055681,-0.0729268,0.0547383,0.0105455,-0.0928413,0.146539,-0.127903,-0.0807394,0.0124359,0.0215912,0.0163651,0.00423431,0.0163269,0.00862122,0.02388,0.0141525,-9.97986,0.0123215,0.00522614,0.0143051,0.0137711,0.0204849,0.00431061,0.0166702,0.00652313
9,2,-9.99003,0.000610352,-0.00152588,-2.42592,0.0565965,-0.0738423,0.0577901,0.0419786,-0.090705,0.145929,-0.127292,-0.0810445,0.0107193,0.0263596,0.0200272,0.00217438,0.0138092,0.0117111,0.0242615,0.00892639,-9.97986,0.0136948,-0.000686646,0.0106049,0.0075531,-0.0062561,0.00152588,0.0161743,0.00488281
9,3,-9.99003,-0.000610352,-0.000762939,-2.42562,0.0544603,-0.0744527,0.0550435,0.0575426,-0.0903999,0.145013,-0.125766,-0.0819601,0.0120926,0.0238037,0.02285,0.000762939,0.0174713,0.00774384,0.0210571,0.0137329,-9.97986,0.0160217,0.00263214,0.011673,0.0104523,-0.00831604,-0.0012207,0.0152588,0.00427246
9,4,-9.99003,0.00305176,0.000305176,-2.42531,0.0547655,-0.075063,0.055959,0.0764635,-0.0891792,0.146234,-0.125156,-0.0816549,0.0100708,0.0247955,0.026207,-0.00564575,0.016861,0.00835419,0.0204086,0.0136185,-9.97986,0.0157928,0.00312805,0.0094223,0.0153732,0.00389099,-0.000610352,0.0190735,0.00587463
9,5,-9.49595,0.000610352,0.00183105,-2.42562,0.0559862,-0.0753682,0.055959,0.129259,-0.0861274,0.145013,-0.122715,-0.0816549,0.0121307,0.022583,0.0266266,-0.0183868,0.0128174,0.0120544,0.0228119,0.0138092,-9.97986,0.0130463,0.000915527,0.0159836,0.0131607,0.0179291,-0.0063324,0.019722,0.00782013
9,6,-1.34318,0.000610352,0.00320435,-2.42745,0.0532396,-0.075063,0.0547383,0.144823,-0.0882636,0.145013,-0.120884,-0.0844015,0.0102615,0.0258636,0.0273514,-0.0249863,0.0141525,0.0136185,0.0221634,0.0165939,-9.97986,0.0128555,-0.000267029,0.0130463,0.0164413,0.0172806,-0.0105286,0.0144958,0.00453949
9,7,6.55538,0.000305176,0.00457764,-2.42837,0.0529344,-0.0759786,0.0538228,0.153368,-0.0894843,0.145013,-0.120884,-0.0856222,0.0112152,0.0306702,0.0240707,-0.031395,0.0138474,0.00736237,0.0214005,0.0204086,-9.97986,0.0119781,0.000953674,0.0161743,0.0114059,0.0178528,-0.00965118,0.0159836,0.00598907
9,8,10.0097,0,0.0050354,-2.43081,0.0535448,-0.0778096,0.0495503,0.128649,-0.0946723,0.142877,-0.12363,-0.0877584,0.00972748,0.0297546,0.0240326,-0.0318146,0.0161362,0.00576019,0.0168228,0.0188065,-9.97986,0.013504,0.0030899,0.0146484,0.0151443,0.0182343,-0.0111771,0.0170898,0.00797272
9,9,10.0097,0.000915527,0.00137329,-2.4305,0.0535448,-0.0765889,0.050771,0.0911119,-0.0977241,0.143182,-0.126682,-0.0889791,0.0133896,0.0218964,0.0259018,-0.0409317,0.0181961,0.00644684,0.0121689,0.0201797,-9.97986,0.0101852,-0.00225067,0.00934601,0.00976563,0.0154877,-0.015831,0.0165558,0.00461578
10,0,10.0097,0.000915527,0.000610352,-2.4305,0.0532396,-0.0756734,0.0510762,0.0785997,-0.0977241,0.143487,-0.127292,-0.0868429,0.0133133,0.0222397,0.0352097,-0.0457382,0.0194168,0.0087738,0.0149536,0.024147,-9.97986,0.0163651,0.00144958,0.0131989,0.0112534,0.0169373,-0.012207,0.0147629,0.00900269
10,1,10.0097,0.000610352,-0.000152588,-2.42806,0.0538499,-0.075063,0.0513814,0.0746324,-0.0946723,0.144403,-0.126987,-0.0862325,0.0133896,0.0158691,0.0338364,-0.0409317,0.0164413,0.0106049,0.01091,0.0209808,-9.97986,0.0137329,0.00301361,0.0159454,0.0120544,0.0170517,-0.00793457,0.0189209,0.00465393
10,2,10.0097,0.0012207,-0.000152588,-2.42714,0.0550706,-0.0753682,0.0532125,0.0731066,-0.0943672,0.144403,-0.126987,-0.085317,0.00995636,0.017395,0.0359344,-0.0300598,0.015831,0.0094223,0.00587463,0.0187302,-9.97986,0.0172806,-0.0056076,0.0128555,0.0149536,0.0180817,-0.00423431,0.0156403,0.00816345
10,3,10.0097,0,0.000915527,-2.42714,0.055681,-0.0747579,0.0526021,0.0718859,-0.0931465,0.144098,-0.125766,-0.0847066,0.00617981,0.0220108,0.0409698,0.0101471,0.0193024,0.00812531,0.0111771,0.0188446,-9.97986,0.0136566,-0.000648499,0.0168991,0.0106049,0.0141144,7.62939e-005,0.016098,0.00785828
10,4,10.0097,0.000610352,0.000305176,-2.42684,0.0547655,-0.0741475,0.0538228,0.0712755,-0.0922309,0.145318,-0.124851,-0.0840963,0.0160217,0.0268936,0.0365448,0.0325394,0.0181961,0.00991821,0.00972748,0.0138474,-9.97986,0.00808716,0.000953674,0.0112534,0.0111389,0.0187302,0.00362396,0.0141144,0.0056076
10,5,10.0097,0.000305176,0.000610352,-2.42623,0.0565965,-0.0738423,0.0544332,0.0718859,-0.0910102,0.146234,-0.125461,-0.0810445,0.0132751,0.0307083,0.0277328,0.0646591,0.0200272,0.00934601,0.00968933,0.0112152,-9.97986,0.0103378,0.000534058,0.0157928,0.00797272,0.0128555,0.00907898,0.0138855,0.00888824
10,6,10.0097,-0.00213623,0.000305176,-2.4247,0.0562914,-0.0735371,0.0538228,0.0724962,-0.0903999,0.146234,-0.12363,-0.0813497,0.0114059,0.0326538,0.026207,0.0999451,0.0224686,0.00999451,0.0119019,0.00823975,-9.97986,0.0160217,0.00175476,0.0105667,0.0122452,0.0187302,0.0139999,0.0165939,0.00938416
10,7,10.0097,0.00152588,0.000152588,-2.42592,0.055681,-0.0741475,0.054128,0.0660875,-0.0934516,0.146539,-0.124546,-0.0819601,0.0129318,0.028801,0.0254059,0.0719833,0.0184631,0.00968933,0.0215149,0.0143433,-9.97986,0.0137329,-0.00213623,0.0150681,0.0115967,0.0178528,0.0115204,0.0132751,0.00576019
10,8,9.18233,0,-0.00213623,-2.42806,0.0565965,-0.0744527,0.0522969,0.0175646,-0.0971137,0.145624,-0.129123,-0.0831808,0.0127029,0.0275803,0.0225449,0.0461197,0.0209045,0.0102234,0.0289154,0.0191498,-9.97986,0.0141144,-0.00343323,0.0191498,0.00965118,0.0196075,0.00450134,0.0160599,0.0102997
10,9,0.0578788,0.0012207,-0.00457764,-2.4244,0.0559862,-0.0735371,0.054128,-0.00532361,-0.0965034,0.146844,-0.128513,-0.0825704,0.0104904,0.0250244,0.0185394,0.0429535,0.019989,0.0102997,0.02388,0.0222015,-9.97986,0.017128,-0.00217438,0.0145721,0.0131226,0.0130081,0.0031662,0.0169754,0.00961304
11,0,-6.83391,-0.000305176,-0.00549316,-2.42562,0.0569017,-0.0753682,0.0547383,-0.0147841,-0.0961982,0.145318,-0.129734,-0.0819601,0.00652313,0.0239944,0.00896454,0.0359344,0.0143814,0.00896454,0.0297165,0.0165558,-9.97986,0.0170517,-0.00213623,0.0128555,0.0113297,0.00984192,-0.00709534,0.0138092,0.00759125
11,1,-9.99003,-0.000305176,-0.00289917,-2.4244,0.0565965,-0.0741475,0.0544332,0.0102404,-0.094062,0.146234,-0.128513,-0.0816549,0.00778198,0.0233078,0.0128937,0.0283432,0.0169754,0.00843048,0.0274658,0.0235367,-9.97986,0.0166702,-0.00770569,0.0149155,0.0123596,0.0133133,-0.00213623,0.0159073,0.00549316
11,2,-9.99003,-0.000610352,-0.00198364,-2.42501,0.0565965,-0.0744527,0.0562642,0.0431993,-0.0900947,0.146539,-0.126987,-0.0807394,0.0131989,0.0203323,0.00724792,0.0181961,0.0150681,0.01091,0.0230408,0.0233459,-9.97986,0.0162125,-0.00110626,0.0129318,0.00629425,-0.00602722,-0.00114441,0.0151825,0.00312805
11,3,-9.99003,-0.00152588,-0.000152588,-2.42592,0.055681,-0.0747579,0.0550435,0.0590685,-0.0900947,0.145318,-0.126682,-0.0816549,0.00671387,0.0258636,0.00854492,0.0276566,0.0148773,0.0123215,0.0229645,0.0175476,-9.97986,0.0194168,-0.000495911,0.0131607,0.00774384,-0.00915527,-0.00442505,0.0167847,0.00453949
11,4,-9.99003,0.000610352,0.000305176,-2.4247,0.0553758,-0.0747579,0.0550435,0.0724962,-0.0910102,0.146234,-0.124851,-0.0825704,0.00923157,0.0249863,0.00629425,0.0403595,0.0137329,0.00839233,0.0208282,0.0179291,-9.97986,0.0171661,-0.00274658,0.0106049,0.0069809,-0.00801086,-0.00389099,0.0144958,0.00514984
11,5,-9.99003,0.00152588,0.00228882,-2.42562,0.0553758,-0.0753682,0.0574849,0.127733,-0.0855171,0.144708,-0.121494,-0.0816549,0.0132751,0.031395,0.00488281,0.0446701,0.0186157,0.0118256,0.020752,0.0139236,-9.97986,0.0182724,-0.00137329,0.0102615,0.0102615,0.0196075,0.00213623,0.0175858,0.00751495
11,6,-1.78447,-0.000305176,0.00350952,-2.42776,0.0550706,-0.0747579,0.0538228,0.146349,-0.0873481,0.143792,-0.121799,-0.0834859,0.00640869,0.0255203,0.00621796,0.0412369,0.0216293,0.00797272,0.0235367,0.0152588,-9.97986,0.0156021,-0.00118256,0.0128555,0.0069046,0.014267,0.000419617,0.0122452,0.00740051
11,7,6.19771,0.00213623,0.00442505,-2.42867,0.0535448,-0.0756734,0.0522969,0.153673,-0.088874,0.143487,-0.120884,-0.0856222,0.00843048,0.0300217,0.00801086,0.0337982,0.0188065,0.00869751,0.0249863,0.0154495,-9.97986,0.00976563,-0.00377655,0.0141144,0.00881195,0.01297,0.00358582,0.0179291,0.00816345
11,8,10.0097,0,0.00366211,-2.42989,0.0535448,-0.0775044,0.0519917,0.132616,-0.0952827,0.142267,-0.12363,-0.0880636,0.00862122,0.0237656,0.00675201,0.0263977,0.0156021,0.00709534,0.0281906,0.010376,-9.97986,0.0166702,-0.00286102,0.0118256,0.00873566,0.0207901,0.00225067,0.0156784,0.00694275
11,9,10.0097,0.000305176,0.000457764,-2.4305,0.0529344,-0.0762837,0.0498555,0.0935533,-0.0968086,0.143182,-0.125766,-0.0886739,0.0132751,0.0245285,0.00713348,0.018959,0.015831,0.00930786,0.0304413,0.0121689,-9.97986,0.0164795,-0.00328064,0.0127411,0.00324249,0.0222778,0.000495911,0.0160599,0.00679016
12,0,10.0097,0,0.000457764,-2.42989,0.0532396,-0.0759786,0.0501607,0.0801256,-0.0971137,0.142572,-0.125766,-0.0877584,0.00923157,0.0257492,0.0107574,0.0177383,0.0178146,0.00350952,0.0337601,0.0154114,-9.97986,0.0158691,-0.00553131,0.0154495,0.00747681,0.0231552,-0.00236511,0.0147247,0.00392914
12,1,10.0097,0,-0.000152588,-2.42867,0.0550706,-0.0759786,0.0510762,0.0724962,-0.0949775,0.143182,-0.126987,-0.0868429,0.00656128,0.0236893,0.0197601,0.0113678,0.0188065,0.0108337,0.03582,0.016098,-9.97986,0.0173569,-0.00198364,0.0118256,0.00827789,0.0228882,7.62939e-005,0.0167084,0.00968933
12,2,10.0097,-0.000610352,-0.000610352,-2.42745,0.0544603,-0.0753682,0.054128,0.0718859,-0.0937568,0.144403,-0.125766,-0.0859274,0.0144196,0.0278473,0.0188828,0.0117874,0.0160217,0.00526428,0.033989,0.0140762,-9.97986,0.0172806,-0.00362396,0.0127411,0.00728607,0.0219727,-0.000190735,0.0188446,0.00495911
12,3,10.0097,0.000305176,0.000305176,-2.42837,0.0547655,-0.0756734,0.0532125,0.0715807,-0.0937568,0.145929,-0.126377,-0.0834859,0.0123596,0.0302124,0.0201797,0.0107193,0.0137329,0.00667572,0.029335,0.0165558,-9.97986,0.0141907,-0.00141144,0.0120163,0.00610352,0.018692,0.0018692,0.0167465,0.0115204
12,4,10.0097,0,0,-2.42653,0.0547655,-0.0741475,0.0529073,0.0700548,-0.0916206,0.143792,-0.126072,-0.0837911,0.0088501,0.026741,0.0148392,0.00701904,0.013504,0.0062561,0.0218582,0.0181198,-9.97986,0.0191116,0.00038147,0.0112152,0.00217438,0.0206375,0.00587463,0.0150299,0.00785828
12,5,10.0097,-0.000305176,0.000610352,-2.4247,0.0572069,-0.073232,0.054128,0.0718859,-0.0916206,0.146234,-0.124546,-0.0828756,0.0138474,0.0304794,0.0204849,0.0088501,0.0165176,0.00869751,0.02285,0.014801,-9.97986,0.0128174,-0.00190735,0.0149918,0.00518799,0.0164032,0.00606537,0.0146103,0.00545502
12,6,10.0097,0.000915527,0.000305176,-2.42501,0.0578172,-0.0741475,0.0550435,0.0724962,-0.0913154,0.147149,-0.12363,-0.0810445,0.0100708,0.0272751,0.0231552,0.00823975,0.0177765,0.0105286,0.0231552,0.0188065,-9.97986,0.0119781,-0.00442505,0.0114059,0.00141144,0.0177383,0.00400543,0.0150299,0.00675201
12,7,10.0097,0.00152588,0.000152588,-2.42562,0.0550706,-0.0747579,0.0538228,0.0660875,-0.0928413,0.146539,-0.124851,-0.0807394,0.0114441,0.0303268,0.0233078,0.00938416,0.0157928,0.00740051,0.0271988,0.0218964,-9.97986,0.0163651,-0.00240326,0.0125885,0.00679016,0.0203323,-0.00457764,0.0141144,0.00862122
12,8,9.17317,0.000915527,-0.00198364,-2.42714,0.0562914,-0.0744527,0.0513814,0.0187853,-0.0974189,0.145318,-0.129123,-0.0837911,0.0111389,0.0270844,0.0221634,0.00385284,0.0195694,0.00957489,0.0292587,0.0227356,-9.97986,0.0128555,-0.00247955,0.0117111,0.00431061,0.0159454,-0.0150299,0.0140762,0.00614166
12,9,0.0121024,-0.000305176,-0.00442505,-2.42531,0.0575121,-0.073232,0.0532125,-0.00440808,-0.0952827,0.146844,-0.128208,-0.0813497,0.0114059,0.0247955,0.023613,0.00450134,0.0172424,0.00865936,0.0234604,0.0224686,-9.97986,0.0130844,-0.00213623,0.0120544,0.00442505,0.0213623,-0.0141525,0.0142288,0.00923157
13,0,-6.84733,0.000305176,-0.00473022,-2.42623,0.0559862,-0.0741475,0.054128,-0.0160048,-0.0955879,0.147455,-0.130344,-0.0813497,0.00953674,0.0240326,0.024147,0.00728607,0.0157166,0.0128555,0.0229645,0.0243378,-9.97986,0.0115967,-0.00087738,0.0131607,0.00526428,0.0228119,-0.00900269,0.0157928,0.00816345
13,1,-9.99003,0.000610352,-0.00335693,-2.42531,0.0562914,-0.0744527,0.0562642,0.0102404,-0.0928413,0.147455,-0.128818,-0.0807394,0.0117874,0.0315094,0.0255966,0.00659943,0.0188446,0.00976563,0.0263977,0.0279617,-9.97986,0.0143051,-0.000648499,0.0157928,0.00385284,0.019722,0.000991821,0.0137711,0.00892639
13,2,-9.99003,0.000610352,-0.00137329,-2.4247,0.055681,-0.0747579,0.0556539,0.0431993,-0.0897895,0.145318,-0.126377,-0.0813497,0.0115967,0.0320053,0.0292206,0.0082016,0.0164795,0.00747681,0.0267029,0.0272751,-9.97986,0.0130844,-0.00244141,0.0123596,0.00629425,-0.00305176,0.00614166,0.0168228,0.0102997
13,3,-9.99003,0.00152588,0,-2.42501,0.0535448,-0.0729268,0.0565694,0.0587633,-0.0913154,0.145929,-0.125766,-0.0825704,0.00976563,0.0313568,0.0304794,0.00934601,0.0172424,0.00888824,0.0279617,0.0233078,-9.97986,0.014801,0.00213623,0.0164795,0.0082016,-0.00259399,0.00434875,0.0128937,0.00854492
13,4,-9.99003,0.00183105,-0.000152588,-2.42562,0.0559862,-0.0744527,0.055959,0.0724962,-0.090705,0.145624,-0.125156,-0.0816549,0.0115204,0.0321579,0.0289536,0.00411987,0.0188446,0.00907898,0.0262451,0.0265503,-9.97986,0.0094223,0.000953674,0.0121689,0.00659943,0.00461578,0.00823975,0.0150681,0.00747681
13,5,-9.98729,0.000305176,0.00213623,-2.42562,0.0544603,-0.0738423,0.0565694,0.128038,-0.0867378,0.144708,-0.121494,-0.0819601,0.0107574,0.037384,0.026741,0.00312805,0.0169373,0.00999451,0.0223541,0.0241852,-9.97986,0.00686646,-0.00354767,0.0118256,0.00476837,0.018692,0.00938416,0.0169754,0.00595093
13,6,-1.77531,0,0.00366211,-2.42806,0.0550706,-0.0759786,0.0544332,0.142992,-0.0876533,0.143182,-0.121494,-0.0837911,0.0126266,0.0324631,0.0239944,0.00556946,0.0151825,0.0108337,0.0283432,0.0161362,-9.97986,0.0161743,0.00141144,0.0176239,0.00450134,0.0195313,0.00740051,0.0182343,0.00862122
13,7,6.07778,0.000610352,0.00473022,-2.42867,0.0535448,-0.0759786,0.0535176,0.152147,-0.090705,0.142877,-0.121799,-0.0850118,0.0088501,0.0318146,0.0221634,0.00152588,0.0174713,0.00926971,0.0304413,0.0154877,-9.97986,0.0160599,-0.0044632,0.0152588,0.00598907,0.0154114,0.00236511,0.0132751,0.00602722
13,8,10.0097,-0.000305176,0.00457764,-2.43081,0.0529344,-0.0759786,0.0513814,0.133837,-0.0946723,0.142877,-0.123935,-0.0880636,0.0153351,0.0292587,0.0219345,0.00404358,0.0133133,0.00961304,0.0290298,0.0114441,-9.97986,0.0114441,7.62939e-005,0.0154877,0.00869751,0.0182724,0.000648499,0.0152969,0.00434875
13,9,10.0097,-0.000915527,0.0012207,-2.4302,0.0526292,-0.0762837,0.050771,0.0932482,-0.0974189,0.142877,-0.126072,-0.0889791,0.0123215,0.0195313,0.0213623,0.00579834,0.0177765,0.0125885,0.0319672,0.00671387,-9.97986,0.0130844,-0.00442505,0.0133514,0.00595093,0.0188065,0.000114441,0.0157166,0.00667572
14,0,10.0097,0,-0.000305176,-2.42928,0.0553758,-0.0762837,0.050771,0.0789049,-0.0974189,0.143182,-0.126377,-0.0880636,0.0115204,0.0177002,0.018158,0.00343323,0.0174713,0.00831604,0.0257874,0.00709534,-9.97986,0.019989,-0.00167847,0.0132751,0.00740051,0.0141907,-0.00125885,0.00976563,0.00370026
14,1,10.0097,-0.000915527,0.000305176,-2.42959,0.0538499,-0.0753682,0.0535176,0.0752428,-0.0952827,0.144403,-0.126072,-0.0862325,0.0117874,0.0206757,0.0176239,0.00534058,0.0207901,0.0107574,0.0220871,0.00343323,-9.97986,0.0203705,-0.00148773,0.0144958,0.00751495,0.0188828,-0.000114441,0.0115967,0.00453949
14,2,10.0097,0.000305176,0.000152588,-2.42714,0.0547655,-0.075063,0.054128,0.0712755,-0.0943672,0.143182,-0.126987,-0.085317,0.0120163,0.00778198,0.0120544,0.00293732,0.0174713,0.00743866,0.017395,0.00904083,-9.97986,0.0183868,0.00114441,0.00854492,0.00709534,0.0175858,0.000267029,0.015564,0.0056076
14,3,10.0097,0,-0.000152588,-2.42714,0.0541551,-0.0747579,0.054128,0.072191,-0.0952827,0.144403,-0.126072,-0.085317,0.011673,0.00919342,0.00923157,0.00709534,0.0183868,0.0117874,0.0242996,0.0117874,-9.97986,0.018692,0.000190735,0.0143051,0.00774384,0.0141907,0.00183105,0.0140762,0.00465393
14,4,10.0097,-0.00244141,0.000457764,-2.42592,0.0553758,-0.0753682,0.0529073,0.0709703,-0.0925361,0.145318,-0.126377,-0.0834859,0.0104904,0.00938416,0.0019455,0.00671387,0.0190735,0.00766754,0.0220871,0.0126648,-9.97986,0.0153351,-0.00209808,0.0152969,0.00812531,0.0174332,-0.0031662,0.013504,0.0062561
14,5,10.0097,0,0.000762939,-2.42531,0.0565965,-0.073232,0.0556539,0.0706652,-0.0928413,0.145318,-0.12302,-0.0822652,0.00709534,0.0114441,0.0111008,0.00495911,0.0191498,0.011673,0.0183868,0.0188828,-9.97986,0.0205994,-0.00114441,0.00778198,0.00812531,0.0168228,0.000495911,0.0170898,0.00808716
14,6,10.0097,0.00244141,0.000152588,-2.42501,0.0562914,-0.0729268,0.0544332,0.0724962,-0.0913154,0.146844,-0.124546,-0.0810445,0.0115204,0.0125885,0.0144577,0.0018692,0.0214767,0.010376,0.0183868,0.0108719,-9.97986,0.0185013,0.00221252,0.0133133,0.00396729,0.0187683,-0.000762939,0.0150681,0.0102997
14,7,10.0097,0.00366211,0.000305176,-2.42501,0.0565965,-0.0744527,0.0532125,0.0682238,-0.0931465,0.145929,-0.124546,-0.0834859,0.0110245,0.0141144,0.0168991,0.0105667,0.0180054,0.0088501,0.0236893,0.0160217,-9.97986,0.0164795,0.000419617,0.015831,0.00972748,0.0175095,-0.00286102,0.0132751,0.00732422
14,8,9.30226,0.000610352,-0.00244141,-2.42776,0.0559862,-0.0747579,0.0526021,0.0181749,-0.0971137,0.145624,-0.128208,-0.0831808,0.0112915,0.0188446,0.0239944,0.00404358,0.0197983,0.0137711,0.0229645,0.0131607,-9.97986,0.0154877,0.00305176,0.0174332,0.00980377,0.0185013,0.000457764,0.0172043,0.00785828
14,9,0.213518,0.00213623,-0.00427246,-2.42562,0.0584276,-0.0744527,0.0519917,-0.00471326,-0.0977241,0.146844,-0.129429,-0.0819601,0.00823975,0.00938416,0.0107193,0.00465393,0.0211716,0.00614166,0.0224686,0.0174713,-9.97986,0.014267,0.000534058,0.0154495,0.00598907,0.0191879,-0.00137329,0.013237,0.00419617
15,0,-6.66667,-0.0012207,-0.00457764,-2.42501,0.0569017,-0.0744527,0.0550435,-0.0147841,-0.0949775,0.146234,-0.129429,-0.0819601,0.00862122,0.0119781,0.0112915,0.00537872,0.0218964,0.00999451,0.0191116,0.0187302,-9.97986,0.0193405,0.00320435,0.0167847,0.0075531,0.0196457,-0.0018692,0.0129318,0.00587463
15,1,-9.99003,0,-0.00305176,-2.4244,0.0559862,-0.0735371,0.0553487,0.0123766,-0.0937568,0.147149,-0.127903,-0.0813497,0.0111771,0.0183487,0.0168228,0.00686646,0.0197983,0.0128174,0.0180435,0.0157166,-9.97986,0.0172043,0.00217438,0.0178146,0.0087738,0.0191116,-0.001297,0.0169373,0.00701904
15,2,-9.99003,0.000915527,-0.00137329,-2.42562,0.0562914,-0.0735371,0.055959,0.0404528,-0.090705,0.145624,-0.126987,-0.0816549,0.00961304,0.0174713,0.0178146,0.00286102,0.0162506,0.0115204,0.0221252,0.0157166,-9.97986,0.0157166,-0.000686646,0.0173187,0.00591278,-0.0118637,-0.00743866,0.0162888,0.00846863
15,3,-9.99003,0.000305176,-0.000305176,-2.42562,0.0553758,-0.0744527,0.0547383,0.058153,-0.0916206,0.145318,-0.126377,-0.0816549,0.00873566,0.0163651,0.020256,0.00720978,0.0157166,0.017128,0.0177383,0.0174713,-9.97986,0.0168991,0.00297546,0.0136185,0.00846863,-0.00682831,-0.00286102,0.0167847,0.00457764
15,4,-9.99003,0.000305176,0.000152588,-2.42592,0.055681,-0.0747579,0.0550435,0.0743273,-0.0897895,0.145929,-0.125461,-0.0816549,0.0101089,0.0182343,0.018692,0.00858307,0.0200272,0.0121689,0.0194931,0.0170135,-9.97986,0.0157547,0.00366211,0.0115967,0.0087738,-0.000495911,-0.00087738,0.0159073,0.00431061
15,5,-9.91252,0.0012207,0.00183105,-2.42562,0.0559862,-0.0738423,0.0577901,0.128038,-0.0849067,0.145318,-0.121189,-0.0819601,0.0104141,0.0161743,0.0146866,0.00934601,0.0175476,0.0111389,0.0181198,0.0206757,-9.97986,0.0128555,-0.000724792,0.0127029,0.00854492,0.0191879,0.000572205,0.0169754,0.00663757
15,6,-1.54613,0.00152588,0.00350952,-2.42867,0.0535448,-0.0735371,0.054128,0.144823,-0.0882636,0.144098,-0.121799,-0.0847066,0.0108719,0.0188065,0.00881195,0.0101471,0.0195694,0.00991821,0.0216293,0.0214386,-9.97986,0.014801,0.00160217,0.0141907,0.00904083,0.0180817,0.001297,0.0167465,0.00572205
15,7,6.36312,0.00183105,0.0050354,-2.42806,0.0544603,-0.0759786,0.0550435,0.154283,-0.0897895,0.142572,-0.121799,-0.0850118,0.00675201,0.0195694,0.0127029,0.00926971,0.0148773,0.0104904,0.0195313,0.0178146,-9.97986,0.0147629,-0.0025177,0.0146866,0.00675201,0.0191498,0.000457764,0.0175476,0.00530243
15,8,10.0097,-0.000610352,0.00396729,-2.43081,0.0523241,-0.0771993,0.050771,0.13048,-0.0943672,0.142572,-0.123325,-0.0880636,0.0100708,0.0163269,0.0136185,0.00766754,0.0173187,0.00717163,0.0196075,0.0170898,-9.97986,0.0159836,-0.00293732,0.0133133,0.00751495,0.0189972,-0.00152588,0.0135803,0.00495911
15,9,10.0097,0.000305176,0.000915527,-2.43111,0.0535448,-0.0756734,0.0501607,0.0926378,-0.0968086,0.144403,-0.125766,-0.0880636,0.00995636,0.0221252,0.0146866,0.00778198,0.0174332,0.0123596,0.0218582,0.0195313,-9.97986,0.0149155,0.00385284,0.016861,0.00770569,0.0186157,-0.00213623,0.015564,0.00572205
16,0,10.0097,0,0.000305176,-2.42928,0.0532396,-0.0762837,0.0510762,0.0776842,-0.0961982,0.142267,-0.127292,-0.0877584,0.00793457,0.0204849,0.0201416,0.00835419,0.0170898,0.0128937,0.0217819,0.0219345,-9.97986,0.0087738,-0.000839233,0.0144958,0.00553131,0.0158691,-0.00591278,0.0137329,0.00255585
16,1,10.0097,0,0.000610352,-2.4302,0.0550706,-0.0747579,0.050771,0.0746324,-0.0955879,0.145013,-0.126987,-0.0871481,0.0162888,0.0259399,0.0255203,0.014801,0.022316,0.0156403,0.0273514,0.0242233,-9.97986,0.0179672,0.00900269,0.0166321,0.0134659,0.022049,0.00171661,0.0199127,0.0101089
16,2,10.0097,0.00274658,-0.000915527,-2.42745,0.0538499,-0.0759786,0.0519917,0.0724962,-0.0946723,0.144708,-0.126377,-0.085317,0.00507355,0.0160217,0.0165939,0.00289917,0.013504,0.00839233,0.0199509,0.0162125,-9.97986,0.00865936,-0.00637054,0.00965118,0.00278473,0.0121689,-0.00732422,0.0126648,0.00133514
16,3,10.0097,0,-0.000152588,-2.42714,0.0550706,-0.0744527,0.0532125,0.072191,-0.0946723,0.145013,-0.126072,-0.0844015,0.014534,0.0288391,0.0311279,0.0126266,0.0211334,0.0157547,0.0246429,0.0247192,-9.97986,0.0167465,0.00469208,0.0159073,0.00671387,0.0167084,-0.00400543,0.0189209,0.00858307
16,4,10.0097,-0.000305176,0.000152588,-2.42776,0.0550706,-0.0741475,0.0529073,0.0709703,-0.094062,0.145013,-0.125461,-0.0834859,0.00648499,0.0260925,0.0253677,0.0044632,0.0191116,0.0113297,0.0182343,0.0218582,-9.97986,0.0120163,0.00144958,0.0133514,0.00736237,0.0162888,0.00148773,0.0197983,0.00717163
16,5,10.0097,0.000305176,0.000457764,-2.42501,0.0569017,-0.0735371,0.0544332,0.0712755,-0.0916206,0.146234,-0.124546,-0.0819601,0.00907898,0.0265503,0.025177,0.00717163,0.0168228,0.01194,0.0176239,0.0288391,-9.97986,0.0136185,0.00217438,0.0178909,0.00858307,0.0128555,0.000839233,0.0142288,0.00514984
16,6,10.0097,-0.000610352,0,-2.4247,0.0572069,-0.0744527,0.0544332,0.0718859,-0.0925361,0.145929,-0.124546,-0.0813497,0.00988007,0.0284958,0.0264359,0.0119019,0.0155258,0.0128174,0.0153732,0.0242233,-9.97986,0.0113678,-0.00370026,0.0121689,0.00629425,0.0123215,0.000839233,0.0143814,0.00545502
16,7,10.0097,0.00213623,0.000915527,-2.42562,0.0569017,-0.0753682,0.0556539,0.0694445,-0.0934516,0.146844,-0.124851,-0.0807394,0.00858307,0.0265884,0.0283432,0.0137711,0.0190353,0.0130844,0.0226593,0.022316,-9.97986,0.0150681,0.00293732,0.0174713,0.0104141,0.0157547,-0.000114441,0.0170135,0.0056839
16,8,9.27999,0.000305176,-0.00289917,-2.42684,0.0550706,-0.0741475,0.0522969,0.020006,-0.0974189,0.146234,-0.126682,-0.0834859,0.0122452,0.0286102,0.0237656,0.0109482,0.0149155,0.0110245,0.0177002,0.0237274,-9.97986,0.0094986,-0.00228882,0.0168991,0.00453949,0.0167084,-0.00469208,0.0162125,0.00606537
16,9,0.13875,0.000305176,-0.0050354,-2.42501,0.0575121,-0.0738423,0.0538228,-0.00379773,-0.095893,0.146234,-0.128513,-0.0807394,0.0151062,0.0273514,0.0256348,0.0254059,0.0154114,0.0112152,0.0214767,0.0208664,-9.97986,0.0156784,0.000190735,0.0159073,0.00553131,0.01297,-0.0227737,0.0159454,0.00617981
17,0,-6.77714,0.000610352,-0.00427246,-2.42653,0.055681,-0.0738423,0.054128,-0.0169203,-0.0968086,0.146844,-0.129734,-0.0813497,0.01194,0.0220871,0.0196075,0.0302887,0.0130463,0.0104523,0.0216675,0.019455,-9.97986,0.0153732,0.000190735,0.0164795,0.00816345,0.0145721,-0.0341034,0.0163651,0.00980377
17,1,-9.99003,-0.000305176,-0.00289917,-2.42501,0.0559862,-0.0735371,0.0544332,0.00932483,-0.0922309,0.146844,-0.128513,-0.0810445,0.00926971,0.0185013,0.0120926,0.0263214,0.0142288,0.00720978,0.022049,0.0214386,-9.97986,0.0151825,-0.0031662,0.0129318,0.00720978,0.0108337,-0.0333786,0.0131989,0.00652313
17,2,-9.99003,0.000305176,-0.00167847,-2.42592,0.0553758,-0.0738423,0.0571797,0.0428942,-0.0894843,0.147149,-0.126682,-0.0807394,0.0121307,0.0378036,0.0193405,0.0177765,0.016098,0.0141144,0.0227737,0.0220871,-9.97986,0.0137329,0.000495911,0.0131607,0.00606537,-0.0114441,-0.0170135,0.0157928,0.00793457
17,3,-9.99003,0.000610352,0,-2.42531,0.055681,-0.0738423,0.0550435,0.0584581,-0.0922309,0.145013,-0.126072,-0.0825704,0.0087738,0.0522232,0.0241852,-0.00831604,0.018692,0.0130081,0.0181198,0.019989,-9.97986,0.0156784,0.000839233,0.0157547,0.00762939,-0.00640869,-0.0104523,0.0144196,0.00801086
17,4,-9.99003,-0.000305176,0.000457764,-2.42562,0.0553758,-0.0747579,0.0547383,0.0731066,-0.0903999,0.145624,-0.125156,-0.0822652,0.0144958,0.0530624,0.0234985,-0.0185394,0.0127792,0.014267,0.018959,0.0226974,-9.97986,0.0129318,-0.00572205,0.014534,0.00167847,-0.00404358,-0.00362396,0.0140762,0.0043869
17,5,-9.99003,-0.000305176,0.00167847,-2.42592,0.0550706,-0.0738423,0.0574849,0.127123,-0.0849067,0.145929,-0.12241,-0.0819601,0.0120544,0.050087,0.0242615,-0.0112534,0.0143433,0.0117493,0.0160599,0.0188828,-9.97986,0.0141144,-0.00160217,0.0152969,0.00789642,0.018158,0.00358582,0.0149918,0.00827789
17,6,-1.72069,0.000610352,0.00366211,-2.42745,0.0538499,-0.0741475,0.0556539,0.143907,-0.0879585,0.144403,-0.121189,-0.0840963,0.0146103,0.041275,0.0250244,0.00507355,0.00965118,0.0108719,0.0170517,0.00991821,-9.97986,0.0106049,-0.00270844,0.0163651,0.00461578,0.00972748,0.00968933,0.0152969,0.00785828
17,7,6.19985,0,0.00488281,-2.42806,0.0547655,-0.0759786,0.0532125,0.154894,-0.0900947,0.143487,-0.122104,-0.0850118,0.0128937,0.0352478,0.0162125,0.0241089,0.0175476,0.00934601,0.0180435,-0.00228882,-9.97986,0.0123978,-0.00537872,0.0193024,0.00461578,0.0172806,0.0131226,0.0176239,0.0043869
17,8,10.0097,0,0.0050354,-2.43111,0.0526292,-0.0765889,0.0510762,0.130174,-0.0943672,0.143487,-0.124851,-0.0880636,0.010643,0.0106812,0.0173187,0.026474,0.0177002,0.00896454,0.018692,-0.00522614,-9.97986,0.0133133,-0.00530243,0.014267,0.0056839,0.0178146,0.0104141,0.0168991,0.00831604
17,9,10.0097,-0.000305176,0.000610352,-2.43111,0.0538499,-0.0759786,0.0510762,0.0926378,-0.0977241,0.143182,-0.126072,-0.0892843,0.00663757,0.00038147,0.0206375,0.0167847,0.0162125,0.01194,0.0189972,0.00522614,-9.97986,0.0196075,-0.00343323,0.017395,0.00770569,0.0183868,0.0105286,0.0154114,0.00518799
18,0,10.0097,-0.000305176,0,-2.42959,0.0538499,-0.0762837,0.0510762,0.0782946,-0.0977241,0.143487,-0.126377,-0.0880636,0.0106812,0.01091,0.0246048,0.00980377,0.0198746,0.0094986,0.0222778,0.0111771,-9.97986,0.017395,-0.00343323,0.0156784,0.00591278,0.0163651,0.00953674,0.0154495,0.00587463
18,1,10.0097,0.000305176,-0.000610352,-2.42989,0.0544603,-0.0753682,0.0519917,0.0737169,-0.095893,0.142572,-0.126377,-0.0871481,0.00774384,0.0144577,0.0261688,0.013237,0.017662,0.00976563,0.0224686,0.0155258,-9.97986,0.0152206,-0.00431061,0.0120544,0.00972748,0.0161362,0.00541687,0.0160599,0.00537872
18,2,10.0097,-0.00183105,-0.000305176,-2.42837,0.0553758,-0.0747579,0.0529073,0.0724962,-0.094062,0.147149,-0.126377,-0.0862325,0.00892639,0.0194168,0.0210953,-0.00762939,0.0196457,0.00968933,0.0201035,0.0141144,-9.97986,0.0195694,-0.00278473,0.0187302,0.0018692,0.018158,0.00473022,0.0135803,0.00587463
18,3,10.0097,-0.000915527,0.000152588,-2.42776,0.0547655,-0.0741475,0.0538228,0.072191,-0.0928413,0.145013,-0.126072,-0.0847066,0.00839233,0.0196457,0.0246429,0.00217438,0.0215912,0.013504,0.023613,0.0134277,-9.97986,0.0189972,-0.00793457,0.0139236,0.00278473,0.0174713,0.00427246,0.017395,0.00293732
18,4,10.0097,-0.000305176,0,-2.42714,0.0550706,-0.0747579,0.0538228,0.0706652,-0.0934516,0.145624,-0.125461,-0.0837911,0.00499725,0.0119019,0.0132751,0.0318527,0.0170517,0.00923157,0.0233078,0.0165939,-9.97986,0.0167465,-0.0037384,0.0164413,0.00556946,0.0192642,0.0019455,0.0151062,0.00465393
18,5,10.0097,-0.000305176,0.000305176,-2.42562,0.0559862,-0.0729268,0.0547383,0.0715807,-0.0919257,0.145929,-0.125461,-0.0825704,0.00740051,0.0128174,-0.0063324,0.044899,0.0159454,0.00965118,0.0244522,0.0182724,-9.97986,0.0182343,-0.00480652,0.0164413,0.00366211,0.0209045,-0.00293732,0.0151062,0.00507355
18,6,10.0097,0.000915527,0,-2.42592,0.0559862,-0.0744527,0.0547383,0.0715807,-0.0897895,0.145624,-0.124546,-0.0804342,0.0102615,0.0159454,-0.0109482,0.0279617,0.0166702,0.0138474,0.0262833,0.0210953,-9.97986,0.0165939,-0.0031662,0.0175858,0.00255585,0.0167847,-0.00164032,0.0180435,0.00453949
18,7,10.0097,0.00152588,0,-2.42653,0.0562914,-0.0738423,0.0532125,0.0676134,-0.0919257,0.14776,-0.124851,-0.0813497,0.0094223,0.0177002,-0.00274658,0.0125885,0.0158691,0.0101852,0.0270081,0.0169373,-9.97986,0.0153351,-0.00553131,0.0127029,0.0043869,0.018425,-0.00423431,0.0176239,0.00480652
18,8,9.2983,0,-0.00198364,-2.42745,0.0562914,-0.0753682,0.0510762,0.0190905,-0.0971137,0.144708,-0.128208,-0.0828756,0.0115967,0.0239944,0.000228882,0.00858307,0.0183487,0.0116348,0.0297546,0.0172806,-9.97986,0.0167465,-0.00610352,0.0133896,0.001297,0.0156403,-0.00495911,0.0150681,0.00587463
18,9,0.252581,0.00274658,-0.00457764,-2.4244,0.0575121,-0.0726216,0.0535176,-0.0028822,-0.0946723,0.145929,-0.128513,-0.0810445,0.0075531,0.0199127,0.000648499,0.011673,0.0146484,0.0125885,0.0248718,0.0186539,-9.97986,0.0174713,-0.00461578,0.0148773,0.00705719,0.018692,-0.00835419,0.0164413,0.00720978
19,0,-6.57359,0.000915527,-0.0050354,-2.42531,0.0581224,-0.073232,0.054128,-0.0147841,-0.0955879,0.147149,-0.130344,-0.0816549,0.00808716,0.0219345,0.00679016,0.0031662,0.0186157,0.0125122,0.0231552,0.0207138,-9.97986,0.0152588,0.0012207,0.011673,0.00862122,0.0157547,-0.0106049,0.0160599,0.00850677
19,1,-9.99003,-0.000610352,-0.00289917,-2.4247,0.0569017,-0.0726216,0.055959,0.00963,-0.0925361,0.146539,-0.128208,-0.0807394,0.00835419,0.0218201,0.0126648,0.00400543,0.0175095,0.0123215,0.0200272,0.0235748,-9.97986,0.0171661,-0.001297,0.0180817,0.00507355,0.0178909,-0.00549316,0.0128937,0.00789642
19,2,-9.99003,-0.000610352,-0.00152588,-2.42531,0.055681,-0.0747579,0.0556539,0.0419786,-0.0897895,0.146539,-0.126377,-0.0813497,0.00793457,0.0208282,0.0192642,0.00999451,0.0175858,0.01194,0.0248337,0.0167465,-9.97986,0.0164413,-0.00499725,0.0133133,0.00640869,-0.0050354,-0.00431061,0.0148392,0.00789642
19,3,-9.99003,0.00183105,-0.000610352,-2.42531,0.0559862,-0.0744527,0.0553487,0.058153,-0.0916206,0.145929,-0.126987,-0.0828756,0.01194,0.023613,0.0172043,0.015831,0.0157547,0.00896454,0.0214767,0.0162506,-9.97986,0.0180817,-0.00144958,0.0162506,0.00640869,-0.00778198,-0.00980377,0.0156784,0.00606537
19,4,-9.99003,0.0012207,0.000457764,-2.42562,0.0559862,-0.0741475,0.0547383,0.0749376,-0.0900947,0.144708,-0.125156,-0.0822652,0.0119781,0.0233841,0.0167847,0.00484467,0.0194168,0.0088501,0.0217438,0.0151825,-9.97986,0.0118256,-0.0038147,0.0120544,0.0101089,-0.00442505,-0.00602722,0.0191116,0.00518799
19,5,-9.99003,0.000915527,0.00213623,-2.42623,0.0553758,-0.0744527,0.0568746,0.126817,-0.0852119,0.146539,-0.121799,-0.0825704,0.0100708,0.0251007,0.0212479,0.0131989,0.0164413,0.0122833,0.0247192,0.0171661,-9.97986,0.0148392,-0.00331879,0.015831,0.00541687,0.0191498,-0.00640869,0.0143051,0.000228882
19,6,-1.68101,0.0012207,0.00350952,-2.42714,0.0535448,-0.075063,0.0544332,0.143907,-0.0882636,0.142572,-0.121799,-0.085317,0.0107574,0.0253296,0.0180435,0.0325394,0.0168991,0.0106049,0.0273514,0.0165558,-9.97986,0.0121307,-0.00320435,0.0144196,0.00453949,0.0211334,-0.00377655,0.0184631,0.00648499
19,7,6.17086,-0.000610352,0.00473022,-2.42776,0.0535448,-0.0765889,0.0535176,0.154588,-0.088874,0.144708,-0.120578,-0.0859274,0.0123596,0.0266647,0.0221634,0.0380707,0.0136185,0.0101089,0.0304031,0.0189209,-9.97986,0.0130463,-0.00358582,0.0147629,0.00717163,0.0196838,0.000801086,0.018425,0.00526428
19,8,10.0097,0,0.00457764,-2.4305,0.0529344,-0.0762837,0.0519917,0.132921,-0.0949775,0.143487,-0.124546,-0.0877584,0.00938416,0.0247192,0.0218201,0.029335,0.0166321,0.00808716,0.0281525,0.0193024,-9.97986,0.0142288,-0.00171661,0.0118256,0.001297,0.0187683,-0.00312805,0.0117874,0.00152588
19,9,10.0097,0.00213623,0.00152588,-2.43111,0.0532396,-0.0765889,0.0495503,0.0941637,-0.0977241,0.143182,-0.124851,-0.0886739,0.0114822,0.02491,0.0246429,0.0240707,0.017395,0.0124359,0.0298691,0.0188446,-9.97986,0.0165176,-0.00213623,0.0123978,0.00553131,0.0181961,-0.0062561,0.0183868,0.00488281
20,0,10.0097,0.00152588,-0.000762939,-2.4302,0.0535448,-0.0762837,0.050771,0.0792101,-0.0965034,0.143182,-0.127292,-0.0886739,0.013504,0.0264359,0.0260162,0.0166321,0.0167465,0.0112534,0.0254822,0.0159454,-9.97986,0.0147247,-0.00652313,0.0128555,0.00324249,0.0158691,-0.000839233,0.0186539,0.00339508
20,1,10.0097,-0.000610352,0.000305176,-2.42806,0.0532396,-0.0756734,0.0532125,0.0734117,-0.0955879,0.142877,-0.125766,-0.0865377,0.0144196,0.0239944,0.0292969,0.0177002,0.0149918,0.0114822,0.0234604,0.0171661,-9.97986,0.0168991,-0.00480652,0.0166321,0.00221252,0.018425,0.00087738,0.014534,0.00453949
20,2,10.0097,-0.000305176,0.000152588,-2.42806,0.0550706,-0.0747579,0.0532125,0.0724962,-0.094062,0.143792,-0.126987,-0.085317,0.0128937,0.0262833,0.0286865,0.0170135,0.0189972,0.00595093,0.0182343,0.0207901,-9.97986,0.0172424,-0.00587463,0.0144958,0.00312805,0.0139236,-0.00423431,0.0165176,0.00701904
20,3,10.0097,0.000610352,0.000305176,-2.42714,0.0547655,-0.0744527,0.0532125,0.0715807,-0.0934516,0.145318,-0.126072,-0.0844015,0.00988007,0.0231171,0.0217056,0.0131989,0.0168991,0.00663757,0.0166702,0.0197601,-9.97986,0.0190735,-0.00427246,0.0131607,0.00709534,0.0162506,-0.00434875,0.0164032,0.00762939
20,4,10.0097,0.000610352,0.0012207,-2.42592,0.0559862,-0.0744527,0.0535176,0.0709703,-0.0922309,0.145013,-0.124851,-0.0840963,0.0134277,0.0286865,0.0224304,0.0180435,0.0188828,0.0106812,0.0172806,0.0214005,-9.97986,0.0138474,-0.00160217,0.0151062,0.00850677,0.0125122,-0.00522614,0.0152206,0.00484467
20,5,10.0097,-0.0012207,-0.000152588,-2.42562,0.0559862,-0.0735371,0.0550435,0.0706652,-0.0931465,0.147455,-0.123935,-0.0810445,0.00602722,0.0286484,0.0172043,0.0137329,0.0147247,0.0105667,0.0157547,0.0217438,-9.97986,0.0164413,-0.00221252,0.0132751,0.00526428,0.0137329,-0.0124359,0.0138474,0.00343323
20,6,10.0097,0,0.000152588,-2.4247,0.055681,-0.0747579,0.0544332,0.072191,-0.0922309,0.145929,-0.123935,-0.0813497,0.0146484,0.0248718,0.0126648,0.0135422,0.0156403,0.00846863,0.018692,0.0208282,-9.97986,0.0172043,-0.00175476,0.0130081,0.0056839,0.0183487,-0.016098,0.0178909,0.00648499
20,7,10.0097,0.000305176,0.000305176,-2.42531,0.0565965,-0.0744527,0.0532125,0.0666979,-0.0928413,0.147149,-0.124241,-0.0813497,0.0119019,0.026474,0.0157928,0.0131989,0.0214005,0.0087738,0.0159454,0.0244522,-9.97986,0.0146866,-0.00377655,0.0136566,0.00587463,0.0177002,-0.00785828,0.0157928,0.00537872
20,8,9.16799,0.00152588,-0.00167847,-2.42806,0.0553758,-0.0753682,0.0522969,0.0187853,-0.0989448,0.147149,-0.127903,-0.0828756,0.0125885,0.0283432,0.0151443,0.0137711,0.0203705,0.00907898,0.0211716,0.0256348,-9.97986,0.0120163,0.00453949,0.0137711,0.00331879,0.0178146,-0.0115204,0.0162506,0.00488281
20,9,0.014849,0.0012207,-0.00457764,-2.42379,0.0562914,-0.0729268,0.0532125,-0.00379773,-0.0961982,0.146234,-0.129123,-0.0816549,0.0114059,0.0276184,0.015564,0.0115967,0.021286,0.0128174,0.0244141,0.0254059,-9.97986,0.016098,0.000953674,0.0160599,0.00442505,0.0199509,-0.00110626,0.0181198,0.00720978
21,0,-6.79698,0.000610352,-0.00457764,-2.4244,0.0565965,-0.073232,0.0522969,-0.0144789,-0.0974189,0.146539,-0.129429,-0.0807394,0.0108719,0.0278091,0.0153351,0.0122452,0.0157928,0.00556946,0.0228119,0.0236893,-9.97986,0.015831,0.000419617,0.0143814,0.00484467,0.0181961,-0.000572205,0.0165176,0.00469208
21,1,-9.99003,0,-0.00289917,-2.4244,0.0553758,-0.0747579,0.0556539,0.0102404,-0.0925361,0.146234,-0.129429,-0.0810445,0.0137711,0.0265884,0.018158,0.0108719,0.0133133,0.0108719,0.0222397,0.0223923,-9.97986,0.0165939,-0.000534058,0.0144958,0.0030899,0.0133133,0.00106812,0.0183868,0.00553131
21,2,-9.99003,0.00152588,-0.00152588,-2.4247,0.0572069,-0.0738423,0.0556539,0.0428942,-0.0900947,0.145624,-0.126682,-0.0810445,0.0118256,0.0283432,0.0170135,0.0110245,0.0185013,0.0105667,0.0230789,0.0232697,-9.97986,0.0117111,0.00202179,0.0112915,0.00522614,-0.00865936,-0.00183105,0.0173187,0.00736237
21,3,-9.99003,0.000610352,-0.000305176,-2.42531,0.0547655,-0.0753682,0.0544332,0.0569322,-0.0903999,0.145318,-0.126987,-0.0828756,0.0100708,0.0318527,0.0156021,0.0139236,0.0218582,0.00839233,0.0198746,0.0181961,-9.97986,0.013237,0.00175476,0.0157547,0.00732422,-0.00705719,0.00328064,0.015831,0.00473022
21,4,-9.99003,0.00183105,0.000457764,-2.42592,0.055681,-0.0747579,0.0550435,0.0718859,-0.090705,0.145318,-0.125461,-0.0819601,0.0131989,0.0273132,0.0207138,0.00675201,0.0191116,0.0104141,0.0179291,0.0147247,-9.97986,0.0140381,0.00274658,0.0117493,0.00583649,-0.00583649,0.00144958,0.0172424,0.0075531
21,5,-9.99003,0.000610352,0.00183105,-2.42501,0.055681,-0.0744527,0.055959,0.126512,-0.0846015,0.145929,-0.121799,-0.0825704,0.0121689,0.028038,0.0222397,0.00492096,0.0196457,0.0115204,0.0144958,0.0127029,-9.97986,0.0116348,-0.00297546,0.0161362,0.00236511,0.0143433,0.000114441,0.016861,0.00583649
21,6,-1.86137,-0.000610352,0.00411987,-2.42837,0.0538499,-0.0753682,0.054128,0.141771,-0.0885688,0.142877,-0.122715,-0.0837911,0.0116348,0.030899,0.0209808,0.00762939,0.0217819,0.0136566,0.0150681,0.0111389,-9.97986,0.0161743,0.000305176,0.0102234,0.00534058,0.016861,0.000648499,0.0182724,0.00865936
21,7,6.00362,0,0.00457764,-2.42898,0.0532396,-0.0762837,0.0529073,0.153978,-0.088874,0.144708,-0.120273,-0.0856222,0.0111389,0.0266266,0.0173187,0.0119019,0.0183487,0.0101089,0.0187683,0.00976563,-9.97986,0.0131989,0.00255585,0.0175858,0.00694275,0.0177765,0.00534058,0.0195694,0.00728607
21,8,10.0097,0.000305176,0.00396729,-2.42898,0.0541551,-0.0765889,0.050771,0.134752,-0.0937568,0.143792,-0.124241,-0.0880636,0.0117111,0.0276947,0.0148392,0.00888824,0.016861,0.00583649,0.0153351,0.0105667,-9.97986,0.0186539,0.000419617,0.0140762,0.00202179,0.0143814,0.00671387,0.018158,0.00476837
21,9,10.0097,-0.0012207,0.00137329,-2.4305,0.0523241,-0.0765889,0.050771,0.0932482,-0.0983344,0.142572,-0.125156,-0.0883688,0.0128174,0.0385284,0.0172424,0.00968933,0.0191116,0.00801086,0.0204849,0.0104523,-9.97986,0.0156784,0.00205994,0.00808716,0.000686646,0.0164795,0.00221252,0.0173187,0.00389099
22,0,10.0097,-0.000915527,0.000152588,-2.42989,0.0535448,-0.0762837,0.0504659,0.0789049,-0.0961982,0.143487,-0.126682,-0.0883688,0.00957489,0.0375748,0.0181961,0.00694275,0.0151825,0.00846863,0.0214767,0.0154495,-9.97986,0.0170135,0.00198364,0.0166702,0.00537872,0.0179672,0.00171661,0.014534,0.0050354
22,1,10.0097,0.0012207,0.000305176,-2.42776,0.0550706,-0.0747579,0.0516866,0.0743273,-0.0949775,0.143792,-0.126682,-0.0865377,0.0117111,0.0164032,0.0152206,0.00747681,0.020256,0.0127029,0.018959,0.0137329,-9.97986,0.0175095,-0.0037384,0.0128937,0.0044632,0.0135422,-0.00144958,0.0167847,0.00728607
22,2,10.0097,0.00183105,0.000152588,-2.42714,0.0544603,-0.075063,0.0532125,0.0728014,-0.0931465,0.142877,-0.126682,-0.0859274,0.0138092,-0.00492096,0.0139618,0.00617981,0.0175095,0.00816345,0.0217438,0.0126648,-9.97986,0.0139618,0.000648499,0.00862122,0.00232697,0.0151443,-0.00125885,0.0139618,0.00495911
22,3,10.0097,0.00183105,0.000610352,-2.42776,0.0550706,-0.0756734,0.0516866,0.0712755,-0.0937568,0.145929,-0.125766,-0.0847066,0.00835419,-0.00362396,0.0196075,0.00736237,0.021019,0.0102234,0.03479,0.0161743,-9.97986,0.0185013,-7.62939e-005,0.0128937,0.00816345,0.0226593,0.00110626,0.0192642,0.00495911
22,4,10.0097,-0.000610352,0.000305176,-2.42684,0.0559862,-0.0759786,0.0535176,0.0712755,-0.0928413,0.145624,-0.126072,-0.0837911,0.010643,-0.00133514,0.0159073,0.00431061,0.0191116,0.00671387,0.0312805,0.0185013,-9.97986,0.0156403,0.000801086,0.00881195,0.00679016,0.0214386,-0.00335693,0.0171661,0.0012207
22,5,10.0097,0.000305176,0.000457764,-2.4247,0.0578172,-0.0735371,0.0550435,0.0718859,-0.0928413,0.146234,-0.125461,-0.0810445,0.0143433,0.00644684,0.0191498,0.00621796,0.011673,0.00656128,0.0289536,0.0141525,-9.97986,0.0167465,-0.000114441,0.00839233,0.00766754,0.0156021,-0.00682831,0.0176239,0.00297546
22,6,10.0097,0.000610352,0.000457764,-2.42684,0.0562914,-0.073232,0.0544332,0.0706652,-0.090705,0.147455,-0.123935,-0.0813497,0.0082016,0.0170898,0.0252151,0.00637054,0.0178146,0.00854492,0.031929,0.0184631,-9.97986,0.0169373,0.00465393,0.0140381,0.00610352,0.0191498,-0.00217438,0.014267,0.00160217
22,7,10.0097,0.00183105,0.000915527,-2.42562,0.055681,-0.0747579,0.0544332,0.0676134,-0.0928413,0.146539,-0.124241,-0.0828756,0.010376,0.0148392,0.0242615,0.00324249,0.014267,0.00972748,0.0222397,0.0209427,-9.97986,0.0166321,-0.00720978,0.0124741,0.00587463,0.0245667,-0.00202179,0.0125504,-0.00114441
22,8,9.23024,-0.0012207,-0.00259399,-2.42714,0.0559862,-0.0747579,0.0519917,0.020006,-0.0980293,0.146234,-0.127903,-0.0831808,0.00686646,0.0165939,0.0273132,-0.00511169,0.0166702,0.00923157,0.0283051,0.0123978,-9.97986,0.0150299,-0.000267029,0.0134277,0.00450134,0.0185394,-0.00419617,0.014801,0.00198364
22,9,0.203142,0.00183105,-0.00457764,-2.42562,0.0575121,-0.0738423,0.054128,-0.00349256,-0.0961982,0.146844,-0.128513,-0.0822652,0.0138474,0.0189209,0.0318146,-0.0276947,0.0160599,0.00865936,0.0238037,0.0159073,-9.97986,0.0125122,0.000915527,0.01297,0.00614166,0.0169754,-0.00190735,0.0165558,0.00549316
23,0,-6.61509,0.000915527,-0.00473022,-2.4247,0.0562914,-0.0741475,0.0544332,-0.0163099,-0.0977241,0.146234,-0.130039,-0.0822652,0.0120926,0.0160217,0.0313568,-0.0294876,0.0185013,0.00988007,0.0263596,0.0204086,-9.97986,0.0166702,0.000457764,0.0123215,0.00667572,0.0196457,-0.000762939,0.0152969,0.00675201
23,1,-9.99003,0.00152588,-0.00289917,-2.42501,0.0569017,-0.0723164,0.0553487,0.0105455,-0.0934516,0.146234,-0.128208,-0.0810445,0.0130081,0.0183105,0.0301361,-0.00278473,0.0183487,0.00804901,0.0197601,0.0149918,-9.97986,0.0156403,-0.000305176,0.0135803,0.00797272,0.0187302,0.000419617,0.0159454,0.00606537
23,2,-9.99003,-0.000305176,-0.00198364,-2.42501,0.0559862,-0.0738423,0.0550435,0.0422838,-0.088874,0.145929,-0.126987,-0.0816549,0.0125885,0.0169373,0.0328445,0.0119019,0.0169373,0.00740051,0.0245667,0.0151443,-9.97986,0.0177002,-0.00038147,0.00907898,0.00400543,-0.00415802,0.00198364,0.0109482,0.0101089
23,3,-9.99003,0.000610352,-0.000152588,-2.42531,0.0547655,-0.0738423,0.0547383,0.058153,-0.0910102,0.145318,-0.126377,-0.0813497,0.0117874,0.0208282,0.0343323,0.0310898,0.0159073,0.00839233,0.0231934,0.0112534,-9.97986,0.0168228,0.00198364,0.0139999,0.00717163,-0.00602722,0.00240326,0.0143051,0.00480652
23,4,-9.99003,0.000305176,-0.000610352,-2.42501,0.055681,-0.0744527,0.0553487,0.0728014,-0.0903999,0.145013,-0.125766,-0.0822652,0.011673,0.0136185,0.0291061,0.0339127,0.014534,0.0088501,0.0189972,0.0136185,-9.97986,0.0116348,-0.000419617,0.0104141,0.00770569,-0.00480652,0.00183105,0.0142288,0.00701904
23,5,-9.99003,0.000610352,0.00213623,-2.42592,0.0559862,-0.0744527,0.0565694,0.127123,-0.0855171,0.145624,-0.121494,-0.0825704,0.0125885,0.0159836,0.0307083,0.0244522,0.0194168,0.0108337,0.0222015,0.0164795,-9.97986,0.0164413,-0.000534058,0.0118637,0.00812531,0.0137329,0.00232697,0.0154114,0.00679016
23,6,-1.6981,0.000610352,0.00350952,-2.42714,0.0532396,-0.0759786,0.0547383,0.145128,-0.0876533,0.143792,-0.121799,-0.0840963,0.011673,0.0224686,0.0164032,0.0320435,0.0195313,0.0101471,0.0207901,0.0149536,-9.97986,0.0201416,-0.000114441,0.0152588,0.00297546,0.019722,-0.00415802,0.0159073,0.00640869
23,7,6.27187,0.000305176,0.00473022,-2.42806,0.0526292,-0.0753682,0.0516866,0.154283,-0.0891792,0.142572,-0.121189,-0.0844015,0.0102997,0.0267029,0.015564,0.0276947,0.018158,0.0069809,0.0163651,0.0202942,-9.97986,0.0179291,0.001297,0.0129318,0.00541687,0.0172043,-0.00484467,0.0108719,0.00816345
23,8,10.0097,0.000610352,0.00411987,-2.43111,0.0529344,-0.0771993,0.0504659,0.130785,-0.0949775,0.142267,-0.124241,-0.0886739,0.00831604,0.0295639,0.0094986,0.0209808,0.0146866,0.0125885,0.0162506,0.0172043,-9.97986,0.0162125,3.8147e-005,0.0127411,0.00679016,0.0153351,-0.00602722,0.017395,0.00320435
23,9,10.0097,-0.000305176,0.00106812,-2.42928,0.0544603,-0.0765889,0.0516866,0.0935533,-0.095893,0.143487,-0.127292,-0.0880636,0.0109482,0.0340271,0.00473022,0.021019,0.0177383,0.00923157,0.0145721,0.0144577,-9.97986,0.0137329,-0.00358582,0.012207,0.0038147,0.0178146,-0.000915527,0.0152588,0.00904083
24,0,10.0097,0.00457764,0.000610352,-2.42928,0.0523241,-0.075063,0.0510762,0.077379,-0.0961982,0.143487,-0.127292,-0.0883688,0.00862122,0.0260162,0.00183105,0.0191116,0.0196075,0.00858307,0.0122452,0.0163651,-9.97986,0.0165176,-0.00141144,0.0102997,0.00980377,0.0141144,-0.00404358,0.0135803,0.0088501
24,1,10.0097,0.0012207,-0.000610352,-2.42806,0.0547655,-0.0753682,0.0529073,0.0740221,-0.0965034,0.144098,-0.126072,-0.0859274,0.00926971,0.027504,0.00362396,0.0165939,0.0214005,0.00766754,0.0120926,0.0197983,-9.97986,0.0159454,0.00209808,0.0164032,0.00556946,0.0178146,-0.00732422,0.0172424,0.00694275
24,2,10.0097,0,-0.000610352,-2.42684,0.0541551,-0.0753682,0.0538228,0.0718859,-0.0946723,0.144403,-0.125156,-0.0847066,0.00957489,0.0298309,0.00648499,0.017395,0.0181961,0.0128555,0.0179291,0.0187683,-9.97986,0.0122452,-0.000610352,0.0128174,0.00759125,0.0151443,-0.00411987,0.0140381,0.0122833
24,3,10.0097,-0.00152588,-0.000152588,-2.42684,0.0547655,-0.0744527,0.0535176,0.0715807,-0.0931465,0.144403,-0.125461,-0.0847066,0.00843048,0.0329208,0.0088501,0.0134659,0.0177765,0.00854492,0.0212097,0.017395,-9.97986,0.0131989,0.000953674,0.0122833,0.00522614,0.0164413,-0.00274658,0.0166321,0.00988007
24,4,10.0097,0.000610352,-0.000152588,-2.42776,0.0547655,-0.0753682,0.0532125,0.0706652,-0.0931465,0.144708,-0.126377,-0.0831808,0.00961304,0.025444,0.0136185,0.0146866,0.0163651,0.00946045,0.0157166,0.0157547,-9.97986,0.019455,-0.00102997,0.0151443,0.00473022,0.0159836,-0.00267029,0.0126266,0.00629425
24,5,10.0097,0.000915527,0.000762939,-2.42501,0.0559862,-0.0738423,0.0550435,0.0718859,-0.0922309,0.145318,-0.124851,-0.0822652,0.0120926,0.0234222,0.0137711,0.0198364,0.0151062,0.00999451,0.0168228,0.0200653,-9.97986,0.0172806,3.8147e-005,0.00934601,0.00576019,0.0114059,-0.00675201,0.0139618,0.00705719
24,6,10.0097,0.0012207,-0.000305176,-2.42562,0.0572069,-0.075063,0.0544332,0.0728014,-0.0919257,0.146539,-0.124851,-0.0813497,0.00984192,0.0276184,0.0163269,0.014267,0.0192642,0.0119019,0.0183487,0.0193024,-9.97986,0.0121307,0.00125885,0.0110245,0.00656128,0.0133514,-0.00484467,0.0152588,0.0088501
24,7,10.0097,0.000305176,-0.000152588,-2.42531,0.0559862,-0.075063,0.0547383,0.0676134,-0.0922309,0.146234,-0.124546,-0.0816549,0.0133133,0.0262833,0.0179672,0.0122833,0.0161362,0.0104141,0.0147629,0.017128,-9.97986,0.0163651,0.000419617,0.015831,0.00762939,0.0123596,-0.00358582,0.0135803,0.00843048
24,8,9.24733,0.0012207,-0.00228882,-2.42714,0.0553758,-0.0741475,0.0516866,0.0193956,-0.0977241,0.146234,-0.127903,-0.0831808,0.0124359,0.0250626,0.0206757,0.0149918,0.0220871,0.0125504,0.0201797,0.0212479,-9.97986,0.0147247,0.00225067,0.0132751,0.00175476,0.0174713,0.00183105,0.0172806,0.0094986
24,9,0.179644,0.00274658,-0.0050354,-2.42531,0.0572069,-0.0735371,0.0535176,-0.00440808,-0.0943672,0.146844,-0.128208,-0.0804342,0.0130081,0.0239944,0.0190353,0.01194,0.0193024,0.00930786,0.0207138,0.0197983,-9.97986,0.0177383,-0.000343323,0.0104523,0.00362396,0.0161362,-3.8147e-005,0.0168228,0.0102234
25,0,-6.64561,0.00152588,-0.00457764,-2.42714,0.0575121,-0.0738423,0.0538228,-0.0160048,-0.0968086,0.146539,-0.129429,-0.0816549,0.00839233,0.0238037,0.0187683,0.0117493,0.0186157,0.00980377,0.0209427,0.0177765,-9.97986,0.0150299,0.00167847,0.0115204,0.00331879,0.0180817,-0.00617981,0.0149536,0.00999451
25,1,-9.99003,-0.000610352,-0.00274658,-2.42592,0.0572069,-0.0741475,0.0550435,0.00901965,-0.0928413,0.146234,-0.128513,-0.0822652,0.0126648,0.0217819,0.0262833,0.0101471,0.0196838,0.00881195,0.0270844,0.0198364,-9.97986,0.0162125,0.00396729,0.0134659,0.00778198,0.017662,-0.00324249,0.0141144,0.00728607
25,2,-9.99003,-0.000305176,-0.00167847,-2.4247,0.0559862,-0.0741475,0.0574849,0.0422838,-0.090705,0.145929,-0.126682,-0.080129,0.00984192,0.0222397,0.0190353,0.0125122,0.0156784,0.00823975,0.0312042,0.0169754,-9.97986,0.0170898,0.000419617,0.0147629,0.00705719,-0.00556946,-0.0030899,0.0174332,0.00377655
25,3,-9.99003,0.000610352,-0.000152588,-2.42623,0.0550706,-0.0744527,0.0547383,0.0572374,-0.0913154,0.144403,-0.126377,-0.0825704,0.0118637,0.0262833,0.0215912,0.0131989,0.0165939,0.0127029,0.0261688,0.0141907,-9.97986,0.014267,-0.00312805,0.0152969,0.00663757,-0.0056076,-0.00331879,0.0181961,0.0063324
25,4,-9.99003,0.000915527,0.000305176,-2.42714,0.0550706,-0.0747579,0.0553487,0.0706652,-0.090705,0.146539,-0.125461,-0.0828756,0.0134277,0.0189209,0.016098,0.00961304,0.0165176,0.0114822,0.0268173,0.0202179,-9.97986,0.017128,-0.00240326,0.0133896,0.00858307,-0.0114822,-0.00652313,0.017395,0.00621796
25,5,-9.99003,0.000915527,0.00183105,-2.42531,0.055681,-0.0741475,0.0565694,0.125292,-0.0858222,0.144708,-0.120884,-0.0819601,0.0138092,0.0239182,0.0159836,0.00892639,0.0148773,0.00953674,0.0256729,0.0175858,-9.97986,0.0216293,0.000610352,0.0172806,0.00888824,0.0153351,-0.00087738,0.0162888,0.00648499
25,6,-1.87755,0.00213623,0.00274658,-2.42806,0.0541551,-0.0759786,0.0532125,0.142687,-0.088874,0.144098,-0.122104,-0.0844015,0.0104904,0.0226593,0.016861,0.00862122,0.0160599,0.0113297,0.0305176,0.0168228,-9.97986,0.0136566,0.00171661,0.018692,0.0062561,0.0165558,0.00354767,0.0175095,0.00419617
25,7,5.94533,0.000305176,0.00442505,-2.42837,0.0547655,-0.075063,0.0547383,0.154283,-0.0897895,0.144098,-0.121189,-0.0847066,0.0124741,0.0226974,0.0205612,0.0151825,0.0171661,0.0130844,0.0301361,0.0159836,-9.97986,0.0173187,0.00282288,0.0164795,0.00797272,0.0177765,0.0063324,0.0176239,0.00576019
25,8,10.0097,-0.000610352,0.00442505,-2.42989,0.0535448,-0.0765889,0.0510762,0.133226,-0.094062,0.143487,-0.123935,-0.0874532,0.0136185,0.0196075,0.0141525,0.0134659,0.0166702,0.0134277,0.0274658,0.0182724,-9.97986,0.0167084,-0.00110626,0.0143433,0.00720978,0.0147629,-0.0012207,0.0170898,0.00358582
25,9,10.0097,-0.000610352,0.0012207,-2.42989,0.0541551,-0.0762837,0.050771,0.0938585,-0.0980293,0.142572,-0.126072,-0.0895895,0.0106049,0.0247955,0.0181198,0.0131607,0.0189972,0.0111389,0.0247955,0.0161743,-9.97986,0.0143433,0.00144958,0.0141907,0.00728607,0.0117874,0.00537872,0.0177383,0.00579834
26,0,10.0097,-0.000305176,0.000457764,-2.42989,0.0544603,-0.0762837,0.0513814,0.0792101,-0.0971137,0.141961,-0.126987,-0.0883688,0.00377655,0.0217438,0.0177765,0.0069046,0.0177002,0.00720978,0.0235367,0.0193024,-9.97986,0.014534,0.000190735,0.0155258,0.00423431,0.0133896,-0.00205994,0.0172043,0.00873566
26,1,10.0097,-0.000610352,-0.000457764,-2.42837,0.0532396,-0.075063,0.0526021,0.0749376,-0.0949775,0.143792,-0.126987,-0.0865377,0.00587463,0.0226593,0.0177002,0.00282288,0.0156403,0.012207,0.0249863,0.0164032,-9.97986,0.0156784,-0.00282288,0.0114059,0.00659943,0.0170517,-0.00102997,0.0188828,0.0063324
26,2,10.0097,0.000610352,-0.000610352,-2.42837,0.0541551,-0.0741475,0.0519917,0.0718859,-0.0943672,0.145624,-0.126377,-0.0847066,0.0115585,0.0234222,0.0157547,-0.00419617,0.0130844,0.00873566,0.0188828,0.0164795,-9.97986,0.014267,-0.000495911,0.0168991,0.00358582,0.0141525,-0.00362396,0.0160599,0.00659943
26,3,10.0097,-0.000305176,0.000457764,-2.42776,0.0544603,-0.0747579,0.0547383,0.07036,-0.0934516,0.145624,-0.125461,-0.0850118,0.0104523,0.0222397,0.0179291,-0.00331879,0.0216675,0.0114822,0.0212097,0.0191116,-9.97986,0.00862122,-0.00156403,0.0133896,0.00473022,0.017662,-0.00183105,0.0162125,0.00892639
26,4,10.0097,0.000610352,-0.000610352,-2.42684,0.0547655,-0.0738423,0.0529073,0.0715807,-0.0922309,0.145013,-0.125766,-0.0837911,0.0122833,0.021553,0.0156403,-0.0062561,0.0137329,0.00595093,0.0198364,0.0177765,-9.97986,0.016098,-0.000610352,0.0149155,0.00293732,0.0145721,-0.00663757,0.0139999,0.00457764
26,5,10.0097,0.000915527,0.000457764,-2.4244,0.0559862,-0.0741475,0.054128,0.0709703,-0.0922309,0.14776,-0.124546,-0.0831808,0.0114822,0.0239563,0.0188446,-0.00553131,0.017128,0.00850677,0.021553,0.0156403,-9.97986,0.0126648,-0.001297,0.0147629,0.00289917,0.0139999,-0.00999451,0.0143051,0.00461578
26,6,10.0097,0.000915527,0.000152588,-2.42531,0.0565965,-0.0738423,0.0553487,0.0724962,-0.0916206,0.147455,-0.124241,-0.0807394,0.0133896,0.0242615,0.0205612,-0.0106049,0.0141144,0.00850677,0.0212479,0.0165558,-9.97986,0.0139618,-0.00267029,0.0111771,0.00553131,0.0159454,-0.00808716,0.0139999,0.00774384
26,7,10.0097,0.00183105,-0.000457764,-2.42623,0.055681,-0.0735371,0.0544332,0.0679186,-0.0925361,0.145929,-0.124851,-0.0810445,0.0113297,0.0204468,0.018425,-0.0176239,0.0157928,0.0133896,0.0214005,0.0170898,-9.97986,0.0162506,0.00408173,0.0128174,0.00175476,0.0133514,-0.00038147,0.0128555,0.00701904
26,8,9.18019,0,-0.00213623,-2.42714,0.0569017,-0.0738423,0.0529073,0.0206163,-0.0961982,0.146539,-0.128818,-0.0828756,0.0130081,0.0265503,0.018158,-0.018158,0.015564,0.00972748,0.0203323,0.0207901,-9.97986,0.0132751,0.00209808,0.0166702,0.00682831,0.0149918,-0.00358582,0.0135422,0.00598907
26,9,0.0789359,0.00152588,-0.00518799,-2.42592,0.055681,-0.073232,0.0526021,-0.00318738,-0.0968086,0.147149,-0.127598,-0.0813497,0.00919342,0.0187302,0.015564,-0.00473022,0.0170135,0.0133514,0.0236511,0.018158,-9.97986,0.0141144,0,0.0183105,0.00545502,0.017128,-0.00476837,0.0164413,0.00534058
27,0,-6.70024,-0.000305176,-0.00457764,-2.42531,0.0559862,-0.0738423,0.0529073,-0.0153944,-0.095893,0.145929,-0.130039,-0.0813497,0.00541687,0.0183487,0.021553,0.0100708,0.0154877,0.0111008,0.018692,0.0226593,-9.97986,0.0121307,-0.00545502,0.0120163,0.00530243,0.0177002,-0.00358582,0.0172043,0.00736237
27,1,-9.99003,0,-0.00305176,-2.42562,0.055681,-0.0726216,0.0562642,0.00963,-0.094062,0.146539,-0.128208,-0.0813497,0.00915527,0.0182724,0.0190353,0.0192261,0.0191116,0.00888824,0.0238419,0.0175858,-9.97986,0.0112152,-0.00602722,0.0113678,0.0069046,0.0138092,-0.00541687,0.014267,0.00816345
27,2,-9.99003,0.000305176,-0.00137329,-2.4244,0.0565965,-0.073232,0.0562642,0.0438097,-0.0900947,0.145624,-0.127292,-0.0810445,0.0114822,0.0207901,0.0208664,0.0292969,0.019989,0.0141907,0.0204849,0.0176239,-9.97986,0.010643,-0.00434875,0.0167465,0.00507355,-0.0104523,0.00144958,0.0170517,0.00919342
27,3,-9.99003,0.00152588,0,-2.42531,0.0550706,-0.0744527,0.0553487,0.0569322,-0.0910102,0.145929,-0.125766,-0.0822652,0.0100708,0.0220108,0.0250244,0.0244522,0.0165558,0.00785828,0.0167465,0.0187683,-9.97986,0.0138855,-0.000572205,0.0183487,0.00598907,-0.0162506,0.00160217,0.0147629,0.00881195
27,4,-9.99003,0.00183105,0.000152588,-2.42623,0.055681,-0.0756734,0.055959,0.0715807,-0.0910102,0.145013,-0.126377,-0.0834859,0.0109482,0.0178528,0.0225449,0.0211334,0.0170517,0.0109863,0.0154114,0.014267,-9.97986,0.0111771,-0.000991821,0.0126266,-0.0012207,-0.0111771,-0.00350952,0.0165176,0.00720978
27,5,-9.99003,0.000610352,0.00259399,-2.42592,0.0553758,-0.0744527,0.0565694,0.125902,-0.0864326,0.145929,-0.122104,-0.0828756,0.0105667,0.0209427,0.0214005,0.0147629,0.0144196,0.0119781,0.0169754,0.0174332,-9.97986,0.0164795,-0.000457764,0.0149918,0.00907898,0.0111771,-0.00202179,0.0111008,0.00984192
27,6,-2.03197,0.000915527,0.00473022,-2.42745,0.0538499,-0.0756734,0.0538228,0.142687,-0.0876533,0.143792,-0.120884,-0.0844015,0.00988007,0.0190353,0.0213623,0.01297,0.0177002,0.0101852,0.0179672,0.0172043,-9.97986,0.0174332,-0.00255585,0.0136948,0.0069046,0.016098,-0.00778198,0.014534,0.0062561
27,7,5.83974,0.000305176,0.00350952,-2.42837,0.0541551,-0.0756734,0.054128,0.155199,-0.0903999,0.143182,-0.121189,-0.0850118,0.0094223,0.020256,0.0203323,0.0349808,0.0182343,0.00953674,0.0181961,0.017128,-9.97986,0.0166702,-0.00175476,0.015564,0.00984192,0.0138092,-0.0082016,0.0119019,0.00480652
27,8,10.0097,0.000610352,0.00442505,-2.4305,0.0538499,-0.0759786,0.050771,0.134447,-0.0925361,0.143182,-0.123935,-0.0880636,0.0117111,0.0221634,0.0209808,0.0492096,0.0204849,0.010643,0.0200272,0.0174713,-9.97986,0.0122452,-0.00190735,0.0139236,0.00331879,0.010376,-0.00701904,0.0139999,0.00816345
27,9,10.0097,-0.000305176,0.00106812,-2.4302,0.0541551,-0.0756734,0.0492452,0.0935533,-0.0961982,0.143487,-0.125766,-0.0880636,0.00854492,0.0204468,0.0230026,0.0505066,0.0183868,0.014534,0.0136185,0.0159836,-9.97986,0.0111389,-0.00370026,0.0141144,0.00595093,0.0146866,-0.00640869,0.017128,0.00713348
28,0,10.0097,0.000915527,0.000305176,-2.43081,0.0535448,-0.0759786,0.0513814,0.0792101,-0.0974189,0.142267,-0.127292,-0.0880636,0.00774384,0.0183487,0.0234222,0.0456238,0.0156021,0.0117493,0.0136948,0.0195694,-9.97986,0.0162125,-0.0019455,0.0112534,0.00450134,0.0127792,-0.00209808,0.0125885,0.00782013
28,1,10.0097,0.000305176,0.000762939,-2.42806,0.0538499,-0.0747579,0.0522969,0.0740221,-0.0952827,0.145013,-0.126377,-0.0871481,0.00995636,0.0255203,0.0277328,0.0234604,0.0133896,0.0106812,0.01194,0.0189209,-9.97986,0.0131226,-0.00232697,0.0127029,0.00396729,0.00995636,-0.00495911,0.0138474,0.00331879
28,2,10.0097,0.000305176,0.000152588,-2.42714,0.0544603,-0.075063,0.0529073,0.0718859,-0.0946723,0.144403,-0.126987,-0.085317,0.010643,0.0320435,0.0264359,-0.00236511,0.0193787,0.0144196,0.0108719,0.0191498,-9.97986,0.0165939,0.00118256,0.0177765,0.00785828,0.0127411,-0.000267029,0.0153732,0.00518799
28,3,10.0097,0.000915527,0.000305176,-2.42684,0.055681,-0.075063,0.0532125,0.0706652,-0.0955879,0.145318,-0.125766,-0.0847066,0.00782013,0.0336456,0.0310135,-0.00396729,0.019455,0.0121307,0.00671387,0.014801,-9.97986,0.0137711,-0.00141144,0.00968933,0.00617981,0.0121307,0.00141144,0.0153351,0.00595093
28,4,10.0097,-0.000305176,0.000152588,-2.42745,0.0550706,-0.0744527,0.0538228,0.0709703,-0.0937568,0.145318,-0.125156,-0.0840963,0.0116348,0.0294495,0.0273132,0.00461578,0.0205231,0.0128555,0.0114059,0.0193787,-9.97986,0.0144958,-0.000610352,0.0160599,0.00461578,0.0167084,-0.00110626,0.0163269,0.0106812
28,5,10.0097,0.0012207,-0.000152588,-2.4247,0.0565965,-0.0735371,0.0547383,0.072191,-0.0913154,0.146844,-0.124546,-0.0816549,0.00873566,0.019989,0.0179672,0.00175476,0.0133896,0.00671387,0.00312805,0.0125885,-9.97986,0.010643,-0.00469208,0.0128937,0.00282288,0.00862122,-0.00293732,0.00984192,0.00751495
28,6,10.0097,0.000305176,0.000152588,-2.42592,0.0565965,-0.0726216,0.0538228,0.0697496,-0.0916206,0.146539,-0.125156,-0.0816549,0.00938416,0.0254059,0.0179291,0.00362396,0.0193024,0.0105286,0.00900269,0.0192261,-9.97986,0.0137711,-0.00328064,0.014267,0.00556946,0.0161362,-0.00240326,0.014801,0.00801086
28,7,10.0097,0.00274658,0.000152588,-2.42623,0.0559862,-0.075063,0.0538228,0.0673082,-0.0931465,0.146844,-0.124546,-0.0816549,0.0140381,0.0242233,0.0185776,-0.00469208,0.0194168,0.0100327,0.0193787,0.018692,-9.97986,0.0138092,-0.000724792,0.0169373,0.0107193,0.020256,0.00144958,0.0186539,0.0106049
28,8,9.09596,-0.000305176,-0.00289917,-2.42653,0.0559862,-0.0741475,0.0519917,0.0203112,-0.0977241,0.145929,-0.127292,-0.0825704,0.0107574,0.0253677,0.0200653,-0.0108719,0.0204468,0.00961304,0.0186539,0.0227737,-9.97986,0.0144577,0.00171661,0.0131607,0.00659943,0.0204468,-0.0063324,0.0123215,0.00919342
28,9,0.00721959,-0.00183105,-0.00427246,-2.42531,0.0559862,-0.0726216,0.0547383,-0.00562879,-0.0977241,0.145624,-0.129429,-0.0816549,0.0128174,0.0239182,0.0212479,-0.0127411,0.0175858,0.0120926,0.0312805,0.0231171,-9.97986,0.0163651,-0.000953674,0.0160599,0.0114441,0.0224686,-0.00762939,0.0161362,0.00843048
29,0,-6.80827,-0.0012207,-0.00427246,-2.4244,0.055681,-0.0741475,0.0556539,-0.0144789,-0.095893,0.147455,-0.130649,-0.0813497,0.0102234,0.0255203,0.019722,-0.0165176,0.0205231,0.010376,0.0285721,0.014801,-9.97986,0.0165176,0.00209808,0.014534,0.00713348,0.0233459,-0.00263214,0.0193405,0.0111771
29,1,-9.99003,0,-0.00320435,-2.4247,0.0572069,-0.0747579,0.0562642,0.00963,-0.0919257,0.145929,-0.128818,-0.0810445,0.00919342,0.0300598,0.0199127,-0.00614166,0.0188446,0.00888824,0.0344849,0.0182343,-9.97986,0.0151443,0.000762939,0.0130463,0.00995636,0.0161743,-0.00450134,0.0166702,0.00640869
29,2,-9.99003,0.000305176,-0.00213623,-2.4244,0.0562914,-0.0744527,0.0556539,0.0450304,-0.0891792,0.145929,-0.126072,-0.0807394,0.00770569,0.0281525,0.0111008,0.0245667,0.0151062,0.00976563,0.0387955,0.0134277,-9.97986,0.0159454,-0.00190735,0.019989,0.00816345,-0.0031662,-0.0108337,0.0177002,0.00789642
29,3,-9.99003,0.000915527,0.000152588,-2.42684,0.055681,-0.0738423,0.0550435,0.058153,-0.090705,0.143792,-0.126682,-0.0819601,0.0122452,0.0283432,0.00751495,0.0594711,0.0209808,0.0102615,0.0340652,0.0171661,-9.97986,0.0144196,-0.000839233,0.0180817,0.0106049,-0.00507355,-0.0108719,0.018425,0.00827789
29,4,-9.99003,-0.00305176,0.000610352,-2.4247,0.055681,-0.0744527,0.0553487,0.0691393,-0.0903999,0.145318,-0.124546,-0.0837911,0.0138855,0.0271988,0.00457764,0.0624847,0.0193405,0.00816345,0.0334549,0.0173569,-9.97986,0.0199127,0.000305176,0.0167465,0.00648499,-0.00488281,-0.00846863,0.0177765,0.00823975
29,5,-9.99003,0.000610352,0.00213623,-2.42531,0.0550706,-0.075063,0.0577901,0.126207,-0.0852119,0.144708,-0.121189,-0.0819601,0.0104523,0.026741,0.00255585,0.0720596,0.0220871,0.00938416,0.0331879,0.0159836,-9.97986,0.0131226,-0.000534058,0.0164795,0.00732422,0.0216293,0.00087738,0.0145721,0.00591278
29,6,-2.1223,0.000610352,0.00396729,-2.42745,0.0535448,-0.0762837,0.0556539,0.142381,-0.0882636,0.144403,-0.12241,-0.0840963,0.00778198,0.028801,0.0106049,0.0650024,0.0194931,0.0137329,0.0332642,0.0202942,-9.97986,0.0146103,-0.00270844,0.0138092,0.00923157,0.0225067,0.00629425,0.0193405,0.00770569
29,7,5.6426,0.000610352,0.00518799,-2.42776,0.0535448,-0.0759786,0.0544332,0.153978,-0.0903999,0.144098,-0.121189,-0.085317,0.00904083,0.0311279,0.0117111,0.0433731,0.0141907,0.00934601,0.030098,0.0185394,-9.97986,0.0162888,0.00118256,0.0144196,0.0063324,0.0217056,0.00473022,0.0159073,0.00392914
29,8,10.0097,0.000915527,0.00457764,-2.4302,0.0532396,-0.0771993,0.0513814,0.137804,-0.0934516,0.143182,-0.12302,-0.0880636,0.00587463,0.0329971,0.0143051,0.0307083,0.0173569,0.0126648,0.0343704,0.0164795,-9.97986,0.014534,0.0031662,0.0112534,0.0102234,0.0171661,0.01194,0.0203705,0.0031662
29,9,10.0097,0.000305176,0.0012207,-2.4302,0.0544603,-0.0759786,0.0501607,0.0941637,-0.0971137,0.144098,-0.126072,-0.0880636,0.00751495,0.0240326,0.0175858,0.0202942,0.0161743,0.0120163,0.0282288,0.0204849,-9.97986,0.0157547,-0.000572205,0.0143051,0.00720978,0.0202179,0.00984192,0.0208282,0.00541687
30,0,10.0097,0.000915527,0.000610352,-2.43142,0.0532396,-0.0765889,0.0501607,0.0795153,-0.0974189,0.142267,-0.126682,-0.0877584,0.00926971,0.0199127,0.0195694,0.00823975,0.0161362,0.0107956,0.0274277,0.0204086,-9.97986,0.0169373,-7.62939e-005,0.0133514,0.00930786,0.0214386,0.00770569,0.0198364,0.00480652
30,1,10.0097,0.000610352,-0.000152588,-2.42806,0.0550706,-0.0756734,0.0532125,0.0740221,-0.095893,0.145624,-0.126987,-0.0862325,0.0102615,0.0253677,0.0206375,0.0129318,0.0159454,0.0153732,0.0292206,0.0192642,-9.97986,0.0169373,0.0019455,0.0161362,0.0100708,0.0226212,0.00518799,0.0207138,0.00263214
30,2,10.0097,-0.000305176,0.000305176,-2.42806,0.0544603,-0.0738423,0.0522969,0.0718859,-0.0937568,0.144403,-0.126072,-0.0850118,0.00858307,0.0214005,0.0219345,0.0107574,0.0164413,0.00850677,0.0234604,0.0167084,-9.97986,0.01297,-0.00144958,0.0119781,0.0087738,0.0220871,0.00244141,0.015831,0.00106812
30,3,10.0097,0.000915527,0,-2.42776,0.0550706,-0.0756734,0.0516866,0.0724962,-0.0934516,0.145318,-0.125461,-0.0850118,0.00831604,0.0226593,0.0254822,0.0121307,0.0180435,0.0113297,0.026741,0.0181198,-9.97986,0.0159073,0.00156403,0.0124359,0.00873566,0.0174332,0.00339508,0.0163269,0.00385284
30,4,10.0097,0.000610352,0.000762939,-2.42623,0.0550706,-0.0744527,0.0544332,0.0706652,-0.0946723,0.145624,-0.125461,-0.0837911,0.00682831,0.0146484,0.0174332,0.0126648,0.0128174,0.0088501,0.0202942,0.0169373,-9.97986,0.0127792,0.00202179,0.0159454,0.00953674,0.0158691,0.00377655,0.0174332,0.00579834
30,5,10.0097,0.000610352,0.000457764,-2.42531,0.055681,-0.0744527,0.0553487,0.0718859,-0.0919257,0.146234,-0.124851,-0.0819601,0.00659943,0.00843048,0.0133514,-0.00392914,0.016098,0.0128174,0.0231934,0.0188828,-9.97986,0.0143051,-0.00167847,0.0193787,0.00968933,0.0205994,0.00339508,0.0205231,0.00610352
30,6,10.0097,0.000610352,0.000152588,-2.42592,0.0553758,-0.0741475,0.0544332,0.0715807,-0.0922309,0.146844,-0.124241,-0.0816549,0.0102615,0.0115585,0.0140762,-0.0172806,0.0186539,0.0104523,0.026741,0.0134659,-9.97986,0.0122452,-0.000534058,0.0147629,0.00812531,0.0223923,0.00385284,0.0186539,0.00724792
30,7,10.0097,0.000305176,0.000457764,-2.42592,0.0562914,-0.0747579,0.0544332,0.0682238,-0.0931465,0.145013,-0.124241,-0.0819601,0.0133133,0.0106049,0.0151443,-0.0118256,0.0157928,0.0128937,0.0200272,0.016861,-9.97986,0.0119019,0.00137329,0.014534,0.00812531,0.02285,0.00190735,0.0134277,0.00862122
30,8,9.16982,0.000305176,-0.00213623,-2.42745,0.0565965,-0.0744527,0.0522969,0.0227526,-0.100165,0.147149,-0.127903,-0.0828756,0.00988007,0.0155258,0.0131989,0.00602722,0.0187683,0.0123215,0.0199127,0.0137329,-9.97986,0.0137329,-0.000801086,0.0159836,0.00923157,0.0206375,0.00396729,0.0165176,0.00453949
30,9,0.148821,0.00152588,-0.00427246,-2.42623,0.0565965,-0.0738423,0.0535176,-0.00440808,-0.0946723,0.146844,-0.127598,-0.0819601,0.0108719,0.0191498,0.0140762,0.0248337,0.0195694,0.00865936,0.0258255,0.0173187,-9.97986,0.0154114,-0.00205994,0.0165176,0.0037384,0.0212479,-0.00179291,0.0157166,0.0069809
31,0,-6.6801,0.000305176,-0.00534058,-2.42501,0.0562914,-0.0735371,0.0538228,-0.0147841,-0.095893,0.146844,-0.130344,-0.0825704,0.0102234,0.0214386,0.0165939,0.0288391,0.0167084,0.0100708,0.0199509,0.0121689,-9.97986,0.0162506,-0.000991821,0.015564,0.00995636,0.0205231,-0.00286102,0.0203323,0.00759125
31,1,-9.99003,-0.000915527,-0.00289917,-2.42531,0.0565965,-0.0738423,0.054128,0.00779895,-0.0937568,0.146539,-0.128513,-0.0807394,0.0104523,0.0245667,0.00888824,0.0159073,0.0161743,0.00831604,0.0176239,0.0177383,-9.97986,0.0152969,-0.00400543,0.0150299,0.0114059,0.0158691,-0.0050354,0.0188065,0.00576019
31,2,-9.99003,0.000610352,-0.00228882,-2.4244,0.055681,-0.0744527,0.055959,0.042589,-0.090705,0.146234,-0.127292,-0.0819601,0.00492096,0.0258255,0.00858307,0.0165176,0.0177002,0.0128937,0.0197983,0.020256,-9.97986,0.0178909,-0.00675201,0.0138474,0.00549316,-0.00793457,-0.00267029,0.0162506,0.00400543
31,3,-9.99003,0.000610352,-0.000762939,-2.42531,0.0547655,-0.0747579,0.055959,0.0587633,-0.0916206,0.145929,-0.126072,-0.0825704,0.00926971,0.0220871,0.010376,0.0159073,0.0112152,0.013504,0.0202179,0.0179291,-9.97986,0.0119781,-0.00267029,0.0129318,0.00408173,-0.00865936,-0.00411987,0.0186157,0.0031662
31,4,-9.99003,0.0012207,0,-2.42623,0.0565965,-0.0744527,0.0532125,0.0688341,-0.090705,0.145929,-0.125156,-0.0831808,0.0119019,0.027504,0.0222397,0.00766754,0.0151443,0.00724792,0.0243378,0.0162888,-9.97986,0.0138855,-0.00190735,0.00961304,0.0038147,-0.00713348,-0.00606537,0.0162506,0.00484467
31,5,-9.99003,-0.00152588,0.00274658,-2.42592,0.0541551,-0.0747579,0.0562642,0.125597,-0.0849067,0.145624,-0.122104,-0.0822652,0.0136566,0.0263596,0.0190353,0.00328064,0.017662,0.0137711,0.0247192,0.0173569,-9.97986,0.0134659,-0.00137329,0.00759125,0.00759125,0.0162888,-0.00621796,0.017128,0.00411987
31,6,-2.06828,0.0012207,0.00366211,-2.42684,0.0550706,-0.0762837,0.0538228,0.142992,-0.0879585,0.144098,-0.120578,-0.0847066,0.00732422,0.0289154,0.0203705,0.00602722,0.0201035,0.0103378,0.0252533,0.0195313,-9.97986,0.0123215,-0.00530243,0.0119019,0.0050354,0.0125885,-0.0138474,0.0159454,0.00484467
31,7,5.74636,0.00274658,0.00442505,-2.42898,0.0535448,-0.0759786,0.0532125,0.153673,-0.0903999,0.143792,-0.121189,-0.0856222,0.011673,0.0306702,0.0204086,0.0146484,0.0152588,0.00713348,0.0302505,0.0164032,-9.97986,0.0130844,-0.00415802,0.0125122,0.00453949,0.0174713,-0.0125885,0.0146866,0.00659943
31,8,10.0097,-0.000305176,0.00457764,-2.42959,0.0532396,-0.0771993,0.0522969,0.138109,-0.0931465,0.143182,-0.123935,-0.0874532,0.0110626,0.0297165,0.0233459,0.00926971,0.015831,0.0127411,0.0254059,0.020256,-9.97986,0.0169754,-0.00152588,0.0149918,0.00907898,0.0204849,-0.00846863,0.0125885,0.00778198
31,9,10.0097,0,0.000762939,-2.4302,0.0538499,-0.0765889,0.0501607,0.094774,-0.0961982,0.144403,-0.126377,-0.0883688,0.00888824,0.0292587,0.0226974,0.00110626,0.0160217,0.0069809,0.0282288,0.0173569,-9.97986,0.0183868,-0.00457764,0.0121307,0.00553131,0.0195313,-0.00530243,0.0164795,0.00793457
32,0,10.0097,0.000915527,0.000305176,-2.4305,0.0535448,-0.0762837,0.0513814,0.0795153,-0.0971137,0.141351,-0.126377,-0.0883688,0.00896454,0.0238419,0.0239563,-0.00629425,0.0170517,0.0127029,0.02388,0.0193787,-9.97986,0.0120544,-0.00518799,0.0152206,0.00679016,0.0190735,-0.00160217,0.0146103,0.00919342
32,1,10.0097,0.000915527,0.000152588,-2.42745,0.0541551,-0.0747579,0.0519917,0.0746324,-0.095893,0.144098,-0.126072,-0.0865377,0.0108719,0.0201035,0.0161743,0.00850677,0.0196457,0.00930786,0.0180054,0.0219727,-9.97986,0.016861,-0.000419617,0.014267,0.00965118,0.0219345,0.00202179,0.0178528,0.00995636
32,2,10.0097,-0.000305176,-0.000152588,-2.42745,0.0544603,-0.075063,0.0532125,0.0718859,-0.0931465,0.143792,-0.127292,-0.0847066,0.00999451,0.0263977,0.0152588,0.022583,0.0192261,0.0112152,0.0112152,0.0167847,-9.97986,0.0134277,-0.00499725,0.0136185,0.00717163,0.0164795,-0.00522614,0.0173187,0.00816345
32,3,10.0097,0.000305176,0,-2.42623,0.0547655,-0.0753682,0.054128,0.0715807,-0.0937568,0.144708,-0.126377,-0.085317,0.0110626,0.0208282,0.011673,0.0206375,0.017395,0.0104523,0.0100327,0.0168228,-9.97986,0.0186157,-0.00236511,0.0113678,0.00511169,0.0171661,-0.00144958,0.0134659,0.00991821
32,4,10.0097,0.000610352,-0.000305176,-2.42745,0.0547655,-0.0759786,0.0532125,0.0718859,-0.0937568,0.145624,-0.125461,-0.0844015,0.0105667,0.0229263,0.0138474,0.0104523,0.0147247,0.00728607,0.00720978,0.0186157,-9.97986,0.0151825,-0.00377655,0.0105286,0.00141144,0.0142288,-0.00770569,0.0145721,0.0109482
32,5,10.0097,0.00244141,0.000152588,-2.42714,0.0547655,-0.0744527,0.0544332,0.0718859,-0.0916206,0.145013,-0.124851,-0.0816549,0.00766754,0.023613,0.0167084,0.00881195,0.0200653,0.0112915,0.0120926,0.0193024,-9.97986,0.0165176,-0.00396729,0.0120926,0.00366211,0.0118256,-0.00415802,0.0143814,0.00888824
32,6,10.0097,0.000915527,0.000305176,-2.4247,0.0559862,-0.0735371,0.0553487,0.0737169,-0.0922309,0.146234,-0.123935,-0.0813497,0.0126648,0.0230789,0.0152969,0.00930786,0.0220871,0.0115204,0.0130081,0.0147247,-9.97986,0.0158691,-0.00492096,0.0134659,0.00656128,0.0210571,-0.00614166,0.0164413,0.00778198
32,7,10.0097,0.000305176,0,-2.4244,0.0575121,-0.073232,0.0550435,0.0691393,-0.0922309,0.146234,-0.124546,-0.0816549,0.012207,0.0212479,0.0118256,0.00473022,0.0205231,0.00793457,0.0163651,0.0181198,-9.97986,0.0127029,-0.00274658,0.0151825,0.00358582,0.0136185,-0.00831604,0.0141907,0.0105286
32,8,9.14174,0,-0.00228882,-2.42745,0.055681,-0.0747579,0.0529073,0.021837,-0.0971137,0.145013,-0.127598,-0.0831808,0.0103378,0.0197983,0.015831,0.00892639,0.0167465,0.0104523,0.028038,0.0204849,-9.97986,0.00995636,-0.00732422,0.0143433,0.00320435,0.01091,-0.00682831,0.0139236,0.0087738
32,9,0.162859,0.00152588,-0.00457764,-2.42684,0.0562914,-0.0738423,0.0529073,-0.00471326,-0.0949775,0.147149,-0.129734,-0.0819601,0.0128555,0.0186157,0.0175858,0.00865936,0.020256,0.00843048,0.0308228,0.019722,-9.97986,0.014534,-0.0018692,0.0117874,0.0082016,0.0200272,-0.00213623,0.0151443,0.00457764
33,0,-6.69688,-0.000610352,-0.00396729,-2.42531,0.0559862,-0.0738423,0.054128,-0.0153944,-0.0955879,0.146539,-0.128818,-0.0810445,0.00980377,0.0177002,0.0212479,0.00762939,0.0156403,0.00724792,0.0262833,0.0169754,-9.97986,0.0126266,-0.00766754,0.0120163,0.00526428,0.0166702,-0.00530243,0.0156021,0.00602722
33,1,-9.99003,0.000305176,-0.00427246,-2.42531,0.0569017,-0.073232,0.0544332,0.00932483,-0.0931465,0.147149,-0.129429,-0.0816549,0.0110626,0.0233841,0.0225449,0.00984192,0.0177383,0.00839233,0.0313568,0.0191116,-9.97986,0.0141525,-0.00499725,0.0152206,0.00782013,0.0175476,-0.00205994,0.0134659,0.00572205
33,2,-9.99003,0.000610352,-0.00198364,-2.4247,0.0569017,-0.075063,0.0562642,0.0416735,-0.0897895,0.146234,-0.126682,-0.0804342,0.0120544,0.0205231,0.0233078,-0.00514984,0.0140762,0.01091,0.0328064,0.0183105,-9.97986,0.0133133,-0.00488281,0.0106812,0.00579834,-0.0101471,-0.0069046,0.0144577,0.0031662
33,3,-9.99003,0.000915527,0.000457764,-2.42623,0.0565965,-0.0735371,0.054128,0.0584581,-0.0903999,0.145318,-0.125766,-0.0819601,0.0140381,0.0248718,0.0245285,-0.00377655,0.0118637,0.00946045,0.0292206,0.0182724,-9.97986,0.0125504,-0.00301361,0.0123215,0.00675201,-0.00484467,-0.00476837,0.0162888,0.00595093
33,4,-9.99003,0.000915527,0.000305176,-2.42592,0.0550706,-0.075063,0.0544332,0.0700548,-0.090705,0.146234,-0.125156,-0.0825704,0.0146103,0.022316,0.0298309,0.0144577,0.0153732,0.0118637,0.0277328,0.0204086,-9.97986,0.0167084,-0.00301361,0.0122452,0.00598907,-0.00347137,-0.00598907,0.0139236,0.00434875
33,5,-9.99003,0.000610352,0.00183105,-2.4244,0.0550706,-0.0747579,0.0568746,0.123155,-0.0867378,0.144708,-0.122104,-0.0816549,0.00976563,0.0239944,0.0289536,0.0114822,0.0150299,0.00930786,0.0251007,0.0124359,-9.97986,0.01297,-0.00610352,0.01091,0.00564575,0.0172806,-0.00247955,0.0156403,0.00457764
33,6,-2.13603,0.000610352,0.00350952,-2.42806,0.0535448,-0.0747579,0.0547383,0.142381,-0.0882636,0.144098,-0.122104,-0.0850118,0.0107956,0.0242233,0.0249481,0.0121307,0.0141144,0.00816345,0.0174332,0.0130081,-9.97986,0.0147247,-0.00675201,0.00793457,0.0102997,0.0127792,0.00102997,0.0118637,0.00495911
33,7,5.64565,0.000305176,0.00442505,-2.42806,0.0541551,-0.0759786,0.0538228,0.153673,-0.0882636,0.143792,-0.120884,-0.085317,0.0152206,0.0221252,0.0199127,0.00766754,0.0183105,0.0112915,0.0191498,0.0179291,-9.97986,0.0111008,-0.00392914,0.0159454,0.00431061,0.0150299,0.0037384,0.0166702,0.00564575
33,8,10.0097,-0.000610352,0.00457764,-2.4302,0.0523241,-0.0775044,0.0504659,0.136278,-0.0931465,0.142267,-0.123935,-0.0877584,0.0120163,0.0200653,0.0130844,0.00743866,0.0165558,0.00759125,0.0182724,0.0156784,-9.97986,0.0159836,-0.00415802,0.0135422,0.00328064,0.015831,0.000953674,0.0151062,0.00793457
33,9,10.0097,-0.000915527,0.0012207,-2.4302,0.0541551,-0.0762837,0.04894,0.0944689,-0.0980293,0.143487,-0.126377,-0.0889791,0.00923157,0.0194931,0.0140381,0.0154495,0.0164032,0.00614166,0.0194168,0.0157928,-9.97986,0.0174713,-0.000419617,0.0133514,0.0075531,0.013504,0.00343323,0.0182343,0.00545502
34,0,10.0097,0.00152588,0.000762939,-2.42959,0.0544603,-0.075063,0.0513814,0.0795153,-0.095893,0.142572,-0.127598,-0.0883688,0.0124359,0.022583,0.0156784,0.0116348,0.022583,0.00679016,0.0189972,0.021019,-9.97986,0.0136185,-0.000419617,0.0151062,0.00926971,0.0140762,-0.00156403,0.0129318,0.0069046
34,1,10.0097,0.000915527,-0.000305176,-2.42867,0.0544603,-0.075063,0.0519917,0.0743273,-0.0952827,0.143792,-0.125766,-0.0865377,0.00770569,0.0201035,0.0111008,0.00823975,0.0144577,0.00980377,0.0183105,0.0154495,-9.97986,0.0179672,-0.00144958,0.0117493,0.00354767,0.0145721,-0.014267,0.0147629,0.00644684
34,2,10.0097,-0.000610352,0.000610352,-2.42867,0.0553758,-0.0759786,0.0522969,0.0715807,-0.0946723,0.145318,-0.126987,-0.0850118,0.00843048,0.0260925,0.015831,0.00762939,0.020256,0.0132751,0.0186157,0.0166702,-9.97986,0.0140381,0.00392914,0.01194,0.00507355,0.0183487,-0.0177002,0.0200653,0.00659943
34,3,10.0097,0.000610352,0,-2.42653,0.0541551,-0.0756734,0.0538228,0.0709703,-0.0934516,0.145318,-0.126377,-0.0850118,0.0094223,0.0240326,0.0102615,0.00453949,0.0169754,0.00934601,0.019989,0.0186157,-9.97986,0.0139999,0.00160217,0.0148392,0.0063324,0.0154495,-0.0164795,0.0191116,0.00831604
34,4,10.0097,-0.000305176,0.000457764,-2.42623,0.0553758,-0.0729268,0.0532125,0.0706652,-0.0934516,0.145624,-0.126072,-0.0834859,0.0129318,0.0246048,0.0171661,0.00602722,0.0177765,0.00957489,0.0174332,0.0158691,-9.97986,0.0156021,0.00137329,0.0138474,0.00667572,0.0165558,-0.0111008,0.017395,0.00621796
34,5,10.0097,0.00152588,0.000610352,-2.42562,0.0559862,-0.0738423,0.0544332,0.0712755,-0.0919257,0.144708,-0.124546,-0.0813497,0.0128555,0.0234985,0.0180817,0.00896454,0.0162506,0.00804901,0.0239944,0.0173187,-9.97986,0.0168991,-0.0018692,0.020752,0.00770569,0.0117874,-0.00728607,0.0141144,0.00667572
34,6,10.0097,-0.00152588,0.000610352,-2.42409,0.0584276,-0.0744527,0.0547383,0.0724962,-0.0919257,0.145318,-0.123935,-0.0819601,0.0117874,0.0224686,0.0191116,0.00682831,0.0192261,0.00652313,0.019989,0.0154877,-9.97986,0.0130844,-0.000686646,0.00961304,0.00476837,0.0172806,0.0031662,0.0125885,0.00530243
34,7,10.0097,0.000305176,0.000610352,-2.42531,0.0562914,-0.0744527,0.0556539,0.0691393,-0.0931465,0.146539,-0.124241,-0.0813497,0.0110245,0.0297546,0.018158,0.00289917,0.0152588,0.0102615,0.0212097,0.0144196,-9.97986,0.016098,0.00434875,0.0126266,0.00720978,0.0153351,0.00682831,0.0188828,0.00671387
34,8,9.12221,-0.000305176,-0.00244141,-2.42714,0.0562914,-0.0738423,0.0522969,0.0239733,-0.0955879,0.145624,-0.127292,-0.0819601,0.0109482,0.0305176,0.018692,0.00205994,0.0179672,0.00934601,0.0289154,0.0196075,-9.97986,0.01297,-0.00232697,0.0143051,0.00720978,0.0177383,0.00682831,0.0164032,0.00762939
34,9,0.146075,0.000915527,-0.0050354,-2.42531,0.0572069,-0.0738423,0.0526021,-0.00471326,-0.095893,0.147149,-0.128818,-0.0822652,0.0134277,0.0271225,0.0222778,0.00442505,0.021019,0.00564575,0.0265884,0.019989,-9.97986,0.0167084,-0.00175476,0.0133133,0.00705719,0.0150681,0.0069046,0.0169754,0.00694275
35,0,-6.59892,0.0012207,-0.00488281,-2.4247,0.0565965,-0.0738423,0.054128,-0.0175306,-0.0974189,0.146234,-0.130649,-0.0813497,0.0106812,0.0264359,0.0157928,0.00556946,0.0185013,0.00873566,0.0284195,0.0217438,-9.97986,0.0133514,3.8147e-005,0.0122833,0.00267029,0.0196075,-0.00106812,0.0117111,0.00370026
35,1,-9.99003,0.00183105,-0.00289917,-2.42592,0.0569017,-0.0738423,0.0553487,0.00871447,-0.0931465,0.146234,-0.128208,-0.0822652,0.00881195,0.0242233,0.0200653,0.00617981,0.0136948,0.0114441,0.0310516,0.0167847,-9.97986,0.0128174,-0.0025177,0.014534,0.00732422,0.0115585,-0.00209808,0.0173187,0.00362396
35,2,-9.99003,-0.000305176,-0.0012207,-2.42501,0.0550706,-0.0747579,0.0562642,0.0428942,-0.0910102,0.145929,-0.125766,-0.0807394,0.0104523,0.0269318,0.0197601,0.0038147,0.0191879,0.00915527,0.0324631,0.019455,-9.97986,0.0135422,-0.00221252,0.0127411,0.00614166,-0.00270844,-0.00225067,0.0156021,0.00480652
35,3,-9.99003,-0.000610352,-0.000305176,-2.42592,0.0550706,-0.0741475,0.0544332,0.0572374,-0.090705,0.144403,-0.126377,-0.0825704,0.00644684,0.0233841,0.0196838,0.00190735,0.0185394,0.00915527,0.0225449,0.0185776,-9.97986,0.0146866,-0.00297546,0.0131226,0.00709534,-0.00839233,-0.0037384,0.0189209,0.0056076
35,4,-9.99003,0.000915527,0,-2.42592,0.0547655,-0.0747579,0.0535176,0.0694445,-0.0897895,0.145624,-0.124851,-0.0834859,0.00743866,0.0273132,0.0207901,0.00602722,0.0183487,0.0129318,0.0189209,0.0151062,-9.97986,0.0136185,-0.00370026,0.0122833,0.00293732,-0.00370026,-0.00236511,0.0160217,0.00526428
35,5,-9.99003,0.0012207,0.00152588,-2.42592,0.0550706,-0.0735371,0.055959,0.124071,-0.0846015,0.145318,-0.122715,-0.0816549,0.0104141,0.0284576,0.022583,0.0124359,0.0188446,0.0146484,0.0162506,0.0174713,-9.97986,0.0102615,-0.00511169,0.0112534,0.00473022,0.0168228,-0.00701904,0.0177002,0.00713348
35,6,-2.12779,0.000915527,0.00396729,-2.42684,0.0541551,-0.0765889,0.0538228,0.144213,-0.0879585,0.143792,-0.12302,-0.0847066,0.0137329,0.0217438,0.0232697,0.0237656,0.0183487,0.00999451,0.0186157,0.0161743,-9.97986,0.0153351,0.00106812,0.0104523,0.00442505,0.0165176,-0.00556946,0.0177765,0.00846863
35,7,5.69142,0.000610352,0.00473022,-2.42837,0.0538499,-0.0762837,0.0550435,0.153978,-0.0900947,0.143487,-0.120578,-0.0844015,0.00743866,0.0258255,0.0201797,0.0231934,0.0156021,0.0101852,0.0204086,0.0196838,-9.97986,0.0140381,-0.00350952,0.0151443,0.0062561,0.0182343,-0.00244141,0.0146866,0.0100327
35,8,10.0097,-0.000305176,0.00442505,-2.4302,0.0526292,-0.0759786,0.050771,0.137804,-0.0931465,0.142267,-0.12363,-0.0874532,0.0137329,0.0255585,0.0172806,0.0111771,0.0172424,0.00705719,0.0196838,0.0189209,-9.97986,0.0147629,-0.00293732,0.0138474,0.00278473,0.0189972,-0.00324249,0.0170135,0.00888824
35,9,10.0097,0,0.000762939,-2.4302,0.0535448,-0.0768941,0.0495503,0.0938585,-0.0965034,0.143792,-0.126682,-0.0892843,0.013504,0.0285339,0.0215912,0.0115967,0.0204468,0.00778198,0.0231552,0.0203323,-9.97986,0.0131989,-0.00267029,0.0143814,0.00823975,0.0134659,-0.00293732,0.0181198,0.00904083
36,0,10.0097,-0.000610352,0,-2.43142,0.0535448,-0.0762837,0.0513814,0.0792101,-0.0955879,0.143487,-0.127903,-0.0868429,0.0153732,0.0219345,0.0162506,0.0134277,0.0208664,0.00743866,0.0178909,0.0177383,-9.97986,0.00843048,-0.00171661,0.0153732,0.00617981,0.0156403,-0.00312805,0.0159073,0.00801086
36,1,10.0097,-0.000610352,-0.000152588,-2.42837,0.0538499,-0.0759786,0.0529073,0.0731066,-0.0949775,0.145013,-0.126682,-0.0862325,0.0107193,0.0268936,0.0202942,0.0111771,0.0164795,0.0115967,0.015564,0.0166702,-9.97986,0.0151443,7.62939e-005,0.0141525,0.0062561,0.0149155,-0.00240326,0.0152588,0.00663757
36,2,10.0097,0.000915527,0,-2.42684,0.0544603,-0.075063,0.0529073,0.0718859,-0.0949775,0.144403,-0.125766,-0.0862325,0.0147247,0.0226212,0.0169754,0.014534,0.0193787,0.0113297,0.0187683,0.0170898,-9.97986,0.0157928,-0.000610352,0.0151062,0.00797272,0.0181961,0.00411987,0.0172043,0.0050354
36,3,10.0097,0.000610352,0.000152588,-2.42776,0.055681,-0.0744527,0.0538228,0.072191,-0.0937568,0.145013,-0.125766,-0.0844015,0.0111771,0.014801,0.0204086,0.0110626,0.0185013,0.0116348,0.0204849,0.0203323,-9.97986,0.0172806,-0.00427246,0.0147247,0.000572205,0.0118256,0.00427246,0.0154877,0.0069809
36,4,10.0097,0.000610352,0.000457764,-2.42562,0.0553758,-0.0747579,0.0538228,0.07036,-0.0928413,0.146234,-0.124546,-0.0837911,0.0134659,0.0203323,0.0172043,0.0128174,0.0149918,0.0125885,0.0180817,0.0156784,-9.97986,0.0162506,0.0012207,0.0134277,0.00675201,0.0136948,-0.000762939,0.0158691,0.00347137
36,5,10.0097,0.000305176,0.000610352,-2.42653,0.0562914,-0.0720113,0.0550435,0.0712755,-0.0928413,0.146234,-0.124851,-0.0822652,0.00896454,0.02285,0.0157928,0.00785828,0.0177002,0.00518799,0.0205994,0.0159073,-9.97986,0.0172806,-0.000801086,0.0139618,0.00656128,0.01297,-0.00629425,0.014267,0.00282288
36,6,10.0097,-0.0012207,-0.000305176,-2.42501,0.0553758,-0.073232,0.0550435,0.0715807,-0.0922309,0.146539,-0.124851,-0.0816549,0.00930786,0.022316,0.0178909,0.00782013,0.0197601,0.0138474,0.0186539,0.0184631,-9.97986,0.0127411,-0.00358582,0.0126648,0.00274658,0.0123215,-0.00682831,0.015831,0.00556946
36,7,10.0097,0.00152588,0,-2.42592,0.0562914,-0.0729268,0.054128,0.0700548,-0.0919257,0.147455,-0.12363,-0.0810445,0.0094223,0.0242233,0.0170898,0.00541687,0.0163269,0.0094986,0.0213242,0.0181961,-9.97986,0.0187302,-0.00267029,0.0111771,0.0030899,0.0153732,-0.00793457,0.0152206,0.00495911
36,8,9.29311,-0.000305176,-0.00259399,-2.42714,0.0569017,-0.0735371,0.0526021,0.0233629,-0.0971137,0.145624,-0.128208,-0.0822652,0.0101852,0.0201416,0.0169754,0.00461578,0.0151825,0.0119781,0.0257492,0.0171661,-9.97986,0.0157547,-0.00171661,0.0124741,-0.000228882,0.016861,-0.0153351,0.0118256,0.00331879
36,9,0.437823,0.000915527,-0.00473022,-2.42531,0.0581224,-0.073232,0.0535176,-0.00410291,-0.0971137,0.14776,-0.128208,-0.0819601,0.00797272,0.0248337,0.0162506,0.00801086,0.0154877,0.00988007,0.0266266,0.0218964,-9.97986,0.0182724,-0.001297,0.0203323,0.0056839,0.0142288,-0.015564,0.0157547,0.00652313
37,0,-6.46403,-0.000305176,-0.00488281,-2.42592,0.0581224,-0.0738423,0.0535176,-0.0144789,-0.095893,0.146539,-0.130649,-0.0819601,0.0113678,0.0232697,0.0221634,0.0141907,0.0152588,0.0094223,0.0215912,0.0178146,-9.97986,0.0144196,-0.00663757,0.0145721,0.00209808,0.0111389,-0.0151443,0.0155258,0.00526428
37,1,-9.99003,0.000305176,-0.00305176,-2.42531,0.0572069,-0.0729268,0.0553487,0.0084093,-0.0928413,0.147455,-0.128208,-0.0810445,0.0157547,0.0237656,0.0222778,0.0195694,0.00972748,0.0123596,0.0251389,0.0177765,-9.97986,0.0170898,-0.00171661,0.0137329,0.00637054,0.015564,-0.0111008,0.0141144,0.00724792
37,2,-9.99003,0.000610352,-0.00152588,-2.42531,0.055681,-0.0723164,0.0562642,0.0398424,-0.0913154,0.147149,-0.127598,-0.0810445,0.00915527,0.0217056,0.0291061,0.0149536,0.0143433,0.0132751,0.02491,0.0161362,-9.97986,0.0175095,-0.000457764,0.0120163,0.00240326,-0.0120926,-0.00953674,0.0117874,0.00659943
37,3,-9.99003,0.000610352,-0.000305176,-2.42592,0.0553758,-0.075063,0.0556539,0.0566271,-0.0913154,0.144708,-0.125766,-0.0819601,0.0111008,0.0216293,0.028038,0.0164032,0.0145721,0.0109482,0.0226974,0.0160599,-9.97986,0.0160217,-0.00114441,0.0131226,3.8147e-005,-0.0127411,-0.00591278,0.0161362,0.00579834
37,4,-9.99003,0,0,-2.42501,0.0550706,-0.0747579,0.0553487,0.07036,-0.0913154,0.145624,-0.126987,-0.0831808,0.0112534,0.0261688,0.0300598,0.0123596,0.0179291,0.00797272,0.0200272,0.0200272,-9.97986,0.0143814,0.00221252,0.016098,0.00663757,-0.00816345,-0.0038147,0.0131607,0.00724792
37,5,-9.99003,0.000610352,0.00183105,-2.42653,0.0550706,-0.0744527,0.0568746,0.124681,-0.0861274,0.146539,-0.121189,-0.0825704,0.00972748,0.026207,0.0302505,0.0118637,0.0179672,0.0104523,0.0239182,0.0157166,-9.97986,0.0187302,0.000610352,0.0113297,0.00606537,0.0150681,0.00221252,0.019722,0.00598907
37,6,-1.96147,0.000610352,0.00320435,-2.42684,0.0553758,-0.0759786,0.0547383,0.143602,-0.0873481,0.143792,-0.121189,-0.0840963,0.010643,0.0250244,0.0261688,0.0140762,0.0164032,0.00843048,0.0179291,0.0185013,-9.97986,0.017662,0.00370026,0.0175095,0.00511169,0.0118637,0.00190735,0.0181961,0.00679016
37,7,5.87544,0.000915527,0.00396729,-2.42776,0.0535448,-0.0759786,0.0535176,0.153978,-0.0894843,0.145318,-0.121189,-0.0856222,0.00926971,0.0213242,0.0138855,0.0114822,0.0176239,0.00617981,0.0206375,0.0187683,-9.97986,0.0161743,0.00289917,0.0104523,0.00331879,0.0138474,0.00644684,0.0180817,0.00797272
37,8,10.0097,0,0.00442505,-2.43203,0.0532396,-0.0771993,0.050771,0.135973,-0.0955879,0.142877,-0.12241,-0.0868429,0.0126648,0.0206375,0.00850677,0.0106049,0.0165176,0.0119019,0.0154114,0.0144196,-9.97986,0.0165558,0.000572205,0.0149155,0.00385284,0.0094986,0.0063324,0.0126648,0.00946045
37,9,10.0097,-0.000610352,0.00106812,-2.4302,0.0538499,-0.0759786,0.0498555,0.0935533,-0.0977241,0.142267,-0.126987,-0.0886739,0.00923157,0.0198746,0.0044632,0.011673,0.0178909,0.0127792,0.0165558,0.0189209,-9.97986,0.0118256,-0.00190735,0.0133514,0.00282288,0.0114822,0.0114822,0.0147247,0.00827789
38,0,10.0097,-0.000610352,0,-2.4305,0.0538499,-0.0756734,0.0513814,0.0792101,-0.0971137,0.144708,-0.126377,-0.0886739,0.010376,0.0205231,0.0044632,0.0136948,0.0182343,0.0120544,0.016098,0.0189972,-9.97986,0.0140762,0.00106812,0.0108337,-0.00167847,0.0126648,0.0133133,0.0177002,0.00782013
38,1,10.0097,0.000915527,0,-2.42898,0.0547655,-0.0768941,0.0513814,0.0740221,-0.0949775,0.143182,-0.126682,-0.0862325,0.0114822,0.0197601,0.00377655,0.0134659,0.0169373,0.0111008,0.0204086,0.0150299,-9.97986,0.0133896,-0.000953674,0.0161743,-0.000190735,0.011673,0.0119019,0.0131607,0.00782013
38,2,10.0097,-0.000610352,-0.000152588,-2.42714,0.0547655,-0.0744527,0.0532125,0.072191,-0.0961982,0.143487,-0.126682,-0.085317,0.0123596,0.0177383,0.00663757,0.0142288,0.0160217,0.0112915,0.019455,0.0170517,-9.97986,0.0191879,0.00205994,0.0138092,0.00579834,0.0137711,0.00923157,0.0175858,0.00801086
38,3,10.0097,0.00244141,-0.000152588,-2.42684,0.0547655,-0.075063,0.0535176,0.0724962,-0.0946723,0.145624,-0.126072,-0.0850118,0.0125504,0.0226593,0.00865936,0.0138474,0.0192261,0.0150299,0.0196457,0.0173569,-9.97986,0.0152206,-0.00289917,0.0111389,0.00179291,0.0131226,0.00743866,0.0148773,0.00419617
38,4,10.0097,0.000305176,0.000457764,-2.42623,0.0562914,-0.0753682,0.054128,0.0706652,-0.0934516,0.144403,-0.123935,-0.0844015,0.0124741,0.0214005,0.00900269,0.0136185,0.0172043,0.00480652,0.0225067,0.0162125,-9.97986,0.0183105,0.000572205,0.0139999,0.00507355,0.0169754,0.0109482,0.00968933,0.00701904
38,5,10.0097,0.000915527,0,-2.42592,0.055681,-0.0735371,0.0544332,0.0709703,-0.0922309,0.146234,-0.124851,-0.0825704,0.0108337,0.0204468,0.0104523,0.00774384,0.0124359,0.00751495,0.0225449,0.0145721,-9.97986,0.0166321,-0.001297,0.0156403,0.00331879,0.00965118,0.00423431,0.0130844,0.00297546
38,6,10.0097,0.000915527,0.000610352,-2.4244,0.0575121,-0.0735371,0.0553487,0.0715807,-0.0913154,0.147149,-0.124241,-0.0813497,0.0147629,0.024147,0.0104523,0.0153351,0.0130844,0.0108719,0.0263977,0.0170135,-9.97986,0.0167847,-0.0030899,0.014534,0.000915527,0.0162125,0.00900269,0.0159454,0.00476837
38,7,10.0097,0.000610352,-0.000305176,-2.42531,0.0559862,-0.0744527,0.0556539,0.0679186,-0.0931465,0.146539,-0.123935,-0.0816549,0.0122452,0.0213623,0.017128,0.00968933,0.0110245,0.0117493,0.030098,0.0195313,-9.97986,0.0164413,0.00160217,0.00717163,0.00595093,0.0153351,0.00492096,0.0149155,0.00556946
38,8,9.10207,-0.00152588,-0.00228882,-2.42592,0.0569017,-0.0753682,0.0522969,0.0224474,-0.0983344,0.144708,-0.126682,-0.0834859,0.00816345,0.0255203,0.0163651,0.0104904,0.0171661,0.0130081,0.0266647,0.0183868,-9.97986,0.0159073,3.8147e-005,0.0128937,0.00133514,0.0149918,-0.00205994,0.0128555,0.00396729
38,9,0.229388,0.000610352,-0.00442505,-2.42653,0.0562914,-0.0735371,0.0532125,-0.00562879,-0.0955879,0.147149,-0.129123,-0.0822652,0.00965118,0.0237656,0.0162888,0.00919342,0.0113297,0.00770569,0.0217438,0.0159454,-9.97986,0.016861,-0.00354767,0.011673,0.00282288,0.0152969,0.000991821,0.0122833,0.0050354
39,0,-6.6093,0,-0.00549316,-2.42531,0.0575121,-0.0747579,0.0538228,-0.0166151,-0.0961982,0.146539,-0.130039,-0.0810445,0.0105667,0.0218582,0.0153732,0.00797272,0.0119019,0.00751495,0.0219727,0.0152206,-9.97986,0.0149155,-0.00225067,0.0130081,0.0030899,0.0164032,0.00118256,0.0128937,0.00553131
39,1,-9.99003,0.000305176,-0.00350952,-2.42531,0.055681,-0.073232,0.0556539,0.0071886,-0.094062,0.147149,-0.128513,-0.0810445,0.00919342,0.0254822,0.0197601,0.0108719,0.0192642,0.0128174,0.0223923,0.0199509,-9.97986,0.0144196,0.00553131,0.0128174,0.00514984,0.0150299,0.00358582,0.01091,0.0069809
39,2,-9.99003,-0.00183105,-0.00167847,-2.4247,0.055681,-0.0735371,0.0553487,0.0416735,-0.0910102,0.145624,-0.126987,-0.0810445,0.0131226,0.0214386,0.0149155,0.0126266,0.0174713,0.0082016,0.0167465,0.0239182,-9.97986,0.0151062,0.00160217,0.0121307,0.00133514,-0.0125504,-0.0025177,0.0127792,0.00614166
39,3,-9.99003,-0.000915527,0,-2.42592,0.0562914,-0.0738423,0.0550435,0.0596788,-0.090705,0.144708,-0.126377,-0.0807394,0.0133514,0.0224686,0.0178146,0.00991821,0.0159836,0.00663757,0.0203323,0.0151825,-9.97986,0.00976563,-0.00190735,0.0131989,0.00354767,-0.01091,-0.0012207,0.015831,0.00682831
39,4,-9.99003,-0.000610352,0.000152588,-2.42684,0.0538499,-0.075063,0.054128,0.0660875,-0.090705,0.146234,-0.125156,-0.0825704,0.00858307,0.0230026,0.0234985,0.0108337,0.0163651,0.00740051,0.0182724,0.0150299,-9.97986,0.0154114,0.00144958,0.0156021,0.00350952,-0.01194,-0.00183105,0.0123596,0.00679016
39,5,-9.99003,0.00183105,0.00198364,-2.4247,0.0553758,-0.0735371,0.055959,0.12285,-0.0839912,0.145318,-0.121799,-0.0816549,0.00911713,0.0210953,0.0172806,0.0069809,0.0155258,0.00671387,0.0119781,0.0165558,-9.97986,0.0162125,-0.00545502,0.0165939,0.00564575,0.00961304,0.000343323,0.0113678,0.00778198
39,6,-2.35545,-0.000915527,0.00366211,-2.42745,0.0544603,-0.0756734,0.0547383,0.142687,-0.0879585,0.143792,-0.121799,-0.0847066,0.00934601,0.0279617,0.0215912,0.0115204,0.0199509,0.00965118,0.00789642,0.0144577,-9.97986,0.0146484,0.00148773,0.0147629,0.0038147,0.0129318,-0.00457764,0.0141525,0.00953674
39,7,5.42684,0,0.00427246,-2.42806,0.0535448,-0.0759786,0.0538228,0.154283,-0.088874,0.143182,-0.120578,-0.085317,0.0123978,0.0190353,0.0203705,0.00831604,0.0176239,0.00900269,0.0128555,0.0159073,-9.97986,0.0112534,0.0031662,0.0173187,0.00213623,0.0118637,-0.00743866,0.0139236,0.00686646
39,8,10.0097,-0.000305176,0.00396729,-2.42898,0.0532396,-0.0759786,0.0522969,0.141466,-0.0925361,0.142877,-0.122715,-0.0859274,0.0135422,0.0211334,0.0186539,0.00808716,0.0183868,0.00804901,0.00926971,0.0197601,-9.97986,0.0187302,0.00453949,0.0177765,0.00534058,0.0102615,-0.00782013,0.0138092,0.00591278
39,9,10.0097,0.000610352,0.00152588,-2.4305,0.0535448,-0.0765889,0.0501607,0.094774,-0.0974189,0.143182,-0.126072,-0.0892843,0.00980377,0.0185776,0.0201416,0.0110626,0.0159454,0.00923157,0.0138855,0.0149155,-9.97986,0.0152206,-0.00118256,0.0162506,0.00133514,0.0094223,-0.00713348,0.0121307,0.0087738
40,0,10.0097,-0.00213623,0.00106812,-2.4302,0.0535448,-0.075063,0.050771,0.0804308,-0.0961982,0.143487,-0.126072,-0.0877584,0.0111389,0.0188065,0.0222397,0.0114059,0.0182724,0.00289917,0.0178146,0.0165558,-9.97986,0.0140381,0.0012207,0.0158691,0.00556946,0.0173569,-0.00804901,0.0123978,0.00541687
40,1,10.0097,0,-0.000152588,-2.42989,0.0541551,-0.0759786,0.0513814,0.0758531,-0.095893,0.145929,-0.126682,-0.0865377,0.0114059,0.0257874,0.0178146,0.010376,0.0149536,0.0130081,0.0148392,0.0183868,-9.97986,0.0183105,0.00465393,0.01297,0.00343323,0.0167847,-0.00709534,0.0163269,0.00904083
40,2,10.0097,0.00152588,0,-2.42806,0.0541551,-0.0753682,0.0516866,0.0724962,-0.0934516,0.144098,-0.126682,-0.0850118,0.0111008,0.0229645,0.0205231,0.00915527,0.0152969,0.00904083,0.0198746,0.0177765,-9.97986,0.0149536,-0.00179291,0.013237,0.00640869,0.0110626,-0.00881195,0.0145721,0.00614166
40,3,10.0097,0.000610352,0,-2.42745,0.0544603,-0.075063,0.0538228,0.0724962,-0.0952827,0.145318,-0.125766,-0.0844015,0.0114822,0.0246429,0.0188446,0.0131607,0.0177383,0.0069809,0.0205994,0.0184631,-9.97986,0.0142288,-0.00190735,0.0143433,0.00713348,0.0161743,-0.00789642,0.0162125,0.00556946
40,4,10.0097,0.000610352,0.000305176,-2.42653,0.0559862,-0.0741475,0.0538228,0.07036,-0.0925361,0.145624,-0.125461,-0.0831808,0.00644684,0.0233459,0.0230789,0.0129318,0.0147629,0.0062561,0.0302505,0.0154114,-9.97986,0.0122833,-0.00293732,0.0138474,0.0069046,0.0182343,-0.00484467,0.014267,0.00175476
40,5,10.0097,-0.000305176,0.000305176,-2.42531,0.0575121,-0.0744527,0.0544332,0.0715807,-0.0928413,0.145929,-0.124546,-0.0828756,0.0105286,0.0222015,0.0258255,0.0153732,0.0173187,0.0131607,0.0355148,0.0169373,-9.97986,0.0148392,-0.000610352,0.0152588,0.00476837,0.0203705,-0.00415802,0.0144577,0.00675201
