
Devices
1200
,,BP Load cell - Voltage,String Length - Voltage,Clutch Active - Voltage,#7 iPecs - Voltage,,,,,,,,,EMG 1-8 Left - Voltage,,,,,,,,Pylon Force - Voltage,EMG 9-16 Right - Voltage,,,,,,,,
Frame,Sub Frame,BP Load Cell,String Length,From Arduino Logic,A45,A135,A225,A315,S0,S90,S180,S270,ZSum,EMG 1 Glut Max,EMG 2 Glut Med,EMG 3 Biceps Femoris Long,EMG 4 Rectus Femoris,EMG 5 Vastus Medialis,EMG 6 Tib Ant,EMG 7 Med Gas,EMG 8 Soleus,Pylon volts,EMG 9 Glut Max,EMG 10 Glut Med,EMG 11 Biceps Femoris Long,EMG 12 Rectus Femoris,EMG 13 Vastus Medialis,EMG 14 Tib Ant,EMG 15 Med Gas,EMG 16 Soleus
,,V,V,V,V,V,V,V,V,V,V,V,V,V,V,V,V,V,V,V,V,V,V,V,V,V,V,V,V,V
1,0,10.0097,0.00152588,-0.00183105,-2.4247,0.0559862,-0.0747579,0.0538228,0.0718859,-0.0913154,0.145929,-0.124241,-0.0816549,-0.00812531,0.064888,0.0231552,0.0507355,0.000572205,0.00743866,0.0292587,0.0532532,-9.97986,0.00228882,0.0305176,3.8147e-005,-0.0786209,0.00137329,0.00286102,0.00869751,0.0104141
1,1,10.0097,-0.00152588,-0.00213623,-2.42348,0.0553758,-0.0738423,0.054128,0.0718859,-0.0913154,0.146234,-0.124241,-0.0819601,0.0087738,0.0376892,0.0107574,0.0526047,0.00339508,0.00801086,0.0335693,0.0562286,-9.97986,0.0156403,0.00888824,0.00717163,-0.0998306,-0.0043869,0.00244141,0.0120926,0.0114059
1,2,10.0097,-0.000915527,-0.00289917,-2.42745,0.0562914,-0.0753682,0.0535176,0.0282457,-0.0995551,0.144098,-0.128513,-0.0850118,0.01194,0.0282288,0.0111771,0.033226,0.001297,0.00671387,0.0321579,0.0344849,-9.97986,0.0280762,-0.0247955,0.00312805,-0.109329,-0.00114441,-0.00587463,0.0104904,0.00988007
1,3,3.91347,-0.000610352,-0.00473022,-2.42653,0.0575121,-0.0738423,0.0498555,-0.0193617,-0.100165,0.145013,-0.130649,-0.0847066,0.00610352,0.0178528,0.0164795,0.0317001,0.00297546,0.00209808,0.0363541,-0.0202179,-9.97986,0.018158,-0.0483322,0.00427246,-0.112305,-0.00488281,-0.00694275,0.0110245,0.00801086
1,4,-4.05681,-0.00152588,-0.00518799,-2.42592,0.0562914,-0.073232,0.0532125,-0.019972,-0.0965034,0.147455,-0.130954,-0.0828756,-0.00171661,0.0101852,0.0146103,0.0271225,0.00354767,0.00705719,0.0286102,-0.0733948,-9.97986,0.0209045,-0.0666809,0.00114441,-0.115356,-0.00934601,-0.0126266,0.0102234,0.00984192
1,5,-9.99003,0.0012207,-0.00457764,-2.42379,0.0575121,-0.0735371,0.055959,-0.00257703,-0.0931465,0.146539,-0.129429,-0.0807394,-0.0018692,-0.000953674,0.0149155,0.0233841,0.00289917,0.00595093,0.0323868,-0.0687027,-9.97986,0.0224686,-0.0460052,0.00476837,-0.111618,-0.016098,-0.00682831,0.0119019,0.00549316
1,6,-9.99003,0.000305176,-0.00228882,-2.4247,0.0569017,-0.0735371,0.0574849,0.0361803,-0.0900947,0.146234,-0.126987,-0.080129,0.00259399,-0.0120544,0.0153351,0.0231934,0.00354767,0.00797272,0.0291443,-0.0553513,-9.97986,0.0205994,-0.0370789,0.00335693,-0.10704,-0.0404739,-0.00102997,0.0149918,0.00591278
1,7,-9.99003,0.00183105,0.000305176,-2.42501,0.0550706,-0.0735371,0.0556539,0.0563219,-0.090705,0.147149,-0.129429,-0.0816549,0.00362396,-0.0190735,0.01091,0.0226593,0.0062561,0.00617981,0.02388,-0.0521469,-9.97986,0.0160599,-0.0310516,0.00110626,-0.0937271,-0.0428772,0.00728607,0.0125504,0.00846863
1,8,-9.99003,0.00152588,0.00183105,-2.42592,0.0544603,-0.0744527,0.0535176,0.0630358,-0.090705,0.145624,-0.126377,-0.0819601,0.0104141,0.00202179,0.0143814,0.0174713,0.00377655,0.0044632,0.0285721,-0.0291824,-9.97986,0.0126648,-0.00999451,0.00545502,-0.0727463,-0.0418854,0.0144958,0.0135422,0.0062561
1,9,-9.99003,0.00183105,0.00259399,-2.42592,0.0547655,-0.0747579,0.0550435,0.0828722,-0.0897895,0.147149,-0.125766,-0.0825704,0.00968933,0.0328445,0.0176239,0.0142288,0.00289917,0.00114441,0.0278091,0.00377655,-9.97986,0.0158691,-0.0152969,0.00705719,-0.0406265,-0.0217819,0.0104523,0.0139236,0.00289917
2,0,-5.6721,0.00152588,0.00793457,-2.42653,0.0541551,-0.0762837,0.055959,0.136888,-0.0876533,0.146539,-0.12241,-0.0825704,0.00801086,0.0679016,0.00839233,0.00865936,7.62939e-005,-0.00297546,0.0279617,0.00850677,-9.97986,0.0189972,-0.0237274,0.00423431,-0.0018692,-0.017395,0.00572205,0.0135422,0.0050354
2,1,1.61122,-0.000610352,0.00854492,-2.42806,0.0535448,-0.0756734,0.0553487,0.149401,-0.0885688,0.144403,-0.121189,-0.0840963,0.00801086,0.0837326,0.00659943,0.00701904,-0.000343323,0.00339508,0.0185013,0.0101471,-9.97986,0.0236511,-0.027504,0.0031662,0.0413895,-0.021019,0.00221252,0.0138855,0.00358582
2,2,8.81124,0,0.00808716,-2.42837,0.0547655,-0.0759786,0.0535176,0.157945,-0.0903999,0.144098,-0.121189,-0.0844015,0.0138092,0.069046,0.00854492,0.00770569,0.000953674,0.00171661,0.0153732,0.0183487,-9.97986,0.0212479,-0.0177002,0.00473022,0.0877762,-0.0210571,-0.00675201,0.0155258,0.000724792
2,3,10.0097,-0.0012207,0.00747681,-2.43081,0.0529344,-0.0771993,0.0498555,0.111254,-0.0961982,0.141046,-0.125766,-0.0880636,0.0194931,0.0310898,0.00038147,0.00167847,-0.00576019,-0.00209808,0.0209808,0.0300217,-9.97986,0.0288391,-0.0094986,0.00289917,0.136871,-0.0222015,-0.00534058,0.0130463,0.00114441
2,4,10.0097,0,0.00518799,-2.43142,0.0535448,-0.0756734,0.0501607,0.0816515,-0.0971137,0.141351,-0.126377,-0.0868429,0.0136185,-0.0152969,-0.022583,0.00549316,-0.000267029,-0.000457764,0.0194931,0.0272369,-9.97986,0.0271225,-0.0107956,0.00553131,0.196495,-0.0212479,3.8147e-005,0.0138092,0.000610352
2,5,10.0097,0.00213623,0.00564575,-2.42959,0.0547655,-0.0753682,0.0513814,0.0767687,-0.095893,0.143792,-0.126987,-0.0844015,0.0121307,-0.0196838,-0.0281906,0.00740051,-0.00389099,-0.0030899,0.0252533,0.0456238,-9.97986,0.0230408,0.0185013,0.00652313,0.256615,-0.0223541,-0.00892639,0.0134659,0.00114441
2,6,10.0097,0.000610352,0.00549316,-2.42745,0.0547655,-0.075063,0.0519917,0.072191,-0.0943672,0.143182,-0.127598,-0.0847066,0.00831604,-0.0163651,-0.0183105,0.00495911,-0.0118256,-0.00209808,0.0247574,0.0777435,-9.97986,0.0183868,0.0279617,0.0019455,0.314255,-0.0185776,-0.0136185,0.015831,-0.000457764
2,7,10.0097,0.00152588,0.00564575,-2.42806,0.0529344,-0.0747579,0.0535176,0.0718859,-0.0946723,0.144098,-0.126682,-0.0831808,0.00526428,-0.0226593,-0.0205231,0.00816345,-0.00442505,-0.00312805,0.024147,0.100784,-9.97986,0.0137329,0.0069046,0.000114441,0.371475,-0.0198746,-0.0126266,0.0127792,-0.000457764
2,8,10.0097,0.00152588,0.00610352,-2.42684,0.055681,-0.0756734,0.054128,0.0709703,-0.0937568,0.145624,-0.126377,-0.0831808,-0.00164032,-0.0124741,-0.0227356,0.00926971,-0.00431061,-0.00694275,0.0292206,0.108223,-9.97986,0.00976563,-0.0201035,0.000686646,0.437088,-0.0204086,-0.00404358,0.0163269,0
2,9,10.0097,0.0012207,0.0062561,-2.42501,0.0572069,-0.0747579,0.0535176,0.0712755,-0.0934516,0.145929,-0.124241,-0.0813497,0.00350952,-0.000267029,-0.0124741,0.00762939,-0.00328064,-0.00724792,0.0226593,0.12188,-9.97986,0.00919342,-0.0192261,0.00892639,0.491142,-0.0212097,-0.00175476,0.0192261,-0.00156403
3,0,10.0097,-0.0012207,0.00442505,-2.42623,0.0569017,-0.0738423,0.0547383,0.0706652,-0.0925361,0.146539,-0.124241,-0.0798238,0.00999451,0.0162506,0.00801086,0.0102615,-0.00812531,-0.00484467,0.0245667,0.102806,-9.97986,0.0112534,-0.0247574,0.00591278,0.530434,-0.0216293,0.00434875,0.0222397,0.00144958
3,1,10.0097,0.000610352,0.00396729,-2.42501,0.0565965,-0.0738423,0.054128,0.0737169,-0.0916206,0.146234,-0.124241,-0.080129,0.00717163,0.019722,0.0109863,0.00782013,-0.0135803,-0.00240326,0.0163269,0.067215,-9.97986,0.014267,-0.0510788,0.0019455,0.568581,-0.0256729,0.0063324,0.0188828,-0.00297546
3,2,10.0097,0.0012207,0.00244141,-2.42776,0.055681,-0.0747579,0.0522969,0.030382,-0.0971137,0.145929,-0.126987,-0.0822652,0.0138474,0.0343704,0.0185394,0.0107193,-0.0118637,-0.00106812,0.0247955,0.054245,-9.97986,0.0244141,-0.0448608,0.0109482,0.604324,-0.0193024,0.00789642,0.0225067,-0.000572205
3,3,4.02486,0.00152588,-0.000762939,-2.42714,0.0559862,-0.0747579,0.0519917,-0.0184462,-0.101081,0.145624,-0.130039,-0.0822652,0.0117111,0.0304413,0.0214386,0.00621796,-0.0129318,-0.00743866,0.0209045,0.0311661,-9.97986,0.0178146,-0.0247192,0.00724792,0.637245,-0.018959,0.00671387,0.0182724,-0.00118256
3,4,-3.93016,0,-0.000457764,-2.42562,0.0572069,-0.0735371,0.0535176,-0.0205824,-0.0971137,0.145929,-0.130039,-0.0810445,0.019455,0.0191116,0.031929,0.0140381,-0.0135422,-0.00835419,0.0214005,0.0107193,-9.97986,0.00816345,-0.00282288,0.00663757,0.67337,-0.0244522,0.00125885,0.0201416,0.000457764
3,5,-9.99003,-0.000915527,-0.00152588,-2.42348,0.0575121,-0.0735371,0.0562642,-0.00227185,-0.0931465,0.14776,-0.129123,-0.0795187,0.021553,0.0101471,0.038681,0.0088501,-0.0162125,-0.00984192,0.0164795,-0.0570679,-9.97986,0.00797272,0.0297546,0.00846863,0.704842,-0.0197601,-0.0019455,0.0228119,0.00450134
3,6,-9.99003,0.000610352,0.00106812,-2.42348,0.0565965,-0.0741475,0.0562642,0.0346544,-0.0903999,0.145318,-0.126377,-0.0798238,0.0182343,0.00152588,0.0500488,0.0069046,-0.0139618,-0.00835419,0.0217438,-0.0932693,-9.97986,0.0165176,0.033989,0.00720978,0.731354,-0.043602,-0.00759125,0.0198364,-0.000495911
3,7,-9.99003,0.00183105,0.00213623,-2.42562,0.0559862,-0.0744527,0.0526021,0.0554064,-0.0916206,0.146234,-0.126987,-0.0813497,0.0137329,0.00850677,0.0580597,0.00961304,-0.0112152,-0.00747681,0.0204086,-0.0479889,-9.97986,0.0166702,0.0398254,0.00812531,0.760803,-0.0452423,-0.0164413,0.0200272,-0.00434875
3,8,-9.99003,0,0.00259399,-2.42592,0.0547655,-0.0747579,0.0547383,0.0618151,-0.0922309,0.145318,-0.125766,-0.0816549,0.00572205,0.0159836,0.054512,0.00991821,-0.0094223,-0.0118637,0.0187302,-0.00938416,-9.97986,0.0229645,0.0511932,0.00816345,0.778008,-0.0411224,-0.0231171,0.0179291,-0.00267029
3,9,-9.99003,0.0012207,0.00244141,-2.42714,0.0553758,-0.0756734,0.054128,0.082567,-0.088874,0.145013,-0.125461,-0.0834859,-0.000305176,0.0121689,0.0525284,0.00427246,-0.00431061,-0.0104141,0.0188446,-0.0030899,-9.97986,0.0172806,0.0857925,0.0114822,0.786705,-0.0191498,-0.0307846,0.0188065,-0.00339508
4,0,-5.58879,0.000610352,0.00488281,-2.42684,0.0544603,-0.075063,0.0562642,0.135668,-0.0873481,0.143487,-0.12241,-0.0834859,0.0037384,0.0122452,0.0555038,0.00534058,0.00133514,-0.0110245,0.0197983,0.0178146,-9.97986,0.0163269,0.12928,0.00953674,0.791397,-0.0160217,-0.0354767,0.0201416,-0.00442505
4,1,1.6866,0.000610352,0.00488281,-2.42837,0.0541551,-0.0759786,0.0547383,0.150621,-0.0873481,0.144708,-0.122104,-0.0844015,0.00843048,0.0247955,0.0551224,0.00343323,0.00839233,-0.0109482,0.0256348,0.0386429,-9.97986,0.0216293,0.0656891,0.011673,0.788536,-0.0125504,-0.0243759,0.0214005,-0.00198364
4,2,8.86739,0.000305176,0.00411987,-2.42776,0.0541551,-0.0756734,0.0529073,0.157945,-0.0885688,0.144708,-0.121799,-0.0856222,0.0170135,0.0588608,0.0593567,0.00141144,0.0176239,-0.0140381,0.0139618,0.0720596,-9.97986,0.0125885,-0.0559616,0.00736237,0.780296,-0.0148392,-0.0137711,0.0195313,-0.00465393
4,3,10.0097,0.0012207,0.00259399,-2.43142,0.0532396,-0.0771993,0.0513814,0.110338,-0.0965034,0.141961,-0.124546,-0.0895895,0.0189209,0.0784683,0.0627136,-0.00583649,0.0135803,-0.0144196,0.0189209,0.0732422,-9.97986,0.0179291,-0.0666809,0.00740051,0.775337,-0.0146103,-0.0094986,0.0247955,-0.00591278
4,4,10.0097,-0.00152588,-0.000305176,-2.4302,0.0535448,-0.075063,0.0498555,0.0865343,-0.0968086,0.141656,-0.126072,-0.0883688,0.0144577,0.0391769,0.0482178,7.62939e-005,0.0234222,-0.013237,0.0219727,0.0602341,-9.97986,0.020256,0.00843048,0.00915527,0.757408,-0.0114059,0.00850677,0.0209427,-0.00190735
4,5,10.0097,-0.0012207,-0.00213623,-2.42928,0.0544603,-0.0747579,0.0516866,0.077379,-0.0946723,0.144098,-0.125766,-0.0871481,0.0117111,0.0114441,0.0185394,0.00350952,0.0234985,-0.0152969,0.0189972,0.044632,-9.97986,0.0226974,0.0201416,0.0135803,0.73082,-0.00831604,0.0136566,0.0238037,-3.8147e-005
4,6,10.0097,0.00152588,-0.00183105,-2.42776,0.0547655,-0.0753682,0.0535176,0.0731066,-0.0946723,0.144708,-0.126377,-0.0859274,0.00980377,-0.000305176,0.0088501,0.00621796,0.0290298,-0.0179672,0.0239563,0.0577545,-9.97986,0.018959,-0.0197601,0.010376,0.714989,-0.00595093,0.022316,0.0225067,-0.00144958
4,7,10.0097,0.000915527,-0.00137329,-2.42714,0.0544603,-0.0747579,0.0535176,0.0715807,-0.0931465,0.144098,-0.124241,-0.0847066,0.00881195,-0.0104904,0.0236511,0.00366211,0.0312805,-0.0199509,0.0182343,0.046196,-9.97986,0.0139618,-0.0287247,0.00934601,0.702019,-0.00545502,0.0175858,0.0195694,-0.00461578
4,8,10.0097,0.00244141,-0.000610352,-2.42684,0.0565965,-0.0744527,0.0535176,0.07036,-0.0928413,0.145929,-0.126072,-0.0834859,0.00751495,0.00370026,0.0365829,0.00392914,0.0340652,-0.0221252,0.020752,-0.0112915,-9.97986,0.00907898,-0.0296402,0.0118637,0.69912,-0.00247955,0.0118256,0.0177765,-0.00278473
4,9,10.0097,-0.000610352,-0.000457764,-2.42592,0.0562914,-0.0729268,0.0529073,0.0697496,-0.0925361,0.146234,-0.124546,-0.0840963,0.0134277,0.020752,0.047493,0.00839233,0.0367355,-0.0205994,0.019989,-0.0193024,-9.97986,0.0102615,-0.0245667,0.0139999,0.676956,7.62939e-005,0.00549316,0.0193405,-0.00442505
5,0,10.0097,0.00152588,-0.00259399,-2.42714,0.055681,-0.0735371,0.054128,0.0715807,-0.0922309,0.146844,-0.125156,-0.0822652,0.0165176,0.0235367,0.0514221,0.00423431,0.0377655,-0.0272369,0.0210571,0.0368118,-9.97986,0.00896454,-0.0160599,0.0114059,0.637016,-0.0019455,-0.0128937,0.019722,-0.00160217
5,1,10.0097,-0.000610352,-0.00320435,-2.42531,0.0562914,-0.0741475,0.0547383,0.0709703,-0.0919257,0.147149,-0.123325,-0.0831808,0.0154495,0.0218964,0.0484085,0.00499725,0.0371933,-0.0269699,0.0211334,0.0686646,-9.97986,0.00640869,-0.0062561,0.013504,0.595245,-0.00331879,-0.0248337,0.0209808,-0.00453949
5,2,10.0097,0.000915527,-0.00579834,-2.42714,0.0547655,-0.0738423,0.0522969,0.0267198,-0.0986396,0.146234,-0.128513,-0.0850118,0.0102234,0.0314713,0.0416183,0.00442505,0.0412369,-0.0309753,0.0193787,0.0512314,-9.97986,0.00480652,-0.0133514,0.0119781,0.550423,-0.000991821,-0.0298691,0.0209427,-0.00606537
5,3,3.99892,0.00213623,-0.00808716,-2.4244,0.0584276,-0.0735371,0.0532125,-0.0166151,-0.094062,0.180414,-0.127903,-0.0840963,0.00595093,0.0522614,0.0440598,0.00488281,0.0385666,-0.0327301,0.0200272,0.0252151,-9.97986,0.00247955,-0.0267029,0.00862122,0.494957,0.00312805,-0.0307083,0.022316,-0.00522614
5,4,-3.9329,0.0106812,-0.00961304,-2.42562,0.0559862,-0.0741475,0.0532125,-0.019972,-0.0980293,0.15661,-0.128513,-0.0837911,0.0117493,0.0643539,0.0457382,0.00663757,0.0409698,-0.0283432,0.0187302,-0.00682831,-9.97986,0.00537872,-0.0241852,0.0133133,0.433617,0.00495911,-0.019722,0.0229263,-0.000610352
5,5,-9.99003,0.000305176,-0.0106812,-2.4247,0.0562914,-0.0741475,0.0538228,-0.00349256,-0.0946723,0.150201,-0.130039,-0.0825704,0.011673,0.0542068,0.0212479,0.0111771,0.04673,-0.0343323,0.0216293,-0.0168228,-9.97986,0.00770569,-0.0126648,0.0115204,0.369835,0.00488281,-0.00926971,0.019989,-0.00473022
5,6,-9.99003,0.0012207,-0.00732422,-2.42592,0.055681,-0.0747579,0.0568746,0.0364855,-0.0903999,0.147455,-0.128513,-0.0813497,0.0171661,0.0336075,0.00205994,0.0132751,0.0502777,-0.0326538,0.0201797,-0.023613,-9.97986,0.00480652,-0.00354767,0.0181961,0.31929,-0.0193405,0.00411987,0.0194168,-0.00450134
5,7,-9.99003,0.000610352,-0.00595093,-2.42623,0.0550706,-0.0744527,0.0550435,0.054796,-0.0910102,0.145318,-0.126377,-0.0825704,0.0122833,-0.000610352,-0.0108337,0.0104904,0.0456619,-0.0351334,0.0182724,-0.0252533,-9.97986,0.00904083,-0.00541687,0.0181198,0.265846,-0.0200272,0.00862122,0.0218201,-0.001297
5,8,-9.99003,0.00152588,-0.00518799,-2.42592,0.0562914,-0.0744527,0.0553487,0.0633409,-0.0910102,0.145624,-0.126377,-0.0834859,0.0136948,-0.00904083,-0.0203323,0.00923157,0.0532532,-0.0349045,0.0168228,-0.011673,-9.97986,0.0110626,-0.0343323,0.0148773,0.211868,-0.0215912,0.0133896,0.0157928,-0.00270844
5,9,-9.99003,0.0012207,-0.00457764,-2.42409,0.0541551,-0.0747579,0.054128,0.0804308,-0.0891792,0.145318,-0.125766,-0.0850118,0.0069046,-0.000305176,-0.0107574,0.0137711,0.0542831,-0.0365448,0.0162506,0.000114441,-9.97986,0.0121307,-0.0190735,0.0190353,0.162811,0.00209808,0.0218964,0.0170898,-0.00305176
6,0,-5.72062,0,-0.000915527,-2.42623,0.0541551,-0.0759786,0.0550435,0.136278,-0.0876533,0.144098,-0.12241,-0.0850118,0.00988007,0.00465393,-0.000534058,0.00888824,0.0571442,-0.0387573,0.0170898,0.00495911,-9.97986,0.00926971,0.00972748,0.0172806,0.110703,0.00183105,0.00766754,0.0162125,-0.00713348
6,1,1.55629,0,-0.000915527,-2.42837,0.0541551,-0.0765889,0.054128,0.152452,-0.088874,0.145013,-0.121189,-0.0859274,0.00629425,0.00225067,0.0195313,0.0109482,0.0553894,-0.0284958,0.0178146,0.00526428,-9.97986,0.011673,0.0343323,0.0129318,0.0527954,0.00587463,0.00831604,0.0159454,-0.0025177
6,2,8.74288,0.0012207,-0.00152588,-2.42745,0.0535448,-0.075063,0.0538228,0.158556,-0.0885688,0.144098,-0.12241,-0.0862325,0.0031662,0.00179291,0.0287247,0.0133133,0.0583649,-0.0318527,0.0186157,-0.00167847,-9.97986,0.0113678,0.0447845,0.0164413,-0.013237,0.00617981,0.00869751,0.0183105,-0.00392914
6,3,10.0097,0.000610352,-0.00335693,-2.43142,0.0535448,-0.0762837,0.04894,0.11339,-0.0971137,0.142572,-0.125461,-0.0914205,0.00972748,0.0240707,0.0405884,0.0118256,0.0598907,-0.0313568,0.0194168,0.00434875,-9.97986,0.0149918,0.0211716,0.0222778,-0.0724411,0.00835419,0.00370026,0.0143814,0.00038147
6,4,10.0097,0.00183105,-0.00534058,-2.4302,0.0538499,-0.0747579,0.050771,0.0853136,-0.0965034,0.143792,-0.127598,-0.0895895,0.0111389,0.0426102,0.0352097,0.0121689,0.0564957,-0.032959,0.026207,0.00667572,-9.97986,0.0265884,-0.00473022,0.0175476,-0.141182,0.00511169,-0.0144958,0.0175858,0.000457764
6,5,10.0097,-0.00183105,-0.00656128,-2.42959,0.0529344,-0.0756734,0.0522969,0.077379,-0.0955879,0.144708,-0.125461,-0.0892843,0.0102615,0.0384521,0.0225067,0.0152969,0.0616074,-0.0314331,0.0197983,0.0218201,-9.97986,0.0276566,-0.0144577,0.0198364,-0.199776,0.00988007,-0.0231171,0.012207,-0.00320435
6,6,10.0097,0.000610352,-0.00656128,-2.42837,0.0547655,-0.075063,0.0526021,0.0734117,-0.0946723,0.145318,-0.126377,-0.0868429,0.0115585,0.0459671,0.0170135,0.0130844,0.0618744,-0.0321579,0.0183868,0.0318527,-9.97986,0.0257111,0.00202179,0.0266647,-0.264549,0.0114059,-0.0139999,0.0163651,-0.00198364
6,7,10.0097,0,-0.00579834,-2.42745,0.0547655,-0.075063,0.054128,0.0718859,-0.0943672,0.142877,-0.125766,-0.0859274,0.00812531,0.0625992,0.0197601,0.0144577,0.0563049,-0.0315857,0.0225067,0.0506592,-9.97986,0.0234985,0.0172424,0.0239182,-0.324326,0.00610352,-0.00801086,0.0157166,-0.00167847
6,8,10.0097,0.0012207,-0.00595093,-2.42714,0.0553758,-0.0753682,0.0522969,0.0706652,-0.0946723,0.145624,-0.125461,-0.0856222,0.0088501,0.0666046,0.0122452,0.0196457,0.0563812,-0.0247955,0.0211334,0.0709534,-9.97986,0.0165176,0.0273132,0.0181198,-0.379372,0.00507355,-0.00587463,0.0125885,0.00152588
6,9,10.0097,-0.000610352,-0.00457764,-2.42592,0.0562914,-0.0747579,0.0544332,0.0706652,-0.0925361,0.147149,-0.125461,-0.0850118,0.0126648,0.0682449,0.0130463,0.0156021,0.0577164,-0.0274658,0.0226974,0.101128,-9.97986,0.0112915,0.0321198,0.0224304,-0.427284,0.00473022,-0.000457764,0.0148773,0.000991821
7,0,10.0097,0,-0.00473022,-2.42501,0.0559862,-0.0744527,0.0538228,0.0697496,-0.0922309,0.146539,-0.122104,-0.0831808,0.00389099,0.0815201,0.0315857,0.0206375,0.0536728,-0.0230408,0.0254059,0.105515,-9.97986,0.01194,0.0302887,0.0221252,-0.482903,0.0109482,0.0169754,0.0134659,-0.000915527
7,1,10.0097,0.00152588,-0.00457764,-2.42592,0.055681,-0.0741475,0.0550435,0.0718859,-0.0925361,0.146539,-0.124241,-0.0822652,0.00347137,0.0732422,0.0320053,0.0228882,0.0536728,-0.0177765,0.0217819,0.088768,-9.97986,0.00740051,0.0229263,0.0220871,-0.526772,0.00850677,0.0213623,0.0115204,0.000305176
7,2,10.0097,-0.000610352,-0.00610352,-2.42745,0.0562914,-0.075063,0.0522969,0.0279405,-0.0968086,0.145318,-0.126987,-0.0847066,0.00415802,0.0698853,0.0400925,0.019722,0.0460815,-0.0185394,0.0238419,0.0679398,-9.97986,0.00480652,0.0155258,0.0205612,-0.569382,0.0069809,-0.0037384,0.0125504,-0.000114441
7,3,4.13045,0.000305176,-0.00823975,-2.42837,0.0559862,-0.0738423,0.0513814,-0.0172255,-0.0998603,0.145929,-0.13248,-0.0844015,0.0062561,0.0964737,0.0489426,0.0260162,0.0489044,-0.0146866,0.026741,0.0705338,-9.97986,0.00190735,-0.000534058,0.0234985,-0.604477,0.00732422,-0.0127411,0.0159073,0.00263214
7,4,-3.83891,0,-0.00762939,-2.42501,0.0569017,-0.0738423,0.0529073,-0.0208876,-0.0968086,0.145624,-0.129734,-0.0828756,0.00179291,0.0876999,0.0355911,0.0246811,0.0453949,-0.0127029,0.0274658,0.073967,-9.97986,0.00377655,-0.00354767,0.025177,-0.63076,0.00835419,-0.0148392,0.0111771,0.00419617
7,5,-9.99003,-0.00213623,-0.00717163,-2.4247,0.0575121,-0.0735371,0.055959,-0.0016615,-0.0922309,0.145929,-0.128513,-0.0810445,0.00797272,0.0432205,0.0320435,0.0191498,0.044632,-0.00980377,0.0260162,0.080719,-9.97986,-0.000724792,-0.00717163,0.0204086,-0.653496,0.00587463,-0.00953674,0.01194,0.0038147
7,6,-9.99003,0.0012207,-0.00473022,-2.4244,0.055681,-0.0741475,0.0565694,0.0346544,-0.0903999,0.145929,-0.125766,-0.0810445,0.0136185,0.0337982,0.0401688,0.0110626,0.0448227,-0.0128937,0.0289917,0.0973892,-9.97986,-0.00549316,-0.0112152,0.0239944,-0.664864,-0.0146103,-0.00442505,0.0125504,0.00221252
7,7,-9.99003,0.0012207,-0.00183105,-2.42531,0.0559862,-0.0744527,0.0571797,0.0551012,-0.0913154,0.145013,-0.125766,-0.0819601,0.031662,0.0222778,0.0445938,0.0165558,0.0434875,-0.013504,0.0302505,0.0983429,-9.97986,-0.00869751,-0.0134659,0.0263977,-0.678482,-0.0194931,-0.0062561,0.0127411,0.00671387
7,8,-9.99003,0.000305176,-0.00183105,-2.42623,0.0562914,-0.0747579,0.0550435,0.0642565,-0.0916206,0.145318,-0.125766,-0.0834859,0.0276566,0.0241089,0.0675583,0.0190735,0.0426865,-0.00923157,0.0301743,0.0955582,-9.97986,-0.00869751,-0.0178146,0.0220871,-0.680428,-0.0228119,-0.00579834,0.0138855,0.00450134
7,9,-9.99003,0.00244141,-0.000305176,-2.42623,0.0547655,-0.075063,0.0544332,0.0853136,-0.0897895,0.145929,-0.124546,-0.0828756,0.0210953,0.0439072,0.103645,0.017395,0.0510788,-0.00663757,0.038147,0.108833,-9.97986,-0.00858307,-0.00770569,0.0236511,-0.688286,0.00556946,0.00350952,0.0128937,0.00644684
8,0,-5.30894,0.000915527,0.00305176,-2.42623,0.0541551,-0.0759786,0.0544332,0.136278,-0.0876533,0.144403,-0.12241,-0.0831808,0.0150299,0.035553,0.123749,0.0184631,0.0495529,-0.00415802,0.0350952,0.0980759,-9.97986,-0.00556946,-0.00961304,0.0271225,-0.6847,0.00713348,0.00995636,0.011673,0.00701904
8,1,2.00154,-0.000610352,0.00411987,-2.42776,0.0538499,-0.0756734,0.0550435,0.153368,-0.0882636,0.143487,-0.120884,-0.085317,0.0156784,0.0217438,0.127106,0.0126648,0.0453949,-0.0031662,0.0333023,0.0403976,-9.97986,0.00278473,-0.0233078,0.0249863,-0.685654,0.00247955,0.0126266,0.0154495,0.00774384
8,2,9.22475,0.0012207,0.00457764,-2.42745,0.0544603,-0.0762837,0.0529073,0.157945,-0.0897895,0.142877,-0.121494,-0.085317,0.0087738,-0.0185013,0.127029,0.00778198,0.0440979,0.00148773,0.0331116,-0.040741,-9.97986,-0.00301361,-0.00354767,0.0229645,-0.672646,0.00358582,0.0038147,0.0101852,0.00724792
8,3,10.0097,-0.0012207,0.00320435,-2.43081,0.0523241,-0.0781148,0.0501607,0.109728,-0.0974189,0.140741,-0.126072,-0.0892843,0,-0.0333786,0.108604,7.62939e-005,0.0467682,0.00270844,0.0338364,-0.112076,-9.97986,0.00583649,0.00247955,0.0257111,-0.660324,0.00328064,0.0069046,0.0127792,0.00686646
8,4,10.0097,0.00244141,0.000305176,-2.4305,0.0535448,-0.0762837,0.0495503,0.0853136,-0.0980293,0.144403,-0.125766,-0.0886739,-0.00335693,0.0094986,0.0817108,-0.00518799,0.0479889,0.00598907,0.0324631,-0.121002,-9.97986,0.0102615,-0.0115204,0.0230026,-0.652924,0.0019455,0.00358582,0.0112152,0.0069809
8,5,10.0097,0.000915527,0.00106812,-2.42928,0.0547655,-0.075063,0.0519917,0.0776842,-0.0949775,0.144098,-0.125766,-0.0865377,3.8147e-005,0.0940704,0.0634766,0.00289917,0.0430298,0.0127029,0.0386429,-0.109062,-9.97986,0.00408173,0.0222397,0.0226974,-0.642357,0.0031662,-0.00507355,0.0131607,0.00946045
8,6,10.0097,0.000305176,0.00167847,-2.42867,0.0565965,-0.075063,0.0529073,0.0728014,-0.0946723,0.145318,-0.126377,-0.0865377,0.0137329,0.133095,0.0399017,0.00957489,0.0491714,0.0106049,0.0331116,-0.126038,-9.97986,0.00576019,0.0308609,0.0265503,-0.630417,-0.000801086,-0.0196075,0.0123596,0.00770569
8,7,10.0097,-0.0012207,0.0012207,-2.42714,0.0544603,-0.0747579,0.054128,0.0706652,-0.0943672,0.144708,-0.126987,-0.0840963,0.0239182,0.128593,0.000915527,0.00583649,0.0477219,0.0175858,0.0340652,-0.113411,-9.97986,0.00564575,0.0304794,0.0218201,-0.616302,0.00148773,-0.0312042,0.0164795,0.0114441
8,8,10.0097,-0.000915527,0.00167847,-2.42592,0.0541551,-0.0753682,0.0535176,0.0706652,-0.0937568,0.142572,-0.124851,-0.0844015,0.0161362,0.0823212,-0.0724411,0.00350952,0.045433,0.0192642,0.0320816,-0.0974274,-9.97986,0.0193787,0.0331879,0.0265884,-0.598907,-0.000915527,-0.0328445,0.0181961,0.0114441
8,9,10.0097,-0.00152588,0.00152588,-2.42623,0.0565965,-0.0747579,0.0532125,0.0706652,-0.0937568,0.142572,-0.124241,-0.0822652,0.0132751,-0.0226593,-0.156174,0.00411987,0.0447464,0.0193024,0.0347519,-0.124283,-9.97986,0.0344467,0.0215149,0.015564,-0.58651,-0.000724792,-0.0356674,0.0169373,0.0101089
9,0,10.0097,-0.000915527,0.00152588,-2.42501,0.0565965,-0.0744527,0.0544332,0.0718859,-0.0925361,0.143792,-0.12363,-0.0813497,0.0158691,-0.0989914,-0.200615,0.0178909,0.0490189,0.0261688,0.0345993,-0.12516,-9.97986,0.0518036,0.021286,0.0284958,-0.558853,0.00144958,-0.0255203,0.0167084,0.0118256
9,1,10.0097,0.00305176,0.00198364,-2.4247,0.0575121,-0.0738423,0.0556539,0.0715807,-0.0903999,0.145624,-0.123935,-0.0810445,0.0156021,-0.138397,-0.206985,0.0146866,0.0471497,0.0212479,0.0302887,-0.102959,-9.97986,0.0644684,0.00514984,0.0216293,-0.54451,-0.0019455,-0.0209808,0.0154877,0.0118637
9,2,10.0097,0.0012207,-0.000610352,-2.42745,0.0562914,-0.0738423,0.0516866,0.0291613,-0.0989448,0.146234,-0.127903,-0.0834859,0.00637054,-0.156136,-0.186348,0.013237,0.0452423,0.0265503,0.0375748,-0.0616074,-9.97986,0.069313,-0.0176239,0.0238037,-0.536575,-0.00282288,-0.0114441,0.0168228,0.010376
9,3,4.20522,0.000915527,-0.00213623,-2.42653,0.055681,-0.0741475,0.0519917,-0.0187513,-0.100776,0.146539,-0.130649,-0.0825704,0.00637054,-0.120659,-0.142288,0.0120926,0.0536346,0.0275421,0.0389099,-0.0318909,-9.97986,0.0601578,-0.0130463,0.0201797,-0.521965,-0.00102997,0.00827789,0.0178909,0.0153351
9,4,-3.73912,0.000305176,-0.00198364,-2.42623,0.0572069,-0.0735371,0.0526021,-0.0193617,-0.0977241,0.14837,-0.130954,-0.0816549,0.00495911,-0.0786972,-0.0812149,0.0126266,0.0495148,0.0299835,0.0346375,-0.0395203,-9.97986,0.04776,0.00328064,0.0255203,-0.49305,-0.00137329,0.0234985,0.020256,0.00980377
9,5,-9.99003,0.00152588,-0.00396729,-2.42318,0.0575121,-0.0735371,0.0562642,-0.00318738,-0.0919257,0.146844,-0.127903,-0.0804342,0.0101471,-0.0530624,-0.0528336,0.00934601,0.0481415,0.0263977,0.0391769,-0.0433731,-9.97986,0.0362396,0.0037384,0.0232315,-0.472908,-0.00411987,0.022316,0.0196457,0.0128937
9,6,-9.99003,0,-0.000305176,-2.4244,0.0569017,-0.0735371,0.0556539,0.0352648,-0.090705,0.146234,-0.126682,-0.0795187,0.0107574,-0.026474,-0.0424194,0.0114822,0.0494766,0.0359344,0.0361633,-0.0154877,-9.97986,0.030632,0.0119019,0.0215912,-0.450058,-0.0260925,0.00469208,0.0207901,0.0141144
9,7,-9.99003,0.000305176,0.00213623,-2.42562,0.0562914,-0.0735371,0.0556539,0.0541857,-0.0913154,0.147149,-0.125766,-0.0798238,0.00934601,-0.00595093,-0.032959,0.0137329,0.0473785,0.0326157,0.0358582,-0.00286102,-9.97986,0.0281143,0.0185013,0.0208664,-0.415192,-0.028801,-0.0160217,0.0246811,0.0128937
9,8,-9.99003,-0.000610352,0.00350952,-2.42623,0.0553758,-0.0738423,0.0553487,0.0633409,-0.0910102,0.145624,-0.126072,-0.0810445,0.00843048,-0.00530243,-0.0214005,0.0100327,0.0502777,0.0346756,0.0397873,0.00133514,-9.97986,0.0310898,-0.00339508,0.018692,-0.368614,-0.0261688,-0.0174332,0.0266647,0.017395
9,9,-9.99003,0.000915527,0.0050354,-2.42653,0.0538499,-0.0747579,0.0556539,0.0850084,-0.0910102,0.145318,-0.124546,-0.0822652,0.0116348,0.00148773,-0.0114822,0.0127792,0.0447464,0.037117,0.0310516,0.00141144,-9.97986,0.036087,0.00297546,0.0159836,-0.320702,-0.000419617,-0.014534,0.0230408,0.0146484
10,0,-5.48106,-0.000305176,0.0100708,-2.42745,0.0541551,-0.075063,0.0547383,0.135973,-0.0867378,0.144708,-0.12241,-0.0816549,0.0107574,0.00499725,-0.00263214,0.0138474,0.0489044,0.0386429,0.0346756,0.0056076,-9.97986,0.0396347,0.0386429,0.0209808,-0.2491,0.00175476,-0.00839233,0.0275421,0.017128
10,1,1.8282,0.000305176,0.0108337,-2.42867,0.0523241,-0.0753682,0.0538228,0.153368,-0.0873481,0.144098,-0.121189,-0.0828756,0.00774384,0.0139618,0.00514984,0.010376,0.0466537,0.0374603,0.0350571,0.00980377,-9.97986,0.0346375,0.0378036,0.0187683,-0.181122,0.00110626,0.00141144,0.0259399,0.0171661
10,2,9.02761,0.000305176,0.0100708,-2.42898,0.0541551,-0.0768941,0.054128,0.158251,-0.0882636,0.143487,-0.121189,-0.0834859,0.0133896,0.0188065,0.00511169,0.0122452,0.0458145,0.0369263,0.0294113,0.0209427,-9.97986,0.031395,0.021286,0.0189209,-0.118561,0.000534058,0.0178909,0.0278473,0.0191879
10,3,10.0097,0.00244141,0.00839233,-2.43264,0.0529344,-0.0771993,0.0498555,0.111254,-0.0971137,0.141046,-0.124851,-0.0868429,0.010376,0.0221634,0.00972748,0.0128937,0.0394821,0.039978,0.0294876,0.0257874,-9.97986,0.0233459,0.0201797,0.0172424,-0.055809,0.000419617,0.0270081,0.0254059,0.0183487
10,4,10.0097,0.000305176,0.00656128,-2.42959,0.0538499,-0.0768941,0.0501607,0.0859239,-0.0986396,0.142267,-0.126987,-0.0865377,0.0129318,0.0203705,0.0183868,0.0143051,0.0449371,0.042572,0.0288773,0.0291824,-9.97986,0.0207901,0.0124741,0.0122452,0.0165558,0.001297,0.030632,0.0278854,0.0162506
10,5,10.0097,0.00213623,0.00671387,-2.42959,0.0541551,-0.0762837,0.0532125,0.075548,-0.0995551,0.144403,-0.126682,-0.085317,0.00938416,0.0157928,0.019989,0.0123215,0.0383377,0.0389481,0.0261307,0.0321579,-9.97986,0.0169373,0.00659943,0.0128555,0.0795364,0.00125885,0.0284958,0.0276184,0.0135422
10,6,10.0097,0.0012207,0.00686646,-2.42806,0.0535448,-0.0744527,0.0535176,0.0731066,-0.0949775,0.144403,-0.127292,-0.0844015,0.0102615,0.0189972,0.0281143,0.0141144,0.0392532,0.0432587,0.0300598,0.0354385,-9.97986,0.0123596,0.00144958,0.0163269,0.150223,0.000762939,0.0253677,0.0296021,0.0147629
10,7,10.0097,0.000610352,0.00564575,-2.42776,0.0559862,-0.0744527,0.0522969,0.0712755,-0.094062,0.145318,-0.125461,-0.0834859,0.0113678,0.0140762,0.026741,0.0102615,0.0413895,0.0364685,0.0208664,0.0396729,-9.97986,0.011673,-0.0484467,0.0111771,0.201607,0.00667572,0.0209808,0.0283813,0.0188446
10,8,10.0097,0.000610352,0.00427246,-2.42745,0.055681,-0.0747579,0.054128,0.0706652,-0.0952827,0.144403,-0.127598,-0.0825704,0.0116348,0.0187683,0.0346375,0.0113297,0.0378799,0.0447083,0.0196075,0.0497818,-9.97986,0.0141144,-0.0963974,0.0167084,0.242157,0.00953674,0.0117493,0.0335693,0.0197601
10,9,10.0097,0.000610352,0.0050354,-2.42653,0.0544603,-0.0744527,0.0538228,0.0706652,-0.0922309,0.146234,-0.124546,-0.0822652,0.01194,0.0201416,0.0310135,0.0122833,0.0349808,0.0445175,0.0222015,0.0746918,-9.97986,0.00961304,-0.0749207,0.0121307,0.291939,0.0112915,0.00526428,0.030632,0.0157928
11,0,10.0097,0.000610352,0.00457764,-2.42684,0.0559862,-0.0741475,0.0550435,0.072191,-0.0922309,0.145929,-0.125156,-0.0807394,0.0100708,0.00995636,0.0344086,0.0172043,0.032692,0.04776,0.0210953,0.0975418,-9.97986,0.0082016,-0.0475311,0.0162506,0.308342,0.016861,0.00404358,0.0326157,0.0165558
11,1,10.0097,0.000610352,0.00259399,-2.42562,0.0569017,-0.0735371,0.0544332,0.072191,-0.0934516,0.146539,-0.125766,-0.0816549,0.0100708,0.0169373,0.0364685,0.0210953,0.0284576,0.0462341,0.0189209,0.107231,-9.97986,0.00465393,-0.0394821,0.0163651,0.322456,0.0157928,0.00442505,0.0302124,0.0190735
11,2,10.0097,-0.000610352,0,-2.42714,0.0550706,-0.0756734,0.0516866,0.0297716,-0.0983344,0.146539,-0.127903,-0.0831808,0.0108719,0.0246048,0.0487518,0.0257492,0.0253296,0.0486755,0.0218964,0.10231,-9.97986,0.0056076,-0.0370789,0.0125504,0.337296,0.0162125,-0.00576019,0.0330353,0.0178528
11,3,4.08254,0.000305176,-0.00320435,-2.42623,0.0575121,-0.0738423,0.0516866,-0.018141,-0.101997,0.145929,-0.132175,-0.0822652,0.0143814,0.0440216,0.0616455,0.0345993,0.0177765,0.0473404,0.0193787,0.0912476,-9.97986,-0.00293732,-0.030632,0.0109863,0.336723,0.0183487,-0.0157928,0.0340271,0.013504
11,4,-3.8972,-0.000305176,-0.00427246,-2.42501,0.0559862,-0.0738423,0.0532125,-0.0193617,-0.0965034,0.147149,-0.129429,-0.0819601,0.0117874,0.0764084,0.0737762,0.0382614,0.0185394,0.0489044,0.0216293,0.0863266,-9.97986,0.00358582,-0.0237274,0.0174713,0.333214,0.0249863,-0.013237,0.0375748,0.0170898
11,5,-9.99003,0.00274658,-0.00534058,-2.4244,0.0572069,-0.0726216,0.0556539,-0.00257703,-0.0931465,0.147149,-0.128818,-0.0804342,0.00938416,0.102272,0.0916672,0.0404739,0.0117493,0.0499344,0.0165558,0.0772095,-9.97986,-0.000839233,-0.0209808,0.0101089,0.311089,0.0241852,-0.0169754,0.0310135,0.0159454
11,6,-9.99003,0.000610352,-0.00411987,-2.42379,0.055681,-0.0741475,0.0562642,0.0349596,-0.0897895,0.14776,-0.126987,-0.0810445,0.00629425,0.122375,0.109329,0.034523,0.0175858,0.0506592,0.0173187,0.0798035,-9.97986,0.00236511,-0.0228119,0.00904083,0.285149,0.00038147,-0.00980377,0.0357437,0.0172806
11,7,-9.99003,0.0012207,-0.00289917,-2.42562,0.0553758,-0.0744527,0.055959,0.0566271,-0.090705,0.146539,-0.126072,-0.0828756,0.00415802,0.137329,0.119095,0.0109482,0.0163651,0.0516129,0.014267,0.0667191,-9.97986,-0.0031662,-0.0369263,0.0131989,0.25013,0.0044632,-0.00926971,0.0363159,0.0160217
11,8,-9.99003,0.000305176,-0.00320435,-2.42714,0.0544603,-0.0747579,0.0544332,0.0624254,-0.0922309,0.145624,-0.126987,-0.0834859,0.0102615,0.154839,0.112686,0.00667572,0.0171661,0.0525665,0.0157547,0.0386429,-9.97986,-0.00366211,-0.0392532,0.0111771,0.205307,0.00534058,-0.0148773,0.0386429,0.0178528
11,9,-9.99003,-0.00244141,-0.0038147,-2.42592,0.0550706,-0.075063,0.0547383,0.0819567,-0.090705,0.145929,-0.125156,-0.0850118,0.0116348,0.134239,0.106621,-0.00297546,0.0128174,0.0550461,0.0139618,-0.0117111,-9.97986,-0.00751495,-0.0247955,0.0088501,0.162544,0.026474,-0.00831604,0.0372314,0.0133896
12,0,-5.75938,0,-0.000305176,-2.42745,0.0541551,-0.0753682,0.0553487,0.136278,-0.0870429,0.144403,-0.12302,-0.0850118,0.0194168,0.132904,0.094223,-0.0147629,0.0161362,0.0559616,0.0113678,-0.0727081,-9.97986,-0.00747681,-0.0127411,0.0103378,0.112038,0.0361252,-0.0100708,0.037117,0.0174713
12,1,1.5038,0.000915527,-0.000305176,-2.42806,0.0535448,-0.0771993,0.0526021,0.151537,-0.0882636,0.144708,-0.120578,-0.0865377,0.0164795,0.164185,0.083847,-0.00991821,0.0122452,0.0552368,0.0138855,-0.0913239,-9.97986,-0.0138092,-0.0094223,0.0112915,0.0617218,0.0322723,-0.00785828,0.0366211,0.0142288
12,2,8.63057,0,-0.00106812,-2.42898,0.0529344,-0.0759786,0.0532125,0.159776,-0.0897895,0.144403,-0.121494,-0.0868429,0.0163269,0.175247,0.0765228,-0.00213623,0.0115585,0.0497818,0.00747681,-0.0672913,-9.97986,-0.0143051,-0.00583649,0.00965118,-0.000190735,0.0371552,-0.00759125,0.0397873,0.0181961
12,3,10.0097,0.00274658,-0.00228882,-2.43081,0.0535448,-0.0765889,0.0492452,0.112474,-0.0961982,0.140741,-0.125461,-0.090505,0.0192642,0.1371,0.0529099,-0.00434875,0.0110626,0.0500488,0.00801086,-0.0231934,-9.97986,-0.00492096,-0.00801086,0.00850677,-0.0485611,0.0344086,-0.0094986,0.0395966,0.0147629
12,4,10.0097,0.0012207,-0.0038147,-2.43111,0.0532396,-0.0768941,0.050771,0.0865343,-0.0977241,0.141656,-0.125766,-0.0901998,0.0125122,0.0478363,0.00602722,-0.00038147,0.0125122,0.0498199,0.00247955,0.0113678,-9.97986,-0.000228882,-0.00335693,0.00881195,-0.0981903,0.0365448,-0.00541687,0.0383377,0.0152206
12,5,10.0097,0,-0.00457764,-2.42867,0.0541551,-0.0759786,0.0501607,0.077379,-0.0955879,0.145929,-0.126377,-0.0886739,0.00785828,0.0139236,-0.0243759,0.00499725,0.0121689,0.0521088,0.00808716,0.0329208,-9.97986,0.00804901,0.00324249,0.0106049,-0.142097,0.0423813,0.00156403,0.0378799,0.0153732
12,6,10.0097,-0.000915527,-0.00442505,-2.42745,0.0553758,-0.075063,0.0522969,0.0740221,-0.0952827,0.143182,-0.126377,-0.0865377,0.00709534,-0.00732422,-0.0327682,0.00549316,0.0104523,0.0508118,0.00720978,0.0381088,-9.97986,0.0150299,0.00743866,0.00984192,-0.184288,0.0391388,0.00686646,0.0382996,0.0140762
12,7,10.0097,-0.000610352,-0.00427246,-2.42714,0.0550706,-0.0744527,0.0538228,0.0731066,-0.0934516,0.143487,-0.126377,-0.0859274,0.00751495,-0.0776672,-0.0552368,-0.000953674,0.0114822,0.0424576,0.00476837,0.0403595,-9.97986,0.0197601,-0.000267029,0.010643,-0.23037,0.0435638,0.0117493,0.0400543,0.0156021
12,8,10.0097,0.00213623,-0.00396729,-2.42745,0.0553758,-0.075063,0.0538228,0.072191,-0.0931465,0.143487,-0.124241,-0.0856222,0.0105286,-0.104141,-0.0559616,0.00209808,0.00862122,0.0443268,0.00419617,0.0227356,-9.97986,0.0311661,-0.0144958,0.00957489,-0.267372,0.042572,0.00679016,0.0376511,0.0151443
12,9,10.0097,-0.00183105,-0.00305176,-2.42531,0.0562914,-0.0744527,0.054128,0.0712755,-0.0928413,0.145624,-0.125156,-0.0847066,0.0115204,-0.0642014,-0.0413513,0.00301361,0.0117874,0.0450134,-0.00179291,-0.0201416,-9.97986,0.0358582,-0.00667572,0.0109482,-0.297928,0.0410843,0.000839233,0.0398254,0.0144577
13,0,10.0097,0.000610352,-0.00335693,-2.42592,0.0565965,-0.073232,0.0550435,0.072191,-0.0922309,0.146844,-0.12363,-0.0831808,0.00621796,-0.0318909,-0.0304413,0.00663757,0.00965118,0.0416946,0.00240326,-0.0317001,-9.97986,0.0302124,-0.00564575,0.00991821,-0.331345,0.0390244,-0.0125504,0.0369263,0.0101852
13,1,10.0097,0.00152588,-0.00228882,-2.42409,0.0562914,-0.0729268,0.0547383,0.0718859,-0.0903999,0.14837,-0.124241,-0.0822652,0.00663757,-0.0330353,-0.0212479,0.00808716,0.01091,0.042305,0.00431061,0.00320435,-9.97986,0.0321579,-0.0038147,0.00827789,-0.348587,0.0479126,-0.0172424,0.0377274,0.0142288
13,2,10.0097,0.00274658,-0.00335693,-2.42745,0.0559862,-0.075063,0.050771,0.0291613,-0.0980293,0.145318,-0.128208,-0.0837911,0.00968933,-0.0493622,-0.016861,0.00862122,0.00720978,0.0372314,0.00411987,0.0301743,-9.97986,0.0310135,-0.00923157,0.0125504,-0.370255,0.0458908,-0.0219345,0.0364685,0.0164413
13,3,3.93178,0.000305176,-0.00549316,-2.42684,0.0559862,-0.0747579,0.0513814,-0.0190565,-0.100471,0.145013,-0.130954,-0.0837911,0.0171661,-0.04673,-0.0108719,0.0146866,0.0120163,0.0382996,0.00595093,0.0605392,-9.97986,0.0440598,-0.00469208,0.0102615,-0.383606,0.0462341,-0.0156021,0.0379181,0.0108719
13,4,-4.08061,0.00152588,-0.00640869,-2.42531,0.0559862,-0.0729268,0.0535176,-0.0208876,-0.0971137,0.145624,-0.130649,-0.0825704,0.0128174,-0.0450516,-0.00766754,0.00827789,0.00881195,0.0352478,0.00610352,0.075531,-9.97986,0.0381851,0.00663757,0.0119019,-0.399818,0.049057,-0.00640869,0.0384521,0.0143051
13,5,-9.99003,0.00213623,-0.00701904,-2.4247,0.0559862,-0.0738423,0.0556539,-0.00501844,-0.0949775,0.146844,-0.128513,-0.0810445,0.0162506,-0.0458527,-0.010376,0.00667572,0.00961304,0.0307846,0.0075531,0.0807571,-9.97986,0.031395,0.0107193,0.00980377,-0.412674,0.043869,-3.8147e-005,0.0378418,0.0143051
13,6,-9.99003,0.0012207,-0.00305176,-2.42348,0.0572069,-0.0735371,0.0562642,0.0383165,-0.0897895,0.146539,-0.126987,-0.0804342,0.0233078,-0.0485992,-0.00514984,0.0105667,0.00858307,0.0320435,0.00709534,0.0768661,-9.97986,0.0357056,0.0167465,0.0113297,-0.421906,0.0243759,0.00907898,0.0359726,0.0123978
13,7,-9.99003,0,-0.0012207,-2.42592,0.0550706,-0.0744527,0.0553487,0.0566271,-0.090705,0.145318,-0.125156,-0.0825704,0.0204086,-0.0358582,-0.000801086,0.0134659,0.00659943,0.0281525,0.00766754,0.0672531,-9.97986,0.0385284,0.0276184,0.00896454,-0.424118,0.0230026,0.0177002,0.0370407,0.0143051
13,8,-9.99003,0.000305176,-0.000457764,-2.42623,0.055681,-0.0747579,0.0547383,0.0630358,-0.0925361,0.145624,-0.126377,-0.0825704,0.0130844,-0.0240326,0.00972748,0.0103378,0.00312805,0.0265121,0.00991821,0.0622559,-9.97986,0.0297546,0.0255966,0.0125122,-0.422134,0.0250244,0.0161743,0.0377655,0.0113297
13,9,-9.99003,0.000610352,0.000305176,-2.42592,0.0553758,-0.0747579,0.0556539,0.0801256,-0.0885688,0.146234,-0.123935,-0.0828756,0.0136566,-0.0132751,0.0159073,0.0151062,0.000114441,0.026474,0.00965118,0.0526047,-9.97986,0.0150299,0.0261307,0.014267,-0.4179,0.0402832,0.00495911,0.0344849,0.0126648
14,0,-5.99589,0.000915527,0.00396729,-2.42714,0.0538499,-0.0744527,0.0565694,0.136888,-0.0876533,0.144708,-0.121189,-0.0834859,0.0163269,-0.000152588,0.0273895,0.0179672,0.00190735,0.0263214,0.0104141,0.062294,-9.97986,0.00782013,0.0282669,0.00812531,-0.406876,0.0463104,-0.00164032,0.0349808,0.01091
14,1,1.30544,0.00213623,0.00518799,-2.42714,0.0541551,-0.0747579,0.0532125,0.152757,-0.0885688,0.145013,-0.121189,-0.0847066,0.00331879,0.00785828,0.0311279,0.0133514,0.00247955,0.0266266,0.0104141,0.084877,-9.97986,-0.000839233,0.000305176,0.0188065,-0.393715,0.0482178,-0.000648499,0.033989,0.0139236
14,2,8.50209,0.00152588,0.00549316,-2.42837,0.0529344,-0.0762837,0.0538228,0.15703,-0.0910102,0.143792,-0.121494,-0.085317,-0.00427246,0.0198746,0.0383377,0.0104904,-0.00396729,0.0218582,0.0119781,0.0823212,-9.97986,-0.0177765,-0.019722,0.0147247,-0.384331,0.0510406,-0.00324249,0.0309372,0.0115585
14,3,10.0097,0.000610352,0.00411987,-2.43203,0.0547655,-0.0768941,0.0504659,0.114,-0.095893,0.142572,-0.123935,-0.0886739,0.00217438,0.0233078,0.0468445,0.0109482,-0.00358582,0.0283051,0.0216675,0.0694275,-9.97986,-0.0170517,-0.00175476,0.00946045,-0.363007,0.0487518,-0.000190735,0.0276184,0.00858307
14,4,10.0097,0.000305176,0.00335693,-2.43081,0.0544603,-0.0759786,0.0516866,0.0868395,-0.0974189,0.143792,-0.126987,-0.0877584,0.00724792,0.0205231,0.0568771,0.01297,-0.0101852,0.02285,0.00953674,0.0323486,-9.97986,-0.0130463,-0.00576019,0.0105667,-0.338097,0.0468445,0.0082016,0.0273895,0.0123978
14,5,10.0097,0.000610352,0.00274658,-2.42837,0.0538499,-0.0741475,0.0526021,0.077379,-0.095893,0.143182,-0.126377,-0.0868429,0.00324249,0.0351715,0.0650787,0.00911713,-0.00953674,0.0279999,0.0194931,-0.00591278,-9.97986,-0.0193787,-0.00526428,0.00919342,-0.306511,0.0460815,0.0100708,0.02285,0.00881195
14,6,10.0097,0.00213623,0.0038147,-2.42776,0.0541551,-0.0756734,0.054128,0.0734117,-0.0946723,0.145624,-0.126377,-0.085317,0.0117111,0.0586319,0.0804138,0.00511169,-0.00797272,0.0297928,0.0217819,0.00396729,-9.97986,-0.0131226,0.0273514,0.0123978,-0.270424,0.0500107,0.0102234,0.02491,0.00717163
14,7,10.0097,0,0.00427246,-2.42745,0.0547655,-0.0747579,0.0535176,0.072191,-0.0934516,0.144708,-0.125461,-0.0844015,0.0210571,0.0939941,0.0974274,0.00278473,-0.0094223,0.0289917,0.020752,-0.00160217,-9.97986,0.00297546,0.0435257,0.0125122,-0.226135,0.0492096,0.0131226,0.0260544,0.00930786
14,8,10.0097,0.000305176,0.00396729,-2.42623,0.0547655,-0.075063,0.0535176,0.0712755,-0.0937568,0.146844,-0.126072,-0.0831808,0.0236893,0.144043,0.0983429,0.000572205,-0.00968933,0.0240326,0.0250626,-0.0204849,-9.97986,0.0129318,0.0489044,0.0186539,-0.181961,0.0458908,0.0190735,0.0240326,0.01091
14,9,10.0097,0.0012207,0.00473022,-2.4247,0.0550706,-0.0741475,0.0535176,0.0709703,-0.0913154,0.145013,-0.125461,-0.0822652,0.0247955,0.165138,0.0878143,0.00507355,-0.00858307,0.0291061,0.0322342,-0.0305557,-9.97986,0.0236893,0.0269318,0.0175095,-0.134239,0.0492859,0.00274658,0.0267029,0.0114822
15,0,10.0097,0.00152588,0.00473022,-2.42562,0.055681,-0.0738423,0.0547383,0.0709703,-0.090705,0.145013,-0.123935,-0.0810445,0.0217438,0.0866699,0.0815201,0.0100708,-0.0063324,0.0229263,0.0271225,-0.0382996,-9.97986,0.0263977,-0.000648499,0.0172806,-0.0878525,0.0486374,-0.0128174,0.0221252,0.0124741
15,1,10.0097,0.00244141,0.00488281,-2.42623,0.0562914,-0.0735371,0.0547383,0.0715807,-0.0922309,0.144403,-0.125156,-0.080129,0.0175476,0.00812531,0.0720596,0.00595093,-0.00938416,0.0218964,0.0317383,-0.0151825,-9.97986,0.0244141,-0.0102997,0.0195313,-0.0363922,0.043602,-0.0115585,0.0226593,0.0117874
15,2,10.0097,0.000305176,0.00335693,-2.42684,0.0550706,-0.0744527,0.0522969,0.0267198,-0.0965034,0.144403,-0.127903,-0.0825704,0.0198364,0.00102997,0.0566864,0.0102997,-0.00724792,0.018692,0.0291443,-0.0141907,-9.97986,0.0203323,-0.0188446,0.0174332,0.0103378,0.0379944,-0.0211334,0.018158,0.00961304
15,3,3.98244,-0.000305176,0.000610352,-2.42776,0.0562914,-0.0735371,0.0513814,-0.0190565,-0.101081,0.145624,-0.129734,-0.0825704,0.00999451,0.014267,0.0395203,0.0087738,-0.0128555,0.018959,0.0317764,-0.0223541,-9.97986,0.0151062,-0.0182343,0.0178528,0.0704575,0.0424194,-0.0172806,0.0163651,0.00984192
15,4,-4.01408,0.000305176,0.000610352,-2.42623,0.0569017,-0.0744527,0.0532125,-0.019972,-0.0971137,0.145929,-0.130039,-0.0804342,-0.00160217,0.0289154,0.0196457,0.0133514,-0.0141525,0.0139236,0.0382996,-0.00522614,-9.97986,0.0124359,-0.0234222,0.0157928,0.120277,0.0355911,-0.00255585,0.011673,0.00816345
15,5,-9.99003,0,0,-2.42501,0.0559862,-0.0735371,0.0553487,-0.00257703,-0.094062,0.146234,-0.129429,-0.0804342,-0.00801086,0.0113678,-0.0215912,0.0151825,-0.00846863,0.00865936,0.0361252,-0.0266647,-9.97986,0.0177383,-0.0187302,0.014534,0.162773,0.0382233,0.0123596,0.0136185,0.00797272
15,6,-9.99003,0.0012207,0.00320435,-2.42501,0.0559862,-0.073232,0.0562642,0.0370958,-0.0897895,0.145318,-0.126072,-0.0792135,-0.000305176,-0.0213623,-0.0484467,0.0188065,-0.00480652,0.0107956,0.0313187,-0.0458145,-9.97986,0.0177383,-0.0257874,0.0202942,0.213966,0.0139236,0.0178909,0.0123596,0.00644684
15,7,-9.99003,0.0012207,0.0038147,-2.42562,0.0562914,-0.0735371,0.0556539,0.0557115,-0.0894843,0.146234,-0.125461,-0.080129,0.00408173,-0.0151443,-0.0419235,0.0135422,-0.0062561,0.0056839,0.0313568,-0.0411224,-9.97986,0.0177383,-0.0337219,0.0204086,0.269699,0.010643,0.00469208,0.0103378,0.00831604
15,8,-9.99003,0.0012207,0.00457764,-2.42623,0.0578172,-0.0744527,0.054128,0.0645616,-0.0919257,0.145624,-0.126072,-0.0813497,0.00751495,0.0161362,-0.0391769,0.0154495,-0.0114059,0.00160217,0.0312424,-0.056572,-9.97986,0.0298691,-0.0191116,0.0194168,0.313644,0.0113678,-0.00183105,0.00762939,0.00598907
15,9,-9.99003,-0.000305176,0.00488281,-2.42684,0.0544603,-0.0744527,0.0547383,0.0816515,-0.0910102,0.145318,-0.12363,-0.0810445,0.0075531,0.0168228,-0.0563431,0.0183868,-0.00679016,0.00514984,0.0337982,-0.0374222,-9.97986,0.0461578,0.0138092,0.0156403,0.355759,0.0217819,0.000762939,0.0087738,0.00686646
16,0,-5.83995,-0.000305176,0.00823975,-2.42684,0.0517137,-0.0756734,0.0550435,0.135973,-0.0861274,0.143792,-0.123325,-0.0816549,0.0094986,-0.00892639,-0.0611496,0.0165558,-0.00701904,-0.000267029,0.0348282,-0.0187302,-9.97986,0.0492477,0.053215,0.014801,0.400352,0.0314331,-0.00171661,0.00495911,0.00469208
16,1,1.44033,0.000915527,0.0088501,-2.42745,0.0538499,-0.075063,0.0547383,0.153063,-0.0897895,0.144708,-0.122104,-0.0837911,0.0164795,0.00164032,-0.0419998,0.0138855,-0.00282288,-0.00621796,0.0301743,-0.0235748,-9.97986,0.0455856,0.0693512,0.0167847,0.439224,0.0282288,0.000190735,0.00640869,0.0056076
16,2,8.6028,0.000610352,0.00823975,-2.42776,0.0538499,-0.0756734,0.0529073,0.15703,-0.0894843,0.144098,-0.120884,-0.0850118,0.0229645,0.00408173,-0.0239182,0.0109863,-0.00564575,-0.00812531,0.0331497,-0.0243759,-9.97986,0.0468063,0.0294495,0.0174332,0.473557,0.028801,-0.00213623,0.00549316,0.00862122
16,3,10.0097,-0.000610352,0.00595093,-2.43142,0.0523241,-0.0768941,0.0495503,0.11461,-0.0983344,0.140741,-0.124241,-0.0877584,0.0162888,-0.0225067,-0.0173569,0.0141907,-0.00564575,-0.0140762,0.0303268,-0.0159073,-9.97986,0.0387573,0.0240707,0.0215912,0.503731,0.0266266,-0.000152588,0.00389099,0.00720978
16,4,10.0097,-0.000915527,0.00305176,-2.42959,0.0535448,-0.0765889,0.0504659,0.087755,-0.0968086,0.141961,-0.127598,-0.0883688,0.00911713,-0.0272751,-0.0087738,0.0125122,-0.00411987,-0.0242996,0.0331497,-0.00114441,-9.97986,0.0293732,0.000610352,0.0175858,0.527,0.0249863,0.00263214,-0.000762939,0.00495911
16,5,10.0097,0.0012207,0.00259399,-2.42898,0.0541551,-0.0744527,0.0513814,0.0767687,-0.0931465,0.142877,-0.126377,-0.0859274,0.0082016,-0.000991821,-0.00110626,0.0124359,-0.000495911,-0.0295258,0.0328445,0.00652313,-9.97986,0.0284576,-0.0128174,0.0215149,0.543518,0.0270081,0.000610352,-3.8147e-005,0.00541687
16,6,10.0097,0.000305176,0.00183105,-2.42776,0.0547655,-0.0756734,0.0532125,0.072191,-0.0937568,0.145318,-0.126682,-0.0856222,0.00957489,0.00961304,0.0019455,0.0151825,-0.00297546,-0.028801,0.0320816,0.0137329,-9.97986,0.0270081,0.0104141,0.0165558,0.552864,0.0238037,-0.00843048,0.0030899,0.00492096
16,7,10.0097,0.000305176,0.00167847,-2.42837,0.0538499,-0.073232,0.0526021,0.0715807,-0.0931465,0.145624,-0.126072,-0.0847066,0.0157547,0.0143051,0.00354767,0.0164032,-0.00553131,-0.0344467,0.0348282,0.0167847,-9.97986,0.0305939,0.0311279,0.0194931,0.563393,0.0220871,-0.0115204,0.000610352,0.00419617
16,8,10.0097,0.000610352,0.00198364,-2.42837,0.0550706,-0.0753682,0.0529073,0.0706652,-0.0925361,0.145624,-0.126682,-0.0837911,0.0140381,0.0187683,-0.000267029,0.0171661,-0.000839233,-0.0403976,0.0300217,0.019989,-9.97986,0.0284958,0.0392914,0.0217819,0.581818,0.0177002,-0.0128555,-0.00106812,0.00350952
16,9,10.0097,0,0.0012207,-2.42714,0.0553758,-0.075063,0.0538228,0.0718859,-0.0925361,0.146844,-0.126072,-0.0822652,0.0117111,0.0248337,0.00705719,0.0158691,0.0043869,-0.0399017,0.032959,0.0261688,-9.97986,0.0274658,0.00984192,0.0247955,0.58857,0.0222778,-0.0114059,-0.00469208,0.0037384
17,0,10.0097,0.000305176,0.000915527,-2.42592,0.0559862,-0.0735371,0.0535176,0.0718859,-0.0919257,0.145624,-0.125156,-0.0813497,0.0171661,0.0268173,0.00961304,0.0144196,0.0025177,-0.0481033,0.0263977,0.0245667,-9.97986,0.0204849,-0.039711,0.021286,0.598602,0.0165176,-0.00961304,-0.00358582,0.001297
17,1,10.0097,0.0012207,0.0012207,-2.4244,0.055681,-0.0738423,0.0550435,0.0715807,-0.0928413,0.146844,-0.124546,-0.0810445,0.0142288,0.0311279,0.0135422,0.0133133,0.00228882,-0.0541306,0.0258636,0.0288773,-9.97986,0.0206757,-0.0469208,0.0243759,0.606689,0.0205612,-0.00907898,-0.00450134,0.00198364
17,2,10.0097,0.00183105,-0.00106812,-2.42714,0.055681,-0.075063,0.0532125,0.0285509,-0.0971137,0.145318,-0.129429,-0.0831808,0.0104904,0.0381851,0.0161362,0.01194,0.00301361,-0.0547028,0.0286102,0.0338364,-9.97986,0.0218201,-0.0272369,0.0265503,0.613403,0.020752,-0.0140762,-0.00583649,-0.000228882
17,3,3.95345,-0.227966,-0.00320435,-2.42928,0.0541551,-0.0729268,0.0501607,-0.0211928,-0.106879,0.113885,-0.13248,-0.0847066,0.0144196,0.0366974,0.0239182,0.0104904,0.00804901,-0.0543213,0.0262451,0.0371552,-9.97986,0.0190353,-0.00343323,0.0266266,0.622063,0.0159073,-0.0180435,-0.00896454,0.00221252
17,4,-4.08305,-0.010376,-0.00274658,-2.42531,0.0575121,-0.0747579,0.0538228,-0.019972,-0.0983344,0.137689,-0.129734,-0.0822652,0.010643,0.0366974,0.0240326,0.0133133,0.00228882,-0.0630951,0.0227356,0.0334549,-9.97986,0.0150299,-0.0056076,0.0233078,0.627899,0.0180435,-0.0222015,-0.00793457,0.000991821
17,5,-9.99003,-0.00152588,-0.00427246,-2.4247,0.0584276,-0.073232,0.0556539,-0.00257703,-0.0928413,0.143182,-0.129123,-0.080129,0.0108337,0.0399399,0.0219345,0.0154877,0.00789642,-0.0681305,0.0252533,0.0384521,-9.97986,0.0109863,-0.0218964,0.0260925,0.631218,0.011673,-0.0201416,-0.00930786,0.00423431
17,6,-9.99003,-0.000305176,-0.00152588,-2.42379,0.0553758,-0.0729268,0.0568746,0.0383165,-0.0897895,0.145013,-0.126377,-0.080129,0.00785828,0.0337601,0.0240326,0.0150299,0.0056076,-0.071106,0.0256348,0.0448227,-9.97986,0.0137711,-0.00495911,0.0225067,0.638275,-0.0128937,-0.018959,-0.00652313,0.000953674
17,7,-9.99003,0,0,-2.42653,0.0559862,-0.0744527,0.0556539,0.0544908,-0.090705,0.144708,-0.126072,-0.0810445,0.00663757,0.0204086,0.025444,0.0142288,0.00484467,-0.073204,0.028801,0.041275,-9.97986,0.0126648,0.00347137,0.028801,0.644531,-0.00835419,-0.0138474,-0.00350952,-0.000267029
17,8,-9.99003,0.000305176,-0.000610352,-2.42623,0.0559862,-0.0744527,0.0544332,0.0633409,-0.0910102,0.145013,-0.124851,-0.0831808,0.00858307,0.0247192,0.0285721,0.0131989,0.00812531,-0.0761032,0.0188446,0.0374222,-9.97986,0.00835419,-0.0119019,0.0268173,0.637283,-0.0122452,-0.013504,-0.00522614,0.000801086
17,9,-9.99003,0.000305176,0.000305176,-2.4247,0.0559862,-0.0723164,0.0565694,0.0895861,-0.0879585,0.145929,-0.124851,-0.0825704,0.00888824,0.0269318,0.0261307,0.00934601,0.00167847,-0.0867081,0.0198746,0.0349426,-9.97986,0.00907898,-0.0238037,0.0275421,0.626106,0.00457764,-0.00686646,-0.00419617,-0.00164032
18,0,-5.82072,0,0.00274658,-2.42898,0.0541551,-0.0753682,0.0553487,0.135057,-0.0882636,0.144098,-0.122104,-0.0840963,0.00621796,0.0376511,0.0288773,0.0138092,0.00492096,-0.0907135,0.0219727,0.0398254,-9.97986,0.00286102,-0.0063324,0.0307083,0.606194,0.0135422,-0.0112152,-0.00465393,-0.000724792
18,1,1.42324,0.000610352,0.00320435,-2.42806,0.0538499,-0.0741475,0.0544332,0.153063,-0.0897895,0.143487,-0.121189,-0.0859274,0.00968933,0.0353622,0.0340652,0.0143814,0.00587463,-0.0959778,0.0177383,0.0530243,-9.97986,0.00801086,-0.00125885,0.0308228,0.581322,0.0169754,-0.00648499,-0.00888824,0.000419617
18,2,8.58479,0,0.0012207,-2.42837,0.055681,-0.0771993,0.0544332,0.15764,-0.0897895,0.144098,-0.121494,-0.0865377,0.00736237,0.0331116,0.0313568,0.00747681,0.00823975,-0.105209,0.0175095,0.0631332,-9.97986,0.0088501,-0.0118637,0.0298309,0.544968,0.0170517,-0.0186157,-0.00835419,-0.00087738
18,3,10.0097,0.000610352,-0.00106812,-2.43142,0.0529344,-0.0756734,0.0504659,0.113085,-0.0961982,0.143182,-0.125156,-0.0895895,0.00907898,0.0351715,0.0289154,0.0100708,0.00331879,-0.109482,0.0170517,0.0578308,-9.97986,0.00919342,-0.0161743,0.0267029,0.500793,0.0161362,-0.0160217,-0.0130081,0.000686646
18,4,10.0097,0.000305176,-0.00366211,-2.43081,0.0529344,-0.0768941,0.0501607,0.0856188,-0.0961982,0.142572,-0.126987,-0.0901998,0.00797272,0.0367355,0.0340271,0.0112534,0.00637054,-0.117111,0.0217819,0.04673,-9.97986,0.00976563,-0.0128174,0.025177,0.454788,0.0204086,-0.0176239,-0.0102615,-0.00160217
18,5,10.0097,0.000305176,-0.00473022,-2.42928,0.0553758,-0.0790303,0.0519917,0.0761583,-0.0955879,0.143792,-0.127292,-0.0883688,0.00579834,0.0389481,0.0312042,0.0131607,0.00396729,-0.121384,0.0179672,0.0457001,-9.97986,0.00389099,0.000457764,0.0287247,0.400543,0.0165939,-0.0106049,-0.0136185,-0.0038147
18,6,10.0097,0.00183105,-0.00488281,-2.42837,0.0553758,-0.075063,0.0519917,0.0743273,-0.094062,0.144403,-0.126072,-0.0874532,0.00904083,0.0378799,0.0315094,0.0120544,0.000991821,-0.12867,0.0192261,0.0376511,-9.97986,0.00587463,0.00995636,0.0273132,0.350456,0.0212479,-0.0082016,-0.00793457,-0.00331879
18,7,10.0097,-0.000915527,-0.00518799,-2.42745,0.0550706,-0.075063,0.0526021,0.0715807,-0.094062,0.145318,-0.126987,-0.0862325,0.00629425,0.035553,0.0300217,0.0117493,0.00274658,-0.131683,0.0239563,0.0352859,-9.97986,0.00453949,0.00400543,0.025177,0.284348,0.0312424,-0.00797272,-0.00923157,-0.000762939
18,8,10.0097,0.000610352,-0.00610352,-2.42684,0.0553758,-0.0723164,0.0547383,0.0709703,-0.0946723,0.146234,-0.126072,-0.0868429,0.0111771,0.0351334,0.0361633,0.0113297,0.00328064,-0.140266,0.0225449,0.017395,-9.97986,0.00759125,0.00713348,0.0283051,0.2248,0.0426102,-0.00667572,-0.00930786,-0.00190735
18,9,10.0097,-0.000305176,-0.00518799,-2.42562,0.0569017,-0.0744527,0.0544332,0.0709703,-0.0931465,0.144708,-0.124546,-0.0840963,0.0121689,0.0344467,0.0337982,0.013237,0.000724792,-0.142136,0.0239563,0.0128174,-9.97986,0.00896454,0.00976563,0.0292587,0.166283,0.0462341,-0.00926971,-0.00984192,-0.000801086
19,0,10.0097,0.0012207,-0.00549316,-2.4247,0.0565965,-0.073232,0.0547383,0.0712755,-0.0928413,0.146234,-0.123935,-0.0834859,0.0160599,0.0326157,0.0330734,0.0105286,-0.000267029,-0.1474,0.0263596,0.021019,-9.97986,0.00488281,0.0111008,0.029335,0.108948,0.0509262,-0.0144958,-0.00827789,0.000572205
19,1,10.0097,0.000915527,-0.00564575,-2.4244,0.0562914,-0.0738423,0.054128,0.0718859,-0.0913154,0.146844,-0.12363,-0.0834859,0.0102234,0.0312042,0.0347519,0.0157547,-0.000801086,-0.146027,0.0241852,0.0357056,-9.97986,0.00682831,0.0127792,0.0234985,0.0538254,0.0537491,-0.014801,-0.0107574,0.000610352
19,2,10.0097,0.00213623,-0.00656128,-2.42684,0.055681,-0.0744527,0.0513814,0.0285509,-0.09925,0.145318,-0.127903,-0.0850118,0.00713348,0.0319672,0.0259781,0.00953674,-0.00453949,-0.147362,0.0223923,0.0414658,-9.97986,0.00675201,0.00980377,0.0285721,-0.00141144,0.0551224,-0.013504,-0.00900269,0.000915527
19,3,4.01815,0.0012207,-0.00900269,-2.42806,0.0565965,-0.0738423,0.0513814,-0.0178358,-0.101691,0.145013,-0.130649,-0.0847066,0.00816345,0.0314331,0.0340652,0.0135422,0.000305176,-0.145531,0.0221252,0.0387573,-9.97986,0.00774384,-0.00144958,0.0240707,-0.0488281,0.0505447,-0.014801,-0.00789642,0.000534058
19,4,-3.98051,-0.000610352,-0.00946045,-2.42592,0.0581224,-0.0741475,0.0532125,-0.0202772,-0.0971137,0.145929,-0.129734,-0.0831808,0.00984192,0.0358582,0.03479,0.0169373,0.00110626,-0.139656,0.0202942,0.0382614,-9.97986,0.00770569,-0.00495911,0.0276947,-0.0945663,0.046196,-0.0134659,-0.00404358,0.00213623
19,5,-9.99003,0.00183105,-0.00915527,-2.4244,0.0569017,-0.0738423,0.0538228,-0.00318738,-0.0946723,0.14776,-0.127598,-0.0813497,0.00667572,0.0357819,0.0271988,0.0107193,0.000343323,-0.13813,0.0234604,0.0415039,-9.97986,0.00556946,0.00606537,0.0249481,-0.136414,0.0429153,-0.0119019,-0.00484467,0.00267029
19,6,-9.99003,-0.00244141,-0.00595093,-2.42501,0.0559862,-0.0738423,0.0550435,0.0364855,-0.0882636,0.147149,-0.126987,-0.0819601,0.00587463,0.0296402,0.0256348,0.0101852,-0.000915527,-0.122795,0.0186157,0.0424576,-9.97986,0.0114059,0.00854492,0.026207,-0.169716,0.00968933,-0.0107956,-0.00709534,0.00419617
19,7,-9.99003,-0.000915527,-0.00350952,-2.42684,0.0553758,-0.0726216,0.0556539,0.0560167,-0.0900947,0.145013,-0.126072,-0.0831808,0.00411987,0.0245667,0.0175858,0.0100708,0.00366211,-0.110054,0.021553,0.0439835,-9.97986,0.00221252,0.000343323,0.027504,-0.200348,0.00442505,-0.00682831,-0.00617981,0.000190735
19,8,-9.99003,-0.000305176,-0.00274658,-2.42745,0.0550706,-0.0744527,0.0544332,0.0627306,-0.0931465,0.145318,-0.125766,-0.0837911,0.0030899,0.0198746,0.0151825,0.0130844,0.00453949,-0.100632,0.0217056,0.0416946,-9.97986,0.00213623,0.0063324,0.0301361,-0.224457,-0.000686646,-0.00442505,-0.000991821,0.00190735
19,9,-9.99003,0.0012207,-0.00152588,-2.42592,0.0550706,-0.0738423,0.055959,0.0911119,-0.0882636,0.145013,-0.124851,-0.0831808,0.00896454,0.0275421,0.0195694,0.00934601,0.00732422,-0.0800705,0.0203323,0.0370407,-9.97986,-7.62939e-005,0.00545502,0.030098,-0.24189,0.0172043,7.62939e-005,-0.00297546,0.000839233
20,0,-5.56682,0.00183105,0.00259399,-2.42745,0.0538499,-0.0753682,0.0556539,0.135057,-0.0876533,0.144403,-0.12241,-0.0837911,0.0149155,0.0268173,0.015564,0.0117111,0.00606537,-0.0465775,0.0226593,0.0354004,-9.97986,0.0038147,0.00312805,0.0281906,-0.257454,0.017128,-0.00553131,-0.00736237,-0.00209808
20,1,1.67775,0.00152588,0.00289917,-2.42745,0.0526292,-0.0747579,0.0547383,0.152757,-0.0885688,0.143792,-0.121189,-0.085317,0.015831,0.0239944,0.0164032,0.0125885,0.00732422,-0.010643,0.0237274,0.0247192,-9.97986,0.00663757,0.00823975,0.0252533,-0.280685,0.0136948,-0.0019455,-0.00259399,0.00244141
20,2,8.83504,0.000305176,0.00274658,-2.42745,0.0529344,-0.0759786,0.0538228,0.160082,-0.0897895,0.143792,-0.121189,-0.0865377,0.0144196,0.0302887,0.014534,0.00984192,0.00785828,0.0236893,0.026741,0.0209045,-9.97986,0.0087738,0.0218201,0.0275421,-0.29129,0.00724792,-0.00152588,-0.00263214,0.00682831
20,3,10.0097,0.00183105,0.00106812,-2.43172,0.0538499,-0.0775044,0.0498555,0.112474,-0.0971137,0.140741,-0.125461,-0.0889791,0.0154877,0.0276566,0.0156021,0.0132751,0.0107574,0.0630569,0.0246811,0.0262833,-9.97986,0.0130844,0.0351334,0.0321198,-0.301132,0.0127792,0.00392914,-0.00118256,0.00717163
20,4,10.0097,0.000305176,-0.000915527,-2.42959,0.0541551,-0.0753682,0.0504659,0.0865343,-0.0971137,0.142267,-0.125461,-0.0892843,0.0146103,0.027504,0.018158,0.0149155,0.0168228,0.0876999,0.0248718,0.0260925,-9.97986,0.0138092,0.028038,0.0289536,-0.311165,0.0130463,-0.00202179,0.00244141,0.00572205
20,5,10.0097,0.00274658,-0.0012207,-2.42867,0.0547655,-0.0759786,0.0516866,0.0764635,-0.0952827,0.143487,-0.126072,-0.0868429,0.00858307,0.0267792,0.016861,0.00862122,0.0156021,0.12188,0.0287628,0.0241852,-9.97986,0.0125504,0.0373077,0.0322342,-0.322342,0.0116348,0.00331879,0.0018692,0.0069809
20,6,10.0097,0.000305176,-0.0012207,-2.42867,0.0541551,-0.0753682,0.050771,0.0728014,-0.0946723,0.144403,-0.126072,-0.0859274,0.0140762,0.0276566,0.0180435,0.0119781,0.0177383,0.149231,0.0339127,0.0248337,-9.97986,0.00671387,0.0515366,0.0304031,-0.325623,0.0115204,0.000724792,0.00160217,0.00370026
20,7,10.0097,0.0012207,-0.000305176,-2.42867,0.055681,-0.0762837,0.0526021,0.0718859,-0.0928413,0.145013,-0.126377,-0.085317,0.0147247,0.0285721,0.0242233,0.0120926,0.0232697,0.164299,0.03685,0.0301361,-9.97986,0.0101471,0.018158,0.033989,-0.337181,0.0143051,0.00328064,-0.000495911,0.00522614
20,8,10.0097,0.00213623,-0.000915527,-2.42776,0.055681,-0.0735371,0.054128,0.0715807,-0.0946723,0.145013,-0.126072,-0.085317,0.00972748,0.0308609,0.0234985,0.0137711,0.0209427,0.190315,0.0292969,0.0261688,-9.97986,0.0113297,-0.0278091,0.0329208,-0.342827,0.0154877,-0.000762939,0.00156403,0.0063324
20,9,10.0097,0.00152588,-0.000610352,-2.42653,0.055681,-0.0747579,0.0547383,0.0706652,-0.0922309,0.146234,-0.124851,-0.0831808,0.0107574,0.0289154,0.021553,0.0100327,0.022316,0.205498,0.0336456,0.0271606,-9.97986,0.00797272,-0.0309372,0.0265503,-0.351639,0.0126648,-0.00213623,0.000801086,0.0111771
21,0,10.0097,0.000915527,-0.000457764,-2.42592,0.0578172,-0.0738423,0.0547383,0.0718859,-0.0916206,0.146539,-0.124851,-0.0822652,0.0116348,0.035553,0.0239944,0.00648499,0.0247955,0.221748,0.0351334,0.0298309,-9.97986,0.00919342,0.00499725,0.026474,-0.361786,0.0133514,-0.00205994,-0.00118256,0.0112152
21,1,10.0097,0.00183105,-0.000457764,-2.4247,0.0565965,-0.0735371,0.0544332,0.0712755,-0.0916206,0.148065,-0.123935,-0.0819601,0.0115204,0.0336456,0.0247574,0.0112152,0.026207,0.229683,0.0351715,0.0257874,-9.97986,0.00846863,0.0159454,0.0278473,-0.36953,0.0143814,-0.00205994,0.00576019,0.0125504
21,2,10.0097,-0.0012207,-0.00198364,-2.42592,0.0559862,-0.0747579,0.0513814,0.0276354,-0.0977241,0.145013,-0.127903,-0.0837911,0.00900269,0.0306702,0.0237656,0.0162125,0.0276947,0.234108,0.0364685,0.0245667,-9.97986,0.00881195,0.0441742,0.0272369,-0.369873,0.0104523,-0.000228882,0.00205994,0.00953674
21,3,3.95375,0.000610352,-0.00411987,-2.42745,0.0559862,-0.0744527,0.054128,-0.0184462,-0.100776,0.145929,-0.130344,-0.0834859,0.0142288,0.0322342,0.0222015,0.0100708,0.0309372,0.235519,0.0348663,0.0255203,-9.97986,0.00743866,0.0688171,0.0309372,-0.371361,0.0122833,0.0037384,0.00583649,0.00934601
21,4,-4.10228,0.000610352,-0.00488281,-2.42653,0.0569017,-0.0744527,0.0526021,-0.0184462,-0.0971137,0.147455,-0.130649,-0.0819601,0.0094223,0.029335,0.0232315,0.0117493,0.0317001,0.239258,0.0401688,0.0234222,-9.97986,0.00980377,0.0540924,0.0272751,-0.370407,0.0109863,0.00572205,0.0082016,0.0116348
21,5,-9.99003,0,-0.00488281,-2.4247,0.0565965,-0.0726216,0.0550435,-0.00227185,-0.094062,0.147455,-0.128818,-0.0816549,0.0127411,0.0312805,0.019722,0.0126648,0.0333786,0.239487,0.0434494,0.0271606,-9.97986,0.0106049,0.0352859,0.0256729,-0.37075,0.0114822,0.0075531,0.00980377,0.0134277
21,6,-9.99003,-0.00274658,-0.00228882,-2.42379,0.0565965,-0.0741475,0.0562642,0.0364855,-0.0903999,0.145929,-0.126377,-0.0807394,0.0062561,0.0282288,0.0213623,0.00431061,0.0262451,0.239334,0.0369644,0.0224304,-9.97986,0.00507355,0.00648499,0.022049,-0.3722,-0.0130463,0.00854492,0.00980377,0.0171661
21,7,-9.99003,0,-0.000457764,-2.42562,0.0553758,-0.075063,0.0550435,0.0560167,-0.0897895,0.145624,-0.126072,-0.0819601,0.00732422,0.0315475,0.019989,0.00907898,0.0308609,0.230293,0.0405121,0.0242996,-9.97986,0.0136185,-0.0108719,0.026207,-0.364571,-0.0121689,0.0102615,0.00854492,0.0154114
21,8,-9.99003,-0.0012207,-0.000152588,-2.42592,0.055681,-0.0744527,0.0550435,0.0627306,-0.0919257,0.145318,-0.126682,-0.0825704,0.00782013,0.029335,0.0179672,0.00682831,0.0269318,0.222092,0.0384521,0.0206757,-9.97986,0.0136566,-0.0275421,0.0253677,-0.361824,-0.0146484,0.00785828,0.0117493,0.0197601
21,9,-9.99003,-0.000305176,0.000457764,-2.42592,0.0553758,-0.0741475,0.0556539,0.0834825,-0.090705,0.144708,-0.124546,-0.0828756,0.0126648,0.0315475,0.017395,0.011673,0.0233841,0.215378,0.0372314,0.0207138,-9.97986,0.0154495,-0.00900269,0.0250244,-0.360794,0.00530243,0.00720978,0.0094223,0.0178146
22,0,-5.75877,-0.000305176,0.00411987,-2.42684,0.0535448,-0.0759786,0.0532125,0.136888,-0.0873481,0.145013,-0.12241,-0.0847066,0.0112534,0.0292206,0.0188065,0.00858307,0.0261688,0.206909,0.0332642,0.0178528,-9.97986,0.0149918,0.00518799,0.0213623,-0.357933,0.0094986,0.00549316,0.0105667,0.0204849
22,1,1.53585,0.000610352,0.00473022,-2.42684,0.0532396,-0.0762837,0.054128,0.150926,-0.0879585,0.144403,-0.12302,-0.0847066,0.0115585,0.0321198,0.0192642,0.00774384,0.0247574,0.197487,0.0357819,0.0166321,-9.97986,0.0107193,-0.0308228,0.0189972,-0.357552,0.0126266,0.00263214,0.014534,0.0162888
22,2,8.6733,0.0012207,0.00488281,-2.42959,0.0538499,-0.0759786,0.0532125,0.157335,-0.0873481,0.144403,-0.120273,-0.085317,0.0134659,0.0300217,0.017662,0.00827789,0.0179291,0.196419,0.0389099,0.0214386,-9.97986,0.0167084,-0.0334549,0.0217438,-0.348015,0.0111389,0.00644684,0.0128174,0.016861
22,3,10.0097,0,0.00411987,-2.43142,0.0535448,-0.0771993,0.0504659,0.11339,-0.0974189,0.142572,-0.125461,-0.0886739,0.0143051,0.0298691,0.0175476,0.0126266,0.014267,0.193863,0.0364685,0.0177765,-9.97986,0.0169373,-0.012207,0.0194931,-0.343513,0.0136566,0.00511169,0.0127411,0.0114822
22,4,10.0097,0.00152588,0.00152588,-2.42989,0.0538499,-0.0756734,0.0501607,0.0871447,-0.0971137,0.142572,-0.127598,-0.0877584,0.013237,0.0269699,0.0156403,0.0101852,0.0104141,0.186348,0.0341415,0.017395,-9.97986,0.0204849,-0.0150299,0.022316,-0.3339,0.0124359,0.00392914,0.0153732,0.0147629
22,5,10.0097,-0.000915527,0.000762939,-2.42928,0.0547655,-0.0765889,0.0516866,0.0770738,-0.0983344,0.143487,-0.126377,-0.0868429,0.0131607,0.027771,0.0163651,0.00732422,0.010376,0.17704,0.0357819,0.018959,-9.97986,0.0217819,-0.00591278,0.0154495,-0.32959,0.0102615,0.00415802,0.0161743,0.0114059
22,6,10.0097,0,0.000610352,-2.42776,0.055681,-0.0756734,0.0529073,0.0724962,-0.0943672,0.144403,-0.126377,-0.085317,0.01194,0.026207,0.0142288,0.00904083,0.00484467,0.170174,0.0308228,0.0154114,-9.97986,0.0239182,-0.00915527,0.0157166,-0.319748,0.0128937,0.00240326,0.0133514,0.00904083
22,7,10.0097,-0.000610352,0.000762939,-2.42867,0.0547655,-0.0717061,0.0526021,0.0728014,-0.0943672,0.145318,-0.124241,-0.0850118,0.00804901,0.0237274,0.0150299,0.0133896,0.00236511,0.17067,0.0331879,0.0167465,-9.97986,0.0161743,-0.00999451,0.0138092,-0.315056,0.0127792,0.000686646,0.0178146,0.00713348
22,8,10.0097,0.000610352,0.000762939,-2.42684,0.0559862,-0.0747579,0.0535176,0.0731066,-0.0928413,0.144708,-0.126377,-0.0834859,0.00892639,0.0260925,0.0131226,0.0125504,0.00843048,0.162315,0.033989,0.0183868,-9.97986,0.0136948,-0.0121689,0.0143814,-0.305977,0.0109482,0.0038147,0.0214005,0.00919342
22,9,10.0097,0.00152588,0.00152588,-2.42684,0.055681,-0.0747579,0.054128,0.07036,-0.0916206,0.145624,-0.125766,-0.0834859,0.00953674,0.0280762,0.0128174,0.00957489,0.00694275,0.155334,0.0336075,0.0205612,-9.97986,0.0126648,-0.0162506,0.0163651,-0.29747,0.0088501,0.00453949,0.0220108,0.00682831
23,0,10.0097,-0.000610352,0.00183105,-2.42501,0.0562914,-0.0741475,0.0538228,0.0715807,-0.0925361,0.146539,-0.124546,-0.0810445,0.00675201,0.027504,0.0149155,0.00843048,0.00762939,0.143547,0.030098,0.0160217,-9.97986,0.0133896,-0.0132751,0.00667572,-0.278625,0.00236511,-0.00114441,0.0179291,0.00907898
23,1,10.0097,0.000305176,0.00152588,-2.42531,0.0565965,-0.0729268,0.0547383,0.0718859,-0.0925361,0.146844,-0.12363,-0.0807394,0.0120544,0.0271225,0.0163651,0.0114822,0.01194,0.142403,0.0312042,0.0152588,-9.97986,0.0145721,-0.0137329,0.00911713,-0.270767,0.0115585,0.00125885,0.0249481,0.00400543
23,2,10.0097,-0.000305176,-0.000305176,-2.42684,0.0547655,-0.0747579,0.0522969,0.0285509,-0.0968086,0.144098,-0.126987,-0.0831808,0.0102615,0.0223923,0.0149536,0.0121307,0.00850677,0.139198,0.0309753,0.0183487,-9.97986,0.022583,-0.0150299,0.00488281,-0.257912,0.00831604,-0.000457764,0.0249863,0.00442505
23,3,3.98061,-0.000610352,-0.00289917,-2.42806,0.0559862,-0.0747579,0.050771,-0.019972,-0.101081,0.146844,-0.130649,-0.0844015,0.00999451,0.0184631,0.0152969,0.0114822,0.00556946,0.13279,0.0309372,0.0138474,-9.97986,0.0169373,-0.0146103,0.0069809,-0.24353,0.00572205,0.00114441,0.0246429,0.00808716
23,4,-3.97136,0,-0.00228882,-2.4247,0.0569017,-0.073232,0.0519917,-0.0208876,-0.09925,0.146234,-0.13126,-0.0816549,0.0136185,0.0222015,0.01194,0.0104141,0.00629425,0.121498,0.0254059,0.0160599,-9.97986,0.0107956,-0.0119781,0.00751495,-0.228233,0.00679016,-0.00038147,0.0259399,0.00598907
23,5,-9.99003,0,-0.00335693,-2.42379,0.0569017,-0.0726216,0.0547383,-0.00318738,-0.0931465,0.14837,-0.129429,-0.0804342,0.0158691,0.0211716,0.00888824,0.00816345,0.0105667,0.115471,0.0254822,0.0136566,-9.97986,0.0164413,-0.0184631,0.000152588,-0.210342,0.00526428,0.00270844,0.0277328,0.00598907
23,6,-9.99003,-0.000305176,-0.000457764,-2.42562,0.0562914,-0.0729268,0.0565694,0.0370958,-0.0903999,0.147455,-0.127903,-0.0779928,0.00873566,0.0187302,0.00804901,0.0131226,0.00968933,0.106735,0.0257874,0.0167084,-9.97986,0.0157928,-0.0190353,0.00328064,-0.198364,-0.0222015,-0.00202179,0.0260544,0.00953674
23,7,-9.99003,0,0.000610352,-2.42623,0.0562914,-0.0738423,0.0550435,0.0557115,-0.090705,0.144708,-0.126072,-0.0813497,0.00282288,0.0150681,0.00732422,0.0094986,0.010643,0.0933838,0.0303268,0.0182724,-9.97986,0.0236511,-0.00202179,0.0069046,-0.18116,-0.0195694,0.000419617,0.0302124,0.00797272
23,8,-9.99003,-0.00183105,0.00152588,-2.42684,0.0550706,-0.075063,0.054128,0.0624254,-0.0919257,0.145318,-0.125766,-0.0825704,0.0087738,0.0214005,0.00530243,0.0120163,0.00865936,0.0842667,0.0269699,0.0204086,-9.97986,0.0279236,0.00995636,0.00534058,-0.168076,-0.0210571,-0.00518799,0.0299454,0.0088501
23,9,-9.99003,0.00183105,0.00213623,-2.42623,0.0550706,-0.0741475,0.055959,0.0831774,-0.088874,0.145624,-0.124851,-0.0810445,0.0137329,0.0175858,0.00961304,0.00984192,0.00968933,0.0762558,0.0256729,0.0193024,-9.97986,0.0269318,0.00106812,0.0025177,-0.148582,-0.00297546,-0.00179291,0.029335,0.0152206
24,0,-5.60618,0.00183105,0.00518799,-2.42837,0.0535448,-0.0753682,0.0553487,0.137499,-0.0873481,0.143487,-0.121494,-0.0834859,0.00614166,0.0165558,0.0109482,0.00816345,0.0138855,0.0737,0.0222778,0.0200653,-9.97986,0.0188828,-0.00968933,-0.000152588,-0.13855,0.00137329,-0.00511169,0.0288773,0.0105286
24,1,1.74367,0.00183105,0.00656128,-2.42837,0.0538499,-0.0765889,0.0538228,0.153368,-0.0882636,0.144403,-0.120578,-0.0837911,0.0122833,0.0272751,0.0138092,0.00900269,0.0149536,0.0739288,0.0290298,0.0250626,-9.97986,0.0246811,-0.00183105,0.00434875,-0.124702,0.00350952,-0.00347137,0.0315857,0.0118637
24,2,8.91103,-0.0012207,0.00564575,-2.42776,0.0535448,-0.0759786,0.0538228,0.159776,-0.0891792,0.142877,-0.121189,-0.0850118,0.0159836,0.0203705,0.0139618,0.00549316,0.0149536,0.0682831,0.0289154,0.019722,-9.97986,0.024147,-0.00137329,-0.000610352,-0.110016,-0.000114441,0.00209808,0.029068,0.0124741
24,3,10.0097,-0.000610352,0.00350952,-2.4305,0.0529344,-0.0768941,0.050771,0.111254,-0.0971137,0.143182,-0.124546,-0.0883688,0.0191498,0.0210953,0.0111771,0.0114059,0.0182724,0.0661087,0.0297165,0.0260162,-9.97986,0.0259781,-0.00236511,0.00183105,-0.0950623,0.00408173,0.00389099,0.0289536,0.0187683
24,4,10.0097,0.000610352,0.00213623,-2.42989,0.0541551,-0.0771993,0.050771,0.0874498,-0.0968086,0.142877,-0.126377,-0.0883688,0.0138474,0.0246811,0.0127792,0.00892639,0.0159073,0.0641251,0.0286102,0.0192261,-9.97986,0.0238037,-0.00701904,0.00400543,-0.0772858,0.000305176,0.00183105,0.0348282,0.015564
24,5,10.0097,-0.000305176,0.00167847,-2.42928,0.055681,-0.0762837,0.0519917,0.077379,-0.095893,0.143792,-0.126682,-0.0874532,0.0129318,0.0237274,0.0141144,0.0114441,0.020256,0.0559616,0.0202942,0.0239563,-9.97986,0.0183105,0.00335693,-0.00221252,-0.0602722,0.00324249,0.00461578,0.032196,0.021019
24,6,10.0097,-0.000305176,0.00213623,-2.42776,0.0544603,-0.0741475,0.0522969,0.0718859,-0.0952827,0.145013,-0.127292,-0.0856222,0.0127411,0.0283432,0.0139618,0.00961304,0.0175858,0.0483704,0.0236893,0.0219345,-9.97986,0.0240326,0.0237274,0.00423431,-0.0340271,-0.00137329,0.00465393,0.0357056,0.0186157
24,7,10.0097,0.000610352,0.00213623,-2.42684,0.055681,-0.0756734,0.0535176,0.07036,-0.0925361,0.143487,-0.126072,-0.0834859,0.00900269,0.0275803,0.0185394,0.00598907,0.0154877,0.0499344,0.0252533,0.0189209,-9.97986,0.0254822,0.00659943,0.000343323,-0.0112534,0.00102997,0.00293732,0.0351334,0.0191879
24,8,10.0097,0.000305176,0.00198364,-2.42837,0.0550706,-0.075063,0.0529073,0.0712755,-0.094062,0.144098,-0.124851,-0.0850118,0.00247955,0.0292587,0.0148392,0.0100708,0.020752,0.0518417,0.026207,0.0193787,-9.97986,0.0187683,-0.0129318,0.000953674,0.00118256,0.00213623,0.00827789,0.0366974,0.0209045
24,9,10.0097,-0.000305176,0.00152588,-2.42501,0.0550706,-0.0759786,0.0535176,0.0715807,-0.0931465,0.146234,-0.126377,-0.0825704,0.0044632,0.0260925,0.0142288,0.0108719,0.0167084,0.0449371,0.0230026,0.0233841,-9.97986,0.0210571,-0.00419617,0.00553131,0.0185013,-0.001297,0.0118637,0.0360107,0.021019
25,0,10.0097,0,0.000915527,-2.4244,0.0569017,-0.0738423,0.0553487,0.0700548,-0.0919257,0.147149,-0.125156,-0.0810445,0.00659943,0.0267792,0.0185013,0.00720978,0.0199127,0.0493622,0.0205994,0.0194168,-9.97986,0.0144577,-0.00343323,0.00595093,0.0427246,-0.00228882,0.00488281,0.0359726,0.0178909
25,1,10.0097,0.00183105,0.00274658,-2.42501,0.055681,-0.075063,0.0532125,0.072191,-0.0913154,0.14776,-0.122715,-0.0813497,0.0106812,0.0294495,0.0202179,0.0128555,0.0222778,0.0434494,0.0236893,0.0193787,-9.97986,0.0177002,-0.000801086,0.00167847,0.0757217,-0.00465393,0.000953674,0.0358582,0.0181198
25,2,10.0097,0.000610352,0.00167847,-2.42592,0.0562914,-0.0747579,0.0519917,0.0279405,-0.0980293,0.145929,-0.128513,-0.0822652,0.00175476,0.0304413,0.0184631,0.00804901,0.0207138,0.0395203,0.0241089,0.0172806,-9.97986,0.0101852,-0.00225067,0.00785828,0.105553,-0.00305176,-0.00125885,0.0362015,0.0184631
25,3,4.10756,0.0012207,0.000152588,-2.42714,0.055681,-0.0744527,0.0519917,-0.0169203,-0.100776,0.145624,-0.130039,-0.0831808,0.00694275,0.0247192,0.0205231,0.0152206,0.0250244,0.0405502,0.0185776,0.0194168,-9.97986,0.00247955,0.00675201,0.00263214,0.152054,0.00324249,-0.00808716,0.0373459,0.0167847
25,4,-3.90605,-0.000305176,-0.000457764,-2.42592,0.055681,-0.0747579,0.0538228,-0.0190565,-0.0971137,0.14776,-0.130649,-0.0813497,0.00370026,0.0296402,0.0253677,0.0144196,0.0281525,0.0422287,0.0257111,0.0166321,-9.97986,0.0025177,0.0246048,0.00694275,0.180321,0.00293732,-0.0121307,0.0370026,0.021019
25,5,-9.99003,-0.000305176,-0.00289917,-2.42348,0.0559862,-0.0729268,0.0556539,-0.00227185,-0.0928413,0.146539,-0.127292,-0.080129,-0.0148392,0.0251389,0.0218582,0.00556946,0.0302505,0.0364685,0.0178528,0.0157928,-9.97986,0.00602722,0.0222397,0.0139618,0.181274,0.00499725,-0.00740051,0.041008,0.0249863
25,6,-9.99003,-0.000915527,-0.00152588,-2.42562,0.0550706,-0.0744527,0.0562642,0.0352648,-0.0897895,0.146234,-0.125766,-0.0804342,-0.0121307,0.0299454,0.0243378,0.0151062,0.029068,0.0331879,0.0164032,0.0167465,-9.97986,0.0044632,-0.0124741,0.00553131,0.181656,-0.0243759,-0.00720978,0.0320435,0.0195313
25,7,-9.99003,0.000915527,0.00106812,-2.42531,0.0559862,-0.0744527,0.0562642,0.0563219,-0.088874,0.145013,-0.127598,-0.0804342,-0.00358582,0.0247192,0.0242996,0.0147629,0.0284576,0.0217056,0.0140762,0.0069046,-9.97986,0.018425,-0.0235748,0.0102615,0.196609,-0.0180054,0.000762939,0.0326157,0.0246429
25,8,-9.99003,-0.000305176,0.000610352,-2.42409,0.0550706,-0.0738423,0.0547383,0.0630358,-0.0910102,0.145318,-0.127598,-0.0828756,-0.0044632,0.0269318,0.0237656,0.0161743,0.032692,0.00839233,0.0190353,0.00553131,-9.97986,0.021553,-0.0191498,0.0104904,0.200996,-0.015831,0.00545502,0.0309372,0.0195313
25,9,-9.99003,0.000610352,0.00289917,-2.42653,0.0550706,-0.0762837,0.0556539,0.0828722,-0.0900947,0.146539,-0.125156,-0.0819601,-0.00225067,0.0267029,0.0225067,0.0146866,0.028038,0.00854492,0.0195313,0.00476837,-9.97986,0.0305939,-0.00976563,0.0131607,0.22316,0.00221252,0.00766754,0.0297165,0.0191116
26,0,-5.58909,-0.000610352,0.00640869,-2.42806,0.0541551,-0.0753682,0.0584004,0.135362,-0.0867378,0.144098,-0.121799,-0.0834859,0.0069809,0.0265503,0.0231552,0.0125122,0.0295258,0.00492096,0.015831,0.00656128,-9.97986,0.0316238,-0.0109482,0.00957489,0.243759,0.00999451,0.0082016,0.0311279,0.0200653
26,1,1.71559,-0.000305176,0.00686646,-2.42776,0.0529344,-0.0759786,0.0553487,0.153063,-0.0879585,0.144098,-0.12302,-0.0837911,0.0291443,0.030365,0.0213623,0.00854492,0.0309753,-0.0075531,0.0193024,0.00770569,-9.97986,0.0126648,-0.0143814,0.0106049,0.265846,0.0087738,0.0103378,0.0294495,0.02285
26,2,8.89302,0.0012207,0.00640869,-2.42898,0.0535448,-0.075063,0.0547383,0.157945,-0.0894843,0.144403,-0.121494,-0.0856222,0.0334167,0.0289154,0.0207138,0.01091,0.0328445,-0.00904083,0.0187683,0.0139999,-9.97986,0.00225067,-0.0156403,0.00919342,0.277519,0.0101089,0.0110626,0.0295258,0.0214767
26,3,10.0097,-0.000305176,0.00427246,-2.42989,0.0535448,-0.0762837,0.0471089,0.110338,-0.0968086,0.141961,-0.124546,-0.0892843,0.0350952,0.025444,0.0221252,0.0136185,0.0287628,-0.0209808,0.0133133,0.0143814,-9.97986,-0.0104523,-0.00930786,0.00823975,0.29644,0.0113678,0.0112915,0.0298309,0.019989
26,4,10.0097,-0.000305176,0.00305176,-2.43081,0.0532396,-0.0759786,0.0504659,0.0862291,-0.0977241,0.143182,-0.125461,-0.0880636,0.0416946,0.0252151,0.019722,0.0105286,0.0246811,-0.0237274,0.0169754,0.0161362,-9.97986,-0.0344849,0.000457764,0.00442505,0.326347,0.00923157,0.00488281,0.0261688,0.0223923
26,5,10.0097,-0.000610352,0.0012207,-2.42867,0.0547655,-0.0765889,0.0516866,0.0764635,-0.0949775,0.143182,-0.126987,-0.0865377,0.0312805,0.0204849,0.018692,0.00770569,0.0237656,-0.0342178,0.0120163,0.0141144,-9.97986,-0.0462341,-0.0012207,0.00770569,0.330772,0.0119019,0.00595093,0.0227737,0.0187302
26,6,10.0097,0.00152588,0.000762939,-2.42745,0.0544603,-0.0753682,0.0550435,0.0734117,-0.0946723,0.144403,-0.126072,-0.0868429,0.0222778,0.0246811,0.0192261,0.0130463,0.024147,-0.0368881,0.0145721,0.0178528,-9.97986,-0.0400162,-0.00102997,0.012207,0.335579,0.0128555,0.0050354,0.0177765,0.0178909
26,7,10.0097,0.0012207,0.000915527,-2.42745,0.0544603,-0.0759786,0.0538228,0.0728014,-0.0943672,0.144098,-0.126987,-0.0847066,0.00156403,0.0209427,0.0168991,0.00827789,0.0232697,-0.0396347,0.0162506,0.0213623,-9.97986,-0.0391006,-0.00247955,0.00846863,0.340958,0.00587463,0.000267029,0.017662,0.0173569
26,8,10.0097,-0.000915527,0.000610352,-2.42653,0.055681,-0.075063,0.0522969,0.07036,-0.0931465,0.142877,-0.126072,-0.0850118,-0.0155258,0.0173187,0.0137329,0.0107193,0.0244522,-0.0460815,0.0146484,0.0237656,-9.97986,-0.0247192,-0.000839233,0.00720978,0.33432,0.0107574,0,0.0136566,0.0114441
26,9,10.0097,0.00213623,0.000610352,-2.42592,0.055681,-0.0744527,0.050771,0.0724962,-0.0919257,0.145929,-0.125156,-0.0831808,-0.00427246,0.018959,0.0147629,0.00694275,0.0294495,-0.0492477,0.0154877,0.0195313,-9.97986,-0.00621796,-0.00137329,0.00347137,0.341187,0.00778198,0.000610352,0.0137711,0.0146866
27,0,10.0097,-0.000305176,0.000457764,-2.42318,0.0562914,-0.0729268,0.0532125,0.072191,-0.0916206,0.146844,-0.123935,-0.0819601,0.0050354,0.018425,0.0120926,0.0128937,0.0268936,-0.055542,0.0125504,0.0172806,-9.97986,0.00286102,0.000457764,0.00713348,0.340652,0.00102997,0.00617981,0.0137329,0.0154495
27,1,10.0097,0.000305176,0.000152588,-2.42562,0.0559862,-0.0738423,0.054128,0.0709703,-0.0919257,0.146234,-0.124241,-0.0813497,0.018692,0.0229645,0.0125885,0.00961304,0.0279236,-0.0576782,0.0094223,0.0171661,-9.97986,0.00354767,0.00118256,0.00339508,0.34153,0.0103378,0.00411987,0.0146484,0.018158
27,2,10.0097,0.000610352,-0.00259399,-2.42806,0.0547655,-0.0741475,0.0504659,0.0273302,-0.09925,0.145013,-0.127903,-0.0828756,0.022316,0.0156403,0.0156784,0.0106049,0.0255585,-0.0583649,0.0130844,0.0177765,-9.97986,-0.00469208,0.00160217,0.00278473,0.330696,0.0088501,0.00350952,0.0146484,0.0167847
27,3,3.9507,-0.000915527,-0.00457764,-2.42592,0.0559862,-0.075063,0.0519917,-0.019972,-0.100471,0.145929,-0.13126,-0.0850118,0.0288773,0.0183868,0.018158,0.0102615,0.0255585,-0.0661087,0.0163269,0.0198746,-9.97986,-0.00297546,0.00133514,0.00110626,0.316467,0.0069809,0.0082016,0.01091,0.0123978
27,4,-3.99577,-0.000610352,-0.00549316,-2.42623,0.0569017,-0.0735371,0.054128,-0.0193617,-0.0971137,0.146539,-0.130954,-0.0831808,0.0352478,0.0190735,0.0153732,0.00865936,0.0222778,-0.0631332,0.0136948,0.0170517,-9.97986,0.00556946,0.00144958,0.00175476,0.307083,0.00843048,0.00671387,0.00595093,0.0123215
27,5,-9.99003,0.00213623,-0.00534058,-2.4244,0.0572069,-0.0726216,0.0565694,-0.00105115,-0.0943672,0.145318,-0.128208,-0.0804342,0.0302505,0.017395,0.0168228,0.0112534,0.0255203,-0.0749207,0.0130844,0.0127792,-9.97986,0.0265884,0.00492096,-0.00217438,0.295334,0.00572205,0.00904083,0.00919342,0.00667572
27,6,-9.99003,0.000915527,-0.00244141,-2.42409,0.0550706,-0.0741475,0.0565694,0.0361803,-0.0897895,0.14776,-0.125766,-0.0804342,0.0139999,0.0186539,0.0164032,0.0104904,0.0282288,-0.0779724,0.010643,0.0105667,-9.97986,0.0541306,0.00801086,-0.00175476,0.287056,-0.0154877,0.00736237,0.00720978,0.00976563
27,7,-9.99003,0.0012207,-0.00152588,-2.42562,0.0559862,-0.075063,0.0553487,0.0560167,-0.0919257,0.148065,-0.126987,-0.0816549,-0.00137329,0.018158,0.0160217,0.00881195,0.0277328,-0.0799179,0.00835419,0.0114441,-9.97986,0.0683594,0.00957489,0.00156403,0.275955,-0.0137329,0.00999451,0.00526428,0.00751495
27,8,-9.99003,-0.000915527,-0.00183105,-2.42592,0.0553758,-0.0741475,0.0544332,0.0639513,-0.0919257,0.146539,-0.126072,-0.0840963,-0.0154877,0.0180817,0.0125504,0.00926971,0.0291061,-0.0823593,0.00865936,0.014801,-9.97986,0.0631332,0.00537872,-0.00392914,0.255661,-0.0139236,0.0106049,0.00694275,0.00610352
27,9,-9.99003,0.00152588,-0.000610352,-2.42531,0.0550706,-0.0747579,0.054128,0.0816515,-0.0900947,0.146234,-0.125766,-0.0834859,-0.0219727,0.0172806,0.0193024,0.0114441,0.0273895,-0.0796127,0.00598907,0.0212479,-9.97986,0.0627518,0.00522614,-0.00335693,0.246086,0.0030899,0.0103378,-0.00144958,0.00404358
28,0,-5.77891,0.000610352,0.00274658,-2.42837,0.0541551,-0.0756734,0.0544332,0.135973,-0.0867378,0.144403,-0.12302,-0.0840963,-0.0249863,0.0172424,0.0165558,0.00835419,0.0248718,-0.0758362,0.00743866,0.0152206,-9.97986,0.062027,0.00526428,-0.00148773,0.225258,0.0119019,0.00934601,0.000457764,0.00614166
28,1,1.47756,-0.000305176,0.00244141,-2.42776,0.0532396,-0.0756734,0.0513814,0.152452,-0.0885688,0.145318,-0.122715,-0.0865377,-0.00766754,0.0167847,0.0158691,0.00873566,0.0255585,-0.0784683,0.0037384,0.0183105,-9.97986,0.055809,0.00534058,-0.00240326,0.207481,0.0117111,0.00789642,0.00141144,0.0069809
28,2,8.70625,-0.000305176,0.00274658,-2.42837,0.0544603,-0.0756734,0.0538228,0.160082,-0.0894843,0.142877,-0.120578,-0.085317,-0.00198364,0.0182724,0.0174332,0.0129318,0.0233078,-0.0771713,0.00453949,0.0211334,-9.97986,0.0503922,0.00183105,-0.00553131,0.185051,0.0110626,0.0111008,0.00190735,0.00480652
28,3,10.0097,-0.000915527,0.000762939,-2.43233,0.0526292,-0.0768941,0.0495503,0.112169,-0.0971137,0.142267,-0.124851,-0.0895895,-0.00591278,0.0226974,0.0179291,0.0165558,0.0275803,-0.0759125,0.00038147,0.0227356,-9.97986,0.0536346,-0.00339508,-0.00591278,0.166855,0.0153351,0.0108337,-0.000648499,0.00366211
28,4,10.0097,0.0012207,-0.00152588,-2.42959,0.0550706,-0.0762837,0.050771,0.0868395,-0.0965034,0.141961,-0.126377,-0.0895895,0.0181198,0.0138474,0.0137711,0.00827789,0.021553,-0.0765228,-0.0030899,0.0230408,-9.97986,0.062561,-0.00087738,-0.00747681,0.138931,0.0102615,0.0115204,-0.00331879,0.00328064
28,5,10.0097,0.000305176,-0.00259399,-2.42867,0.0544603,-0.0762837,0.0516866,0.077379,-0.095893,0.143792,-0.127598,-0.0880636,0.0380707,0.0195313,0.0164413,0.00862122,0.0247574,-0.0741577,0.00141144,0.0223541,-9.97986,0.0435257,0.000267029,-0.00358582,0.114822,0.01297,0.0167465,-0.0019455,0.00167847
28,6,10.0097,-0.00244141,-0.00320435,-2.42898,0.0541551,-0.075063,0.0516866,0.0728014,-0.0955879,0.144403,-0.125766,-0.0868429,0.0262833,0.0217438,0.0184631,0.0123215,0.0224304,-0.0804138,-0.00556946,0.0258255,-9.97986,0.0217056,0.00198364,-0.00484467,0.0929642,0.0131989,0.0209427,-0.00583649,0.00320435
28,7,10.0097,0.000915527,-0.00228882,-2.42837,0.0541551,-0.0747579,0.0529073,0.0715807,-0.0946723,0.143487,-0.126072,-0.0862325,0.01194,0.0209808,0.0177765,0.0101471,0.026741,-0.0785065,-0.00892639,0.0299072,-9.97986,0.010376,0.00843048,-0.00305176,0.06073,0.0157547,0.0118637,-0.00400543,0.000457764
28,8,10.0097,-0.000915527,-0.00305176,-2.42653,0.055681,-0.0753682,0.0544332,0.0700548,-0.0934516,0.145624,-0.127292,-0.0850118,0.0088501,0.0196838,0.0210571,0.013504,0.0252151,-0.0821304,-0.00595093,0.026741,-9.97986,-0.00362396,0.00209808,-0.00305176,0.0339127,0.0164413,0.00343323,-0.00183105,0.00305176
28,9,10.0097,-0.00183105,-0.00289917,-2.42745,0.0550706,-0.0744527,0.054128,0.0712755,-0.0931465,0.145013,-0.125461,-0.0840963,0.00038147,0.0206757,0.0204468,0.00946045,0.0216293,-0.0888062,-0.00869751,0.0288773,-9.97986,-0.0146866,-0.00137329,0.00862122,0.00457764,0.0201035,-0.00270844,-0.00282288,0.00228882
29,0,10.0097,-0.000305176,-0.00274658,-2.42531,0.055681,-0.0747579,0.0544332,0.0712755,-0.0919257,0.145318,-0.123935,-0.0825704,0.0111771,0.018158,0.0171661,0.011673,0.0227737,-0.0851059,-0.0131226,0.0265121,-9.97986,-0.010376,-0.00228882,0.00469208,-0.028801,0.0205612,-0.00549316,-0.00862122,0.0018692
29,1,10.0097,0.000610352,-0.00198364,-2.42501,0.0565965,-0.0744527,0.0562642,0.0718859,-0.0916206,0.147149,-0.12363,-0.0822652,0.017395,0.0196075,0.0163269,0.0144958,0.0252533,-0.0856781,-0.00835419,0.030632,-9.97986,-0.0102234,-0.000190735,0.00965118,-0.0458908,0.0172806,-0.0069809,-0.0038147,0.0038147
29,2,10.0097,0.0012207,-0.00350952,-2.42653,0.0559862,-0.0753682,0.0522969,0.0282457,-0.0980293,0.145318,-0.128513,-0.0844015,0.0192642,0.0144577,0.0156021,0.00804901,0.0183487,-0.0952148,-0.0135422,0.0269699,-9.97986,0.00221252,-0.000305176,0.013504,-0.0571823,0.0206375,-0.0112152,-0.00442505,0.0018692
29,3,4.01479,0.0012207,-0.00534058,-2.42714,0.0572069,-0.0744527,0.0550435,-0.0175306,-0.100776,0.147149,-0.130039,-0.0844015,0.0375748,0.018959,0.0207138,0.0107956,0.0273514,-0.0976563,-0.018425,0.0310135,-9.97986,0.019722,-0.00553131,0.0110245,-0.0789261,0.0218964,-0.0120926,-0.00484467,0.00492096
29,4,-3.94389,0,-0.00701904,-2.42409,0.0559862,-0.0741475,0.0538228,-0.0190565,-0.0983344,0.145318,-0.130344,-0.0816549,0.0368118,0.021019,0.017662,0.00984192,0.0237274,-0.0977707,-0.0149918,0.0306702,-9.97986,0.0356674,-0.00370026,0.0101852,-0.105171,0.0251007,-0.0165558,-0.0109863,0.00606537
29,5,-9.99003,0,-0.00701904,-2.42409,0.0572069,-0.0723164,0.0562642,-0.00318738,-0.0934516,0.147455,-0.128818,-0.0816549,0.0300598,0.0143814,0.016861,0.00831604,0.0179672,-0.0886917,-0.0205994,0.0285721,-9.97986,0.0426102,-0.00198364,0.00595093,-0.127106,0.0156403,-0.0138092,-0.0082016,0.00679016
29,6,-9.99003,-0.000305176,-0.00442505,-2.42409,0.0553758,-0.0735371,0.0565694,0.0377062,-0.0900947,0.147149,-0.127598,-0.0810445,0.0242996,0.0212097,0.0163269,0.0117111,0.0219727,-0.0921631,-0.0195313,0.0312424,-9.97986,0.0420761,0.000419617,0.00831604,-0.149155,-0.0025177,-0.0158691,-0.0094986,0.00812531
29,7,-9.99003,0.00152588,-0.00305176,-2.42501,0.0562914,-0.073232,0.0544332,0.054796,-0.0910102,0.145624,-0.125766,-0.0822652,0.000686646,0.0182343,0.0183487,0.0121689,0.0219727,-0.0823593,-0.0197601,0.030899,-9.97986,0.0416565,-0.00900269,0.0130463,-0.171471,-0.00343323,-0.00988007,-0.0101089,0.00705719
29,8,-9.99003,0.000610352,-0.00228882,-2.42653,0.0547655,-0.0759786,0.0553487,0.0627306,-0.0913154,0.145929,-0.125156,-0.0831808,-0.00778198,0.0212479,0.0204086,0.00831604,0.0232697,-0.0767136,-0.0271225,0.0288773,-9.97986,0.0350952,-0.00606537,0.0156784,-0.193062,0.00133514,0.00236511,-0.011673,0.00747681
29,9,-9.99003,0,-0.00137329,-2.42623,0.0547655,-0.0753682,0.0556539,0.0810411,-0.0900947,0.145318,-0.123935,-0.0837911,0.00404358,0.0206757,0.018692,0.0110626,0.0163651,-0.0759506,-0.0251389,0.0315094,-9.97986,0.0345993,-0.00244141,0.0156403,-0.210304,0.0182343,0.0114822,-0.0147247,0.00659943
30,0,-5.71879,0.000610352,0.00259399,-2.42653,0.0547655,-0.0753682,0.0553487,0.135973,-0.0870429,0.144708,-0.122715,-0.085317,0.0106049,0.021019,0.0194931,0.00797272,0.0188828,-0.0702286,-0.0230789,0.0287247,-9.97986,0.031929,-0.00740051,0.0161362,-0.221863,0.0228882,0.0186157,-0.0153732,0.00984192
30,1,1.56941,0.00152588,0.00305176,-2.42745,0.0529344,-0.0762837,0.0538228,0.153368,-0.088874,0.144403,-0.121494,-0.0850118,0.0204086,0.0214005,0.022316,0.0126648,0.0204849,-0.0681686,-0.0206757,0.02285,-9.97986,0.0350189,-0.00244141,0.0180054,-0.229492,0.0232697,0.0182343,-0.013237,0.00671387
30,2,8.78774,0.00152588,0.00274658,-2.42745,0.0541551,-0.0753682,0.0529073,0.157945,-0.0885688,0.143487,-0.120578,-0.0865377,0.00743866,0.0224304,0.0231934,0.010643,0.0157928,-0.0618362,-0.028801,0.0219345,-9.97986,0.0346756,-0.00347137,0.0134659,-0.240097,0.021286,0.0154114,-0.0174713,0.00896454
30,3,10.0097,0.0012207,0.0012207,-2.43172,0.0523241,-0.0771993,0.0492452,0.111559,-0.0965034,0.143792,-0.128513,-0.0898946,0.00404358,0.0251389,0.0200272,0.0151443,0.0177765,-0.0543594,-0.0260925,0.0185013,-9.97986,0.0244141,-0.00667572,0.0148773,-0.248985,0.0251389,0.0104904,-0.0173187,0.0109863
30,4,10.0097,0.000610352,0.000152588,-2.4305,0.0520189,-0.0765889,0.0501607,0.0865343,-0.0971137,0.142572,-0.126072,-0.0886739,0.0192642,0.0185394,0.0251007,0.00965118,0.0146103,-0.0509262,-0.0308228,0.0221634,-9.97986,0.0171661,-0.00530243,0.0140381,-0.254326,0.0214767,0.00450134,-0.0204849,0.00782013
30,5,10.0097,0.0012207,-0.00106812,-2.42837,0.0529344,-0.0753682,0.0516866,0.0767687,-0.095893,0.143792,-0.126377,-0.0877584,0.0457764,0.0220871,0.0286865,0.0126648,0.0230026,-0.0535202,-0.0330353,0.0165558,-9.97986,0.00637054,-0.00782013,0.0115585,-0.255623,0.024147,0.00400543,-0.0193024,0.00926971
30,6,10.0097,0.00152588,0,-2.42592,0.0553758,-0.075063,0.0522969,0.0728014,-0.0946723,0.145929,-0.125766,-0.0859274,0.0424957,0.0191116,0.021553,0.0151062,0.0168228,-0.0476456,-0.0323486,0.0159454,-9.97986,0.000724792,-0.00835419,0.0113678,-0.254745,0.022049,0.000724792,-0.0180817,0.00576019
30,7,10.0097,0.000305176,-0.000152588,-2.42714,0.0550706,-0.0759786,0.0532125,0.0709703,-0.0949775,0.144098,-0.126682,-0.085317,0.0374603,0.0202179,0.0235367,0.0123978,0.0181961,-0.042038,-0.0310516,0.0168991,-9.97986,-0.00335693,-0.0104523,0.0135422,-0.253601,0.0265121,0.000534058,-0.0266647,0.00740051
30,8,10.0097,0.000610352,0.000305176,-2.42623,0.0565965,-0.075063,0.0535176,0.0706652,-0.0928413,0.145624,-0.126987,-0.085317,0.0401688,0.0158691,0.0195694,0.0120163,0.0208664,-0.0324249,-0.0307465,0.017662,-9.97986,0.00289917,-0.0108337,0.00865936,-0.25074,0.0215912,0.0037384,-0.0215912,0.00778198
30,9,10.0097,0.000915527,0.000915527,-2.42653,0.055681,-0.0738423,0.0538228,0.072191,-0.0928413,0.146234,-0.125156,-0.0831808,0.0346756,0.0152206,0.0191498,0.0109863,0.0198364,-0.0333405,-0.0315857,0.015564,-9.97986,0.00312805,-0.00656128,0.0106049,-0.248909,0.022049,0.0063324,-0.0214767,0.00999451
31,0,10.0097,0.000305176,0,-2.4247,0.0572069,-0.073232,0.0544332,0.0712755,-0.0925361,0.145624,-0.12363,-0.0816549,0.0127029,0.0164795,0.0204468,0.0128937,0.0162125,-0.0337219,-0.030365,0.0163269,-9.97986,-0.00602722,-0.00915527,0.00965118,-0.246277,0.0259399,0.00667572,-0.0242996,0.00671387
31,1,10.0097,0.0012207,-0.000305176,-2.42379,0.0565965,-0.0747579,0.0544332,0.0709703,-0.0910102,0.146234,-0.124851,-0.0816549,0.00980377,0.0188828,0.0211334,0.0131989,0.018692,-0.026474,-0.0271988,0.0143433,-9.97986,-0.0113297,-0.00900269,0.00881195,-0.233727,0.0272369,-0.00514984,-0.0220108,0.00732422
31,2,10.0097,0.000305176,-0.00198364,-2.42837,0.0553758,-0.0753682,0.0522969,0.0279405,-0.0977241,0.146234,-0.126987,-0.0828756,0.0183105,0.0146103,0.016098,0.0133514,0.0193024,-0.0255966,-0.0321198,0.0230026,-9.97986,-0.0136185,-0.0104904,0.00324249,-0.233307,0.025444,-0.0191498,-0.0230026,0.00808716
31,3,4.0331,-0.000915527,-0.00335693,-2.42653,0.0575121,-0.0747579,0.050771,-0.0184462,-0.101081,0.146539,-0.130039,-0.0837911,0.00232697,0.0144196,0.0199127,0.0153732,0.0158691,-0.0193024,-0.0320053,0.0157928,-9.97986,-0.0177765,-0.0141907,0.0120544,-0.225868,0.0248718,-0.0149918,-0.0278473,0.00671387
31,4,-3.91368,-0.000915527,-0.00366211,-2.42562,0.0578172,-0.0744527,0.0532125,-0.0190565,-0.0965034,0.147149,-0.129734,-0.0819601,0.00236511,0.0133133,0.0173569,0.0120544,0.0229645,-0.0102234,-0.033493,0.0252914,-9.97986,-0.0062561,-0.0131226,0.0256729,-0.218925,0.0262833,-0.0056839,-0.0295639,0.0043869
31,5,-9.99003,0.00152588,-0.00473022,-2.4244,0.0581224,-0.0738423,0.0562642,-0.00379773,-0.0931465,0.146234,-0.128208,-0.0813497,0.00408173,0.0124359,0.0192261,0.0115585,0.021019,-0.0056839,-0.035553,0.0241089,-9.97986,0.010376,-0.0111008,0.0448608,-0.214958,0.0268555,-0.00522614,-0.02388,0.000495911
31,6,-9.99003,0.0012207,-0.00152588,-2.42348,0.0565965,-0.0735371,0.0580953,0.0358751,-0.0894843,0.146844,-0.127292,-0.0798238,0.0149536,0.0175095,0.0226974,0.0127792,0.0240707,-0.000915527,-0.0277328,0.0215149,-9.97986,0.0247192,-0.00606537,0.0746918,-0.209312,0.00240326,-0.00198364,-0.0250244,-0.00377655
31,7,-9.99003,0,-0.000305176,-2.42562,0.055681,-0.0744527,0.0556539,0.0566271,-0.0903999,0.145318,-0.126072,-0.0813497,0.0122833,0.0177002,0.0185776,0.0119019,0.023613,-0.00362396,-0.0326157,0.0181961,-9.97986,0.0410843,-0.00556946,0.105286,-0.205421,0.00461578,0.00164032,-0.0239563,-0.0132751
31,8,-9.99003,0.000610352,0.000152588,-2.42562,0.0559862,-0.075063,0.0553487,0.0624254,-0.0910102,0.146234,-0.126682,-0.0828756,0.010376,0.015564,0.016861,0.0103378,0.0205994,-0.00553131,-0.0342941,0.0157928,-9.97986,0.0474548,-0.00640869,0.144272,-0.205078,0.001297,0.00221252,-0.0275803,-0.0246048
31,9,-9.99003,0.00305176,0.00152588,-2.42623,0.055681,-0.075063,0.0544332,0.0822618,-0.0900947,0.145929,-0.125766,-0.0828756,0.013504,0.0161743,0.0190353,0.0123978,0.0236511,0.000991821,-0.0298691,0.0127411,-9.97986,0.0473022,-0.00305176,0.174675,-0.196762,0.0244141,0.00400543,-0.0269318,-0.0324631
32,0,-5.66691,0.000915527,0.00473022,-2.42745,0.0538499,-0.0753682,0.0556539,0.138414,-0.0870429,0.144403,-0.122715,-0.0834859,0.0105286,0.0173187,0.0192261,0.0157928,0.030365,0.00507355,-0.0271606,0.0149536,-9.97986,0.0338745,-0.00545502,0.201378,-0.193787,0.0288773,0.00297546,-0.033493,-0.0324631
32,1,1.58834,-0.00213623,0.00473022,-2.42867,0.0547655,-0.075063,0.054128,0.153368,-0.0882636,0.143487,-0.122104,-0.0844015,0.0152969,0.0179672,0.0195313,0.0138855,0.0260544,-0.0031662,-0.0277328,0.014534,-9.97986,0.018959,-0.00930786,0.203171,-0.191765,0.0240707,-0.00907898,-0.0379944,-0.0322723
32,2,8.79323,0.00183105,0.00473022,-2.42776,0.0535448,-0.0759786,0.054128,0.157335,-0.0894843,0.144403,-0.120884,-0.0859274,0.0130844,0.0201797,0.0204468,0.0130844,0.0337982,0.00152588,-0.025177,0.0127792,-9.97986,0.00549316,-0.00732422,0.208397,-0.176735,0.0312805,-0.00621796,-0.0339508,-0.0260544
32,3,10.0097,-0.000305176,0.00335693,-2.43172,0.0535448,-0.0775044,0.0498555,0.112169,-0.0971137,0.142877,-0.125766,-0.0889791,-0.000686646,0.0214386,0.0196457,0.0132751,0.0303268,0.00282288,-0.0202942,0.0123596,-9.97986,-0.00602722,-0.0107574,0.195694,-0.164261,0.0289154,-0.00621796,-0.0400543,-0.0215149
32,4,10.0097,0.00244141,0.00213623,-2.42989,0.0544603,-0.0756734,0.0498555,0.0859239,-0.0971137,0.143792,-0.126987,-0.0877584,-0.0106812,0.0209427,0.0209045,0.00907898,0.0301743,-0.00148773,-0.0201416,0.00679016,-9.97986,-0.00236511,-0.00652313,0.180397,-0.150337,0.0259399,-0.00774384,-0.0421524,-0.0170135
32,5,10.0097,0.000305176,0.00137329,-2.42928,0.0538499,-0.0759786,0.0504659,0.0758531,-0.095893,0.144403,-0.126987,-0.0874532,-0.00190735,0.0218964,0.018425,0.00915527,0.0306702,-0.00263214,-0.0136566,0.014267,-9.97986,0.000991821,-0.00823975,0.159035,-0.131073,0.0253677,-0.00816345,-0.0462341,-0.0112152
32,6,10.0097,0,0.00106812,-2.42745,0.0550706,-0.0753682,0.0513814,0.0718859,-0.0946723,0.144708,-0.126377,-0.085317,0.00289917,0.0252533,0.0201797,0.0117874,0.0289917,-0.00137329,-0.0094223,0.0139999,-9.97986,0.0110626,-0.0101852,0.134277,-0.117455,0.025444,-0.00476837,-0.0471497,-0.00511169
32,7,10.0097,0.00183105,0.00183105,-2.42837,0.0547655,-0.0759786,0.0538228,0.072191,-0.0931465,0.145318,-0.126072,-0.0831808,0.013237,0.0197983,0.0170517,0.00816345,0.0336456,-0.000572205,-0.0043869,0.0113678,-9.97986,0.0254059,-0.0062561,0.114059,-0.101891,0.0226974,-0.00614166,-0.0541306,0.00209808
32,8,10.0097,-0.000610352,0.000915527,-2.42684,0.055681,-0.0741475,0.0522969,0.0712755,-0.0925361,0.145624,-0.125766,-0.0847066,0.0131989,0.0173187,0.0206757,0.00984192,0.0336075,0.00682831,-0.00114441,0.0114059,-9.97986,0.043335,-0.00415802,0.089798,-0.0868607,0.0263977,-0.00583649,-0.0524139,0.00705719
32,9,10.0097,0.000610352,0.00137329,-2.42501,0.0553758,-0.073232,0.0535176,0.0706652,-0.0922309,0.145929,-0.124241,-0.0825704,-0.00606537,0.021286,0.0210571,0.0115967,0.0362015,0.0125504,0.00324249,0.00816345,-9.97986,0.044632,-0.00915527,0.0686646,-0.0739288,0.0256729,-0.00934601,-0.0457764,0.0110626
33,0,10.0097,-0.000915527,0.00152588,-2.4247,0.0559862,-0.075063,0.0538228,0.0715807,-0.0919257,0.145624,-0.124546,-0.0819601,-0.0164795,0.0204849,0.022049,0.0113678,0.0374222,0.0126266,0.0100327,0.0109482,-9.97986,0.0442886,-0.00408173,0.0438309,-0.0615692,0.0264359,-0.0150681,-0.0359344,0.0137329
33,1,10.0097,-0.000610352,0.00167847,-2.42531,0.0562914,-0.073232,0.054128,0.0728014,-0.0922309,0.14776,-0.124851,-0.0810445,-0.0307846,0.0209808,0.0233841,0.00968933,0.0366974,0.00953674,0.017395,0.00953674,-9.97986,0.0295639,-0.00621796,0.0322723,-0.0476456,0.0274658,-0.014801,-0.0201797,0.0139618
33,2,10.0097,0.00366211,0,-2.42684,0.0550706,-0.0741475,0.0501607,0.0254991,-0.0983344,0.145013,-0.127292,-0.0834859,-0.0422287,0.0216293,0.0178146,0.0144958,0.0366211,0.0144577,0.018158,0.0150681,-9.97986,0.0113678,-0.00312805,0.0177765,-0.0270844,0.0271225,-0.0120163,-0.0062561,0.0172424
33,3,3.83107,-0.000915527,-0.00213623,-2.42623,0.0569017,-0.0744527,0.050771,-0.0187513,-0.0998603,0.145318,-0.130039,-0.0828756,-0.0349045,0.0239944,0.0239182,0.0125885,0.0365448,0.0102997,0.0253677,0.0117111,-9.97986,0.00530243,-0.00831604,0.000114441,-0.0128174,0.0260925,-0.0157547,0.0118256,0.0162125
33,4,-4.17674,0.000610352,-0.00305176,-2.42653,0.0565965,-0.073232,0.0535176,-0.0208876,-0.0977241,0.146539,-0.130954,-0.0816549,-0.0282669,0.0233459,0.0197983,0.00762939,0.0356674,0.0087738,0.0257492,0.0149155,-9.97986,-0.00366211,-0.00862122,-0.00934601,0.00553131,0.0259781,-0.0138855,0.0236893,0.0201416
33,5,-9.99003,-0.000610352,-0.00411987,-2.4244,0.0562914,-0.0735371,0.0544332,-0.00379773,-0.0925361,0.146234,-0.128818,-0.0810445,-0.026741,0.0207138,0.0236511,0.00984192,0.0362015,0.0101089,0.0313187,0.0183868,-9.97986,-0.00801086,-0.0157166,-0.0223923,0.0169754,0.0165558,-0.00904083,0.031929,0.0148392
33,6,-9.99003,0,-0.00152588,-2.42592,0.0559862,-0.0741475,0.0556539,0.0380113,-0.0894843,0.145624,-0.126377,-0.0792135,-0.0131226,0.0184631,0.0230026,0.00972748,0.0339508,0.0152969,0.0379944,0.0125885,-9.97986,-0.00278473,-0.0146866,-0.0335693,0.0170517,-0.000343323,-0.000534058,0.036087,0.0170135
33,7,-9.99003,0.000305176,0.000457764,-2.42501,0.0559862,-0.0747579,0.0556539,0.0572374,-0.0903999,0.145929,-0.126072,-0.0810445,-0.0069809,0.0261307,0.0204086,0.0132751,0.0272751,0.0178909,0.0446701,0.00499725,-9.97986,-0.00171661,-0.0101852,-0.0393677,0.0209427,-0.00179291,-0.0038147,0.0456619,0.0175476
33,8,-9.99003,0.000915527,-0.000305176,-2.42745,0.0538499,-0.0744527,0.0547383,0.0633409,-0.0897895,0.146234,-0.124546,-0.0825704,0.013237,0.0214386,0.0168228,0.0062561,0.0320435,0.0157547,0.0520706,0.00274658,-9.97986,0.000190735,-0.00465393,-0.0507736,0.0219345,-0.0030899,-0.00556946,0.0543976,0.0125122
33,9,-9.99003,0.000915527,0.000305176,-2.42653,0.0562914,-0.0753682,0.054128,0.0792101,-0.0897895,0.145013,-0.125461,-0.0837911,0.0314331,0.0233078,0.0228882,0.0112534,0.0302124,0.0172043,0.0535583,-0.000801086,-9.97986,0.0108337,-0.0069809,-0.0528336,0.017662,0.0106812,-0.013237,0.0651932,0.0154495
34,0,-6.18449,0,0.00350952,-2.42623,0.0532396,-0.0762837,0.0562642,0.136583,-0.0858222,0.143487,-0.12241,-0.0840963,0.0543213,0.0227356,0.02491,0.0112915,0.0272369,0.019722,0.0553131,0.00404358,-9.97986,0.0291061,-0.00804901,-0.0551605,0.00846863,0.0217056,-0.0122452,0.0754929,0.0156784
34,1,1.06191,0.000915527,0.00335693,-2.42714,0.0538499,-0.0753682,0.0550435,0.153368,-0.0882636,0.144403,-0.121799,-0.0847066,0.067749,0.0194931,0.0218582,0.0125504,0.0240326,0.0244141,0.0634384,0.00453949,-9.97986,0.0407028,-0.00537872,-0.0593567,0.00236511,0.0188446,-0.0137329,0.0868988,0.0135422
34,2,8.25582,0,0.00411987,-2.42837,0.0535448,-0.0759786,0.0550435,0.157945,-0.0894843,0.143182,-0.120884,-0.0859274,0.0715637,0.0219727,0.0208282,0.0141907,0.0175476,0.0188828,0.0639725,0.00175476,-9.97986,0.0349045,-0.00968933,-0.059967,-0.0149155,0.0185776,-0.0158691,0.0901413,0.0164413
34,3,10.0097,-0.000305176,0.00228882,-2.43172,0.0529344,-0.0768941,0.0495503,0.113085,-0.0949775,0.141961,-0.124546,-0.0895895,0.0707626,0.0239563,0.0259399,0.0118256,0.019455,0.0200653,0.0736618,0.00225067,-9.97986,0.0349808,-0.00907898,-0.06073,-0.0217438,0.0156403,-0.0127029,0.0975418,0.0195694
34,4,10.0097,0.00152588,-0.000152588,-2.42898,0.0535448,-0.0759786,0.0498555,0.0874498,-0.0986396,0.143487,-0.126377,-0.0883688,0.0519943,0.020752,0.0226593,0.0109863,0.0186157,0.0207138,0.0725555,-3.8147e-005,-9.97986,0.0189972,-0.0062561,-0.0601959,-0.0365829,0.0104141,-0.0121307,0.105286,0.0230789
34,5,10.0097,0.0012207,-0.00106812,-2.42837,0.0538499,-0.0738423,0.0513814,0.0785997,-0.0949775,0.145013,-0.126682,-0.0880636,0.0503159,0.0281906,0.0223541,0.0146103,0.0162888,0.0251007,0.0849152,0.0030899,-9.97986,0.00648499,-0.00839233,-0.0591278,-0.0479126,0.00736237,-0.0154495,0.110016,0.0234985
34,6,10.0097,-0.000610352,-0.000610352,-2.42745,0.0544603,-0.0756734,0.0532125,0.0728014,-0.0949775,0.144708,-0.126377,-0.0862325,0.0388718,0.0271606,0.0245285,0.0175858,0.017395,0.0252914,0.0888824,0.00324249,-9.97986,-0.000267029,-0.0134277,-0.060997,-0.0606155,0.00858307,-0.0158691,0.11631,0.0227356
34,7,10.0097,0.000305176,-0.00137329,-2.42776,0.0550706,-0.075063,0.054128,0.0718859,-0.0949775,0.143487,-0.126377,-0.0850118,0.0115967,0.0240707,0.0231171,0.0132751,0.0157928,0.0247192,0.0923157,0.00160217,-9.97986,-0.00217438,-0.00968933,-0.0559235,-0.0696945,0.00705719,-0.0170898,0.127029,0.0259399
34,8,10.0097,0.000915527,-0.000457764,-2.42592,0.0553758,-0.0738423,0.0529073,0.0694445,-0.0931465,0.145013,-0.126072,-0.0840963,0.00335693,0.0266647,0.0265121,0.0156403,0.01297,0.0241852,0.0944519,0.00457764,-9.97986,-0.0150681,-0.015831,-0.0541306,-0.0699997,0.0030899,-0.0176239,0.140915,0.030098
34,9,10.0097,-0.000610352,0.000152588,-2.42684,0.0565965,-0.0744527,0.0529073,0.0697496,-0.0931465,0.145013,-0.126072,-0.0831808,-0.00724792,0.0217056,0.0242615,0.0149918,0.00320435,0.0237656,0.0977325,0.0044632,-9.97986,-0.0221634,-0.0140762,-0.0518417,-0.0625992,-0.00392914,-0.0244904,0.163345,0.0297165
35,0,10.0097,0.000305176,0.0012207,-2.42501,0.0550706,-0.0738423,0.0550435,0.0706652,-0.0910102,0.145013,-0.124851,-0.0819601,-0.0250626,0.0229645,0.0226212,0.0128937,0.00366211,0.0191879,0.096817,0.00682831,-9.97986,-0.0193405,-0.014801,-0.0531006,-0.0497437,-0.00480652,-0.0172424,0.185127,0.0336456
35,1,10.0097,0.00213623,0.00106812,-2.4247,0.0562914,-0.0741475,0.0550435,0.0715807,-0.0916206,0.148065,-0.124851,-0.0810445,-0.0408554,0.017395,0.0208664,0.0128555,0.0063324,0.019455,0.10128,0.00743866,-9.97986,-0.015564,-0.0152969,-0.0516891,-0.0400543,-0.0111771,-0.0167465,0.199814,0.0308609
35,2,10.0097,-0.00183105,-0.000152588,-2.42898,0.0550706,-0.0744527,0.0529073,0.0267198,-0.0986396,0.144708,-0.128513,-0.0834859,-0.0380707,0.0230789,0.0212097,0.017128,-0.00038147,0.0260162,0.104561,0.00595093,-9.97986,-0.00896454,-0.0088501,-0.0408554,-0.0178146,-0.0109482,-0.0130081,0.212784,0.030899
35,3,3.91896,0.00152588,-0.00213623,-2.42684,0.0553758,-0.0744527,0.0522969,-0.0184462,-0.0998603,0.145013,-0.130649,-0.0825704,-0.0269699,0.0240326,0.0239563,0.0161362,0.00125885,0.0279999,0.10643,0.00823975,-9.97986,-0.0094223,-0.0123978,-0.0382996,0.000457764,-0.0135803,-0.00617981,0.213814,0.0297165
35,4,-4.09495,0.000610352,-0.00213623,-2.42653,0.0569017,-0.0738423,0.0538228,-0.0202772,-0.0971137,0.145929,-0.130344,-0.0822652,-0.00598907,0.0219727,0.0254059,0.0110626,7.62939e-005,0.0214386,0.106621,0.00984192,-9.97986,-0.019455,-0.00984192,-0.0420761,0.0279617,-0.0128555,-0.0141525,0.216713,0.0326538
35,5,-9.99003,0.000305176,-0.00183105,-2.42531,0.0562914,-0.0723164,0.0553487,-0.00501844,-0.0937568,0.146844,-0.128818,-0.0795187,0.00968933,0.0256348,0.0205231,0.0127411,-0.00236511,0.0164795,0.109558,0.0118256,-9.97986,-0.0343323,-0.0102997,-0.0366974,0.0524521,-0.0204468,-0.0100327,0.215607,0.0318909
35,6,-9.99003,-0.0012207,0.000762939,-2.4244,0.0562914,-0.0741475,0.0547383,0.0380113,-0.0897895,0.145624,-0.127292,-0.0798238,0.0153351,0.0246429,0.02388,0.0185394,-0.00751495,0.0132751,0.109024,0.0111389,-9.97986,-0.0338364,-0.0106812,-0.0317764,0.0797653,-0.0406265,-0.00736237,0.218391,0.0298309
35,7,-9.99003,0.000610352,0.00137329,-2.42562,0.0550706,-0.0738423,0.0547383,0.0563219,-0.0913154,0.146234,-0.126072,-0.0810445,0.0250244,0.0235748,0.0225067,0.0177765,-0.00476837,0.0120544,0.110359,0.0144577,-9.97986,-0.0189972,-0.0111008,-0.0291061,0.109863,-0.0444794,-0.0139999,0.214767,0.0310135
35,8,-9.99003,-0.000305176,0.00320435,-2.42684,0.0553758,-0.075063,0.0547383,0.0624254,-0.0922309,0.144403,-0.125461,-0.0810445,0.0276947,0.0236893,0.0267792,0.0139236,-0.00587463,0.0151062,0.104218,0.0152588,-9.97986,0.00087738,-0.00865936,-0.029335,0.14061,-0.0456619,-0.0216293,0.207901,0.0307465
35,9,-9.99003,0,0.00350952,-2.42684,0.0535448,-0.0756734,0.0544332,0.0801256,-0.0900947,0.145929,-0.125766,-0.0816549,0.0197983,0.0221634,0.0232697,0.0167847,-0.00915527,0.0125885,0.105171,0.0177002,-9.97986,0.0284195,-0.00606537,-0.034256,0.176506,-0.0282669,-0.0193405,0.204659,0.028038
36,0,-5.92784,0.00213623,0.00778198,-2.42623,0.0541551,-0.0759786,0.0547383,0.136888,-0.0882636,0.145624,-0.122715,-0.0825704,0.0260544,0.0205612,0.017662,0.00976563,-0.010376,0.00961304,0.107651,0.0178528,-9.97986,0.0439453,-0.0137329,-0.0408554,0.210342,-0.0186157,-0.0198364,0.202408,0.0302505
36,1,1.36586,0.0012207,0.00823975,-2.42989,0.0544603,-0.0759786,0.0529073,0.152757,-0.0876533,0.143792,-0.121799,-0.085317,0.0261688,0.0213242,0.0206375,0.0118256,-0.0168228,0.00556946,0.0994873,0.0165176,-9.97986,0.0579834,-0.0120163,-0.0417709,0.249596,-0.0237274,-0.0208664,0.19783,0.0265121
36,2,8.55,0.000305176,0.00793457,-2.42776,0.0541551,-0.0747579,0.0544332,0.158251,-0.0894843,0.143792,-0.120578,-0.0837911,0.0201416,0.0214005,0.0248718,0.0112152,-0.0188828,0.0110245,0.0891495,0.0153732,-9.97986,0.0623322,-0.0117111,-0.0530243,0.291214,-0.0234985,-0.0297546,0.186844,0.0259781
36,3,10.0097,-0.00183105,0.0062561,-2.4305,0.0532396,-0.0768941,0.0498555,0.112779,-0.0974189,0.141961,-0.125766,-0.0880636,0.0031662,0.0185394,0.0225449,0.0110245,-0.0271225,0.00862122,0.0932693,0.0131226,-9.97986,0.0510788,-0.00598907,-0.0544357,0.313606,-0.0234604,-0.0294876,0.177345,0.0239563
36,4,10.0097,0.00183105,0.00366211,-2.42989,0.0529344,-0.0771993,0.0513814,0.0856188,-0.0977241,0.143182,-0.127292,-0.0886739,-0.00770569,0.0156403,0.0208664,0.0145721,-0.0296402,0.016098,0.0907135,0.0165558,-9.97986,0.0334549,-0.0104141,-0.0602722,0.345459,-0.0251389,-0.0268555,0.167885,0.0228119
36,5,10.0097,0.000915527,0.00305176,-2.42989,0.0547655,-0.0762837,0.0522969,0.077379,-0.0965034,0.144403,-0.126377,-0.085317,-0.00396729,0.0173187,0.022583,0.0184631,-0.0384903,0.0255966,0.0828934,0.0159836,-9.97986,0.0279999,-0.00450134,-0.0658417,0.369797,-0.0200653,-0.0231552,0.158157,0.0254822
36,6,10.0097,0.000610352,0.00137329,-2.42714,0.0550706,-0.075063,0.0522969,0.0724962,-0.0943672,0.144098,-0.126682,-0.085317,-0.0038147,0.0135422,0.0209808,0.0106049,-0.0375366,0.0291061,0.077095,0.0133896,-9.97986,0.0146866,-0.00450134,-0.0782776,0.377007,-0.0262451,-0.0241089,0.144463,0.0203323
36,7,10.0097,0.000610352,0.00106812,-2.42806,0.0547655,-0.0756734,0.0532125,0.07036,-0.0949775,0.144708,-0.126377,-0.0837911,-0.00507355,0.0170135,0.0213623,0.0115204,-0.039978,0.0364304,0.0763321,0.0136185,-9.97986,0.00190735,7.62939e-005,-0.0823593,0.390625,-0.0237274,-0.0159454,0.138741,0.021019
36,8,10.0097,0.0012207,0.00167847,-2.42684,0.0553758,-0.0753682,0.0516866,0.0706652,-0.0937568,0.143792,-0.125766,-0.0828756,-0.000152588,0.018959,0.0227356,0.0114441,-0.0467682,0.0405884,0.069313,0.0117493,-9.97986,0.00247955,0.00270844,-0.0937653,0.398254,-0.0230408,-0.0140381,0.126228,0.0193787
36,9,10.0097,0.00305176,0.00152588,-2.42714,0.055681,-0.0744527,0.0526021,0.0715807,-0.0922309,0.145624,-0.125766,-0.0834859,0.0212479,0.0143433,0.0234222,0.0122833,-0.0463104,0.0569153,0.0665283,0.0206757,-9.97986,0.0154495,-0.000267029,-0.10231,0.415726,-0.0247955,-0.0120544,0.110703,0.0186539
37,0,10.0097,0.000305176,0.00152588,-2.42684,0.055681,-0.0741475,0.054128,0.0709703,-0.0925361,0.144708,-0.124241,-0.0813497,0.0348282,0.0186157,0.0180054,0.00980377,-0.0517654,0.0611115,0.0655746,0.0207138,-9.97986,0.0259781,-0.0012207,-0.111885,0.426865,-0.0294495,-0.0121689,0.0981903,0.0160599
37,1,10.0097,-0.000610352,0.00183105,-2.42562,0.0553758,-0.073232,0.0553487,0.0715807,-0.0916206,0.146234,-0.12363,-0.0816549,0.0281906,0.0134659,0.0162125,0.0128555,-0.0524521,0.0625229,0.0619888,0.0203705,-9.97986,0.0497055,0.00263214,-0.124779,0.442734,-0.030098,-0.0140762,0.0856781,0.0165558
37,2,10.0097,-0.000915527,0,-2.42806,0.0562914,-0.0753682,0.0522969,0.0276354,-0.0995551,0.144708,-0.127903,-0.0831808,0.0245667,0.0162125,0.0161743,0.0147629,-0.0575638,0.0664902,0.0566483,0.0177383,-9.97986,0.067482,-0.00331879,-0.132027,0.457306,-0.0371552,-0.0130844,0.072403,0.0188446
37,3,3.89577,0.000305176,-0.00335693,-2.42745,0.0559862,-0.0747579,0.0510762,-0.0196669,-0.100471,0.145624,-0.130649,-0.0831808,0.0186157,0.0178909,0.0220871,0.00652313,-0.0605774,0.0716782,0.051651,0.0192642,-9.97986,0.0766754,-0.00492096,-0.138245,0.469322,-0.0408936,-0.00572205,0.0630569,0.0195694
37,4,-4.13157,-0.000305176,-0.00366211,-2.42653,0.0550706,-0.0735371,0.0529073,-0.0224135,-0.0974189,0.146539,-0.130954,-0.0819601,0.0148392,0.0139999,0.0176239,0.00537872,-0.0654221,0.0680161,0.0506592,0.0221634,-9.97986,0.0833893,-0.00144958,-0.145645,0.487671,-0.041275,-0.0128555,0.0559235,0.0181961
37,5,-9.99003,-0.000915527,-0.00320435,-2.42348,0.0572069,-0.0744527,0.0556539,-0.00440808,-0.0949775,0.14776,-0.128513,-0.0807394,0.0131607,0.015831,0.0233841,0.00930786,-0.0701904,0.0691223,0.0517273,0.0201035,-9.97986,0.0789642,0.000152588,-0.150299,0.496292,-0.049324,-0.00911713,0.0524521,0.017662
37,6,-9.99003,-0.000305176,-0.00106812,-2.42501,0.0565965,-0.073232,0.055959,0.0364855,-0.0903999,0.145624,-0.126072,-0.080129,0.0186157,0.0119781,0.018425,0.00537872,-0.0632477,0.07061,0.0475693,0.0166702,-9.97986,0.0680161,0.00419617,-0.152473,0.499229,-0.0693512,-0.00190735,0.0481415,0.0221634
37,7,-9.99003,0.000610352,-0.000305176,-2.42562,0.0562914,-0.0729268,0.0544332,0.0554064,-0.0913154,0.145624,-0.125766,-0.0816549,0.00991821,0.0201035,0.0215149,0.00919342,-0.0670624,0.0741196,0.0415039,0.0166321,-9.97986,0.0556183,-0.00526428,-0.158005,0.498123,-0.0698471,-0.00923157,0.0361633,0.0215912
37,8,-9.99003,0.000305176,0.00137329,-2.42501,0.0559862,-0.0744527,0.0556539,0.0627306,-0.0922309,0.144708,-0.126072,-0.0819601,0.0197983,0.0279999,0.0259781,0.0130081,-0.0559998,0.0811005,0.0474167,0.0305557,-9.97986,0.0440598,0.00492096,-0.15358,0.508957,-0.0685883,-0.00144958,0.0330353,0.0265121
37,9,-9.99003,0.0012207,0.000305176,-2.42714,0.0547655,-0.0744527,0.0544332,0.0801256,-0.0903999,0.146234,-0.124851,-0.0831808,0.0218582,0.0171661,0.0193024,0.00831604,-0.0693893,0.0834274,0.0336838,0.00946045,-9.97986,0.0273895,-0.00408173,-0.156097,0.514565,-0.0589371,-0.0110626,0.0218964,0.0204849
38,0,-6.0432,0.000610352,0.0050354,-2.42776,0.0541551,-0.0756734,0.055959,0.135362,-0.0873481,0.144403,-0.121494,-0.0837911,0.0209427,0.0209427,0.0311279,0.0138855,-0.062027,0.0956726,0.0366974,0.0179291,-9.97986,0.0254822,-0.0038147,-0.149727,0.537567,-0.0482559,-0.00484467,0.0187302,0.0219345
38,1,1.24715,0,0.00610352,-2.42776,0.0535448,-0.0756734,0.0547383,0.151537,-0.0876533,0.144403,-0.122715,-0.0850118,0.0117111,0.0221634,0.0254059,0.01194,-0.0624084,0.0972748,0.0329971,0.0190735,-9.97986,0.0147629,-0.00389099,-0.149078,0.55378,-0.0456238,-0.00114441,0.012207,0.0238037
38,2,8.41664,0.00183105,0.00564575,-2.42837,0.0544603,-0.0756734,0.0544332,0.158251,-0.088874,0.144403,-0.120578,-0.0850118,0.00595093,0.0236893,0.0267792,0.0112915,-0.0559616,0.102844,0.0268173,0.0198364,-9.97986,0.0137329,-0.00686646,-0.148926,0.571365,-0.0422287,-0.00461578,0.00556946,0.0217819
38,3,10.0097,0.0012207,0.00396729,-2.43142,0.0523241,-0.0765889,0.0504659,0.113695,-0.0968086,0.142877,-0.125461,-0.0883688,-0.00579834,0.0205994,0.0255585,0.00854492,-0.0537491,0.108681,0.0257492,0.017395,-9.97986,0.00801086,-0.00976563,-0.142212,0.583305,-0.0405121,-0.00179291,-0.00511169,0.0238037
38,4,10.0097,0.000305176,0.00259399,-2.4302,0.0538499,-0.0762837,0.0498555,0.0856188,-0.0980293,0.144098,-0.126377,-0.0883688,-0.00984192,0.0233078,0.0259781,0.0101852,-0.0428009,0.112076,0.0243759,0.0250626,-9.97986,0.00652313,-0.00236511,-0.131645,0.603676,-0.0392532,0.000572205,-0.00865936,0.0261307
38,5,10.0097,0.00213623,0.00106812,-2.42928,0.0541551,-0.0759786,0.0516866,0.077379,-0.0961982,0.143487,-0.127292,-0.0871481,-0.0180817,0.0193787,0.0235367,0.0114822,-0.0478363,0.11528,0.0158691,0.0205231,-9.97986,-0.000762939,-0.00621796,-0.122337,0.62149,-0.0354004,-0.00404358,-0.0167847,0.0249481
38,6,10.0097,0.000305176,0.00137329,-2.42745,0.0541551,-0.0759786,0.0535176,0.0740221,-0.0937568,0.144708,-0.126682,-0.085317,-0.017662,0.0224686,0.022049,0.0108719,-0.0354004,0.119438,0.0186539,0.0253296,-9.97986,0.000457764,-0.00522614,-0.117874,0.631027,-0.0283813,0.0018692,-0.0167847,0.0279617
38,7,10.0097,0.000305176,0.000305176,-2.42776,0.0550706,-0.0753682,0.0538228,0.072191,-0.0931465,0.146539,-0.126682,-0.0850118,-0.0043869,0.019455,0.0218964,0.0122833,-0.036087,0.109329,0.016861,0.0257492,-9.97986,0.00968933,-0.00328064,-0.1054,0.633812,-0.0227356,0.00152588,-0.0261307,0.0270462
38,8,10.0097,0.000305176,0.000762939,-2.42806,0.0541551,-0.0759786,0.0538228,0.0715807,-0.0937568,0.145013,-0.126377,-0.0847066,0.00461578,0.023613,0.0230408,0.00907898,-0.0313187,0.111389,0.00900269,0.024147,-9.97986,0.0182343,0.000953674,-0.100479,0.636253,-0.0189972,0.000419617,-0.0314713,0.0230789
38,9,10.0097,-0.000305176,0.000610352,-2.42562,0.0550706,-0.0747579,0.054128,0.0712755,-0.0925361,0.145013,-0.124241,-0.0831808,0.00564575,0.0205994,0.022583,0.0114822,-0.0278854,0.10376,0.00766754,0.0296021,-9.97986,0.0159836,0.00293732,-0.0931931,0.633507,-0.0101852,-0.00480652,-0.0356674,0.0233078
39,0,10.0097,0,-0.000457764,-2.42562,0.0553758,-0.0744527,0.0556539,0.0712755,-0.0919257,0.146234,-0.123935,-0.0822652,0.00553131,0.0219727,0.0250626,0.00968933,-0.0218964,0.0891876,0.00564575,0.0296021,-9.97986,0.00591278,0.000762939,-0.0894547,0.623245,-0.00411987,-0.0115204,-0.0427246,0.0188446
39,1,10.0097,-0.000915527,-0.000915527,-2.42562,0.055681,-0.073232,0.0547383,0.0712755,-0.0928413,0.145929,-0.12363,-0.0813497,-0.00286102,0.0244904,0.0229645,0.00907898,-0.0198364,0.0837708,0.00148773,0.0294113,-9.97986,-0.00106812,-0.00514984,-0.0798416,0.603294,-0.000343323,-0.00839233,-0.0476837,0.0119781
39,2,10.0097,0.000915527,-0.00274658,-2.42745,0.0544603,-0.073232,0.0519917,0.0261095,-0.0986396,0.145318,-0.128208,-0.0840963,-0.00808716,0.0237274,0.0238419,0.0145721,-0.0178146,0.0761032,0.00179291,0.0314713,-9.97986,-0.00240326,-0.00259399,-0.0666428,0.589485,0.0133896,0.00198364,-0.0492477,0.0119781
39,3,3.86739,-0.000610352,-0.00579834,-2.42714,0.0565965,-0.0756734,0.0532125,-0.0187513,-0.100776,0.147149,-0.130649,-0.0844015,-0.00736237,0.0232697,0.0216675,0.0118637,-0.00900269,0.067215,0.000305176,0.0242615,-9.97986,0.00152588,-0.00488281,-0.0537491,0.56881,0.0167847,0.0106049,-0.0507355,0.0120544
39,4,-4.08885,0,-0.00549316,-2.42623,0.0569017,-0.0729268,0.0535176,-0.0205824,-0.0980293,0.146844,-0.130649,-0.0831808,-0.00389099,0.02388,0.0247574,0.0107574,-0.00534058,0.0620651,-0.000953674,0.0174332,-9.97986,0.0069046,-0.00038147,-0.0455475,0.548363,0.0233078,0.0103378,-0.0552368,0.00740051
39,5,-9.99003,0.00152588,-0.00732422,-2.4247,0.0575121,-0.0735371,0.0556539,-0.00440808,-0.0931465,0.147455,-0.129429,-0.0813497,-0.000839233,0.0263596,0.0241852,0.0112915,0.00190735,0.0580597,0.00202179,0.0162888,-9.97986,0.000114441,0.00236511,-0.0308609,0.52021,0.0265121,0.0150299,-0.0570679,0.001297
39,6,-9.99003,0.000610352,-0.00473022,-2.42348,0.055681,-0.0747579,0.0571797,0.0370958,-0.0900947,0.146539,-0.127598,-0.0798238,-0.00595093,0.0250244,0.0222397,0.0147629,0.000114441,0.0498199,0.000267029,0.0163651,-9.97986,0.00686646,-0.00270844,-0.0157928,0.485077,0.00976563,0.022316,-0.0582886,0.000953674
39,7,-9.99003,0.000610352,-0.00335693,-2.42592,0.055681,-0.073232,0.0556539,0.0563219,-0.0903999,0.146234,-0.125766,-0.0822652,-0.00377655,0.024147,0.0239182,0.0115585,0.00164032,0.0388336,-0.00492096,0.00694275,-9.97986,0.00770569,0.000190735,-0.00286102,0.450745,0.0149536,0.0233078,-0.0595474,-0.00385284
39,8,-9.99003,0.000610352,-0.00289917,-2.42745,0.0541551,-0.075063,0.054128,0.0630358,-0.0916206,0.145318,-0.126377,-0.0834859,0.0137329,0.0246048,0.0213242,0.0134277,0.00843048,0.0399399,-0.00263214,0.0173187,-9.97986,-0.00114441,-0.00377655,0.00614166,0.425301,0.0157166,0.0194168,-0.0627518,-0.00579834
39,9,-9.99003,-0.0012207,-0.00167847,-2.42714,0.0553758,-0.0744527,0.0544332,0.0819567,-0.0897895,0.145624,-0.124851,-0.0834859,0.0346756,0.0218582,0.019989,0.0138855,0.00579834,0.0418854,0.00148773,0.0247192,-9.97986,-0.00831604,-0.00453949,0.0175858,0.395355,0.0324631,0.0109482,-0.066452,-0.0101471
40,0,-5.94829,0.000915527,0.000915527,-2.42653,0.0538499,-0.0753682,0.0568746,0.137499,-0.0867378,0.144098,-0.121799,-0.0850118,0.0497437,0.0240707,0.0234985,0.0131607,0.0144958,0.032196,-0.00305176,0.0232697,-9.97986,-0.0104141,-0.00259399,0.030098,0.36953,0.0413895,0.0133514,-0.0697327,-0.0146103
40,1,1.32741,0,0.0012207,-2.42714,0.0541551,-0.0759786,0.0553487,0.151537,-0.0882636,0.141961,-0.120273,-0.0859274,0.045166,0.0249863,0.0198746,0.0119019,0.0148392,0.0164032,-0.00118256,0.0211716,-9.97986,-0.0109863,0.00164032,0.045433,0.338249,0.0453568,0.00968933,-0.0679779,-0.0139999
40,2,8.51155,-0.000305176,0.00106812,-2.42837,0.0547655,-0.0756734,0.0538228,0.156725,-0.0894843,0.143487,-0.121189,-0.0862325,0.017128,0.0239563,0.0229263,0.0138474,0.0202942,0.00350952,0.00804901,0.0223541,-9.97986,-0.0160599,-0.00179291,0.0564575,0.302315,0.0419998,0.00293732,-0.0720215,-0.0186157
40,3,10.0097,0,-0.000305176,-2.43111,0.0511034,-0.0765889,0.0516866,0.11339,-0.0986396,0.141961,-0.126072,-0.0898946,0.0126648,0.021286,0.0168228,0.0159073,0.0238037,-0.0112915,0.00938416,0.0257874,-9.97986,-0.0248337,-0.0038147,0.0682449,0.270538,0.0487518,0.00377655,-0.0712204,-0.0201797
40,4,10.0097,-0.0012207,-0.00183105,-2.4302,0.0526292,-0.0756734,0.050771,0.0856188,-0.0971137,0.143182,-0.126072,-0.0880636,0.000686646,0.0192642,0.0206375,0.0179672,0.029335,-0.0115585,0.00785828,0.0294495,-9.97986,-0.0252533,0.00160217,0.075798,0.243912,0.0473785,0.00190735,-0.0690079,-0.0179672
40,5,10.0097,0,-0.00289917,-2.42989,0.0541551,-0.0759786,0.0535176,0.0764635,-0.0955879,0.143487,-0.126072,-0.0874532,-0.00118256,0.0212097,0.0181961,0.0162888,0.0353241,-0.0204086,0.00652313,0.026741,-9.97986,-0.0219345,-0.00198364,0.087204,0.214729,0.04879,-0.00221252,-0.0678635,-0.019989
