
Devices
1200
,,BP Load cell - Voltage,String Length - Voltage,Clutch Active - Voltage,#7 iPecs - Voltage,,,,,,,,,EMG 1-8 Left - Voltage,,,,,,,,Pylon Force - Voltage,EMG 9-16 Right - Voltage,,,,,,,,
Frame,Sub Frame,BP Load Cell,String Length,From Arduino Logic,A45,A135,A225,A315,S0,S90,S180,S270,ZSum,EMG 1 Glut Max,EMG 2 Glut Med,EMG 3 Biceps Femoris Long,EMG 4 Rectus Femoris,EMG 5 Vastus Medialis,EMG 6 Tib Ant,EMG 7 Med Gas,EMG 8 Soleus,Pylon volts,EMG 9 Glut Max,EMG 10 Glut Med,EMG 11 Biceps Femoris Long,EMG 12 Rectus Femoris,EMG 13 Vastus Medialis,EMG 14 Tib Ant,EMG 15 Med Gas,EMG 16 Soleus
,,V,V,V,V,V,V,V,V,V,V,V,V,V,V,V,V,V,V,V,V,V,V,V,V,V,V,V,V,V
1,0,-6.95842,0.000305176,-0.00473022,-2.42562,0.0565965,-0.0735371,0.0535176,-0.0160048,-0.0952827,0.145624,-0.129429,-0.0834859,-0.0386047,0.0546646,0.0564194,0.0166321,0.050354,-0.110474,-0.0600433,0.0123978,-9.97986,-0.165939,0.00976563,0.10849,0.30159,-0.0212479,0.0050354,-0.030632,-0.0346756
1,1,-9.99003,-0.00183105,-0.0038147,-2.42501,0.0569017,-0.0735371,0.0553487,0.0102404,-0.0928413,0.147149,-0.129734,-0.0816549,-0.0902939,0.0540924,0.052948,0.0196457,0.0434113,-0.125465,-0.0656891,0.00988007,-9.97986,-0.17334,0.0181961,0.126419,0.294609,-0.0251007,0.0150299,-0.0364304,-0.0151443
1,2,-9.99003,-0.000305176,-0.00167847,-2.42562,0.0565965,-0.0744527,0.0553487,0.04442,-0.0910102,0.146234,-0.126377,-0.0810445,-0.135117,0.0572205,0.0514984,0.018692,0.0525284,-0.138435,-0.078392,-0.00225067,-9.97986,-0.127792,0.0118256,0.129738,0.288734,-0.0382233,0.0222015,-0.0400162,-0.0148392
1,3,-9.99003,-0.0012207,-0.00152588,-2.42592,0.055681,-0.0747579,0.0562642,0.0602892,-0.090705,0.145929,-0.125766,-0.0813497,-0.14225,0.0512314,0.0428772,0.0212097,-0.00968933,-0.139503,-0.0834656,-0.0185013,-9.97986,-0.0832367,-0.000152588,0.126686,0.27504,-0.0243759,0.0287628,-0.0479889,-0.00530243
1,4,-9.99003,-0.000610352,-0.00183105,-2.42653,0.0550706,-0.0741475,0.0544332,0.0709703,-0.090705,0.145318,-0.125461,-0.0831808,-0.0825882,0.0487518,0.0279236,0.0169754,-0.0436401,-0.127792,-0.0703049,-0.0150299,-9.97986,-0.0756073,-0.0150299,0.108223,0.258255,0.000267029,0.0357819,-0.0670624,-0.00778198
1,5,-9.99003,0.000305176,0.0012207,-2.42653,0.0544603,-0.0747579,0.0571797,0.130174,-0.0842964,0.145318,-0.122715,-0.0825704,-0.0123215,0.0402832,0.018692,0.0156021,-0.0698471,-0.1091,-0.0557709,0.00350952,-9.97986,-0.0737381,-0.00385284,0.0848389,0.24971,0.042038,0.0334549,-0.0828171,-0.00865936
1,6,-1.95353,0.000915527,0.00259399,-2.42653,0.0550706,-0.0756734,0.0544332,0.147264,-0.0861274,0.145013,-0.120273,-0.0840963,0.0284958,0.0329208,0.00679016,0.0102997,-0.123558,-0.101509,-0.0574493,0.00873566,-9.97986,-0.054245,0.001297,0.0542831,0.235939,0.0506973,0.0130463,-0.0846481,-0.0179291
1,7,5.99599,0.0012207,0.00411987,-2.42928,0.0547655,-0.0762837,0.054128,0.154588,-0.0873481,0.144403,-0.122104,-0.0859274,0.114326,0.0168228,-0.0104523,0.00808716,-0.143356,-0.0922394,-0.045929,0.0341797,-9.97986,-0.0565338,0.0037384,0.0330353,0.231247,0.0694656,-0.00476837,-0.0813675,-0.0229263
1,8,10.0097,0.00274658,0.0038147,-2.42959,0.0529344,-0.0765889,0.050771,0.134447,-0.0943672,0.143182,-0.123325,-0.0877584,0.140686,0.00724792,-0.0153732,0.00293732,-0.126343,-0.0734329,-0.0476074,0.0455475,-9.97986,-0.068512,-0.0019455,0.0056839,0.235596,0.0905228,-0.000190735,-0.0551224,-0.0223541
1,9,10.0097,-0.00183105,0.00106812,-2.42989,0.0541551,-0.0768941,0.0495503,0.092943,-0.0974189,0.142267,-0.126072,-0.0883688,0.112915,0.000152588,-0.0296783,0.000839233,-0.0878525,-0.067215,-0.0457001,0.0500488,-9.97986,-0.102425,-0.0121307,-0.0532532,0.232811,0.102234,0.000953674,-0.0479889,-0.0524139
2,0,10.0097,0.000610352,0.00137329,-2.42959,0.0544603,-0.0762837,0.0498555,0.0776842,-0.0955879,0.142267,-0.127292,-0.0874532,0.0935745,-0.00465393,-0.0296783,-0.00156403,-0.0481033,-0.0682068,-0.0363541,0.0606918,-9.97986,-0.111504,-0.00354767,-0.0899506,0.255089,0.136032,0.0182724,-0.0407028,-0.0860977
2,1,10.0097,0.000610352,0.000610352,-2.42928,0.055681,-0.0741475,0.0510762,0.0761583,-0.0955879,0.142572,-0.125156,-0.0862325,0.0502777,-0.00320435,-0.0317383,-0.00392914,-0.0336075,-0.0723648,-0.0294876,0.0477219,-9.97986,-0.0712585,-0.00556946,-0.117798,0.26947,0.149384,0.0173187,-0.0249863,-0.121956
2,2,10.0097,0.000305176,0.000915527,-2.42714,0.0553758,-0.075063,0.0532125,0.0731066,-0.0934516,0.144403,-0.126377,-0.0844015,0.0222015,-0.00328064,-0.0249863,-3.8147e-005,-0.0379562,-0.060997,-0.0117111,0.0392914,-9.97986,0.0031662,-0.0125885,-0.134087,0.278358,0.160866,0.0166702,-0.0019455,-0.138969
2,3,10.0097,0.000915527,0.00183105,-2.42684,0.0559862,-0.0744527,0.0516866,0.0737169,-0.094062,0.145013,-0.126377,-0.0840963,0.0354767,-0.000190735,-0.0200653,0.00289917,-0.0534058,-0.0518036,-0.00331879,0.0403595,-9.97986,0.0597,-0.00583649,-0.148735,0.283394,0.16407,0.0151443,-0.0125122,-0.146866
2,4,10.0097,0.00274658,0.00167847,-2.42653,0.0553758,-0.075063,0.0529073,0.0715807,-0.0931465,0.146539,-0.125461,-0.0837911,0.0450516,-0.00152588,-0.0170135,0.00495911,-0.0305176,-0.0192261,0.00137329,0.0431442,-9.97986,0.105972,-0.00263214,-0.185013,0.290604,0.165443,0.00545502,-0.0221634,-0.128975
2,5,10.0097,0.00274658,0.000152588,-2.42592,0.0559862,-0.0747579,0.0544332,0.0715807,-0.0922309,0.151117,-0.124851,-0.0822652,0.0437927,0,-0.00991821,0.00564575,0.000915527,0.0056839,-0.00213623,0.04673,-9.97986,0.117264,-0.0037384,-0.197144,0.283165,0.168266,-0.00301361,-0.0231171,-0.100327
2,6,10.0097,0.000915527,0.000305176,-2.4244,0.0569017,-0.0729268,0.0550435,0.0724962,-0.0916206,0.148065,-0.123935,-0.0813497,0.0286484,0.00751495,-0.00602722,0.00595093,0.00179291,0.00911713,-0.00514984,0.0356293,-9.97986,0.10273,-0.00667572,-0.137291,0.284348,0.172195,-0.00419617,-0.0273132,-0.0357819
2,7,10.0097,-0.000610352,0.000610352,-2.4247,0.0559862,-0.0738423,0.055959,0.0712755,-0.090705,0.148065,-0.125156,-0.0813497,0.00770569,0.00473022,-0.0117111,0.00858307,0.00797272,0.00667572,-0.00267029,0.0283051,-9.97986,0.108299,-0.00495911,-0.0504684,0.288658,0.196037,-0.000495911,-0.00865936,0.0470734
2,8,9.52443,0.00152588,-0.00213623,-2.42837,0.055681,-0.075063,0.0532125,0.0181749,-0.0977241,0.148065,-0.128513,-0.0825704,0.0405121,0.00984192,-0.00785828,0.00679016,0.0188065,0.00843048,-0.0025177,0.0216675,-9.97986,0.142288,-0.00587463,0.00179291,0.283966,0.221634,-0.00152588,0.0122833,0.07164
2,9,0.272723,-0.000610352,-0.00411987,-2.42531,0.0562914,-0.073232,0.0547383,-0.00379773,-0.0946723,0.147149,-0.128208,-0.0810445,0.0815582,0.00762939,-0.00228882,0.0037384,0.0115967,0.0283051,0.00457764,0.026741,-9.97986,0.191727,-0.00522614,0.0069046,0.295639,0.256844,0.00473022,0.0238419,0.0526428
3,0,-6.97703,0.00305176,-0.00350952,-2.4247,0.0559862,-0.0729268,0.0553487,-0.0147841,-0.0952827,0.14776,-0.130954,-0.0822652,0.0531769,0.00537872,0.000305176,0.00213623,-0.0102997,0.0485992,0.000228882,0.0218582,-9.97986,0.214844,-0.000839233,0.0310516,0.307121,0.309334,0.01194,0.0341034,0.0199127
3,1,-9.99003,0.000915527,-0.00274658,-2.42348,0.0562914,-0.0735371,0.0574849,0.00993518,-0.0919257,0.147455,-0.128208,-0.0819601,0.0331497,0.0056076,0.0050354,0.00324249,-0.0563431,0.0597382,0.0188828,0.0233459,-9.97986,0.216866,-0.00640869,0.0902939,0.312843,0.329971,0.010376,0.0587845,0.0627518
3,2,-9.99003,0.000610352,-0.000915527,-2.42531,0.0569017,-0.0747579,0.0574849,0.0438097,-0.0885688,0.147455,-0.126072,-0.0807394,0.0603104,0.0113678,0.00995636,0.00133514,-0.104675,0.0541306,0.0304031,0.0239563,-9.97986,0.201912,-0.0104523,0.150337,0.316048,0.32299,-0.00102997,0.0745392,0.0886536
3,3,-9.99003,0.00152588,0.000457764,-2.42684,0.0553758,-0.075063,0.0565694,0.0575426,-0.0897895,0.145929,-0.126072,-0.0810445,0.0979233,0.0025177,0.00652313,0.0118637,-0.113029,0.0370407,0.0276184,0.0293732,-9.97986,0.151329,0.00396729,0.188751,0.323868,0.331726,-0.00469208,0.0688171,0.0588989
3,4,-9.99003,0.000610352,0.00152588,-2.42623,0.0553758,-0.0756734,0.054128,0.0636461,-0.0910102,0.144403,-0.125461,-0.0828756,0.0765991,0.00133514,0.0134277,0.0133514,-0.139198,0.0115585,0.0252533,0.0320053,-9.97986,0.102119,-0.000534058,0.177231,0.332184,0.304184,-0.00774384,0.0501251,0.039711
3,5,-9.99003,0.000610352,0.00213623,-2.4244,0.0547655,-0.0744527,0.0556539,0.125292,-0.0861274,0.145624,-0.121494,-0.0816549,0.0563431,0.00408173,0.0126266,0.00675201,-0.162277,0.0135422,0.0127411,0.0478745,-9.97986,0.074234,-0.00320435,0.126534,0.319939,0.288658,-0.00640869,0.0385666,0.0382996
3,6,-2.17448,0.0012207,0.00228882,-2.42714,0.0547655,-0.0735371,0.0547383,0.145128,-0.0879585,0.144403,-0.121494,-0.0850118,0.0522232,0.00808716,0.0184631,0.013504,-0.153008,0.0312042,0.00209808,0.0541306,-9.97986,0.0652313,-0.0219345,0.103378,0.307961,0.239525,-0.00232697,0.0271606,0.0428009
3,7,5.90627,0.000305176,0.00411987,-2.42867,0.0532396,-0.0747579,0.0526021,0.152147,-0.0910102,0.145013,-0.121799,-0.0859274,0.0370789,0.0127411,0.0247192,0.0108719,-0.120583,0.0497055,-0.00865936,0.0585938,-9.97986,0.0638199,-0.0437546,0.105934,0.305023,0.189095,-0.00400543,0.0151062,0.0543594
3,8,10.0097,0.000610352,0.0038147,-2.4302,0.0529344,-0.0771993,0.0513814,0.134447,-0.094062,0.142572,-0.123325,-0.0886739,0.0202942,0.0101471,0.0335312,0.00965118,-0.0870895,0.0525284,-0.0139236,0.0563049,-9.97986,0.0681686,-0.0546265,0.118294,0.288734,0.170593,-0.00835419,0.0236893,0.0606918
3,9,10.0097,0.0012207,0.000152588,-2.43142,0.0532396,-0.0765889,0.0501607,0.0944689,-0.0986396,0.142877,-0.125461,-0.0886739,-0.00400543,0.0175476,0.0331497,0.0031662,-0.0671005,0.0447464,0.00751495,0.0404358,-9.97986,0.061264,-0.0431824,0.129204,0.280418,0.157967,-0.00713348,0.0300217,0.079422
4,0,10.0097,0.0012207,-0.000915527,-2.42928,0.0544603,-0.0759786,0.0513814,0.0795153,-0.0968086,0.144403,-0.126072,-0.0880636,-0.01297,0.0254822,0.0322723,0.00370026,-0.0645065,0.0385284,0.02388,0.0120544,-9.97986,0.0590134,-0.021553,0.132637,0.273209,0.140724,-0.00686646,0.0333405,0.0875092
4,1,10.0097,0.00152588,-0.000610352,-2.42928,0.0535448,-0.0747579,0.0513814,0.0737169,-0.0946723,0.142877,-0.126682,-0.0859274,-0.00442505,0.0373077,0.0354767,0.00743866,-0.0482559,0.0285721,0.0426483,-0.0088501,-9.97986,0.0457001,-0.019722,0.115814,0.264282,0.120201,-0.00896454,0.0363922,0.0977707
4,2,10.0097,0,-0.000610352,-2.42745,0.0541551,-0.0747579,0.0504659,0.0737169,-0.0943672,0.146234,-0.126072,-0.0847066,-0.000305176,0.052948,0.0448227,0.00713348,-0.0230026,0.0260162,0.0499344,-0.0278473,-9.97986,0.0325775,-0.0538254,0.0834656,0.269661,0.108414,-0.0105286,0.0343704,0.116539
4,3,10.0097,0.0012207,0.000152588,-2.42684,0.0550706,-0.0747579,0.0532125,0.072191,-0.0931465,0.145929,-0.126072,-0.085317,0.0185394,0.0923157,0.0476456,0.00720978,-0.0167465,0.030632,0.0368881,-0.00923157,-9.97986,0.0271606,-0.0524139,0.0732422,0.259552,0.0862885,-0.00926971,0.0305939,0.134392
4,4,10.0097,-0.000610352,-0.000610352,-2.42562,0.0553758,-0.0747579,0.0532125,0.0694445,-0.0937568,0.144403,-0.126377,-0.0871481,0.0256348,0.0928116,0.0435257,0.00484467,-0.0228119,0.0397491,0.0204849,-0.00286102,-9.97986,0.0132751,-0.00102997,0.0548553,0.242577,0.0510406,-0.0110626,0.0170135,0.153122
4,5,10.0097,-0.0012207,-0.000610352,-2.4244,0.0559862,-0.0747579,0.0547383,0.0712755,-0.0928413,0.145318,-0.124241,-0.0813497,0.0273895,0.046463,0.0385284,0.00682831,-0.0128174,0.0359726,-0.00179291,0.00259399,-9.97986,0.00320435,0.0119781,0.057106,0.231934,0.0218964,-0.00572205,0.0118637,0.166359
4,6,10.0097,-0.000915527,-0.000610352,-2.42501,0.0565965,-0.0738423,0.0544332,0.0709703,-0.0919257,0.145318,-0.12363,-0.0828756,0.0214767,0.00144958,0.0202179,0.00736237,0.000228882,0.0331879,-0.0141144,0.00370026,-9.97986,-0.00457764,-0.00591278,0.0590897,0.217056,-0.00392914,-0.00183105,0.00728607,0.178642
4,7,10.0097,0.000305176,-0.000915527,-2.42592,0.0553758,-0.0744527,0.0568746,0.0697496,-0.0931465,0.145929,-0.123935,-0.0807394,-0.00606537,-0.00751495,0.0176239,0.012207,0.0154114,0.0239182,-0.00915527,0.00663757,-9.97986,-0.0115585,-0.0138855,0.0561905,0.205536,-0.0311279,-0.00087738,0.000991821,0.202637
4,8,9.55068,0.0012207,-0.00213623,-2.42684,0.0553758,-0.0741475,0.0519917,0.0142076,-0.09925,0.145318,-0.128208,-0.0840963,-0.0282288,0.00198364,0.0197601,0.00801086,0.0267792,0.0245667,0.0126266,0.0140381,-9.97986,-0.0180054,-0.0104904,0.0696182,0.197372,-0.0473785,-3.8147e-005,-0.00354767,0.221367
4,9,0.219012,0.00152588,-0.00671387,-2.4244,0.0565965,-0.0735371,0.0532125,-0.00440808,-0.0955879,0.145318,-0.129123,-0.0825704,-0.0254822,0.00587463,0.0218201,0.0136566,0.0331879,0.0230789,0.0429916,0.0170898,-9.97986,-0.0222778,0.00766754,0.0920868,0.181198,-0.0627136,0.00152588,0.00156403,0.234833
5,0,-7.14824,0.000305176,-0.0050354,-2.4247,0.0565965,-0.0747579,0.0532125,-0.0153944,-0.0974189,0.147455,-0.130344,-0.0816549,-0.0152969,0.0031662,0.0180054,0.00957489,0.0402069,0.0193787,0.0747299,0.0146484,-9.97986,-0.0234985,0.0417709,0.110397,0.176125,-0.0793839,0.00110626,0.00499725,0.265045
5,1,-9.99003,0.00183105,-0.00396729,-2.42409,0.0562914,-0.0729268,0.055959,0.00932483,-0.0928413,0.146539,-0.129429,-0.0804342,-0.0126648,0.00404358,0.0273132,0.0157166,0.0413895,0.0180054,0.10601,0.018158,-9.97986,-0.0171661,0.0286102,0.119019,0.163231,-0.100479,-0.000991821,0.00267029,0.272141
5,2,-9.99003,0.000305176,-0.00320435,-2.42531,0.0562914,-0.0738423,0.0571797,0.04442,-0.0903999,0.146234,-0.126987,-0.0807394,-0.0104904,0.0136185,0.0408936,0.0149155,0.0494766,0.0141144,0.117035,0.0108719,-9.97986,-0.00938416,-0.0361252,0.133209,0.138779,-0.119934,-0.00148773,0.0102997,0.259819
5,3,-9.99003,-0.000610352,-0.00259399,-2.42562,0.0547655,-0.0741475,0.055959,0.0575426,-0.0900947,0.147149,-0.126072,-0.0822652,-0.010643,0.0263214,0.047493,0.00865936,0.0519943,0.00404358,0.0978088,0.00850677,-9.97986,-0.0174332,-0.0657272,0.142288,0.115051,-0.132751,-0.00492096,0.0112152,0.263138
5,4,-9.99003,-0.000305176,-0.00228882,-2.42653,0.0547655,-0.0741475,0.0547383,0.0688341,-0.0916206,0.145318,-0.125766,-0.0840963,-0.0114059,0.0205994,0.0459671,0.00106812,0.0538635,0.00915527,0.0675964,0.00865936,-9.97986,-0.0167084,-0.0640106,0.150261,0.0855637,-0.126266,-0.00793457,0.0144958,0.259132
5,5,-9.99003,0.00152588,-0.000457764,-2.42531,0.0547655,-0.0747579,0.0562642,0.129259,-0.0839912,0.144098,-0.121799,-0.0831808,-0.0136185,0.0106812,0.0387573,0.00354767,0.0655746,0.00679016,0.0468445,0.00850677,-9.97986,-0.0127029,-0.0621033,0.152321,0.050087,-0.086174,-0.00858307,0.014267,0.221252
5,6,-2.03441,0,0.000305176,-2.42714,0.0547655,-0.0759786,0.055959,0.147569,-0.0870429,0.143792,-0.121799,-0.0862325,-0.0075531,0.0170517,0.0271988,-0.00659943,0.0757599,-0.00328064,0.0243759,0.00900269,-9.97986,-0.0172043,-0.0399399,0.150261,0.00331879,-0.0793839,-0.0138855,0.0140762,0.196648
5,7,5.98653,0.00183105,-0.000457764,-2.42898,0.0535448,-0.075063,0.0538228,0.152757,-0.0897895,0.144708,-0.121494,-0.0865377,-0.00965118,0.0149155,0.0152969,-0.0120926,0.0904083,-0.0115204,0.0215149,0.0102234,-9.97986,-0.0112152,-0.0326157,0.142021,-0.0477219,-0.0840378,-0.0125122,0.0159836,0.231285
5,8,10.0097,0.00183105,-0.000305176,-2.4302,0.0523241,-0.0768941,0.0516866,0.135362,-0.0946723,0.142267,-0.122715,-0.0886739,-0.0050354,0.0263596,0.0114441,-0.0128937,0.109673,-0.0188065,0.0498199,0.013504,-9.97986,0.00267029,-0.0270844,0.153694,-0.0854492,-0.0951767,-0.0111008,0.0174713,0.252876
5,9,10.0097,0.0012207,-0.00259399,-2.43081,0.0526292,-0.0762837,0.0510762,0.0941637,-0.0968086,0.142572,-0.126377,-0.0889791,-0.00843048,0.0341034,0.0123596,-0.0181961,0.13443,-0.0289536,0.0862885,0.0177765,-9.97986,0.0167084,-0.0301361,0.160446,-0.121231,-0.109749,-0.00968933,0.02388,0.231323
6,0,10.0097,0.00213623,-0.00289917,-2.42867,0.0547655,-0.0765889,0.050771,0.0801256,-0.0977241,0.142877,-0.126377,-0.0892843,-0.00411987,0.0255585,-0.00171661,-0.0309753,0.170517,-0.0332642,0.115471,0.0151062,-9.97986,0.0174713,-0.0272751,0.165443,-0.161057,-0.127678,-0.00621796,0.0178909,0.235329
6,1,10.0097,-0.000610352,-0.00305176,-2.42928,0.0541551,-0.0759786,0.0522969,0.0746324,-0.0943672,0.144403,-0.127292,-0.0877584,-0.00518799,0.0227737,-0.0123978,-0.0175095,0.204582,-0.0380707,0.133705,0.00640869,-9.97986,0.014801,-0.0245667,0.1688,-0.187531,-0.133629,-0.00453949,0.0123215,0.23159
6,2,10.0097,0.0012207,-0.00366211,-2.42837,0.0538499,-0.075063,0.0526021,0.0731066,-0.0952827,0.142572,-0.125766,-0.0871481,-0.00556946,-0.00946045,-0.0242615,0.0285721,0.207405,-0.0418091,0.125694,0.00576019,-9.97986,0.0069809,-0.0234222,0.164528,-0.225449,-0.147018,-0.00854492,0.00114441,0.213013
6,3,10.0097,-0.000915527,-0.00427246,-2.42776,0.0547655,-0.0738423,0.0538228,0.0706652,-0.0934516,0.144098,-0.126072,-0.0859274,-0.00255585,-0.0335312,-0.0146484,0.0391388,0.202446,-0.0421524,0.119476,0.00675201,-9.97986,0.00240326,-0.0138855,0.172539,-0.265923,-0.153923,-0.00728607,-0.00663757,0.183029
6,4,10.0097,0.000610352,-0.00473022,-2.42653,0.0547655,-0.0747579,0.0544332,0.07036,-0.0934516,0.143182,-0.125766,-0.085317,-0.00465393,-0.00679016,-0.00598907,0.0271225,0.182114,-0.0404358,0.104256,0.0114441,-9.97986,0.00289917,-0.00133514,0.1791,-0.326538,-0.180931,-0.00907898,-0.020256,0.120583
6,5,10.0097,0.0012207,-0.00457764,-2.42562,0.0569017,-0.0738423,0.0538228,0.0724962,-0.0922309,0.144708,-0.125156,-0.0828756,-0.00637054,-0.00183105,0.000801086,0.0269699,0.149498,-0.0239182,0.106392,0.016861,-9.97986,0.00213623,0.0038147,0.159874,-0.373001,-0.193329,-0.00583649,-0.0195694,0.0613785
6,6,10.0097,0.0012207,-0.00549316,-2.42501,0.0559862,-0.0738423,0.0538228,0.0718859,-0.0922309,0.145013,-0.124241,-0.0825704,-0.00495911,0.0104904,0.00492096,0.018425,0.134392,-0.00289917,0.111809,0.0233078,-9.97986,0.00423431,0.00263214,0.125618,-0.424004,-0.192451,0.00125885,-0.00896454,-0.00331879
6,7,10.0097,0.00274658,-0.0062561,-2.4247,0.0569017,-0.0741475,0.0526021,0.0709703,-0.0913154,0.146234,-0.12363,-0.0828756,-0.00427246,0.0159454,0.0117874,0.0138092,0.165558,0.0381851,0.108833,0.0276566,-9.97986,0.000457764,0.01194,0.0957108,-0.488014,-0.195198,0.00236511,-0.00652313,-0.00892639
6,8,9.67336,-0.000610352,-0.00747681,-2.42714,0.0562914,-0.075063,0.0513814,0.016649,-0.09925,0.147455,-0.128513,-0.0850118,-0.0050354,0.0122833,0.0222015,0.00133514,0.221481,0.0781631,0.119781,0.030098,-9.97986,-0.0030899,0.0268555,0.0849533,-0.544281,-0.207787,-0.0038147,0.00038147,0.0544739
6,9,0.408221,0.00183105,-0.00976563,-2.42653,0.0572069,-0.0735371,0.0547383,-0.00562879,-0.0968086,0.146844,-0.130039,-0.0831808,-0.00320435,0.01194,0.0312042,-0.0133133,0.270729,0.0960159,0.117531,0.0152969,-9.97986,0.000190735,0.0330734,0.0989914,-0.60257,-0.220757,-0.0111389,0.00377655,0.0866318
7,0,-6.9218,-0.000305176,-0.00961304,-2.42623,0.0562914,-0.073232,0.054128,-0.0153944,-0.0971137,0.146234,-0.13126,-0.0828756,-0.00400543,0.02285,0.0342178,-0.0165558,0.293541,0.0990677,0.117035,0.00919342,-9.97986,-0.00133514,0.0218201,0.136604,-0.648918,-0.222588,-0.0121307,0.0114441,0.049324
7,1,-9.99003,0.000915527,-0.00732422,-2.42531,0.0562914,-0.0735371,0.055959,0.00932483,-0.0931465,0.147455,-0.129123,-0.0822652,-0.00232697,0.0214386,0.0363922,0.000534058,0.260315,0.0981903,0.11013,0.000267029,-9.97986,-0.000991821,0.0144958,0.172462,-0.683708,-0.229301,-0.0112915,0.0018692,0.0456619
7,2,-9.99003,0.000610352,-0.00595093,-2.42409,0.0562914,-0.073232,0.0565694,0.0431993,-0.090705,0.147149,-0.126987,-0.0825704,0.00209808,0.0341797,0.0331497,0.0422668,0.239372,0.115852,0.107498,-0.00385284,-9.97986,-0.00679016,0.0305939,0.179825,-0.735168,-0.26413,-0.00953674,-0.00247955,0.12188
7,3,-9.99003,0.000915527,-0.00610352,-2.42592,0.055681,-0.0738423,0.0538228,0.0578478,-0.0910102,0.144708,-0.126072,-0.0840963,-0.00255585,0.0332642,0.0330353,0.0545502,0.195847,0.140762,0.104065,-0.00102997,-9.97986,-0.00743866,0.0439453,0.120811,-0.800858,-0.288658,-0.00537872,0.010376,0.0922775
7,4,-9.99003,0.0012207,-0.00549316,-2.42592,0.0547655,-0.0744527,0.0532125,0.0728014,-0.0900947,0.142572,-0.124851,-0.0844015,-0.00335693,0.0242996,0.026474,0.0355911,0.140877,0.147781,0.102921,-0.000724792,-9.97986,-0.00598907,0.0441742,0.0265884,-0.856743,-0.310249,-0.001297,0.0125504,0.0289917
7,5,-9.9229,0.000610352,-0.00259399,-2.42623,0.0550706,-0.0759786,0.0547383,0.130174,-0.0849067,0.144403,-0.121799,-0.0834859,-0.00183105,-0.000534058,0.0167847,0.032196,0.129967,0.166855,0.106239,0.00404358,-9.97986,-0.00476837,0.0474548,-0.0406647,-0.897903,-0.304642,-0.0139999,0.0125885,0.062294
7,6,-1.70787,-0.000305176,-0.000305176,-2.42714,0.0538499,-0.075063,0.0538228,0.146349,-0.0867378,0.143792,-0.121494,-0.0850118,-0.0062561,-0.0168228,0.0175095,0.0294113,0.100861,0.170364,0.117264,0.0122833,-9.97986,-0.00305176,0.0434494,-0.0953674,-0.935516,-0.302505,-0.0153732,0.0254822,0.0907516
7,7,6.35732,0,0.000762939,-2.42776,0.0535448,-0.0756734,0.0526021,0.153978,-0.088874,0.145624,-0.122104,-0.0862325,-0.00259399,-0.00400543,0.00652313,0.0336075,0.0778198,0.16716,0.106392,0.0147247,-9.97986,0.00198364,0.0595856,-0.131302,-0.962601,-0.283394,-0.0136566,0.0486755,0.106773
7,8,10.0097,-0.000610352,0.00213623,-2.42989,0.0538499,-0.0775044,0.0498555,0.130785,-0.095893,0.141961,-0.124241,-0.0886739,-0.00480652,0.013504,-0.00328064,0.0246429,0.0523376,0.166855,0.102425,0.0168228,-9.97986,-0.000267029,0.063324,-0.162239,-0.961685,-0.279961,-0.0112152,0.0906754,0.0830078
7,9,10.0097,-0.000305176,0.0012207,-2.43172,0.0535448,-0.0768941,0.0498555,0.0932482,-0.0965034,0.141656,-0.125461,-0.0895895,0.00110626,0.0185394,-0.00133514,0.022049,-0.0331879,0.135498,0.104866,0.0193787,-9.97986,0.00144958,0.0654221,-0.169373,-0.947952,-0.276108,-0.00679016,0.128326,0.00720978
8,0,10.0097,0.00152588,0.000610352,-2.4302,0.0535448,-0.0759786,0.0516866,0.0782946,-0.0961982,0.141046,-0.126987,-0.0883688,0.00358582,0.0115585,0.00583649,0.0208282,-0.0976563,0.127296,0.0990677,0.0142288,-9.97986,0.00175476,0.0659943,-0.164909,-0.939751,-0.263062,-0.00576019,0.150528,-0.0820541
8,1,10.0097,-0.000610352,0.00167847,-2.42806,0.0541551,-0.0747579,0.0529073,0.0737169,-0.0943672,0.142572,-0.127292,-0.0859274,-0.00232697,0.00301361,0.00778198,0.0151825,-0.141411,0.12825,0.0925064,0.0150681,-9.97986,-0.00102997,0.0603104,-0.179138,-0.901756,-0.251999,-0.00259399,0.142136,-0.198402
8,2,10.0097,-0.000305176,0.00305176,-2.42745,0.0547655,-0.0747579,0.0519917,0.0731066,-0.0928413,0.142572,-0.125461,-0.0840963,0.00110626,0.00324249,0.0128555,0.0103378,-0.201988,0.107651,0.0860977,0.0212097,-9.97986,3.8147e-005,0.06073,-0.180359,-0.853424,-0.235214,-0.00495911,0.137634,-0.235977
8,3,10.0097,-0.000610352,0.00457764,-2.42776,0.0553758,-0.0744527,0.0532125,0.0718859,-0.0931465,0.145318,-0.125461,-0.0837911,0.00354767,0.00854492,0.0139618,0.00522614,-0.205841,0.0862122,0.0919342,0.021286,-9.97986,-0.00518799,0.0609589,-0.167961,-0.814095,-0.214806,-0.00930786,0.14843,-0.205421
8,4,10.0097,-0.000305176,0.00442505,-2.42776,0.0559862,-0.0756734,0.0532125,0.0709703,-0.0931465,0.146844,-0.125766,-0.0831808,0.00377655,0.00827789,0.00549316,0.00305176,-0.163651,0.0804901,0.0941086,0.0231552,-9.97986,0.000114441,0.0634384,-0.174294,-0.767555,-0.197067,-0.00473022,0.144615,-0.178108
8,5,10.0097,0,0.00473022,-2.42379,0.0562914,-0.0735371,0.054128,0.072191,-0.0913154,0.147455,-0.124851,-0.0804342,0.00385284,0.00854492,0.00766754,-0.00358582,-0.125923,0.0751114,0.0920868,0.0211334,-9.97986,-0.00377655,0.0543594,-0.18158,-0.716324,-0.164833,0.000762939,0.168266,-0.13504
8,6,10.0097,0,0.00457764,-2.4247,0.0572069,-0.0741475,0.0553487,0.0712755,-0.0919257,0.145013,-0.124546,-0.0798238,0.00358582,0.00953674,0.0151062,-0.0116348,-0.112114,0.0538635,0.0930786,0.0252533,-9.97986,-0.000610352,0.0508499,-0.144691,-0.66021,-0.146027,0.00606537,0.180206,-0.139771
8,7,10.0097,-0.000915527,0.00442505,-2.42531,0.0550706,-0.0747579,0.054128,0.0724962,-0.0913154,0.145929,-0.124851,-0.080129,0.00282288,0.0114822,0.0193787,-0.0136566,-0.0994492,0.0202942,0.0827408,0.030098,-9.97986,0.00133514,0.0527191,-0.111427,-0.619125,-0.134697,0.000305176,0.174637,-0.1894
8,8,9.50368,0.000305176,0.00228882,-2.42806,0.055681,-0.0744527,0.0532125,0.0145128,-0.0986396,0.145624,-0.128208,-0.0825704,0.00171661,0.0196457,0.0254822,-0.0159836,-0.0990677,0.00473022,0.0844193,0.0304031,-9.97986,-0.00156403,0.0492859,-0.0839996,-0.569077,-0.12001,-0.00453949,0.180626,-0.226288
8,9,0.241289,0.00213623,0.000305176,-2.42653,0.0569017,-0.0738423,0.0550435,-0.00562879,-0.0974189,0.146844,-0.127903,-0.080129,0.00488281,0.0106049,0.0249863,-0.0114441,-0.0988007,-0.00514984,0.080986,0.0254822,-9.97986,-0.00354767,0.0516891,-0.0265503,-0.519295,-0.10643,-0.00549316,0.170975,-0.235977
9,0,-7.13359,0,-0.00106812,-2.42562,0.0562914,-0.075063,0.0556539,-0.0156996,-0.095893,0.148675,-0.128513,-0.080129,0.00362396,0.012207,0.0303268,0.000991821,-0.0857162,-0.0177383,0.0944519,0.0296402,-9.97986,-0.00415802,0.0506592,0.0199509,-0.482864,-0.07164,-0.00328064,0.154305,-0.19165
9,1,-9.99003,0.00152588,0.000305176,-2.42409,0.0565965,-0.0729268,0.0571797,0.0108507,-0.0928413,0.14898,-0.128818,-0.0795187,0.00770569,0.0159836,0.0336456,0.00476837,-0.111732,-0.029335,0.09758,0.0352097,-9.97986,-0.00350952,0.0504684,0.0378418,-0.453835,-0.033493,-0.00831604,0.148582,-0.121117
9,2,-9.99003,0.000915527,0.00152588,-2.4244,0.055681,-0.0744527,0.055959,0.0422838,-0.0882636,0.148675,-0.126987,-0.0798238,0.00434875,0.0219345,0.0389862,0.0106049,-0.121078,-0.0483704,0.094986,0.0414658,-9.97986,0.00179291,0.0495148,0.0346375,-0.413361,-0.0201035,-0.0120163,0.145836,-0.0828171
9,3,-9.99003,0.000610352,0.00320435,-2.42592,0.055681,-0.075063,0.0553487,0.0578478,-0.0910102,0.146234,-0.126072,-0.0807394,0.00709534,0.0201797,0.0498199,0.0142288,-0.098877,-0.0589752,0.0931168,0.048027,-9.97986,-0.010376,0.0408936,0.0287247,-0.363274,-0.0169754,-0.0147247,0.139236,-0.0908279
9,4,-9.99003,0.000915527,0.00518799,-2.42531,0.0553758,-0.0741475,0.055959,0.0709703,-0.0900947,0.145318,-0.125766,-0.0804342,0.00675201,0.0180817,0.0528336,0.0173187,-0.0909424,-0.0531387,0.0797653,0.0543213,-9.97986,-0.00793457,0.0440598,0.0476074,-0.309296,-0.0158691,-0.0193405,0.125351,-0.0992966
9,5,-9.9406,0.000305176,0.00656128,-2.42562,0.0559862,-0.0744527,0.0565694,0.1317,-0.0849067,0.145318,-0.122104,-0.0804342,0.00396729,0.0209427,0.0684357,0.0234985,-0.0944138,-0.0514984,0.0676727,0.0485992,-9.97986,-0.0069809,0.0422287,0.0558472,-0.265656,0.0128555,-0.0188446,0.123138,-0.0968552
9,6,-1.72313,-0.000915527,0.00823975,-2.42714,0.0569017,-0.0756734,0.0553487,0.147264,-0.0882636,0.146234,-0.120884,-0.0831808,0.00583649,0.0389099,0.0869751,0.0204849,-0.0716782,-0.0484467,0.0478745,0.044136,-9.97986,-0.00778198,0.0370026,0.0574493,-0.22934,0.0244904,-0.0147629,0.11467,-0.105286
9,7,6.34542,-0.000610352,0.00808716,-2.42898,0.0544603,-0.075063,0.0535176,0.152452,-0.0891792,0.145013,-0.121494,-0.0837911,0.00228882,0.0462723,0.0891113,0.00637054,-0.0611496,-0.0299835,0.0349808,0.0279617,-9.97986,-0.010643,0.0337219,0.0422287,-0.187263,0.0379181,-0.0140762,0.111809,-0.137672
9,8,10.0097,-0.000915527,0.0088501,-2.43081,0.0523241,-0.0753682,0.0486348,0.131395,-0.0943672,0.141656,-0.124241,-0.0871481,0.00274658,0.0508118,0.0947189,-0.0141144,-0.0272751,-0.0217438,0.0181198,0.0129318,-9.97986,-0.011673,0.0337601,-0.0210953,-0.136719,0.0580978,-0.00419617,0.123062,-0.165901
9,9,10.0097,0.000915527,0.00549316,-2.4302,0.0532396,-0.0768941,0.0504659,0.0935533,-0.095893,0.144403,-0.124851,-0.0859274,0.00782013,0.0373459,0.102272,-0.031395,0.0144958,-0.0231171,0.021286,-0.00484467,-9.97986,-0.00263214,0.0301361,-0.058136,-0.0717163,0.0828171,-0.00396729,0.131454,-0.159378
10,0,10.0097,-0.000305176,0.00671387,-2.4302,0.0523241,-0.0796407,0.0516866,0.0789049,-0.095893,0.144708,-0.126682,-0.0865377,0.00507355,0.0491714,0.111656,-0.017128,0.0276184,-0.0278473,0.0269318,-0.0062561,-9.97986,-0.00514984,0.0245285,-0.0694656,-0.0050354,0.116081,-0.00392914,0.113754,-0.133018
10,1,10.0097,-0.0012207,0.00640869,-2.42806,0.0550706,-0.0747579,0.0498555,0.0743273,-0.0952827,0.145624,-0.126987,-0.0856222,0.0121307,0.0898743,0.116234,0.000686646,0.0317001,-0.0283432,0.0361633,-0.00247955,-9.97986,-0.00553131,0.0325394,-0.106621,0.0727081,0.149689,0.00247955,0.0966263,-0.107918
10,2,10.0097,-0.000915527,0.00717163,-2.42653,0.0550706,-0.0753682,0.0526021,0.072191,-0.0931465,0.145624,-0.126377,-0.0834859,0.0130844,0.137482,0.109901,0.0075531,-0.00106812,-0.0245667,0.0450516,0.00427246,-9.97986,-0.00427246,0.0297546,-0.127373,0.142899,0.178185,0.00370026,0.0903702,-0.112801
10,3,10.0097,-0.0146484,0.00808716,-2.42745,0.0544603,-0.0747579,0.054128,0.0724962,-0.0949775,0.134332,-0.124851,-0.0831808,0.0144196,0.139275,0.0922012,0.0201797,-0.0330734,-0.0270081,0.0511551,0.00999451,-9.97986,-0.000534058,0.0289154,-0.11631,0.222664,0.186577,-0.00225067,0.0937271,-0.135574
10,4,10.0097,-0.00366211,0.00839233,-2.42501,0.0562914,-0.0756734,0.0538228,0.0718859,-0.0928413,0.138299,-0.126072,-0.0816549,0.0180435,0.0817871,0.0622559,0.0305939,-0.0333023,-0.0305939,0.0328827,0.00228882,-9.97986,0.00530243,0.021286,-0.0959015,0.314255,0.186386,-0.00354767,0.0953293,-0.15007
10,5,10.0097,-0.0012207,0.00900269,-2.4247,0.0565965,-0.075063,0.0562642,0.0712755,-0.0919257,0.143182,-0.12363,-0.0798238,0.0164413,0.0175476,0.019455,0.029335,-0.0548935,-0.0357819,0.0131226,-0.0177765,-9.97986,0.0106812,0.0130463,-0.0595093,0.390129,0.187263,0.00202179,0.0753784,-0.147438
10,6,10.0097,0,0.00793457,-2.42562,0.0565965,-0.0738423,0.054128,0.0724962,-0.0922309,0.144403,-0.123935,-0.0789083,0.0146866,-0.0243378,-0.0101089,0.0139236,-0.0961304,-0.0280762,-0.00465393,-0.0283813,-9.97986,0.0173187,0.00598907,-0.0443268,0.47348,0.202827,0.0012207,0.0521851,-0.139084
10,7,10.0097,-0.000305176,0.00900269,-2.42623,0.0569017,-0.0744527,0.054128,0.0688341,-0.0916206,0.147149,-0.124546,-0.0779928,0.0146103,-0.0409698,0.00774384,-0.0157928,-0.129929,-0.0212479,-0.0167084,-0.0196838,-9.97986,0.0216293,-0.00160217,-0.0561142,0.562592,0.201645,0.0102615,0.0376511,-0.125046
10,8,9.41487,0.00183105,0.00640869,-2.42745,0.0565965,-0.0747579,0.0510762,0.0132921,-0.0995551,0.145929,-0.127292,-0.0810445,0.0115967,-0.0336838,0.0240707,-0.0478745,-0.153923,-0.00587463,-0.0242615,-0.00934601,-9.97986,0.0283051,-0.00087738,-0.0785446,0.6604,0.188446,0.00770569,0.0325012,-0.114632
10,9,0.0526908,0.00152588,0.00442505,-2.42562,0.0578172,-0.0738423,0.0526021,-0.00654431,-0.0977241,0.146234,-0.128818,-0.0792135,0.00583649,-0.0133133,0.022583,-0.0115967,-0.163727,-0.00892639,-0.0263977,0.00804901,-9.97986,0.027771,0.0030899,-0.100021,0.742683,0.185928,0.00934601,0.0217056,-0.10746
11,0,-7.28618,0.000610352,0.00274658,-2.4244,0.0559862,-0.073232,0.054128,-0.0166151,-0.0949775,0.145929,-0.129429,-0.080129,0.00995636,-0.00976563,0.018959,0.0811005,-0.150223,-0.00911713,-0.0112915,0.0273132,-9.97986,0.0289917,0.00572205,-0.100708,0.825386,0.166893,0.00415802,0.0088501,-0.103188
11,1,-9.99003,-0.000305176,0.00396729,-2.42592,0.055681,-0.0735371,0.0556539,0.0105455,-0.0925361,0.147149,-0.129429,-0.078298,0.00823975,-0.0102615,0.0185013,0.128136,-0.111809,-0.0117111,0.0196457,0.0405121,-9.97986,0.0284195,0.00152588,-0.103111,0.899544,0.150566,0.0025177,-0.000228882,-0.114098
11,2,-9.99003,-0.000305176,0.0050354,-2.4247,0.0562914,-0.0729268,0.0553487,0.04442,-0.0897895,0.143792,-0.126072,-0.0795187,0.00938416,-0.0283813,0.00591278,0.104294,-0.0817871,-0.00907898,0.0240326,0.0393295,-9.97986,0.0282669,-0.0062561,-0.106964,0.952187,0.13298,-0.00164032,-0.00667572,-0.129356
11,3,-9.99003,0.000305176,0.00610352,-2.42592,0.0559862,-0.0747579,0.0544332,0.0590685,-0.0916206,0.146539,-0.126377,-0.080129,0.0117874,-0.023613,-0.0226593,0.0823593,-0.0669479,0.00999451,0.00518799,0.0400543,-9.97986,0.0275803,-0.00999451,-0.110931,1.0083,0.127869,0.00171661,-0.0177765,-0.114441
11,4,-9.99003,-0.000305176,0.0050354,-2.42684,0.0553758,-0.0741475,0.054128,0.0691393,-0.0919257,0.147149,-0.126072,-0.0819601,0.00896454,-0.00419617,-0.0221634,0.055809,-0.0526428,0.0246429,-0.0250244,0.0240707,-9.97986,0.026207,-0.00816345,-0.130539,1.05297,0.112724,-0.0056839,-0.0362015,-0.0814819
11,5,-9.99003,0.000610352,0.00671387,-2.42562,0.0547655,-0.0747579,0.0562642,0.129259,-0.0842964,0.145929,-0.122104,-0.0819601,0.0111008,0.016861,-0.00812531,0.00938416,-0.0127029,0.0445175,-0.0519562,0.0133133,-9.97986,0.0241089,-0.0152588,-0.150909,1.08379,0.129738,-0.00198364,-0.0600052,-0.0465012
11,6,-2.046,0.000915527,0.00595093,-2.42806,0.0541551,-0.0744527,0.0550435,0.146959,-0.0876533,0.146539,-0.120884,-0.0834859,0.0136566,0.0405121,-0.0132751,0.0156403,0.0203705,0.0626373,-0.0755692,0.0141525,-9.97986,0.0174713,-0.0162888,-0.169678,1.10538,0.124397,-0.0044632,-0.0654221,-0.0284195
11,7,5.97188,0.00244141,0.00656128,-2.42806,0.0541551,-0.0756734,0.0532125,0.155809,-0.0885688,0.145624,-0.120884,-0.0850118,0.012207,0.0670624,-0.0251007,0.0522232,0.0448608,0.0816345,-0.0907135,0.0348663,-9.97986,0.0185013,-0.0128555,-0.17437,1.11046,0.118027,-0.0103378,-0.0690842,-0.0318146
11,8,10.0097,0.0012207,0.00473022,-2.43081,0.0520189,-0.0765889,0.0501607,0.133226,-0.0934516,0.142572,-0.123325,-0.0880636,0.0170898,0.0576401,-0.00919342,0.0617599,0.0675583,0.104713,-0.0898361,0.0505447,-9.97986,0.0161743,0.0102615,-0.180626,1.10996,0.11776,-0.00732422,-0.067215,-0.0432587
11,9,10.0097,0.00213623,0.000457764,-2.4302,0.0532396,-0.0768941,0.0501607,0.0926378,-0.0986396,0.143182,-0.127903,-0.0883688,0.0127792,0.0269318,-0.00946045,0.0375748,0.0788116,0.128326,-0.0728989,0.0613403,-9.97986,0.0205612,0.0180817,-0.181427,1.09184,0.121498,-0.0050354,-0.0772095,-0.0382996
12,0,10.0097,0.0012207,-0.00183105,-2.42989,0.0523241,-0.0756734,0.050771,0.0770738,-0.0971137,0.143487,-0.128208,-0.0880636,0.0125504,0.040741,0.00629425,0.0141525,0.0798035,0.144272,-0.0667191,0.0733948,-9.97986,0.0227737,0.00900269,-0.165367,1.06037,0.115852,-0.00972748,-0.0915527,-0.0289154
12,1,10.0097,0.00244141,-0.00305176,-2.42959,0.0541551,-0.0753682,0.0516866,0.075548,-0.0955879,0.145929,-0.126072,-0.0877584,0.0133514,0.0603104,0.0209427,0.0141525,0.0835037,0.170441,-0.0569916,0.0623703,-9.97986,0.0213623,0.0102234,-0.158157,1.01929,0.117874,-0.00621796,-0.0977707,-0.0197983
12,2,10.0097,0.000915527,-0.00427246,-2.42745,0.0553758,-0.075063,0.0544332,0.0712755,-0.0931465,0.146234,-0.126682,-0.0859274,0.0130081,0.0922775,0.0476074,0.0107574,0.0851059,0.197945,-0.0224686,0.0400543,-9.97986,0.0239944,0.00183105,-0.15625,0.956001,0.117683,-0.0069046,-0.114708,-0.0167084
12,3,10.0097,0.000305176,-0.00579834,-2.42714,0.055681,-0.0744527,0.0526021,0.0706652,-0.0937568,0.145624,-0.126377,-0.0862325,0.0141907,0.124359,0.0595474,-0.0203705,0.0868225,0.215569,0.018959,0.00461578,-9.97986,0.0186157,-0.000267029,-0.145721,0.883636,0.127106,-0.00743866,-0.143776,-0.0204468
12,4,10.0097,-0.000305176,-0.00656128,-2.42623,0.0553758,-0.0747579,0.0535176,0.0712755,-0.0934516,0.145624,-0.125766,-0.0856222,0.0146484,0.134659,0.0473785,-0.0391769,0.0735855,0.226631,0.0271988,-0.0201416,-9.97986,0.0210953,0.00247955,-0.134697,0.81234,0.139389,-0.00366211,-0.153465,-0.0190353
12,5,10.0097,0,-0.00640869,-2.42501,0.0559862,-0.075063,0.0553487,0.0724962,-0.0922309,0.145929,-0.124851,-0.0844015,0.0154495,0.136414,0.00816345,-0.0305176,0.0667953,0.228729,0.00869751,-0.0373459,-9.97986,0.0176239,0.000190735,-0.127945,0.730171,0.140839,-0.00392914,-0.167656,-0.0183487
12,6,10.0097,0.000610352,-0.00671387,-2.42531,0.0569017,-0.0741475,0.0550435,0.072191,-0.0913154,0.145929,-0.12302,-0.0831808,0.0193024,0.106354,-0.0125504,-0.00671387,0.0614166,0.238266,-0.0253677,-0.0497818,-9.97986,0.0154495,0.00370026,-0.109978,0.655632,0.151558,0.00339508,-0.162964,-0.0173187
12,7,10.0097,-0.000610352,-0.00717163,-2.42562,0.0562914,-0.0741475,0.0556539,0.0676134,-0.0931465,0.146539,-0.123935,-0.0828756,0.0221252,0.0249863,-0.0087738,0.00770569,0.0717926,0.24231,-0.0670624,-0.0513077,-9.97986,0.0224686,-0.00358582,-0.0962067,0.580711,0.161476,0.00225067,-0.15934,-0.0169754
12,8,9.31691,0,-0.0088501,-2.42623,0.0553758,-0.0735371,0.0519917,0.0114611,-0.0986396,0.145318,-0.129429,-0.0859274,0.0191879,-0.0134659,-0.0177002,-0.000686646,0.0750351,0.244865,-0.112228,-0.0547409,-9.97986,0.018425,-0.000228882,-0.0845718,0.513916,0.164719,-0.00175476,-0.154037,-0.0196075
12,9,-0.0644967,-0.00152588,-0.0111389,-2.42623,0.0569017,-0.073232,0.0532125,-0.00623914,-0.0968086,0.146234,-0.127598,-0.0837911,0.0188446,-0.043602,-0.0356674,0.00434875,0.0803375,0.251961,-0.136185,-0.0458145,-9.97986,0.0335693,-0.0031662,-0.0613785,0.449638,0.170517,0.00202179,-0.155487,-0.0226593
13,0,-7.47447,0.000610352,-0.0106812,-2.42562,0.055681,-0.0741475,0.0550435,-0.0153944,-0.0952827,0.146234,-0.129123,-0.0834859,0.0151825,-0.0934982,-0.0513077,0.00682831,0.0809479,0.2491,-0.129738,-0.0281525,-9.97986,0.0365067,-0.00415802,-0.0309372,0.381203,0.175934,0.00450134,-0.159798,-0.00827789
13,1,-9.99003,0.00244141,-0.00915527,-2.4247,0.0569017,-0.0735371,0.0556539,0.0132921,-0.0913154,0.145929,-0.128208,-0.0828756,0.0144577,-0.10788,-0.0481415,0.00328064,0.0754166,0.234718,-0.094986,-0.00980377,-9.97986,0.0452423,-0.00724792,-0.000114441,0.326042,0.173492,0.00556946,-0.162773,0.00427246
13,2,-9.99003,0.00152588,-0.00640869,-2.4244,0.0559862,-0.0741475,0.0565694,0.0453356,-0.0922309,0.146234,-0.126377,-0.0819601,0.0102615,-0.104332,-0.0383377,-0.00270844,0.0728226,0.217934,-0.057373,0.00991821,-9.97986,0.0462723,-0.0134659,0.0334167,0.289268,0.168724,0.010376,-0.163689,0.00595093
13,3,-9.99003,0.000305176,-0.0038147,-2.42531,0.0553758,-0.0753682,0.0568746,0.0593737,-0.090705,0.145013,-0.126072,-0.0837911,0.0152969,-0.100594,-0.0324249,-0.0213242,0.0779343,0.199242,-0.0482559,0.0291443,-9.97986,0.045166,-0.0110626,0.0691605,0.252838,0.17746,0.0103378,-0.159073,0.00659943
13,4,-9.99003,-0.000305176,-0.00427246,-2.42684,0.055681,-0.0741475,0.0547383,0.0688341,-0.0919257,0.146234,-0.125766,-0.0840963,0.0127029,-0.0780487,-0.0287247,-0.034256,0.0758743,0.190964,-0.050087,0.0387955,-9.97986,0.0392532,-0.00724792,0.0963593,0.210953,0.182724,0.0140762,-0.157318,0.00869751
13,5,-9.99003,-0.000305176,-0.000915527,-2.42623,0.0541551,-0.075063,0.0565694,0.132311,-0.0839912,0.145624,-0.121494,-0.0828756,0.0133514,-0.0550842,-0.0307083,-0.0634766,0.0718689,0.176506,-0.0559998,0.0256348,-9.97986,0.0401688,-0.0177383,0.109749,0.178719,0.206566,0.01091,-0.155334,0.00907898
13,6,-1.93217,-0.000305176,0.000915527,-2.42623,0.0541551,-0.075063,0.0562642,0.147569,-0.0882636,0.145318,-0.121799,-0.0850118,0.0150299,-0.0328827,-0.0177383,-0.0705719,0.0740433,0.160751,-0.0543213,0.00984192,-9.97986,0.0366211,-0.0133133,0.118141,0.157547,0.202255,0.00831604,-0.14637,0.0190735
13,7,6.27065,-0.000610352,0.00213623,-2.42837,0.0541551,-0.0753682,0.054128,0.152147,-0.0903999,0.145013,-0.121189,-0.0865377,0.0141525,-0.0248718,-0.0120926,-0.0415802,0.0601959,0.143547,-0.0580215,-0.014801,-9.97986,0.0284195,-0.00850677,0.126877,0.129776,0.199051,0.0189209,-0.148506,0.0330353
13,8,10.0097,0.000610352,0.00183105,-2.43111,0.0529344,-0.0762837,0.0516866,0.133226,-0.0934516,0.141656,-0.12302,-0.0880636,0.0195313,-0.00564575,-0.00385284,-0.0230408,0.0577545,0.13073,-0.0437927,-0.0291061,-9.97986,0.0200272,-0.0115585,0.126839,0.112457,0.204964,0.0191116,-0.138054,0.0389862
13,9,10.0097,0.00244141,-0.000457764,-2.42959,0.0529344,-0.0775044,0.0498555,0.0926378,-0.0965034,0.144098,-0.125766,-0.0883688,0.0190735,0.00644684,0.00164032,-0.0430679,0.0471497,0.127602,-0.0229263,-0.0168228,-9.97986,0.0161362,-0.0151062,0.141716,0.103683,0.20649,0.0160217,-0.124435,0.0377274
14,0,10.0097,0.000305176,-0.000915527,-2.42989,0.0541551,-0.0762837,0.0529073,0.0785997,-0.0955879,0.143487,-0.126682,-0.0886739,0.0166321,-0.00759125,-0.00461578,-0.0698853,0.0348282,0.114326,-0.0184631,-0.00255585,-9.97986,0.0185394,-0.0216675,0.155869,0.0951004,0.20668,0.01297,-0.118942,0.0392914
14,1,10.0097,0,-0.00106812,-2.42806,0.0538499,-0.0759786,0.0519917,0.0743273,-0.0946723,0.141351,-0.126987,-0.0871481,0.0214386,-0.0515747,-0.0126648,-0.0894928,0.0301361,0.0959778,-0.0294876,0.00961304,-9.97986,0.0150299,-0.0217438,0.169754,0.0829315,0.209122,0.0106049,-0.113831,0.0336456
14,2,10.0097,0,-0.00152588,-2.42806,0.0538499,-0.0756734,0.0529073,0.0728014,-0.0937568,0.143487,-0.126377,-0.0859274,0.0185013,-0.104904,-0.00766754,-0.101318,0.0252151,0.076828,-0.0518799,0.0144196,-9.97986,0.0216675,-0.0209045,0.184708,0.0682449,0.198593,0.00301361,-0.103226,-0.00476837
14,3,10.0097,-0.000305176,-0.000152588,-2.42714,0.0547655,-0.0756734,0.0535176,0.0712755,-0.0931465,0.144403,-0.125156,-0.0847066,0.0167084,-0.0947952,0.00270844,-0.129471,0.0362015,0.0549698,-0.0811386,0.0143433,-9.97986,0.0234985,-0.0136948,0.200577,0.0593185,0.197449,0.00923157,-0.0924301,-0.0110626
14,4,10.0097,-0.0012207,-0.00228882,-2.42684,0.0550706,-0.0741475,0.0526021,0.0712755,-0.0934516,0.145624,-0.125461,-0.0844015,0.0191116,-0.051651,0.00232697,-0.16777,0.0452423,0.0375366,-0.110779,0.0144958,-9.97986,0.020256,-0.0195694,0.189095,0.032196,0.192146,0.00572205,-0.0798416,0.0169754
14,5,10.0097,-0.000305176,-0.00183105,-2.4247,0.0565965,-0.0738423,0.0550435,0.0728014,-0.090705,0.147149,-0.12363,-0.0822652,0.0156403,-0.0423431,-0.00434875,-0.142822,0.059166,0.0210571,-0.134354,0.0170135,-9.97986,0.0268173,-0.0138855,0.185242,0.0152969,0.189857,7.62939e-005,-0.0631714,0.0343323
14,6,10.0097,0.000610352,-0.0012207,-2.42379,0.0562914,-0.0735371,0.0538228,0.072191,-0.0913154,0.146844,-0.123325,-0.0810445,0.0158691,-0.0378036,-0.00938416,-0.0447464,0.069313,0.0112152,-0.138435,0.0173187,-9.97986,0.0243378,-0.01091,0.183678,0.00324249,0.182686,0.00301361,-0.04879,0.0391769
14,7,10.0097,-0.000305176,-0.00183105,-2.42623,0.0562914,-0.075063,0.054128,0.0676134,-0.0925361,0.146234,-0.125156,-0.0813497,0.0168991,-0.0151825,0.00804901,0.0587082,0.0838089,-0.00511169,-0.126266,0.0144196,-9.97986,0.0280762,-0.0200653,0.180855,-0.0107574,0.166473,-0.00377655,-0.038147,0.0258636
14,8,9.28151,-0.000305176,-0.00305176,-2.42776,0.055681,-0.0747579,0.050771,0.0117662,-0.0989448,0.146844,-0.129429,-0.0847066,0.0163269,0.0220108,0.0415039,0.119858,0.101357,-0.0244141,-0.103226,0.00995636,-9.97986,0.0226212,-0.0203323,0.179253,-0.0171661,0.160103,-0.00888824,-0.0237656,0.0228119
14,9,-0.0873849,0.0012207,-0.00534058,-2.42531,0.0569017,-0.0729268,0.0535176,-0.00623914,-0.0961982,0.14837,-0.128513,-0.0822652,0.0170898,0.050354,0.06073,0.172997,0.108948,-0.0530243,-0.0862122,0.00827789,-9.97986,0.0221252,-0.02388,0.188599,-0.0255203,0.162811,-0.020256,-0.0146866,0.0561142
15,0,-7.4406,0.0012207,-0.00564575,-2.42592,0.0559862,-0.0735371,0.0535176,-0.0153944,-0.0968086,0.14776,-0.129734,-0.0822652,0.0156784,0.068779,0.0794983,0.210075,0.113068,-0.0728607,-0.088501,0.00858307,-9.97986,0.0213623,-0.0292206,0.200348,-0.0341797,0.155487,-0.0197601,-0.00701904,0.0848007
15,1,-9.99003,0,-0.00427246,-2.42409,0.0559862,-0.0735371,0.0565694,0.0120714,-0.0919257,0.147455,-0.127292,-0.0810445,0.0125122,0.0838089,0.0940704,0.183907,0.097847,-0.0868225,-0.103455,0.0217819,-9.97986,0.0273132,-0.0322342,0.207481,-0.0468063,0.143127,-0.0138855,-0.000228882,0.110397
15,2,-9.99003,-0.000305176,-0.00366211,-2.42531,0.0559862,-0.0744527,0.0562642,0.0465563,-0.0903999,0.147149,-0.126377,-0.0810445,0.0107193,0.0844955,0.0861359,0.142212,0.0905228,-0.101509,-0.116425,0.0283813,-9.97986,0.0270844,-0.0328064,0.21534,-0.0704575,0.119934,-0.0164413,0.00495911,0.131607
15,3,-9.99003,-0.00213623,-0.00213623,-2.42592,0.0550706,-0.0747579,0.0556539,0.059984,-0.0913154,0.144708,-0.125461,-0.0825704,0.0123978,0.0766373,0.0849152,0.113869,0.082016,-0.122528,-0.125427,0.0316238,-9.97986,0.0292969,-0.0334549,0.227394,-0.0824356,0.102081,-0.0153351,0.00576019,0.129356
15,4,-9.99003,0.000305176,-0.00167847,-2.42592,0.0550706,-0.0735371,0.0562642,0.0737169,-0.0897895,0.144403,-0.125156,-0.0828756,0.0120163,0.0794601,0.0808334,0.102921,0.0513458,-0.136833,-0.124435,0.0345612,-9.97986,0.0291061,-0.0349808,0.22995,-0.103493,0.0798416,-0.0181198,0.0142288,0.105019
15,5,-9.78099,0,0.000457764,-2.42623,0.0523241,-0.0747579,0.0574849,0.131395,-0.0833808,0.144403,-0.119663,-0.0828756,0.0145721,0.0831985,0.062561,0.125351,-0.00156403,-0.152893,-0.1231,0.0349808,-9.97986,0.0287628,-0.0194931,0.237274,-0.118675,0.0766373,-0.0152206,0.014267,0.0735092
15,6,-1.6447,-0.000915527,0.00152588,-2.42776,0.0544603,-0.0756734,0.0553487,0.146654,-0.0882636,0.141351,-0.121494,-0.0850118,0.0113297,0.0769043,0.0305939,0.112,-0.0349426,-0.155792,-0.148697,0.0357437,-9.97986,0.0279617,-0.022583,0.24292,-0.133438,0.0588226,-0.0177002,0.0131989,0.03685
15,7,6.22121,-0.000610352,0.00228882,-2.42867,0.0541551,-0.0753682,0.0535176,0.153368,-0.0897895,0.141961,-0.122104,-0.0865377,0.014267,0.0431824,-0.0094986,0.0823975,-0.0528336,-0.151749,-0.164261,0.0398636,-9.97986,0.0305939,-0.0183487,0.254478,-0.151253,0.0541687,-0.0131226,0.0157547,0.0167847
15,8,10.0097,-0.00213623,0.00305176,-2.43172,0.0520189,-0.0762837,0.0522969,0.130174,-0.0949775,0.141046,-0.124546,-0.0883688,0.0137329,0.0102997,-0.0391769,0.0667572,-0.0793076,-0.162735,-0.192413,0.0387573,-9.97986,0.0268173,-0.0194931,0.284348,-0.161705,0.0456238,-0.0101089,0.0246811,0.00495911
15,9,10.0097,-0.000610352,0.000152588,-2.43081,0.0541551,-0.0759786,0.050771,0.0926378,-0.0961982,0.140741,-0.125461,-0.0886739,0.0146103,0.00282288,-0.0514984,0.050354,-0.0934601,-0.175858,-0.22789,0.0380707,-9.97986,0.0252533,-0.0185776,0.341835,-0.157661,0.0450134,-0.00972748,0.0397491,-0.0182343
16,0,10.0097,0.000610352,-0.000152588,-2.4302,0.0535448,-0.0765889,0.0522969,0.0801256,-0.0952827,0.143182,-0.126377,-0.0874532,0.0177002,-0.00339508,-0.0601959,0.0428391,-0.0911331,-0.197639,-0.259171,0.0352097,-9.97986,0.0221634,-0.0188828,0.392265,-0.161743,0.046463,-0.00720978,0.0474548,-0.0302124
16,1,10.0097,-0.000305176,-0.000457764,-2.42898,0.0547655,-0.0747579,0.0513814,0.0737169,-0.095893,0.143792,-0.125461,-0.0865377,0.0136185,0.00301361,-0.0654602,0.056839,-0.08564,-0.229874,-0.286026,0.0397491,-9.97986,0.020256,-0.0138474,0.381622,-0.162468,0.050621,-0.00720978,0.0202179,-0.0263596
16,2,10.0097,0.00152588,0.000915527,-2.42714,0.0553758,-0.075063,0.0513814,0.0712755,-0.0943672,0.143487,-0.125766,-0.0856222,0.0147247,0.0205994,-0.0573349,0.056076,-0.0709534,-0.249748,-0.307388,0.0553894,-9.97986,0.0209808,-0.0226593,0.330276,-0.159454,0.038414,-0.00572205,-0.0151825,-0.0200653
16,3,10.0097,-0.000305176,0.000762939,-2.42653,0.0550706,-0.0756734,0.0535176,0.0712755,-0.0961982,0.144403,-0.126987,-0.0831808,0.0162506,0.0316238,-0.0403595,0.0488281,-0.0392914,-0.279121,-0.327873,0.0733566,-9.97986,0.0152969,-0.0294113,0.290298,-0.138512,0.00263214,-0.00652313,-0.0337982,-0.0161743
16,4,10.0097,0.000610352,0.000610352,-2.42776,0.0535448,-0.0744527,0.0538228,0.0697496,-0.094062,0.144403,-0.126072,-0.0840963,0.0157166,0.0370026,-0.0197601,0.0325394,-0.0218201,-0.284042,-0.324478,0.0690842,-9.97986,0.0144196,-0.0296783,0.292091,-0.137329,-0.0429916,-0.00617981,-0.0526428,-0.0119781
16,5,10.0097,-0.000305176,-0.000610352,-2.4247,0.0559862,-0.0735371,0.054128,0.072191,-0.0931465,0.146234,-0.124241,-0.0816549,0.0137329,0.0313568,-0.0106812,0.0215149,-0.00980377,-0.29068,-0.316162,0.0547791,-9.97986,0.0105286,-0.0251389,0.295563,-0.147209,-0.0728607,-0.00221252,-0.0492096,0.00148773
16,6,10.0097,-0.000915527,-0.000305176,-2.42531,0.0565965,-0.0738423,0.0513814,0.0728014,-0.0913154,0.147149,-0.12363,-0.0813497,0.0122833,0.0435638,-0.0063324,0.0123215,0.0182343,-0.299301,-0.303802,0.0478745,-9.97986,0.00640869,-0.0276184,0.287247,-0.148392,-0.0948334,-0.00160217,-0.0391388,0.0128174
16,7,10.0097,0.00244141,-0.000915527,-2.4247,0.0553758,-0.0744527,0.0538228,0.0682238,-0.0922309,0.145929,-0.125156,-0.0825704,0.00946045,0.054512,0.00118256,0.0181198,0.0345612,-0.301323,-0.279465,0.0484848,-9.97986,0.0131607,-0.028801,0.264091,-0.16037,-0.111008,-0.00389099,-0.0354767,0.0251389
16,8,9.42037,0.00152588,-0.00335693,-2.42745,0.0553758,-0.075063,0.0516866,0.0102404,-0.0998603,0.146844,-0.129429,-0.0834859,0.00923157,0.0719452,0.0247955,0.0374603,0.0470352,-0.300407,-0.243187,0.0561142,-9.97986,0.00415802,-0.0218582,0.253067,-0.179558,-0.104599,-0.00457764,-0.0434113,0.0231552
16,9,0.0484183,0.00244141,-0.00640869,-2.42562,0.0569017,-0.0726216,0.0538228,-0.00623914,-0.0968086,0.147149,-0.129429,-0.0822652,0.0112915,0.0730896,0.035553,0.0416946,0.0458145,-0.300484,-0.201607,0.0510788,-9.97986,0.00198364,-0.0213242,0.233765,-0.204964,-0.112991,-0.00461578,-0.0508881,0.0222778
17,0,-7.38292,0.00213623,-0.00595093,-2.42592,0.0559862,-0.0735371,0.0538228,-0.0156996,-0.0961982,0.147149,-0.128818,-0.0816549,0.00854492,0.0784302,0.0440979,0.0291443,0.0541687,-0.293236,-0.15789,0.0188828,-9.97986,0.000114441,-0.0208282,0.215988,-0.23037,-0.113106,-0.00339508,-0.0545502,0.0244141
17,1,-9.99003,0.00305176,-0.0062561,-2.42409,0.0569017,-0.0741475,0.0550435,0.0117662,-0.090705,0.146539,-0.127903,-0.0819601,0.00911713,0.072937,0.050621,0.0169754,0.0536346,-0.277367,-0.115318,0.0151825,-9.97986,0.00228882,-0.0200653,0.20256,-0.267906,-0.12619,-0.00366211,-0.0531769,0.0239182
17,2,-9.99003,0.000915527,-0.00457764,-2.42501,0.055681,-0.0738423,0.0587056,0.0459459,-0.090705,0.146844,-0.126682,-0.0807394,0.0128555,0.0362015,0.046196,-0.00900269,0.0682068,-0.26165,-0.0699997,0.0513458,-9.97986,0.00782013,-0.0179672,0.200081,-0.305481,-0.149574,-0.00244141,-0.0481033,0.0315475
17,3,-9.99003,0.0012207,-0.00274658,-2.42714,0.0553758,-0.0747579,0.0550435,0.059984,-0.0919257,0.144708,-0.128208,-0.0834859,0.0178909,0.0278091,0.0424194,-0.0255966,0.0821304,-0.245209,-0.0298309,0.0534058,-9.97986,0.00144958,-0.00965118,0.197105,-0.328941,-0.147209,-0.00339508,-0.0426102,0.0392151
17,4,-9.99003,0.000610352,-0.00259399,-2.4247,0.055681,-0.0720113,0.0562642,0.0734117,-0.0900947,0.145318,-0.125766,-0.0825704,0.020256,0.0412369,0.0350952,-0.0356293,0.0977325,-0.233917,0.00659943,0.0505447,-9.97986,0.00137329,-0.0125122,0.186272,-0.359421,-0.153275,-0.00465393,-0.0411606,0.0466537
17,5,-9.61162,0.00305176,-0.000610352,-2.42501,0.0553758,-0.0741475,0.0562642,0.133531,-0.0849067,0.145318,-0.121494,-0.0825704,0.0278091,0.0431061,0.0312424,-0.0616074,0.106888,-0.210342,0.0437927,0.0629425,-9.97986,-0.00278473,-0.0157547,0.170517,-0.382118,-0.139961,-0.00732422,-0.0390625,0.051384
17,6,-1.50828,0.000305176,0.000457764,-2.42714,0.0541551,-0.0738423,0.0553487,0.150316,-0.0870429,0.144403,-0.121189,-0.0850118,0.0304794,0.0445557,0.0304413,-0.0749207,0.109901,-0.17704,0.0878525,0.0521469,-9.97986,-0.00659943,-0.0192261,0.156097,-0.406456,-0.150833,-0.0106812,-0.0354004,0.0562286
17,7,6.54195,0.00183105,0.00152588,-2.42867,0.0526292,-0.0753682,0.0538228,0.152757,-0.0891792,0.142877,-0.121494,-0.0859274,0.0226974,0.0443268,0.0218201,-0.0809479,0.105934,-0.166588,0.119972,0.0260162,-9.97986,-0.00461578,-0.0170517,0.134239,-0.446053,-0.164375,-0.0155258,-0.0267029,0.0558853
17,8,10.0097,-0.0012207,0.000762939,-2.43081,0.0523241,-0.0768941,0.0495503,0.129564,-0.0952827,0.136773,-0.125156,-0.0892843,0.0203323,0.0314331,0.0154877,-0.0788879,0.111618,-0.155144,0.149879,0.00663757,-9.97986,-0.00164032,-0.0177765,0.106888,-0.473328,-0.16613,-0.0123596,-0.0135803,0.0595856
17,9,10.0097,0.00244141,-0.00259399,-2.42989,0.0517137,-0.0762837,0.0492452,0.0914171,-0.0968086,0.143487,-0.126072,-0.0886739,0.0218964,0.024147,0.017662,-0.0841522,0.108261,-0.141296,0.178604,0.00255585,-9.97986,0.00514984,-0.0177383,0.0778961,-0.507851,-0.162697,-0.0102615,-0.00968933,0.0634766
18,0,10.0097,0.000915527,-0.00305176,-2.42928,0.0538499,-0.0753682,0.0492452,0.0785997,-0.0949775,0.145013,-0.127292,-0.0889791,0.0153732,0.0294876,0.020752,-0.103683,0.115814,-0.129395,0.199661,-0.00228882,-9.97986,0.00679016,-0.0141907,0.0453949,-0.545654,-0.170135,-0.0146866,-0.00679016,0.0624847
18,1,10.0097,0.000915527,-0.00442505,-2.42898,0.0544603,-0.0756734,0.050771,0.0743273,-0.0949775,0.142267,-0.126072,-0.0877584,0.0156021,0.0314713,0.0304794,-0.0957489,0.109253,-0.112953,0.224915,-0.0223923,-9.97986,0.013237,-0.0157928,0.0191879,-0.600243,-0.168533,-0.0159836,0.00659943,0.0666809
18,2,10.0097,0.0012207,-0.00671387,-2.42745,0.0541551,-0.0744527,0.0516866,0.072191,-0.0952827,0.143792,-0.126072,-0.0868429,0.0107956,0.0256729,0.0404358,-0.0460052,0.112534,-0.103912,0.248795,-0.0205231,-9.97986,0.0100708,-0.0185013,-0.0125885,-0.675392,-0.172653,-0.0108337,0.0164032,0.0706482
18,3,10.0097,0.0012207,-0.00732422,-2.42623,0.0559862,-0.073232,0.0519917,0.072191,-0.0943672,0.145624,-0.126377,-0.0859274,0.010376,0.027504,0.0531769,-0.0112152,0.111427,-0.0862122,0.267296,-0.00202179,-9.97986,0.00911713,-0.0153351,-0.0344086,-0.746002,-0.170746,-0.00789642,0.0243378,0.0701141
18,4,10.0097,0.00244141,-0.00701904,-2.42623,0.055681,-0.0735371,0.0535176,0.0718859,-0.0934516,0.142572,-0.124851,-0.0862325,0.0179291,0.0356293,0.0736237,-0.00808716,0.108337,-0.0807571,0.286713,-0.0038147,-9.97986,0.00934601,-0.00595093,-0.0557327,-0.828934,-0.166016,-0.00789642,0.033493,0.0688553
18,5,10.0097,0.00213623,-0.00732422,-2.42562,0.0569017,-0.075063,0.0544332,0.0718859,-0.0922309,0.145013,-0.123935,-0.0837911,0.0169754,0.0362015,0.090065,0.00606537,0.109978,-0.0605011,0.291481,-0.000114441,-9.97986,0.0114822,-0.015831,-0.0823975,-0.899124,-0.164261,-0.0112152,0.0415421,0.071373
18,6,10.0097,0.00183105,-0.00595093,-2.42592,0.0569017,-0.0747579,0.0538228,0.072191,-0.090705,0.146844,-0.124241,-0.0831808,0.0183868,0.0507736,0.120621,0.0749588,0.113182,-0.0488663,0.30735,0.00595093,-9.97986,0.0103378,-0.0247192,-0.100594,-0.954666,-0.159149,-0.0120163,0.0527573,0.0695801
18,7,10.0097,0.000915527,-0.00518799,-2.42623,0.0572069,-0.0729268,0.0532125,0.0676134,-0.090705,0.146844,-0.125461,-0.0822652,0.018959,0.0583649,0.14183,0.100708,0.116615,-0.0400925,0.311012,0.00984192,-9.97986,0.00984192,-0.0202179,-0.127716,-1.0099,-0.153313,-0.00865936,0.0587845,0.0727844
18,8,9.3871,0,-0.0062561,-2.42837,0.0559862,-0.0735371,0.0501607,0.0111559,-0.0986396,0.145013,-0.129734,-0.0844015,0.0117874,0.0609589,0.154724,0.0618362,0.116806,-0.026207,0.317955,0.0148392,-9.97986,0.0163269,-0.0250626,-0.147057,-1.03756,-0.145836,-0.012207,0.0687408,0.0704956
18,9,-0.0092599,-0.000305176,-0.00579834,-2.42623,0.0569017,-0.073232,0.0529073,-0.00776502,-0.0955879,0.146539,-0.129734,-0.0828756,0.0146103,0.0511551,0.149612,0.0514221,0.109138,-0.0102615,0.331535,0.0208664,-9.97986,0.0212479,-0.0347519,-0.165977,-1.04324,-0.140343,-0.00675201,0.0735092,0.069809
19,0,-7.43449,0.00244141,-0.0062561,-2.42531,0.0562914,-0.0741475,0.0532125,-0.0156996,-0.0952827,0.146844,-0.130039,-0.0819601,0.00858307,0.0476837,0.126915,0.0580215,0.107155,-0.00492096,0.335808,0.0198746,-9.97986,0.0206375,-0.0389862,-0.187454,-1.04565,-0.133286,-0.00782013,0.0837326,0.0698471
19,1,-9.99003,-0.000915527,-0.00411987,-2.42501,0.0553758,-0.0738423,0.0538228,0.0135973,-0.0925361,0.147149,-0.128513,-0.0807394,0.0125504,0.0521469,0.09758,0.0813293,0.105057,0.00133514,0.339394,0.0225449,-9.97986,0.022583,-0.0316238,-0.205231,-1.04954,-0.136833,-0.00785828,0.0966263,0.0690842
19,2,-9.99003,-0.00152588,-0.00244141,-2.4244,0.0553758,-0.0726216,0.0562642,0.0450304,-0.0861274,0.145624,-0.126987,-0.0804342,0.0105667,0.0465012,0.0592422,0.0812531,0.0984573,0.00934601,0.345306,0.0214005,-9.97986,0.0267792,-0.014801,-0.221138,-1.05042,-0.140724,-0.00881195,0.102921,0.0679016
19,3,-9.99003,0.0012207,-0.000762939,-2.42653,0.0547655,-0.0753682,0.0556539,0.058153,-0.0910102,0.145013,-0.125766,-0.0831808,0.0114059,0.0367355,0.0165558,0.0589752,0.0921249,0.00968933,0.348511,0.0218964,-9.97986,0.0264359,-0.0157928,-0.241318,-1.06285,-0.137901,-0.00865936,0.114098,0.067749
19,4,-9.99003,0,-0.000457764,-2.42623,0.0562914,-0.0762837,0.0547383,0.0740221,-0.0894843,0.146234,-0.125766,-0.0825704,0.00679016,0.0336838,-0.0257492,0.0545883,0.0891495,0.0173569,0.347748,0.0282288,-9.97986,0.0320435,-0.0123215,-0.253181,-1.06243,-0.129051,-0.00732422,0.121956,0.0631332
19,5,-9.46544,-0.000305176,0.00366211,-2.42531,0.0532396,-0.0744527,0.0550435,0.133531,-0.0870429,0.144098,-0.120884,-0.0822652,0.0157928,0.0296402,-0.0497818,0.0472641,0.0814819,0.0120544,0.348206,0.025444,-9.97986,0.0253296,0.00274658,-0.264664,-1.03687,-0.0933075,-0.00289917,0.125198,0.0640488
19,6,-1.32487,0,0.00595093,-2.42806,0.0532396,-0.0771993,0.0535176,0.146654,-0.0879585,0.143792,-0.121799,-0.0840963,0.0149918,0.0315857,-0.0577164,0.0334167,0.0716019,0.00873566,0.345154,0.0249863,-9.97986,0.0223923,0.00476837,-0.269012,-1.00025,-0.0906372,-0.0056839,0.132523,0.0633621
19,7,6.54775,0.00274658,0.00854492,-2.42776,0.0538499,-0.0759786,0.0532125,0.152452,-0.0891792,0.143182,-0.121189,-0.0844015,-0.00350952,0.0343704,-0.0484848,0.0303268,0.0664139,0.0100708,0.347214,0.030365,-9.97986,0.0213623,-0.020256,-0.278549,-0.951462,-0.0824356,-0.00434875,0.134125,0.0587082
19,8,10.0097,0.00152588,0.00854492,-2.43081,0.0520189,-0.0768941,0.050771,0.128954,-0.0983344,0.142877,-0.124546,-0.0871481,-0.0109482,0.0326538,-0.0424576,0.0248337,0.0650406,0.00823975,0.348282,0.0365067,-9.97986,0.0237656,-0.0424576,-0.284653,-0.895538,-0.0702286,-0.000610352,0.137711,0.0610733
19,9,10.0097,0,0.00427246,-2.43111,0.0532396,-0.0759786,0.0501607,0.0920275,-0.0971137,0.144403,-0.125766,-0.0874532,-0.0208282,0.029068,-0.0323486,0.0156784,0.0543976,0.00965118,0.348778,0.0356293,-9.97986,0.0209045,-0.024147,-0.292587,-0.871353,-0.0629425,-0.00644684,0.135422,0.0534821
20,0,10.0097,-0.0012207,0.00366211,-2.42959,0.0529344,-0.0765889,0.0516866,0.0779894,-0.0961982,0.143487,-0.126072,-0.0865377,-0.0303268,0.0249863,-0.0353622,0.0188065,0.0456238,0.00720978,0.339508,0.050354,-9.97986,0.0165939,-0.00549316,-0.296173,-0.824738,-0.0641251,-0.00389099,0.138702,0.0542831
20,1,10.0097,0.00152588,0.00610352,-2.42745,0.0538499,-0.0756734,0.0519917,0.0737169,-0.0949775,0.143792,-0.126377,-0.0844015,-0.0219727,0.0255966,-0.022316,0.0082016,0.0376892,0.00679016,0.336418,0.0592804,-9.97986,0.0107574,0.0114059,-0.298386,-0.746841,-0.0572968,-0.00564575,0.135498,0.0494766
20,2,10.0097,-0.000610352,0.00900269,-2.42776,0.0550706,-0.0753682,0.0526021,0.072191,-0.0925361,0.145624,-0.126377,-0.0822652,-0.00652313,0.0242615,-0.0132751,0.00617981,0.0280762,0.00389099,0.330162,0.062561,-9.97986,0.0146866,0.057869,-0.302773,-0.63324,-0.0497055,-0.00782013,0.136299,0.0505066
20,3,10.0097,-0.000610352,0.0123596,-2.42776,0.0559862,-0.0738423,0.0529073,0.07036,-0.0931465,0.144403,-0.125156,-0.0816549,0.00923157,0.0257874,-0.00469208,0.000152588,0.0227737,0.00408173,0.327187,0.0615692,-9.97986,0.0146866,0.0600052,-0.299759,-0.495796,-0.0448608,-0.0123596,0.130043,0.0496292
20,4,10.0097,0.0012207,0.0114441,-2.42653,0.0559862,-0.0762837,0.0535176,0.0712755,-0.0943672,0.146234,-0.125156,-0.0807394,0.0313187,0.027504,0.00160217,0.00556946,0.0120544,0.000686646,0.322227,0.0824738,-9.97986,0.0118256,0.0392914,-0.2948,-0.384789,-0.0364685,-0.0103378,0.126724,0.0473404
20,5,10.0097,-0.000915527,0.012207,-2.42592,0.0562914,-0.0735371,0.0547383,0.0712755,-0.0913154,0.146234,-0.124241,-0.0779928,0.0366592,0.0314713,0.0144196,0.0030899,0.00534058,-0.0025177,0.3162,0.0786591,-9.97986,0.00442505,-0.000648499,-0.292091,-0.261345,-0.0379181,-0.0110245,0.123711,0.0466919
20,6,10.0097,-0.000305176,0.0125122,-2.42501,0.0565965,-0.0738423,0.054128,0.0715807,-0.0913154,0.147149,-0.124241,-0.0779928,0.0465012,0.0344086,0.0160217,0.000343323,0.0025177,0.00164032,0.31601,0.0517273,-9.97986,-0.000762939,-0.0301361,-0.283165,-0.11425,-0.030098,-0.00598907,0.118294,0.0440216
20,7,10.0097,0.00274658,0.0149536,-2.42714,0.0562914,-0.0744527,0.0535176,0.0663927,-0.0916206,0.14776,-0.125156,-0.0767721,0.0374603,0.0404358,0.0233078,-0.0056839,-0.00522614,0.0118637,0.320511,0.0579834,-9.97986,-0.00576019,-0.058403,-0.277672,0.049057,-0.0258255,-0.0104523,0.114098,0.0414276
20,8,9.31325,0.0012207,0.0146484,-2.42806,0.0550706,-0.075063,0.0516866,0.00657824,-0.09925,0.144403,-0.129429,-0.0779928,0.0224304,0.0399017,0.0287247,-0.0025177,-0.00915527,0.0223923,0.326729,0.0772476,-9.97986,-0.0152206,-0.062027,-0.274391,0.241852,-0.0222397,-0.00595093,0.108948,0.0405121
20,9,-0.000714982,0.000305176,0.0126648,-2.42592,0.0565965,-0.0744527,0.0544332,-0.00776502,-0.0977241,0.14776,-0.128818,-0.0761617,-0.000839233,0.0377655,0.0285339,-0.00270844,-0.0136185,0.0320435,0.328941,0.0627899,-9.97986,-0.0242996,-0.034256,-0.264549,0.420685,-0.0157166,-0.00976563,0.104218,0.0365829
21,0,-7.51384,0,0.0112915,-2.42501,0.055681,-0.0747579,0.0550435,-0.0150892,-0.0952827,0.147455,-0.130649,-0.0767721,-0.00980377,0.0351715,0.030899,-0.00881195,-0.0234222,0.037384,0.308609,0.0572586,-9.97986,-0.0331497,-0.0189972,-0.26474,0.57827,-0.0127029,-0.0118637,0.100746,0.0377274
21,1,-9.99003,-0.000305176,0.0149536,-2.42379,0.0565965,-0.0735371,0.0553487,0.0132921,-0.0934516,0.144708,-0.128818,-0.0755514,-0.00766754,0.0259781,0.0278091,-0.00774384,-0.0273895,0.0393677,0.274582,0.062027,-9.97986,-0.0262833,-0.0114059,-0.24929,0.784798,-0.0178528,-0.00759125,0.0983429,0.0354767
21,2,-9.99003,0.000305176,0.0163269,-2.4247,0.0565965,-0.0744527,0.0562642,0.0453356,-0.0897895,0.146844,-0.126682,-0.0761617,-0.00263214,0.0293732,0.0263214,-0.00244141,-0.0310516,0.039978,0.247688,0.0391769,-9.97986,-0.0223923,-0.010376,-0.247231,0.957069,-0.0259399,-0.0101089,0.0965118,0.0330734
21,3,-9.99003,-0.000305176,0.0126648,-2.42531,0.0541551,-0.0735371,0.0553487,0.0590685,-0.0910102,0.144708,-0.126377,-0.0798238,0.000228882,0.0299072,0.0290298,-0.00450134,-0.0354767,0.0392914,0.210648,0.0172424,-9.97986,-0.0137329,-0.0110245,-0.238266,1.04317,-0.0183487,-0.00553131,0.0923538,0.0305176
21,4,-9.99003,0.000915527,0.00915527,-2.42531,0.0553758,-0.0744527,0.055959,0.0779894,-0.0897895,0.145318,-0.124241,-0.080129,0.0139236,0.0233459,0.029068,-0.00217438,-0.042038,0.0557327,0.188065,0.00427246,-9.97986,-0.00289917,-0.0107193,-0.229187,1.11851,-0.0115585,-0.00114441,0.0930023,0.0262451
21,5,-9.29057,-0.000305176,0.0170898,-2.42531,0.0553758,-0.0747579,0.0574849,0.135057,-0.0839912,0.144098,-0.121189,-0.0773824,0.0178528,0.0177765,0.0250626,-0.00171661,-0.0493622,0.0603104,0.187836,-0.0286102,-9.97986,0.0227356,-0.014534,-0.22274,1.24996,0.0133133,-0.00110626,0.092659,0.0280762
21,6,-1.33861,0.0012207,0.0270081,-2.42653,0.0544603,-0.0744527,0.0547383,0.150011,-0.0864326,0.143792,-0.121494,-0.0770773,0.0214005,0.017128,0.0245667,0.0025177,-0.0517273,0.0662613,0.196152,-0.0580215,-9.97986,0.0212097,-0.0177765,-0.210037,1.24996,0.0239182,-0.00328064,0.094986,0.0229263
21,7,6.69179,0,0.0283813,-2.42867,0.0532396,-0.0759786,0.0522969,0.153063,-0.088874,0.143792,-0.121494,-0.0795187,0.0270081,0.0201797,0.0237656,0.00038147,-0.0511551,0.0720215,0.184402,-0.0725555,-9.97986,0.0062561,-0.0133896,-0.20153,1.24996,0.0310135,0.000801086,0.101089,0.0253296
21,8,10.0097,0.0012207,0.019989,-2.43111,0.0535448,-0.0759786,0.0504659,0.127428,-0.0946723,0.142572,-0.124241,-0.0847066,0.0222015,0.0174713,0.02491,0.00415802,-0.0543976,0.0829315,0.169487,-0.0689316,-9.97986,0.00144958,-0.0101089,-0.194702,1.24996,0.0362396,0.00465393,0.101662,0.0201035
21,9,10.0097,0.000610352,0.0100708,-2.43111,0.0544603,-0.0756734,0.0498555,0.0908068,-0.0946723,0.144098,-0.125766,-0.0880636,0.0287247,0.020752,0.0247574,0.0164032,-0.0542068,0.084877,0.146904,-0.0505829,-9.97986,0.00888824,-0.00518799,-0.182076,1.24996,0.0452042,0.00114441,0.107994,0.0199127
22,0,10.0097,0.000610352,0.000152588,-2.43142,0.0529344,-0.0753682,0.0513814,0.0782946,-0.095893,0.142267,-0.126072,-0.0880636,0.0173187,0.0232315,0.0281906,0.0112152,-0.0585938,0.0867844,0.12413,-0.0295258,-9.97986,0.031929,-0.00400543,-0.175056,1.24996,0.0417328,0.000457764,0.11116,0.0188065
22,1,10.0097,-0.000915527,-0.00274658,-2.42745,0.0547655,-0.0756734,0.0529073,0.0740221,-0.0943672,0.143182,-0.127598,-0.0868429,0.0250626,0.0244141,0.0322723,0.00102997,-0.0509262,0.0948334,0.0998306,-0.0157166,-9.97986,0.0573349,-0.0037384,-0.151176,1.24996,0.0508118,-0.00305176,0.122032,0.0211716
22,2,10.0097,0.000915527,-0.00289917,-2.42684,0.0547655,-0.0747579,0.0529073,0.0712755,-0.0928413,0.146234,-0.126072,-0.0862325,0.0221634,0.011673,0.0332642,-0.00850677,-0.0590134,0.104218,0.0801086,-0.0234604,-9.97986,0.0517654,-0.00816345,-0.148621,1.24996,0.0571442,-0.000343323,0.12661,0.0125885
22,3,10.0097,-0.000610352,-0.00228882,-2.42745,0.0541551,-0.0756734,0.0535176,0.0712755,-0.0934516,0.145318,-0.125461,-0.0847066,0.020752,0.0128937,0.03582,-0.0230026,-0.0592804,0.114632,0.0642776,-0.0180817,-9.97986,0.0580978,0.000915527,-0.133362,1.24996,0.0630569,-0.00156403,0.132332,0.0132751
22,4,10.0097,-0.000610352,-0.00137329,-2.42562,0.0553758,-0.0744527,0.0535176,0.0715807,-0.0916206,0.145013,-0.124546,-0.0850118,0.0227737,0.00629425,0.0374985,-0.0311279,-0.0578308,0.115204,0.050354,-0.00602722,-9.97986,0.0705338,-0.00038147,-0.116844,1.24996,0.0681686,0.000419617,0.141487,0.0169373
22,5,10.0097,0.00274658,-0.00244141,-2.42653,0.0562914,-0.0726216,0.0550435,0.0715807,-0.0910102,0.147455,-0.125156,-0.0825704,0.0156403,0.00457764,0.0430298,-0.0402451,-0.0537491,0.125389,0.0349045,-0.000305176,-9.97986,0.0635529,-0.00900269,-0.105591,1.24996,0.0681305,0.000305176,0.149574,0.0134659
22,6,10.0097,0.000610352,-0.00274658,-2.42379,0.0575121,-0.0729268,0.0553487,0.0724962,-0.090705,0.146539,-0.124851,-0.0822652,0.012207,0.00541687,0.0404358,-0.0458527,-0.0548172,0.13176,0.0225067,0.0110245,-9.97986,0.0551224,-0.0177002,-0.0909042,1.24996,0.0736237,-0.00339508,0.154533,0.0110245
22,7,10.0097,0,-0.00488281,-2.42623,0.0544603,-0.0729268,0.0547383,0.0657823,-0.0934516,0.145318,-0.125156,-0.0837911,0.0138092,0.00911713,0.0419998,-0.066452,-0.0531387,0.137062,0.0144577,0.0102615,-9.97986,0.0442123,-0.0148392,-0.0698471,1.24996,0.082283,0.00141144,0.165024,0.0075531
22,8,9.18996,0.000610352,-0.00823975,-2.42776,0.0553758,-0.075063,0.0519917,0.00657824,-0.0995551,0.145318,-0.129429,-0.0847066,0.00816345,0.0106049,0.0358582,-0.0709152,-0.0500107,0.143814,0.00732422,0.00408173,-9.97986,0.0367355,-0.00663757,-0.0569534,1.24996,0.0852203,-0.0044632,0.171814,0.0130463
22,9,-0.0748727,0.000915527,-0.00946045,-2.42623,0.0565965,-0.0741475,0.054128,-0.00807019,-0.0980293,0.147149,-0.129429,-0.0837911,0.00976563,0.00495911,0.0416183,-0.0495911,-0.0503922,0.14782,-0.01091,0.00663757,-9.97986,0.0336075,-0.0019455,-0.0395966,1.24996,0.0875092,-0.00659943,0.178604,0.00923157
23,0,-7.62431,0,-0.00976563,-2.42501,0.0559862,-0.0741475,0.0547383,-0.0156996,-0.095893,0.146844,-0.130954,-0.0834859,0.0111771,0.00644684,0.0351715,-0.00881195,-0.0473022,0.163879,-0.0267792,0.00679016,-9.97986,0.0305176,0.0181961,-0.0271988,1.24996,0.0900269,-0.00556946,0.184784,0.0082016
23,1,-9.99003,0,-0.00762939,-2.42379,0.0559862,-0.0726216,0.0544332,0.0139025,-0.0922309,0.146539,-0.127903,-0.0831808,0.00606537,0.00286102,0.0197601,-0.00114441,-0.0452042,0.170326,-0.0417328,0.0102997,-9.97986,0.0344849,0.0217438,-0.0147629,1.24996,0.0838089,-7.62939e-005,0.198593,0.00972748
23,2,-9.99003,-0.000610352,-0.00473022,-2.42531,0.0565965,-0.0744527,0.0553487,0.0450304,-0.0891792,0.143792,-0.126682,-0.0825704,0.00640869,-0.00991821,-0.0139236,-0.0195694,-0.0395966,0.171242,-0.0491333,0.0069046,-9.97986,0.0422287,0.0123215,-0.00232697,1.24996,0.0686646,-0.00221252,0.202179,0.0120163
23,3,-9.99003,0.00152588,-0.00320435,-2.42501,0.0559862,-0.0756734,0.0556539,0.0587633,-0.0910102,0.145624,-0.126072,-0.0837911,0.00926971,-0.0290298,-0.0180054,0.0149536,-0.0448227,0.173492,-0.0572586,0.00423431,-9.97986,0.0337601,0.0278091,0.0121689,1.24996,0.0695801,-0.00389099,0.20546,0.00747681
23,4,-9.99003,-0.000915527,-0.00411987,-2.42501,0.0547655,-0.0744527,0.0562642,0.0767687,-0.0897895,0.146539,-0.125156,-0.0837911,0.00511169,-0.0153732,0.000190735,0.0476074,-0.045433,0.176926,-0.0738144,0.00709534,-9.97986,0.0353241,-0.00133514,0.0246811,1.24996,0.0826645,-0.00511169,0.203552,0.00972748
23,5,-9.31712,0.0012207,-0.00274658,-2.42653,0.0550706,-0.0735371,0.0577901,0.135973,-0.0846015,0.145624,-0.121494,-0.0840963,0.00648499,0.0127029,0.0167847,0.0204849,-0.0424194,0.181046,-0.0849915,0.0172424,-9.97986,0.0327682,-0.0304794,0.0360107,1.21193,0.106316,-0.00102997,0.208321,0.00869751
23,6,-1.2025,-0.000305176,-0.000762939,-2.42837,0.0526292,-0.0756734,0.0556539,0.147264,-0.0879585,0.142877,-0.121189,-0.0850118,0.00198364,0.0263214,0.0158691,0.0177383,-0.0434494,0.190277,-0.0965881,0.0175858,-9.97986,0.030365,-0.00591278,0.0436783,1.16486,0.10437,-0.00389099,0.206146,0.0069046
23,7,6.64327,0.000305176,-0.00106812,-2.42837,0.0529344,-0.0753682,0.0535176,0.153673,-0.0897895,0.143792,-0.120884,-0.0874532,0.00595093,0.0255203,0.0257111,0.0318146,-0.0408554,0.191422,-0.107117,0.0204086,-9.97986,0.0252151,0.0143814,0.0505066,1.1031,0.109596,-0.0031662,0.206032,0.00709534
23,8,10.0097,0.00183105,-0.00350952,-2.43172,0.0532396,-0.0768941,0.0495503,0.127123,-0.0946723,0.142877,-0.124851,-0.0911153,0.00530243,0.0328445,0.0313187,0.049057,-0.0444031,0.200233,-0.113144,0.0190735,-9.97986,0.020256,0.0289917,0.0575638,1.00307,0.110512,-0.00148773,0.200043,0.00564575
23,9,10.0097,0.00213623,-0.00671387,-2.42959,0.0532396,-0.0762837,0.0501607,0.0923326,-0.0974189,0.143182,-0.126682,-0.090505,0.00518799,0.0537491,0.037384,0.0643158,-0.0416565,0.201187,-0.124359,0.02491,-9.97986,0.0226974,0.0292587,0.0681305,0.924683,0.115929,-0.00835419,0.196266,0.00610352
24,0,10.0097,0.000305176,-0.00534058,-2.42959,0.0529344,-0.0744527,0.050771,0.0789049,-0.0961982,0.143182,-0.126987,-0.0889791,0.00701904,0.0658798,0.0401306,0.0704193,-0.0433731,0.201912,-0.136528,0.0200653,-9.97986,0.0156403,0.017662,0.07267,0.879517,0.115471,-0.0062561,0.189857,0.000190735
24,1,10.0097,-0.000305176,-0.00427246,-2.42806,0.0538499,-0.0756734,0.0519917,0.0718859,-0.0949775,0.144098,-0.126377,-0.0877584,0.00473022,0.0554657,0.0350952,0.0677872,-0.0440979,0.201912,-0.142479,0.0273514,-9.97986,0.0178909,0.0159454,0.0815964,0.846519,0.117912,-0.00118256,0.179138,0.00583649
24,2,10.0097,-0.0012207,-0.00427246,-2.42684,0.0541551,-0.0753682,0.0532125,0.0718859,-0.094062,0.144708,-0.125766,-0.0868429,0.0056839,0.0545883,0.0194168,0.0440979,-0.0419235,0.200043,-0.146255,0.0266647,-9.97986,0.0180054,0.0139236,0.0836182,0.797081,0.114861,-0.00526428,0.16674,0.00114441
24,3,10.0097,0.000610352,-0.00610352,-2.42684,0.0544603,-0.0759786,0.0538228,0.0706652,-0.0931465,0.143792,-0.125156,-0.0862325,0.00400543,0.0483704,0.0191879,0.0177765,-0.039978,0.199165,-0.143204,0.0292206,-9.97986,0.0163651,0.00400543,0.0922012,0.731583,0.112381,-0.0025177,0.156021,0.00209808
24,4,10.0097,-0.000915527,-0.00335693,-2.42623,0.0559862,-0.0753682,0.054128,0.0712755,-0.0931465,0.143487,-0.127292,-0.0847066,0.00801086,0.0421143,0.0136566,0.00476837,-0.0349045,0.186882,-0.136986,0.033226,-9.97986,0.0137329,-0.0202942,0.098877,0.701637,0.113449,-0.00209808,0.146713,-0.00114441
24,5,10.0097,0.000915527,-0.00335693,-2.42562,0.0562914,-0.0741475,0.0550435,0.0712755,-0.0928413,0.146234,-0.125461,-0.0834859,0.0151062,0.0414276,0.0145721,0.0287628,-0.0388718,0.183525,-0.136414,0.0314713,-9.97986,0.0116348,-0.0227737,0.106621,0.674362,0.119247,-0.00354767,0.141525,0.00190735
24,6,10.0097,-0.000305176,-0.00518799,-2.42745,0.0569017,-0.0747579,0.0556539,0.0715807,-0.0919257,0.145318,-0.123935,-0.0834859,0.00892639,0.0343323,0.0128937,0.0362778,-0.0417709,0.177078,-0.130653,0.0284576,-9.97986,0.00602722,-0.0131226,0.111198,0.607185,0.116844,-0.00862122,0.129623,0.00236511
24,7,10.0097,-0.000610352,-0.00350952,-2.42623,0.0565965,-0.0741475,0.0529073,0.0660875,-0.0934516,0.145013,-0.12302,-0.0831808,0.0114441,0.0320816,0.00774384,0.0194168,-0.0381088,0.170708,-0.118179,0.0333405,-9.97986,0.00839233,-0.00133514,0.113678,0.576134,0.114212,-0.00740051,0.11837,-0.00144958
24,8,9.08345,-0.000915527,-0.00747681,-2.42806,0.0559862,-0.075063,0.0516866,0.00688342,-0.100165,0.145624,-0.129734,-0.0862325,0.00465393,0.021553,0.00587463,0.00312805,-0.0361633,0.16674,-0.108871,0.0276947,-9.97986,0.00991821,0.00648499,0.12104,0.513115,0.113068,-0.00988007,0.109711,0.000648499
24,9,-0.196638,0.000610352,-0.0143433,-2.42501,0.0562914,-0.0741475,0.0535176,-0.00868054,-0.0949775,0.146234,-0.130344,-0.085317,0.00785828,0.00988007,0.00492096,0.0125885,-0.0334549,0.152893,-0.104942,0.0487137,-9.97986,0.0069046,0.00827789,0.126686,0.366478,0.123825,-0.0128555,0.0964737,-0.000724792
25,0,-7.73814,0.000610352,-0.0175476,-2.42592,0.0569017,-0.0735371,0.054128,-0.0150892,-0.0955879,0.147149,-0.130039,-0.0847066,0.00900269,0.0164413,0.00549316,0.00274658,-0.0350571,0.152702,-0.104141,0.0823212,-9.97986,0.00717163,-0.00377655,0.132332,0.227089,0.134506,-0.0170517,0.087471,-0.00362396
25,1,-9.99003,0.00213623,-0.015564,-2.4247,0.0602586,-0.0738423,0.0556539,0.0139025,-0.0913154,0.145624,-0.127598,-0.0831808,0.00850677,0.0193024,0.00389099,-0.0241089,-0.0354385,0.143814,-0.102654,0.102654,-9.97986,0.00713348,0.00770569,0.133553,0.106773,0.127258,-0.0123215,0.0777435,-0.00488281
25,2,-9.99003,-0.000915527,-0.010376,-2.4247,0.0559862,-0.0738423,0.055959,0.0468614,-0.0891792,0.146234,-0.125766,-0.0828756,0.00812531,0.0325775,0.00614166,-0.0362396,-0.0366211,0.138245,-0.100212,0.109596,-9.97986,0.00488281,0.0113678,0.13504,0.0411606,0.115738,-0.0145721,0.0654221,-0.0037384
25,3,-9.99003,0.0012207,-0.00869751,-2.42562,0.0547655,-0.075063,0.0556539,0.0593737,-0.0919257,0.145624,-0.125766,-0.0847066,0.00774384,0.0400543,0.0154114,-0.0614929,-0.0339508,0.130844,-0.101128,0.0962448,-9.97986,0.00389099,0.0190353,0.140305,-0.0395203,0.110703,-0.016098,0.0597382,-0.00259399
25,4,-9.99003,-0.000610352,-0.0120544,-2.42623,0.0547655,-0.075063,0.0553487,0.0767687,-0.0910102,0.145624,-0.125156,-0.0862325,0.00267029,0.0402832,0.0200653,-0.126724,-0.0285721,0.120087,-0.0968933,0.081749,-9.97986,0.00228882,0.0130081,0.140305,-0.191803,0.104942,-0.0175095,0.0478745,-0.00564575
25,5,-9.13798,-0.00335693,-0.00717163,-2.42623,0.0553758,-0.0747579,0.0571797,0.136888,-0.0855171,0.144403,-0.121189,-0.0844015,0.0062561,0.0361633,0.0268173,-0.121994,-0.0356674,0.113449,-0.0960541,0.0334167,-9.97986,0.00637054,0.0108337,0.142822,-0.267448,0.10498,-0.0132751,0.0374222,-0.00530243
25,6,-1.27116,-0.000305176,-0.0050354,-2.42684,0.0547655,-0.0759786,0.055959,0.149095,-0.0873481,0.145013,-0.120578,-0.0865377,0.0121689,0.0296783,0.0327301,-0.0424194,-0.025444,0.107422,-0.0854492,-0.057373,-9.97986,0.00629425,-0.000267029,0.143318,-0.330849,0.0844193,-0.0110245,0.026741,-0.00526428
25,7,6.82332,0.00244141,-0.00320435,-2.42867,0.0538499,-0.0756734,0.0535176,0.152147,-0.0891792,0.144098,-0.121799,-0.0877584,0.0094986,0.0307846,0.0379181,-0.00423431,-0.0222397,0.0938416,-0.085144,-0.0785065,-9.97986,0.00278473,-0.00190735,0.140381,-0.40596,0.0642395,-0.00946045,0.0197983,-0.00675201
25,8,10.0097,0.0012207,-0.00305176,-2.43081,0.0526292,-0.0771993,0.0516866,0.125292,-0.0971137,0.141961,-0.124546,-0.0911153,0.0131226,0.0426865,0.0489044,-0.0180817,-0.0194168,0.0873184,-0.076561,-0.045929,-9.97986,0.000228882,-0.00179291,0.145988,-0.470695,0.0460052,-0.0101852,0.0117111,-0.00610352
25,9,10.0097,0.0012207,-0.00839233,-2.43081,0.0532396,-0.0771993,0.0492452,0.0908068,-0.0980293,0.141961,-0.125156,-0.0920309,0.0139236,0.0457001,0.0574493,-0.0400543,-0.0113297,0.0672531,-0.069809,-0.0136948,-9.97986,0.00137329,0.00617981,0.144043,-0.581512,0.0444794,-0.0111389,-0.000228882,-0.00900269
26,0,10.0097,0,-0.0112915,-2.42867,0.0523241,-0.0756734,0.0510762,0.0792101,-0.095893,0.142267,-0.126987,-0.0908102,0.0113297,0.0534058,0.0621796,-0.0475693,-0.00751495,0.0616455,-0.0657654,0.00118256,-9.97986,-0.00301361,0.00343323,0.139465,-0.715828,0.0338745,-0.00835419,-0.00938416,-0.00923157
26,1,10.0097,0.000305176,-0.0120544,-2.42837,0.0532396,-0.0765889,0.0519917,0.0734117,-0.0949775,0.145318,-0.126377,-0.0898946,0.0100708,0.0514603,0.0580597,-0.0458145,-0.00450134,0.0553513,-0.0576401,-0.00537872,-9.97986,0.00205994,-0.00297546,0.140495,-0.84156,0.0366974,-0.0038147,-0.0172806,-0.0062561
26,2,10.0097,0.000305176,-0.012207,-2.42776,0.0547655,-0.075063,0.0535176,0.0718859,-0.094062,0.144403,-0.126987,-0.0889791,0.00587463,0.0461578,0.0460052,-0.0188446,0.00141144,0.0423431,-0.0544739,-0.0190353,-9.97986,-0.00286102,-0.0031662,0.142746,-0.971642,0.0392914,-0.0031662,-0.0255966,-0.0088501
26,3,10.0097,-0.0012207,-0.01297,-2.42745,0.0550706,-0.0747579,0.0526021,0.0712755,-0.0931465,0.144098,-0.126682,-0.0877584,0.00873566,0.0525665,0.0383377,0.013504,0.0115204,0.0360107,-0.0478363,-0.0274658,-9.97986,-0.00602722,-0.00190735,0.142632,-1.10207,0.0416946,-0.00118256,-0.0323105,-0.0102997
26,4,10.0097,0.0012207,-0.00701904,-2.42592,0.055681,-0.075063,0.0532125,0.0715807,-0.0925361,0.145318,-0.125766,-0.0847066,0.0030899,0.0463867,0.0294876,0.0146484,0.0126648,0.0110626,-0.04776,-0.0274277,-9.97986,0.00110626,-0.00419617,0.139351,-1.12408,0.0398254,-0.00457764,-0.0448608,-0.0122833
26,5,10.0097,-0.000305176,-0.000457764,-2.42562,0.0565965,-0.0735371,0.0538228,0.07036,-0.0934516,0.145318,-0.123935,-0.0825704,0.0088501,0.0467682,0.0279999,0.00354767,0.0252533,0.00488281,-0.0415802,-0.0174332,-9.97986,0.0062561,0.00537872,0.134354,-1.09531,0.039444,-0.00198364,-0.0505829,-0.0136948
26,6,10.0097,0.000610352,-0.00778198,-2.4244,0.0559862,-0.0738423,0.0544332,0.0731066,-0.0919257,0.146844,-0.123935,-0.0844015,0.00514984,0.025444,0.0101471,0.0667572,0.0307465,-0.00637054,-0.0337982,-0.00835419,-9.97986,0.0183105,0.0038147,0.133514,-1.22292,0.0399017,-0.00411987,-0.0596237,-0.0117874
26,7,10.0097,0.000915527,-0.014801,-2.42653,0.0565965,-0.0738423,0.0535176,0.0633409,-0.0925361,0.145318,-0.123935,-0.0859274,0.00804901,-0.0025177,-0.00736237,0.155106,0.0401688,-0.00564575,-0.0341415,-0.00175476,-9.97986,0.0249481,-0.00267029,0.137825,-1.25,0.0249863,0.00236511,-0.0671005,-0.00843048
26,8,9.13533,0,-0.0141907,-2.42684,0.0565965,-0.0747579,0.0526021,0.00657824,-0.100471,0.143487,-0.129429,-0.0871481,0.00480652,-0.018158,-0.00400543,0.163651,0.0445938,-0.0241852,-0.030365,7.62939e-005,-9.97986,0.0226212,-0.00972748,0.129356,-1.25,0.0156403,-0.00225067,-0.0705338,-0.00934601
26,9,-0.221357,0.0012207,-0.0108337,-2.42562,0.0569017,-0.073232,0.0535176,-0.00776502,-0.0968086,0.145929,-0.130039,-0.0837911,0.00602722,-0.0199127,0.00793457,0.154343,0.0543976,-0.0362396,-0.0183868,0.00812531,-9.97986,0.0239182,-0.0230026,0.132904,-1.25,0.00793457,0.00522614,-0.0773239,-0.0136566
27,0,-7.69786,-0.000305176,-0.00930786,-2.42562,0.0565965,-0.0738423,0.054128,-0.0141737,-0.0968086,0.146844,-0.129429,-0.0828756,0.00526428,-0.0340652,0.0152969,0.109863,0.0609207,-0.0444031,-0.0152206,0.00808716,-9.97986,0.0222778,-0.0356293,0.130119,-1.25,-0.00545502,0.00389099,-0.0841904,-0.0128174
27,1,-9.99003,0.000305176,-0.00778198,-2.4244,0.0553758,-0.0747579,0.055959,0.0151232,-0.0928413,0.145929,-0.126987,-0.0816549,0.00629425,-0.0288391,0.00720978,0.0761414,0.0679016,-0.0574875,-0.0102997,0.0123596,-9.97986,0.0247192,-0.0363159,0.127869,-1.25,-0.0269699,0.00419617,-0.0921631,-0.0112915
27,2,-9.99003,-0.000610352,-0.00335693,-2.42501,0.0569017,-0.0744527,0.0556539,0.0456407,-0.090705,0.146234,-0.126682,-0.0819601,0.00808716,-0.0173569,0.0153351,0.109711,0.0811386,-0.0720596,-0.000343323,0.0127792,-9.97986,0.0220108,-0.0300598,0.127182,-1.25,-0.0484848,0.00473022,-0.0996399,-0.0145721
27,3,-9.99003,-0.0012207,-0.00686646,-2.42592,0.0553758,-0.0741475,0.0556539,0.0584581,-0.0922309,0.145929,-0.126377,-0.085317,0.00267029,-0.0104523,0.0174713,0.119171,0.0910187,-0.0850677,-0.000762939,0.0126266,-9.97986,0.0211716,-0.0219345,0.125923,-1.25,-0.0495529,0.0088501,-0.104752,-0.013504
27,4,-9.99003,0.000610352,-0.00991821,-2.42562,0.055681,-0.0738423,0.055959,0.0792101,-0.0897895,0.146234,-0.128818,-0.0844015,0.00526428,0.00358582,0.014801,0.0870514,0.095253,-0.0966263,0.00259399,0.0207138,-9.97986,0.0216675,-0.00801086,0.126572,-1.25,-0.0463867,0.00278473,-0.107346,-0.0134659
27,5,-8.79313,0.000610352,0.00320435,-2.42562,0.0544603,-0.0741475,0.0574849,0.135668,-0.0846015,0.145624,-0.12241,-0.0810445,0.00831604,0.0244904,-0.00331879,0.0764465,0.10601,-0.105133,0.00892639,0.0199509,-9.97986,0.0182724,-0.00953674,0.12455,-1.25,-0.0272751,0.00911713,-0.117798,-0.0132751
27,6,-1.04197,-0.00274658,0.0120544,-2.42776,0.0541551,-0.0753682,0.0553487,0.149706,-0.0873481,0.143792,-0.121799,-0.0822652,0.00801086,0.0421524,-0.0198364,0.0615692,0.112648,-0.110779,0.00675201,0.0180817,-9.97986,0.0178146,-0.00202179,0.122643,-1.25,-0.0269318,0.00938416,-0.121307,-0.0135422
27,7,6.85536,0.00183105,0.0105286,-2.42898,0.0544603,-0.0756734,0.0532125,0.153063,-0.0897895,0.143792,-0.12302,-0.0837911,0.0119019,0.0416183,-0.0339508,0.0515366,0.121307,-0.117073,0.0126266,0.0254822,-9.97986,0.0230026,0.00507355,0.124588,-1.25,-0.0283813,0.0116348,-0.125008,-0.0122833
27,8,10.0097,0,0.00534058,-2.43172,0.0535448,-0.0768941,0.050771,0.126207,-0.0961982,0.141656,-0.123935,-0.0883688,0.00881195,0.0300598,-0.043335,0.0395966,0.12661,-0.128517,0.0130081,0.0279999,-9.97986,0.0156021,-0.00267029,0.116615,-1.25,-0.0310516,0.00770569,-0.136528,-0.0149918
27,9,10.0097,0.000915527,0.00488281,-2.42867,0.0547655,-0.0765889,0.0495503,0.0908068,-0.0961982,0.142572,-0.126377,-0.0859274,0.0128937,0.0353622,-0.0330734,0.0371552,0.132179,-0.120888,0.0267792,0.0368881,-9.97986,0.0151062,-0.00846863,0.119095,-1.25,-0.0335312,0.0107193,-0.14122,-0.0113678
28,0,10.0097,0.000915527,0.012207,-2.42928,0.0535448,-0.0759786,0.0510762,0.0785997,-0.0952827,0.143487,-0.126072,-0.0840963,0.00694275,0.0375748,-0.0301361,0.0285339,0.134811,-0.118675,0.0326157,0.0432968,-9.97986,0.0135803,-0.0175476,0.119133,-1.25,-0.0342178,0.0168991,-0.143051,-0.0117111
28,1,10.0097,0.000610352,0.0100708,-2.42898,0.0541551,-0.0756734,0.0510762,0.0746324,-0.0955879,0.142877,-0.127598,-0.0844015,0.00709534,0.0130081,-0.0213623,0.017395,0.135956,-0.123215,0.0395584,0.0426865,-9.97986,0.0157928,-0.0119019,0.121422,-1.20979,-0.0395966,0.0188828,-0.151901,-0.0121689
28,2,10.0097,0.00152588,0.00946045,-2.42714,0.0538499,-0.0747579,0.0522969,0.0718859,-0.0937568,0.143792,-0.125766,-0.0819601,0.0106049,-0.00221252,-0.00709534,0.00774384,0.139656,-0.117073,0.0468826,0.0444412,-9.97986,0.0114059,-0.0107193,0.11673,-1.10485,-0.0419617,0.0218582,-0.159569,-0.0139999
28,3,10.0097,0,0.0125122,-2.42837,0.0541551,-0.0747579,0.0535176,0.0709703,-0.0931465,0.144098,-0.126072,-0.0813497,0.00526428,0.00167847,0.0120163,0.00392914,0.140495,-0.113182,0.0518036,0.0402832,-9.97986,0.0106049,-0.0418854,0.116501,-0.967522,-0.0497055,0.0157928,-0.163689,-0.0115204
28,4,10.0097,0,0.00732422,-2.42653,0.0553758,-0.0738423,0.0538228,0.0706652,-0.0937568,0.145318,-0.125766,-0.0816549,0.0109863,0.00862122,0.0203705,0.00476837,0.141258,-0.10582,0.0473022,0.0405121,-9.97986,0.0128937,-0.0403595,0.116539,-0.907631,-0.054245,0.0180054,-0.167999,-0.0128555
28,5,10.0097,0.00183105,0.0120544,-2.42562,0.0562914,-0.0738423,0.054128,0.0718859,-0.0919257,0.145929,-0.124241,-0.0770773,0.0114059,0.00907898,0.0208664,-0.00190735,0.144386,-0.103149,0.0426102,0.0344467,-9.97986,0.0118637,-0.0258255,0.114441,-0.746574,-0.0595856,0.0191116,-0.173187,-0.0107574
28,6,10.0097,0.0012207,0.015564,-2.42501,0.0565965,-0.0738423,0.0562642,0.072191,-0.0919257,0.146234,-0.126377,-0.0767721,0.00988007,0.0147629,0.0184631,-0.0018692,0.140076,-0.0988007,0.0440216,0.0354004,-9.97986,0.0126648,-0.0188065,0.111427,-0.569572,-0.0595093,0.0146103,-0.17334,-0.0117493
28,7,10.0097,0.000305176,0.015564,-2.42623,0.0565965,-0.075063,0.0544332,0.0621202,-0.0931465,0.146844,-0.125766,-0.0776876,0.00789642,0.0205612,0.017662,0.000686646,0.140839,-0.0899887,0.0345612,0.0307083,-9.97986,0.00705719,-0.00202179,0.112114,-0.413513,-0.0651169,0.0138474,-0.177116,-0.0107956
28,8,9.01753,0.000610352,0.0195313,-2.42714,0.055681,-0.075063,0.0513814,0.00596789,-0.100165,0.145013,-0.130039,-0.0773824,0.00968933,0.0278091,0.0202179,-0.00144958,0.132141,-0.0883865,0.0304794,0.0166321,-9.97986,0.00705719,0.0155258,0.106392,-0.140495,-0.0645447,0.00930786,-0.183754,-0.0158691
28,9,-0.300092,-0.000610352,0.0196838,-2.42592,0.0569017,-0.0735371,0.054128,-0.00776502,-0.0971137,0.145624,-0.128208,-0.0752462,0.0105667,0.0310516,0.0287247,-0.00362396,0.128975,-0.0866318,0.0294495,0.00522614,-9.97986,0.00747681,0.0166702,0.109215,0.125008,-0.0636673,0.0153351,-0.179596,-0.0153732
29,0,-7.87944,0.000305176,0.0178528,-2.42501,0.0547655,-0.0723164,0.0535176,-0.0150892,-0.0952827,0.147149,-0.129734,-0.0755514,0.0123596,0.0294113,0.0249863,-0.0167465,0.124283,-0.0878525,0.0366592,-0.0101471,-9.97986,0.00522614,0.00720978,0.104065,0.333824,-0.0592422,0.0162125,-0.184975,-0.0189209
29,1,-9.99003,0,0.0180054,-2.42501,0.0559862,-0.0738423,0.0556539,0.0135973,-0.0928413,0.145318,-0.128513,-0.074941,0.0130463,0.0127411,0.0056076,-0.00728607,0.120239,-0.0811768,0.0367737,-0.00499725,-9.97986,0.0106812,0.00778198,0.10067,0.55378,-0.0753021,0.0218964,-0.182495,-0.0176239
29,2,-9.99003,0.000915527,0.0210571,-2.42409,0.0569017,-0.0747579,0.0562642,0.0471666,-0.0910102,0.145013,-0.125461,-0.0743307,0.0112152,7.62939e-005,-0.0143051,0.0256729,0.123596,-0.0814819,0.0312424,0.0164795,-9.97986,0.0126648,0.014267,0.0971222,0.792809,-0.0880432,0.0208282,-0.187263,-0.0152969
29,3,-9.99003,0,0.0215149,-2.42592,0.0550706,-0.0747579,0.0550435,0.0590685,-0.0916206,0.145013,-0.125766,-0.0755514,0.0119019,-0.00450134,-0.0151825,0.0427246,0.115395,-0.0774002,0.0312042,0.0265503,-9.97986,0.020752,0.00492096,0.0925827,1.02055,-0.0824738,0.0194931,-0.180664,-0.0123215
29,4,-9.99003,0.00152588,0.0222778,-2.42592,0.0559862,-0.075063,0.0535176,0.0782946,-0.0885688,0.145013,-0.126072,-0.0761617,0.00827789,0.00179291,-0.00656128,0.0325394,0.103912,-0.0814056,0.0281143,0.0327682,-9.97986,0.0120544,-0.0112534,0.0883102,1.245,-0.0786972,0.0262833,-0.183983,-0.0139236
29,5,-9.19688,-0.000305176,0.0248718,-2.42531,0.055681,-0.0744527,0.0571797,0.134447,-0.0846015,0.144403,-0.12302,-0.0758566,0.00583649,0.0205231,0.00617981,0.00431061,0.0993347,-0.08564,0.0249481,0.0574493,-9.97986,0.0140381,-0.0128174,0.0868988,1.24996,-0.0592422,0.030098,-0.182381,-0.0108719
29,6,-1.23881,0.00152588,0.0262451,-2.42837,0.0544603,-0.075063,0.0550435,0.150316,-0.0870429,0.145013,-0.121189,-0.0773824,0.00705719,0.0213623,0.00476837,-0.0232315,0.0941849,-0.0900269,0.0213623,0.0773239,-9.97986,0.0167084,-0.0088501,0.0817871,1.24996,-0.0606537,0.0283051,-0.182381,-0.01091
29,7,6.68538,0.00152588,0.0263977,-2.42837,0.0535448,-0.0753682,0.0532125,0.152452,-0.090705,0.143792,-0.121494,-0.0795187,0.00370026,0.0409317,0.0236511,-0.0287247,0.0875092,-0.0916672,0.0252533,0.0721359,-9.97986,0.0155258,-0.00473022,0.0756836,1.24996,-0.0622177,0.0260544,-0.181007,-0.0100708
29,8,10.0097,0.000915527,0.0239563,-2.4305,0.0532396,-0.0765889,0.050771,0.126207,-0.095893,0.143792,-0.124851,-0.0828756,0.00522614,0.0539398,0.0365448,-0.00629425,0.0802994,-0.0912857,0.0251007,0.0540161,-9.97986,0.0082016,0.00602722,0.0750351,1.24996,-0.0580597,0.0253296,-0.17807,-0.0100327
29,9,10.0097,0,0.017395,-2.42989,0.0532396,-0.0765889,0.050771,0.0905016,-0.0986396,0.142877,-0.126072,-0.085317,0.00961304,0.07267,0.0344467,0.0189209,0.0759888,-0.0956345,0.0242615,0.022049,-9.97986,0.00152588,0.0198746,0.0701141,1.24996,-0.0594711,0.0219727,-0.174675,-0.0124359
30,0,10.0097,0,0.00640869,-2.4302,0.0547655,-0.0762837,0.0516866,0.0776842,-0.095893,0.143487,-0.127292,-0.0877584,0.00839233,0.079422,0.019722,0.0148773,0.0651169,-0.0964355,0.0294113,0.0117111,-9.97986,-0.00301361,0.02285,0.0633621,1.24996,-0.0608063,0.0205612,-0.169296,-0.00831604
30,1,10.0097,-0.00183105,-0.00518799,-2.42898,0.0535448,-0.0759786,0.050771,0.0737169,-0.0952827,0.143182,-0.126072,-0.0889791,0.00629425,0.0555801,0.0234222,0.000839233,0.0606155,-0.107231,0.0268555,0.0088501,-9.97986,-0.00865936,0.0111008,0.0601578,1.24996,-0.0567627,0.0201416,-0.163422,-0.0128937
30,2,10.0097,-0.00152588,-0.00701904,-2.42745,0.0553758,-0.075063,0.0522969,0.0724962,-0.0937568,0.145013,-0.125766,-0.0868429,0.00865936,0.0506973,0.0290298,-0.00747681,0.0489807,-0.109787,0.0177765,-0.0134277,-9.97986,-0.00450134,-0.000495911,0.0585938,1.24996,-0.0536346,0.0215912,-0.157166,-0.0120926
30,3,10.0097,-0.00335693,-0.00793457,-2.42684,0.0547655,-0.0753682,0.0513814,0.0712755,-0.094062,0.145013,-0.126072,-0.0868429,0.00839233,0.0592041,0.0271225,-0.00537872,0.0418472,-0.104866,0.0174332,-0.0460052,-9.97986,-0.00709534,-0.0166702,0.0540924,1.24996,-0.0491333,0.020752,-0.152245,-0.0118256
30,4,10.0097,0,-0.00518799,-2.42684,0.0553758,-0.075063,0.0535176,0.0712755,-0.0937568,0.144708,-0.125461,-0.085317,0.0149536,0.0494385,0.018692,-0.00579834,0.030365,-0.104294,0.0114822,-0.0861359,-9.97986,0.00133514,-0.0299072,0.0521469,1.24996,-0.0479126,0.0265884,-0.150948,-0.00965118
30,5,10.0097,0.0012207,-0.00778198,-2.42562,0.0565965,-0.0735371,0.0544332,0.0709703,-0.0925361,0.147149,-0.124851,-0.0844015,0.0190353,0.0598145,0.0253677,0.00156403,0.0229263,-0.106163,0.0135803,-0.0780487,-9.97986,0.0018692,-0.0317383,0.0460052,1.24996,-0.0471497,0.0226212,-0.148544,-0.0138855
30,6,10.0097,0.0012207,-0.0146484,-2.42562,0.0584276,-0.0735371,0.0544332,0.0715807,-0.0925361,0.146234,-0.124241,-0.0850118,0.0217819,0.0740051,0.0283051,-0.0056839,0.0166321,-0.0946426,0.0120544,-0.0116348,-9.97986,0.00827789,-0.026741,0.045929,1.24996,-0.0445938,0.0242615,-0.145149,-0.00843048
30,7,10.0097,0.000915527,-0.0138855,-2.42623,0.0562914,-0.0738423,0.054128,0.0639513,-0.0928413,0.145929,-0.124851,-0.0859274,0.0251007,0.0447845,0.0195313,-0.01091,0.0062561,-0.0948715,0.00686646,0.0143814,-9.97986,0.019455,-0.0173187,0.0466537,1.24996,-0.0370789,0.0244522,-0.134621,-0.011673
30,8,9.00624,-0.00183105,-0.0131226,-2.42745,0.0553758,-0.075063,0.0498555,0.00596789,-0.0998603,0.143487,-0.128513,-0.0871481,0.0147247,-0.0189972,0.00202179,-0.00782013,0.000572205,-0.0847244,0.0088501,0.0177002,-9.97986,0.0252151,0.0143433,0.0457001,1.24996,-0.0391006,0.0219345,-0.13504,-0.00888824
30,9,-0.140485,0.00183105,-0.01297,-2.42501,0.0565965,-0.0735371,0.0535176,-0.00837537,-0.0971137,0.145013,-0.129123,-0.0837911,0.0125122,-0.0750351,-0.0289917,-0.00087738,-0.0114059,-0.0839615,0.0178146,0.0274658,-9.97986,0.0351715,0.026474,0.0421143,1.18183,-0.0311661,0.0205231,-0.129242,-0.0114441
31,0,-7.82786,0.000610352,-0.0132751,-2.42501,0.0575121,-0.075063,0.0538228,-0.0150892,-0.0934516,0.145624,-0.13126,-0.0844015,0.0184631,-0.0827026,-0.0444031,0.0038147,-0.0192261,-0.0823212,0.0330734,0.0362015,-9.97986,0.0427628,0.0163651,0.034256,1.08974,-0.0301361,0.0172424,-0.124245,-0.0131989
31,1,-9.99003,0.00183105,-0.0140381,-2.4244,0.0562914,-0.0735371,0.0562642,0.0145128,-0.0934516,0.145929,-0.128208,-0.0837911,0.0199127,-0.0600433,-0.0357437,0.00999451,-0.0287628,-0.0843811,0.0403214,0.0294495,-9.97986,0.0489807,0.00499725,0.0341797,0.976906,-0.042038,0.0132751,-0.115776,-0.0111389
31,2,-9.99003,-0.00183105,-0.0108337,-2.42562,0.0553758,-0.0756734,0.055959,0.0459459,-0.0879585,0.14776,-0.127292,-0.0840963,0.0195694,-0.045166,-0.0252914,0.00858307,-0.0348663,-0.0850677,0.0370026,0.0206757,-9.97986,0.0502014,0.00476837,0.0352097,0.878868,-0.0475693,0.00606537,-0.108757,-0.00911713
31,3,-9.99003,0.000610352,-0.0120544,-2.42653,0.0553758,-0.0747579,0.0565694,0.059984,-0.0913154,0.146234,-0.126987,-0.0856222,0.0162125,-0.027771,-0.0113297,0.00614166,-0.0460052,-0.0865936,0.0214386,0.0557709,-9.97986,0.04879,0.00617981,0.0325012,0.736732,-0.0467682,0.00167847,-0.100784,-0.00846863
31,4,-9.99003,0.00274658,-0.0143433,-2.42592,0.0559862,-0.0735371,0.0556539,0.0843981,-0.0885688,0.145929,-0.123935,-0.0868429,0.0170898,-0.0146866,0.00141144,0.00389099,-0.0485611,-0.0874329,0.00358582,0.0992966,-9.97986,0.0441742,-0.0112152,0.0359344,0.572281,-0.0312805,-0.00106812,-0.0934219,-0.00843048
31,5,-8.86851,-0.000305176,-0.0112915,-2.42501,0.0544603,-0.0747579,0.0590108,0.135668,-0.0849067,0.145624,-0.121494,-0.0862325,0.0118256,-0.00335693,0.00473022,0.00724792,-0.059967,-0.0870514,-0.00278473,0.100098,-9.97986,0.0424576,-0.0246811,0.0304413,0.417137,-0.0128174,-0.0038147,-0.0834274,-0.00816345
31,6,-1.04045,0.00152588,-0.0108337,-2.42684,0.0529344,-0.0759786,0.0550435,0.149706,-0.0861274,0.145624,-0.121189,-0.0874532,0.00370026,-0.000495911,0.0120163,0.00862122,-0.0611115,-0.0857544,-0.00476837,0.0699997,-9.97986,0.0396729,-0.0162888,0.0304413,0.254745,-0.0030899,-0.000190735,-0.0782394,-0.00530243
31,7,6.79677,0.0012207,-0.0120544,-2.42806,0.0529344,-0.0753682,0.0532125,0.152452,-0.0900947,0.143182,-0.121189,-0.0895895,0.00602722,0.000801086,0.0156021,0.0075531,-0.0710678,-0.0885773,0.00621796,0.0513077,-9.97986,0.0306702,-0.00816345,0.028038,0.0883865,-0.00198364,-0.00427246,-0.0753784,-0.0111389
31,8,10.0097,0.00183105,-0.0114441,-2.43142,0.0535448,-0.0771993,0.0498555,0.125597,-0.0949775,0.142572,-0.124851,-0.0929464,0.00419617,0.00862122,0.0182343,0.00476837,-0.0805664,-0.096283,0.0232315,0.0381851,-9.97986,0.0150299,-0.0119781,0.026474,-0.060997,0.00385284,-0.00400543,-0.0655746,-0.0115585
31,9,10.0097,-0.000915527,-0.0132751,-2.42989,0.0523241,-0.0768941,0.050771,0.0905016,-0.0961982,0.143792,-0.125766,-0.0932516,0.0063324,0.0112534,0.0230026,0.01091,-0.0879288,-0.0906372,0.0294495,0.0165558,-9.97986,0.00511169,-0.00865936,0.0276947,-0.20195,0.0117111,-0.00335693,-0.0601959,-0.0116348
32,0,10.0097,-0.0012207,-0.0157166,-2.4302,0.0535448,-0.0756734,0.0510762,0.0795153,-0.0965034,0.143792,-0.126987,-0.0920309,0.0143814,0.0133514,0.0310135,0.00400543,-0.0912094,-0.0960541,0.0350952,0.0131607,-9.97986,0.00221252,-0.00793457,0.0247192,-0.364532,0.0111389,-0.0109863,-0.0502014,-0.0113297
32,1,10.0097,-0.00183105,-0.015564,-2.42989,0.0526292,-0.0756734,0.0519917,0.0724962,-0.0949775,0.145624,-0.126682,-0.090505,0.0114059,0.0223923,0.0380707,0.0050354,-0.0895691,-0.104942,0.0278473,-0.0186539,-9.97986,-0.00160217,0.00171661,0.0250244,-0.527725,0.0175858,-0.0137329,-0.0437927,-0.0107956
32,2,10.0097,0.000610352,-0.0141907,-2.42776,0.0544603,-0.075063,0.0532125,0.072191,-0.0943672,0.145013,-0.126377,-0.0892843,0.0139999,0.0218964,0.0474548,-0.00175476,-0.0824738,-0.108261,0.0315475,-0.0367737,-9.97986,-0.00701904,0.0108719,0.0252533,-0.658302,0.0211334,-0.0156784,-0.0383377,-0.0102997
32,3,10.0097,0.000305176,-0.0125122,-2.42806,0.0550706,-0.075063,0.0529073,0.0718859,-0.0928413,0.145318,-0.126377,-0.0883688,0.0229263,0.0280762,0.0613785,-0.00892639,-0.0757599,-0.10704,0.0227737,-0.00305176,-9.97986,-0.00221252,0.0142288,0.0193405,-0.772972,0.0202942,-0.0188446,-0.0327682,-0.00976563
32,4,10.0097,-0.00213623,-0.0109863,-2.42623,0.0529344,-0.0744527,0.0532125,0.0724962,-0.0922309,0.145624,-0.124546,-0.0865377,0.0249481,0.0262833,0.0598145,-0.0197601,-0.0757599,-0.107307,0.0111389,0.0208664,-9.97986,0.00793457,0.0196457,0.0162506,-0.876083,0.0237274,-0.0136948,-0.0246811,-0.0102997
32,5,10.0097,0.00183105,-0.0088501,-2.42623,0.0559862,-0.0735371,0.0544332,0.0709703,-0.0913154,0.146844,-0.125461,-0.0844015,0.02491,0.0402069,0.0538635,-0.0344086,-0.0725174,-0.109253,0.00137329,-0.00858307,-9.97986,0.00648499,0.0285339,0.00930786,-0.955734,0.0227356,-0.0165558,-0.0196075,-0.0133514
32,6,10.0097,0.000305176,-0.00778198,-2.42562,0.0559862,-0.0738423,0.0544332,0.0712755,-0.0928413,0.146539,-0.12363,-0.0834859,0.0228119,0.0354385,0.0563049,-0.0458145,-0.0769424,-0.104828,0.00736237,-0.028038,-9.97986,0.00980377,0.0415802,0.00862122,-1.01768,0.0224686,-0.0157166,-0.014267,-0.0116348
32,7,10.0097,0.00152588,-0.00686646,-2.42592,0.0559862,-0.0738423,0.0547383,0.0630358,-0.0934516,0.146844,-0.125461,-0.0837911,0.0140381,0.030899,0.0536346,-0.0517273,-0.0727844,-0.104485,0.00400543,-0.0262833,-9.97986,0.0226593,0.0504303,0.0117493,-1.08971,0.0226974,-0.0121307,-0.00427246,-0.0075531
32,8,8.98091,0.000915527,-0.00869751,-2.42806,0.0553758,-0.0756734,0.0501607,0.00474719,-0.100165,0.146234,-0.129123,-0.085317,0.0113678,0.04673,0.0516891,-0.0561142,-0.0786591,-0.0971985,0.00728607,-0.0154114,-9.97986,0.019722,0.0585556,0.0112534,-1.15955,0.0221252,-0.0172043,0.00106812,-0.0037384
32,9,-0.25218,-0.000305176,-0.0106812,-2.42623,0.0559862,-0.0747579,0.0532125,-0.0102064,-0.0974189,0.14837,-0.129123,-0.0834859,0.0117874,0.0570679,0.0498199,-0.0570679,-0.073204,-0.0971603,-0.00164032,-0.00263214,-9.97986,0.018425,0.0605774,0.00751495,-1.22253,0.0217819,-0.0190735,0.00621796,-0.000686646
33,0,-7.86937,0,-0.0119019,-2.42623,0.0569017,-0.0741475,0.0547383,-0.0163099,-0.0961982,0.148065,-0.130344,-0.0834859,0.0110245,0.0674438,0.0433731,-0.0671387,-0.0707626,-0.0926971,0.00747681,-0.0171661,-9.97986,0.0156784,0.0497055,0.00587463,-1.25,0.0236511,-0.0185013,0.0160599,0.00114441
33,1,-9.99003,0,-0.00946045,-2.42501,0.0559862,-0.0729268,0.0562642,0.014818,-0.0913154,0.145929,-0.127598,-0.0825704,0.0115967,0.0439453,0.027771,-0.0576401,-0.0642014,-0.0906754,0.015831,-0.0250244,-9.97986,0.0216293,0.0672913,0.00213623,-1.25,0.00835419,-0.0182343,0.0239563,-0.00106812
33,2,-9.99003,-0.000305176,-0.00717163,-2.4247,0.0559862,-0.0744527,0.0550435,0.0459459,-0.0894843,0.145013,-0.126987,-0.0822652,0.010376,0.000190735,0.0235367,-0.00167847,-0.0665283,-0.0858688,0.0208664,-0.0218964,-9.97986,0.0259399,0.0774384,-0.001297,-1.25,-0.00785828,-0.017128,0.0292969,-0.00972748
33,3,-9.99003,-0.000305176,-0.00518799,-2.42684,0.055681,-0.0741475,0.0553487,0.0612047,-0.0913154,0.146844,-0.125766,-0.0850118,0.0120544,0.0153732,0.0200272,0.0378799,-0.0556183,-0.0727463,0.0243378,-0.0265884,-9.97986,0.020752,0.063858,-0.00682831,-1.25,-0.00621796,-0.0192261,0.0355911,-0.0124741
33,4,-9.99003,-0.000305176,-0.00366211,-2.42623,0.055681,-0.0744527,0.0553487,0.0798204,-0.0885688,0.145624,-0.124546,-0.0831808,0.0131226,0.0159836,0.0131607,0.0382233,-0.0490952,-0.068779,0.017662,-0.030365,-9.97986,0.027504,0.0347519,-0.00221252,-1.25,-0.000305176,-0.0178528,0.0408554,-0.0141907
33,5,-8.81297,0,0.00106812,-2.42501,0.0541551,-0.075063,0.0571797,0.138109,-0.0839912,0.144708,-0.121494,-0.0831808,0.0135422,-0.0135803,0.0104141,0.0359726,-0.0510025,-0.056839,0.0159073,-0.0216675,-9.97986,0.0344849,-0.00717163,0.00354767,-1.25,0.0217819,-0.0158691,0.0510406,-0.014801
33,6,-0.995588,0.00244141,0.0038147,-2.42684,0.0550706,-0.0759786,0.0556539,0.151232,-0.0870429,0.145013,-0.121189,-0.0837911,0.0111771,-0.00991821,0.0114441,0.0278854,-0.0580597,-0.0456238,0.0130844,-0.0244141,-9.97986,0.0331879,-0.0553513,0.022583,-1.25,0.0247192,-0.0153732,0.057373,-0.0104904
33,7,6.96462,0.00152588,0.00411987,-2.42837,0.0535448,-0.0756734,0.054128,0.152452,-0.0910102,0.143792,-0.121494,-0.0859274,0.0107193,-0.01297,0.02388,0.0184631,-0.0629044,-0.0285339,0.0141907,-0.0273895,-9.97986,0.0281143,-0.0941086,0.0311661,-1.25,0.019722,-0.0220871,0.0628281,-0.00988007
33,8,10.0097,0.00183105,0.0050354,-2.4305,0.0532396,-0.0771993,0.050771,0.124376,-0.0949775,0.142877,-0.12363,-0.0877584,0.0122833,-0.0125885,0.0387192,0.0348663,-0.0616074,-0.0126266,0.00602722,-0.0191116,-9.97986,0.0226212,-0.08358,0.0348663,-1.25,0.0185013,-0.0181198,0.0686264,-0.00923157
33,9,10.0097,0.00152588,0.00473022,-2.4305,0.0541551,-0.0759786,0.0498555,0.0911119,-0.0971137,0.144403,-0.126072,-0.0877584,0.00804901,0.00179291,0.0426483,0.0839615,-0.0611496,-0.00354767,0.00740051,-0.0219345,-9.97986,0.0231934,-0.0762939,0.0198746,-1.25,0.0243378,-0.0183868,0.0775909,-0.00450134
34,0,10.0097,0.000610352,0.00305176,-2.42928,0.0541551,-0.0759786,0.050771,0.0776842,-0.0949775,0.144403,-0.126377,-0.0862325,0.00789642,0.0104141,0.0468826,0.103455,-0.0619507,0.0105667,0.00873566,-0.0258255,-9.97986,0.0175095,-0.081749,0.00896454,-1.25,0.0180435,-0.0215912,0.0817108,-0.00209808
34,1,10.0097,0.00183105,0.00366211,-2.42837,0.0544603,-0.0756734,0.0526021,0.0734117,-0.0946723,0.144708,-0.126987,-0.085317,0.00423431,0.0320435,0.046463,0.0871658,-0.0607681,0.0232697,0.00541687,-0.00827789,-9.97986,0.0201035,-0.0694656,0.0128174,-1.25,0.0226974,-0.0209808,0.0888062,0.00873566
34,2,10.0097,0.000610352,0.00427246,-2.42806,0.0541551,-0.0753682,0.0535176,0.0724962,-0.0937568,0.144098,-0.126072,-0.0847066,0.00400543,0.0352478,0.0361633,0.0649643,-0.0547409,0.0320435,0.00225067,0.00476837,-9.97986,0.0155258,-0.0576019,-3.8147e-005,-1.23745,0.0272751,-0.0199127,0.09655,0.012207
34,3,10.0097,0.0012207,0.00427246,-2.42684,0.0559862,-0.0741475,0.0535176,0.0709703,-0.0937568,0.145624,-0.125461,-0.0837911,0.00240326,0.0175476,0.0205612,0.049324,-0.0582504,0.0405502,0.00461578,0.0101089,-9.97986,0.0165939,-0.0295639,-0.00923157,-1.20495,0.0244522,-0.019722,0.102577,0.00400543
34,4,10.0097,-0.0012207,0.00335693,-2.42806,0.0547655,-0.075063,0.0544332,0.0712755,-0.0928413,0.145624,-0.126377,-0.0825704,0.00644684,0.00911713,0.0211334,0.0533295,-0.0595474,0.0447083,0.0117874,0.0139236,-9.97986,0.021286,-0.0188828,-0.0181961,-1.1734,0.0255585,-0.0102615,0.107727,0.00846863
34,5,10.0097,0.000610352,0.00350952,-2.42531,0.0572069,-0.0744527,0.0538228,0.072191,-0.0922309,0.146844,-0.124241,-0.0816549,0.00297546,0.0307846,0.0232697,0.0436401,-0.059967,0.0434113,0.0125504,0.0189209,-9.97986,0.0153732,-0.0219345,-0.0315475,-1.14212,0.0281143,-0.00965118,0.112419,0.000228882
34,6,10.0097,-0.000915527,0.00228882,-2.42623,0.0572069,-0.0747579,0.0547383,0.0718859,-0.0919257,0.146844,-0.12363,-0.0798238,0.00133514,0.0676346,0.00991821,0.0267029,-0.0635529,0.0453949,0.0156403,0.0282669,-9.97986,0.0138092,-0.0379181,-0.0268173,-1.11763,0.0230408,-0.00713348,0.12619,-0.010643
34,7,10.0097,0.000305176,0.00259399,-2.42531,0.0550706,-0.0741475,0.054128,0.0621202,-0.0931465,0.146539,-0.124851,-0.0804342,0.00408173,0.0867462,-0.0115967,0.00324249,-0.0599289,0.0428391,0.0104523,0.0548172,-9.97986,0.0153351,-0.0541306,-0.0150681,-1.09055,0.0170898,-0.00804901,0.121346,-0.0144196
34,8,8.94124,-0.000305176,0.00167847,-2.42714,0.0565965,-0.073232,0.050771,0.00535754,-0.0995551,0.146539,-0.130039,-0.0831808,0.00450134,0.0645828,-0.0403214,0.00167847,-0.0605774,0.0485992,0.0120926,0.0784683,-9.97986,0.0137711,-0.0423431,-0.00663757,-1.04992,0.0222778,-0.00740051,0.121002,-0.00896454
34,9,-0.196027,0.00305176,-0.000457764,-2.42684,0.0559862,-0.0738423,0.0547383,-0.00898572,-0.0977241,0.146539,-0.129734,-0.0786031,0.00610352,0.0345993,-0.0416565,0.0227356,-0.0544357,0.0617981,0.0129318,0.0879669,-9.97986,0.0153351,-0.0282669,-0.00614166,-1.01196,0.0217056,-0.0135422,0.115471,0.000457764
35,0,-7.89439,0.0012207,0.000305176,-2.42653,0.0550706,-0.0729268,0.0547383,-0.0135634,-0.0965034,0.143792,-0.129429,-0.080129,0.0127411,0.0299072,-0.0201416,0.0380707,-0.0509644,0.0661469,0.0123596,0.096283,-9.97986,0.013504,-0.0180435,-0.00938416,-0.957413,0.0300598,-0.0131607,0.119934,-0.00278473
35,1,-9.99003,0.00152588,0.00244141,-2.4247,0.0565965,-0.0738423,0.0556539,0.0151232,-0.0922309,0.146539,-0.127292,-0.0795187,0.0123215,0.0295258,0.0102234,0.0428772,-0.0477219,0.0698853,0.0182724,0.0933838,-9.97986,0.00869751,-0.019989,-0.0217438,-0.88665,0.0172043,-0.0157166,0.117455,-0.00236511
35,2,-9.99003,0.00183105,0.00534058,-2.42531,0.0559862,-0.075063,0.0550435,0.0456407,-0.0897895,0.146234,-0.127292,-0.0795187,0.0144577,0.0469589,0.0275421,0.0413132,-0.0444794,0.0622559,0.0162506,0.122757,-9.97986,0.00999451,-0.0189209,-0.0278091,-0.828171,-0.00576019,-0.0185776,0.108414,-0.00453949
35,3,-9.99003,0,0.00457764,-2.42684,0.0547655,-0.0753682,0.054128,0.0584581,-0.0919257,0.145318,-0.126682,-0.0807394,0.0133133,0.0436401,0.0299454,0.0328445,-0.0314331,0.0675583,0.0107193,0.151558,-9.97986,0.00320435,-0.0198364,-0.0291824,-0.776787,-0.00232697,-0.0136948,0.114937,-0.00686646
35,4,-9.99003,0.00152588,0.00442505,-2.42501,0.0553758,-0.0759786,0.055959,0.0816515,-0.0885688,0.145318,-0.124241,-0.0807394,0.0141144,0.0402832,0.00038147,0.0219727,-0.0267792,0.0703812,0.00961304,0.148277,-9.97986,0.00461578,-0.0173187,-0.0352097,-0.743179,0.00389099,-0.0138474,0.121231,-0.00774384
35,5,-8.65031,0.000305176,0.00732422,-2.42531,0.0544603,-0.0744527,0.055959,0.137499,-0.0827705,0.145013,-0.120578,-0.0798238,0.0069046,0.0331879,-0.0159454,0.02388,-0.0167084,0.0691605,0.00228882,0.0947952,-9.97986,0.00427246,0.00232697,-0.0378418,-0.702934,0.0102234,-0.0176239,0.125046,-0.00289917
35,6,-0.791731,0.000610352,0.00762939,-2.42592,0.0541551,-0.0747579,0.0556539,0.150316,-0.0876533,0.144708,-0.121494,-0.0837911,0.00350952,0.0254822,-0.0222778,0.017128,-0.00370026,0.0687027,0.00591278,0.0372696,-9.97986,0.00652313,0.0256348,-0.0325394,-0.666962,0.0120926,-0.0260162,0.120316,-0.0019455
35,7,7.12758,0.000305176,0.00732422,-2.42867,0.0550706,-0.0762837,0.0535176,0.153063,-0.0894843,0.142572,-0.121494,-0.0844015,-0.00301361,0.00530243,-0.0311279,0.0217438,0.000724792,0.073967,0.00179291,0.0191116,-9.97986,0.00297546,0.0419617,-0.0139618,-0.638351,0.00991821,-0.0222778,0.123367,-0.000915527
35,8,10.0097,-0.000915527,0.00610352,-2.43142,0.0523241,-0.0765889,0.050771,0.123766,-0.0952827,0.141961,-0.124546,-0.0883688,-0.00858307,-0.00526428,-0.0125885,0.0276184,0.00831604,0.0797272,0.00221252,0.0088501,-9.97986,-0.00667572,0.0511169,-0.0216675,-0.618973,0.014801,-0.0194168,0.123062,0.00175476
35,9,10.0097,0.0012207,0.00305176,-2.42837,0.0535448,-0.0768941,0.0513814,0.0898912,-0.0971137,0.143182,-0.126072,-0.0883688,0.00556946,0.00930786,0.0129318,0.0272369,0.0104523,0.0789261,0.00392914,0.0189209,-9.97986,-0.0115204,0.0601578,-0.0300598,-0.605812,0.0162125,-0.0149536,0.123482,0.00545502
36,0,10.0097,0.00244141,0.00228882,-2.42806,0.0532396,-0.075063,0.050771,0.0785997,-0.095893,0.143487,-0.126377,-0.0874532,0.017662,0.0226974,0.0234222,0.0245667,0.0143814,0.0772095,-0.00114441,0.047226,-9.97986,-0.0217438,0.0733185,-0.0314331,-0.576057,0.0180817,-0.00667572,0.121346,0.00396729
36,1,10.0097,0.00244141,0.00228882,-2.42867,0.0541551,-0.0759786,0.0519917,0.0728014,-0.0968086,0.144098,-0.126682,-0.0859274,0.0230789,0.0383759,0.0333405,0.022049,0.018425,0.0787354,0.0025177,0.0500107,-9.97986,-0.0193787,0.0834274,-0.0354004,-0.55706,0.020256,-0.00461578,0.121956,0.00713348
36,2,10.0097,0.000610352,0.000915527,-2.42745,0.0538499,-0.0759786,0.0535176,0.0715807,-0.094062,0.145013,-0.126377,-0.0847066,0.0123978,0.0418472,0.0413513,-0.00965118,0.0209808,0.0835037,0.00343323,0.0341034,-9.97986,-0.0229263,0.0865555,-0.0317383,-0.552559,0.0193024,-0.0175476,0.121918,0.00617981
36,3,10.0097,0.000610352,0.000457764,-2.42684,0.0550706,-0.0747579,0.0535176,0.0706652,-0.0937568,0.145624,-0.125461,-0.0847066,0.0082016,0.0422287,0.0421906,-0.0539017,0.0226593,0.0834656,0.00518799,0.0205231,-9.97986,-0.0199127,0.0613022,-0.0384521,-0.561371,0.0226212,-0.0195313,0.120697,0.00740051
36,4,10.0097,-0.0012207,-0.000152588,-2.42653,0.0550706,-0.0744527,0.0532125,0.0712755,-0.0943672,0.145318,-0.125156,-0.0831808,0.00259399,0.0539017,0.0459671,-0.0831985,0.0228882,0.0851059,0.00274658,0.00648499,-9.97986,-0.0120544,0.0358963,-0.0307083,-0.5653,0.0264359,-0.0187683,0.11528,0.0117874
36,5,10.0097,0.0012207,0.000457764,-2.4247,0.0559862,-0.0729268,0.0547383,0.0712755,-0.0919257,0.145929,-0.124546,-0.0819601,0.00152588,0.0498962,0.0429916,-0.0992584,0.0279236,0.0842667,0.00301361,0.00961304,-9.97986,-0.013237,0.0198364,-0.0309372,-0.559158,0.0272369,-0.0205994,0.120239,0.0114822
36,6,10.0097,0.0012207,0.000915527,-2.42501,0.0572069,-0.0744527,0.0547383,0.0715807,-0.090705,0.146234,-0.124241,-0.0804342,0.00591278,0.0438309,0.0486755,-0.11322,0.0270081,0.0822449,0.00610352,0.0094223,-9.97986,-0.0213623,0.00591278,-0.0352859,-0.555534,0.0319672,-0.0201797,0.11879,0.0147629
36,7,10.0097,0,0.000762939,-2.42592,0.0550706,-0.075063,0.0538228,0.0621202,-0.0934516,0.146844,-0.124546,-0.0810445,0.0103378,0.0587082,0.0564957,-0.211182,0.0307465,0.0807953,0.00164032,-0.0171661,-9.97986,-0.0250626,0.0111008,-0.0318527,-0.545616,0.0351715,-0.0164032,0.111237,0.0154114
36,8,8.98732,0.000305176,-0.000915527,-2.42714,0.0550706,-0.0747579,0.050771,0.00444201,-0.100165,0.146234,-0.130039,-0.0847066,0.0152206,0.0876999,0.0626755,-0.253372,0.0314713,0.0784683,0.00827789,-0.00793457,-9.97986,-0.0234985,0.0247192,-0.031662,-0.525017,0.0379562,-0.0120926,0.105705,0.0149918
36,9,-0.185652,0.00152588,-0.00137329,-2.42653,0.0562914,-0.0735371,0.0535176,-0.00898572,-0.0983344,0.146844,-0.129429,-0.0804342,0.0152969,0.0968933,0.0559616,-0.125122,0.0305557,0.0783157,0.00804901,0.0151825,-9.97986,-0.0210953,0.0251007,-0.0309372,-0.492821,0.0518036,-0.00331879,0.108719,0.0154114
37,0,-7.81596,0.0012207,-0.00167847,-2.4244,0.0572069,-0.073232,0.054128,-0.0147841,-0.0949775,0.145318,-0.130039,-0.0810445,0.0158691,0.033493,0.0625229,-0.0149155,0.0321198,0.0808716,0.00389099,0.0200653,-9.97986,-0.0108719,0.0254822,-0.030899,-0.472946,0.0548553,0.00457764,0.10334,0.0182343
37,1,-9.99003,0.000305176,-0.000305176,-2.42409,0.0553758,-0.0723164,0.0553487,0.0157335,-0.0919257,0.147149,-0.127598,-0.0798238,0.0163651,0.0235367,0.0714493,0.0312042,0.0310898,0.0814056,0.00236511,0.0292969,-9.97986,0.000801086,0.0308228,-0.0312424,-0.430946,0.0550079,0.0056076,0.100899,0.0163651
37,2,-9.99003,0.000610352,0.00305176,-2.4244,0.055681,-0.0741475,0.055959,0.049608,-0.0885688,0.144403,-0.126072,-0.0792135,0.0212479,0.0613022,0.0787735,0.00522614,0.0305176,0.0815582,-0.00152588,0.00289917,-9.97986,0.0156021,0.0377655,-0.0318527,-0.384521,0.0475693,0.0118256,0.100899,0.0147629
37,3,-9.99003,0.000610352,0.00411987,-2.42592,0.0544603,-0.0741475,0.0544332,0.0593737,-0.090705,0.144098,-0.126072,-0.0813497,0.0252914,0.00770569,0.0871277,-0.0142288,0.0344467,0.0819397,0.00114441,-0.038681,-9.97986,0.0371933,0.0370789,-0.0310135,-0.343285,0.055809,0.0148392,0.0997162,0.0196838
37,4,-9.99003,0.00335693,0.00595093,-2.4247,0.055681,-0.0744527,0.0565694,0.0816515,-0.0891792,0.145624,-0.125156,-0.0807394,0.038414,-0.0252914,0.092926,0.00728607,0.0389481,0.0762939,0.00450134,-0.0312424,-9.97986,0.0533676,0.022049,-0.0313568,-0.272903,0.075264,0.0110626,0.0970459,0.019455
37,5,-8.50261,-0.000305176,0.00701904,-2.42501,0.0544603,-0.0756734,0.0577901,0.137499,-0.0846015,0.145013,-0.120884,-0.0813497,0.0378036,-0.0204468,0.0819778,0.0521088,0.0374985,0.0825119,0.00545502,-0.0218964,-9.97986,0.0553131,-0.00545502,-0.0294876,-0.238152,0.0849915,0.00930786,0.0947571,0.0201416
37,6,-0.798444,0.000915527,0.00473022,-2.42653,0.0535448,-0.0756734,0.0556539,0.150621,-0.0879585,0.144403,-0.121189,-0.0837911,0.0190735,-0.0384903,0.0566101,0.0942612,0.0365067,0.075531,0.00175476,-0.0632477,-9.97986,0.0512314,-0.0246811,-0.028038,-0.235443,0.0928116,0.000343323,0.0889969,0.020752
37,7,7.10744,-0.000915527,0.00793457,-2.42959,0.0538499,-0.0729268,0.0544332,0.154283,-0.0894843,0.144403,-0.121494,-0.0844015,0.00404358,-0.0239944,0.0439072,0.0759888,0.0392914,0.0764465,0.00461578,-0.0827408,-9.97986,0.046463,-0.0264359,-0.0305557,-0.190773,0.0957108,-0.0136566,0.08564,0.0191498
37,8,10.0097,0.000610352,0.00717163,-2.4305,0.0532396,-0.0765889,0.0495503,0.124376,-0.0952827,0.143792,-0.124851,-0.0880636,-0.000953674,0.0157547,0.0341797,0.0499725,0.0374603,0.0694656,0.0069046,-0.0659943,-9.97986,0.0428391,-0.0044632,-0.0272751,-0.165634,0.0998688,-0.0101471,0.0858307,0.0160599
37,9,10.0097,0.000305176,0.00488281,-2.43081,0.0526292,-0.0775044,0.0510762,0.0901964,-0.0977241,0.144098,-0.127292,-0.0874532,-0.000648499,0.0743484,0.0217438,0.0921249,0.0408936,0.0749588,0.0143051,-0.0492859,-9.97986,0.0349045,0.0101471,-0.0284958,-0.130882,0.103416,-0.00423431,0.0829697,0.0162506
38,0,10.0097,-0.000915527,0.00457764,-2.42898,0.0529344,-0.0775044,0.0504659,0.0792101,-0.0955879,0.144403,-0.126987,-0.0865377,0.00602722,0.0827408,0.00743866,0.145149,0.0382614,0.069046,0.00514984,-0.0493622,-9.97986,0.0312042,0.0143814,-0.0287628,-0.0824356,0.107765,0.00621796,0.0828552,0.017662
38,1,10.0097,0.0012207,0.00167847,-2.42806,0.0529344,-0.0756734,0.0522969,0.0737169,-0.0949775,0.145318,-0.126377,-0.085317,0.00812531,0.0461197,0.0111771,0.180588,0.0366974,0.0643921,0.000534058,-0.0167465,-9.97986,0.034523,0.0233078,-0.0266647,-0.0771713,0.112076,0.0157928,0.0775528,0.0193024
38,2,10.0097,0.0012207,0.00366211,-2.42776,0.055681,-0.0747579,0.0532125,0.0715807,-0.0937568,0.143792,-0.125766,-0.0844015,0.00892639,0.0190353,0.0180435,0.168571,0.041275,0.067215,0.00564575,0.0416946,-9.97986,0.0321579,0.0403976,-0.0246429,-0.0397873,0.112152,0.0190353,0.0716782,0.0165176
38,3,10.0097,0.00213623,0.00442505,-2.42653,0.0553758,-0.0735371,0.0535176,0.0712755,-0.0931465,0.144098,-0.125156,-0.0831808,0.00808716,-0.00167847,-0.00484467,0.138359,0.0387955,0.0704575,0.00980377,0.0886154,-9.97986,0.0431442,0.0541687,-0.0289154,0.0109482,0.114326,0.0211716,0.0720596,0.0190735
38,4,10.0097,0,0.0038147,-2.42745,0.0553758,-0.0735371,0.054128,0.07036,-0.0922309,0.143487,-0.125461,-0.0828756,-0.00179291,-0.0180435,-0.0277328,0.113182,0.0389099,0.068779,0.0141144,0.117302,-9.97986,0.0481796,0.031929,-0.0267792,0.0366592,0.113716,0.0105286,0.0673676,0.0172806
38,5,10.0097,-0.000610352,0.00320435,-2.42592,0.0559862,-0.0741475,0.054128,0.0709703,-0.0910102,0.144708,-0.125156,-0.0810445,-0.00785828,-0.0147247,-0.0337219,0.0784302,0.0444031,0.0749588,0.0129318,0.10643,-9.97986,0.042038,0.00862122,-0.0252914,0.0585938,0.117874,-0.00396729,0.0609589,0.018959
38,6,10.0097,0.000610352,0.00289917,-2.42379,0.055681,-0.073232,0.0556539,0.0718859,-0.0922309,0.145624,-0.124241,-0.080129,0.0135803,-0.00255585,-0.0311279,0.0438309,0.0485611,0.07061,0.0224304,0.0693893,-9.97986,0.0410461,0.0131989,-0.0176239,0.0785828,0.123634,0.00286102,0.0635147,0.0233078
38,7,10.0097,-0.0012207,0.00183105,-2.42623,0.055681,-0.0747579,0.0529073,0.0602892,-0.0931465,0.145929,-0.124851,-0.0825704,0.0191498,-7.62939e-005,-0.0361633,0.0323486,0.0414276,0.047226,0.0181198,0.0155258,-9.97986,0.0304413,0.00663757,-0.0245667,0.0934601,0.11055,-0.00244141,0.0504684,0.0160599
38,8,8.77797,-0.000305176,0.000762939,-2.42806,0.055681,-0.075063,0.0513814,0.00322131,-0.0995551,0.143182,-0.130039,-0.0840963,0.0333023,0.0188446,-0.0200272,0.0517654,0.0502014,0.0429535,0.0290298,0.00183105,-9.97986,0.0325394,0.0202179,-0.021019,0.11673,0.122299,0.000457764,0.0498962,0.0200653
38,9,-0.387983,0.000305176,-0.00259399,-2.42592,0.0572069,-0.0738423,0.0538228,-0.0123427,-0.0980293,0.146234,-0.129429,-0.0819601,0.0234985,0.0241852,-0.0156403,0.0600052,0.0479126,0.0361633,0.0236893,0.0175095,-9.97986,0.0244904,0.0235367,-0.0178909,0.130081,0.117111,-0.00827789,0.0474167,0.0214386
39,0,-8.14738,-0.000915527,-0.00305176,-2.42562,0.055681,-0.0738423,0.0550435,-0.0150892,-0.0968086,0.146234,-0.130649,-0.0804342,0.0189972,0.0312805,-0.0222778,0.095253,0.050087,0.0314713,0.0187302,0.0113678,-9.97986,0.0141144,0.0588226,-0.0117111,0.147324,0.116615,-0.00213623,0.0428009,0.0208664
39,1,-9.99003,0.000305176,-0.000915527,-2.4244,0.0559862,-0.0729268,0.0565694,0.0157335,-0.0931465,0.147455,-0.128208,-0.080129,0.0235367,0.0306702,-0.025444,0.107193,0.048027,0.0336456,0.0219345,-0.00564575,-9.97986,0.00709534,0.0749588,-0.0139236,0.166359,0.0997543,0.001297,0.0455475,0.0240707
39,2,-9.99003,0.0012207,0.000152588,-2.42531,0.055681,-0.0741475,0.0550435,0.0474718,-0.0913154,0.146234,-0.126377,-0.0810445,0.0170517,0.034523,-0.0179291,0.075531,0.0566483,0.0293732,0.0214767,-0.00270844,-9.97986,-0.00328064,0.0603485,-0.0056839,0.185089,0.0958633,0.0056839,0.045929,0.0268173
39,3,-9.99003,0.0012207,0.00213623,-2.42592,0.0544603,-0.075063,0.0556539,0.0605944,-0.0910102,0.144403,-0.125461,-0.0810445,0.00114441,0.0487137,-0.00694275,0.0340652,0.0536728,0.0353622,0.0178146,0.0643539,-9.97986,-0.0115967,0.0763702,-0.00770569,0.206337,0.0870514,0.000801086,0.0403214,0.021286
39,4,-9.99003,0.000915527,0.00152588,-2.42623,0.0550706,-0.0741475,0.055959,0.0798204,-0.0894843,0.147455,-0.124851,-0.0822652,-0.00644684,0.0628662,0.001297,0.016098,0.0583649,0.0370789,0.0216675,0.12558,-9.97986,-0.0110245,0.114365,-0.0030899,0.221252,0.0894165,-0.00461578,0.0349045,0.0242615
39,5,-8.53648,0.00152588,0.00442505,-2.42592,0.0547655,-0.0738423,0.0565694,0.137804,-0.0849067,0.145318,-0.122104,-0.0810445,-0.0153351,0.0572205,0.01091,-0.0230789,0.062027,0.0371933,0.0255203,0.112152,-9.97986,-0.0196838,0.0759888,-0.0043869,0.24498,0.103989,-0.00518799,0.0322342,0.0266647
39,6,-0.816145,-0.00183105,0.00564575,-2.42745,0.0538499,-0.0753682,0.0550435,0.150621,-0.0867378,0.143792,-0.121189,-0.0840963,-0.00328064,0.0465393,0.0206375,-0.0633621,0.0641251,0.0478363,0.0219727,0.0835419,-9.97986,-0.0187683,-0.0259018,-0.0069046,0.257416,0.100975,-0.00644684,0.0287628,0.0275803
39,7,7.08028,0.000305176,0.00579834,-2.42837,0.0544603,-0.0756734,0.0535176,0.153673,-0.0891792,0.144098,-0.121189,-0.0850118,0.0165176,0.0336456,0.0221252,-0.114784,0.0695801,0.0547791,0.0204086,0.0554657,-9.97986,-0.0123596,-0.0541306,-0.00370026,0.265656,0.093689,-0.00663757,0.0266266,0.0257111
39,8,10.0097,0.000610352,0.00350952,-2.4305,0.0529344,-0.0765889,0.050771,0.124071,-0.0955879,0.142572,-0.124546,-0.0883688,0.0163269,0.0271225,0.034256,-0.164108,0.0679779,0.062561,0.0196075,0.0289917,-9.97986,-0.0121689,-0.0274277,-0.00331879,0.245438,0.0886154,-0.0100327,0.0205612,0.0287628
39,9,10.0097,-0.000610352,0.000152588,-2.43142,0.0532396,-0.0768941,0.0492452,0.0911119,-0.0974189,0.142572,-0.126682,-0.0889791,0.0141525,0.0372314,0.038414,-0.202599,0.0665283,0.0710297,0.0180435,-0.0069809,-9.97986,0.00205994,-0.00576019,-0.00133514,0.233994,0.0773621,-0.0164795,0.0149918,0.0277328
40,0,10.0097,0.000610352,-0.00183105,-2.42928,0.0550706,-0.0759786,0.050771,0.0792101,-0.095893,0.143182,-0.127292,-0.0886739,0.0168991,0.0848007,0.0284958,-0.227509,0.07267,0.0808334,0.0202942,0.0152588,-9.97986,0.0162506,-0.00537872,7.62939e-005,0.222969,0.0710678,-0.0087738,0.0147247,0.0271225
40,1,10.0097,-0.000915527,-0.00183105,-2.42837,0.0544603,-0.0768941,0.0526021,0.0728014,-0.095893,0.143487,-0.127292,-0.0877584,0.0222015,0.105591,0.0177765,-0.185127,0.0697327,0.0841141,0.0194168,0.0348663,-9.97986,0.0143051,-0.01297,0.000114441,0.192299,0.0659561,-0.0037384,0.00968933,0.0269699
40,2,10.0097,-0.000305176,-0.00228882,-2.42714,0.0550706,-0.0753682,0.0535176,0.0712755,-0.094062,0.142877,-0.126072,-0.0859274,0.0354385,0.0922012,0.00774384,-0.143547,0.0656891,0.091362,0.0120163,0.0265121,-9.97986,0.0196838,-0.00865936,0.00137329,0.16716,0.0566101,-0.00469208,0.0114059,0.0287628
40,3,10.0097,0.00183105,-0.00213623,-2.42714,0.0550706,-0.0744527,0.0547383,0.0715807,-0.0943672,0.144098,-0.126072,-0.085317,0.0371552,0.0621414,0.00221252,-0.140457,0.0624466,0.100975,0.00831604,0.0583267,-9.97986,0.0257874,-0.0256348,0.00576019,0.140572,0.0477219,-0.0123978,0.0101852,0.0273895
40,4,10.0097,0,-0.00183105,-2.42592,0.055681,-0.0744527,0.0535176,0.0700548,-0.0937568,0.144403,-0.125156,-0.0840963,0.0312042,0.0206375,0.000801086,-0.138741,0.0675201,0.0933075,0.00274658,0.0439072,-9.97986,0.0305939,-0.0447464,0.00278473,0.12867,0.0392532,-0.0167084,0.0063324,0.0260544
40,5,10.0097,-0.0012207,-0.000457764,-2.42562,0.0562914,-0.0753682,0.0550435,0.0718859,-0.0919257,0.144708,-0.124851,-0.0819601,0.0343704,-0.0248337,0.00358582,-0.0699997,0.074234,0.0960541,0.00457764,0.000762939,-9.97986,0.0350189,-0.0202942,0.00583649,0.124245,0.0359344,-0.018692,0.0100708,0.0292206
40,6,10.0097,0.0012207,-0.00106812,-2.42501,0.0569017,-0.0738423,0.0553487,0.0712755,-0.0925361,0.147149,-0.124546,-0.0816549,0.0305939,-0.0545502,0.0110626,0.072403,0.069046,0.099678,0.00797272,-0.026474,-9.97986,0.03479,-0.0263596,0.00465393,0.109329,0.0300217,-0.0276184,0.00701904,0.0303268
40,7,10.0097,0.000610352,-0.00183105,-2.42653,0.0553758,-0.0735371,0.0553487,0.058153,-0.0943672,0.146844,-0.125461,-0.0828756,0.0262451,-0.0148773,0.0268173,0.128479,0.0704575,0.0971603,0.0113678,-0.0529099,-9.97986,0.038147,-0.07267,0.00392914,0.0821304,0.0211716,-0.0361633,0.00705719,0.0285339
