
Devices
1200
,,BP Load cell - Voltage,String Length - Voltage,Clutch Active - Voltage,#7 iPecs - Voltage,,,,,,,,,EMG 1-8 Left - Voltage,,,,,,,,Pylon Force - Voltage,EMG 9-16 Right - Voltage,,,,,,,,
Frame,Sub Frame,BP Load Cell,String Length,From Arduino Logic,A45,A135,A225,A315,S0,S90,S180,S270,ZSum,EMG 1 Glut Max,EMG 2 Glut Med,EMG 3 Biceps Femoris Long,EMG 4 Rectus Femoris,EMG 5 Vastus Medialis,EMG 6 Tib Ant,EMG 7 Med Gas,EMG 8 Soleus,Pylon volts,EMG 9 Glut Max,EMG 10 Glut Med,EMG 11 Biceps Femoris Long,EMG 12 Rectus Femoris,EMG 13 Vastus Medialis,EMG 14 Tib Ant,EMG 15 Med Gas,EMG 16 Soleus
,,V,V,V,V,V,V,V,V,V,V,V,V,V,V,V,V,V,V,V,V,V,V,V,V,V,V,V,V,V
1,0,10.0097,0.00152588,0.000762939,-2.4305,0.0535448,-0.0759786,0.0498555,0.0816515,-0.0955879,0.142877,-0.126987,-0.0880636,-0.0164795,0.0224686,0.0112152,0.00827789,0.0294495,0.0175858,0.0302124,0.0317001,-9.97986,-0.014534,-0.000190735,-0.23304,-0.345497,0.0935364,0.00522614,-0.142593,-0.00175476
1,1,10.0097,-0.0012207,0.000457764,-2.42867,0.0553758,-0.0756734,0.0510762,0.0758531,-0.0952827,0.144403,-0.127292,-0.0865377,-0.0227737,0.0282288,0.0190353,0.00900269,0.027504,0.00667572,0.0300217,0.0288391,-9.97986,-0.0209808,-0.000152588,-0.237846,-0.336914,0.0961685,0.000801086,-0.139313,-0.00331879
1,2,10.0097,-0.000915527,0.000152588,-2.42776,0.0547655,-0.0765889,0.0526021,0.0718859,-0.0952827,0.144098,-0.126987,-0.0840963,-0.0124741,0.0286102,0.0141907,0.0112152,0.0325012,-0.00774384,0.0269318,0.0295639,-9.97986,-0.0101471,-0.00160217,-0.238037,-0.329208,0.0974274,-0.00453949,-0.138092,-0.00621796
1,3,10.0097,0,0.00106812,-2.42562,0.0562914,-0.075063,0.0535176,0.0724962,-0.0946723,0.143487,-0.125766,-0.0840963,0.00785828,0.029335,0.0200653,0.00873566,0.0253296,-0.00995636,0.0274277,0.0240707,-9.97986,0.00801086,-0.00492096,-0.236168,-0.321007,0.0944519,-0.00545502,-0.132523,-0.00514984
1,4,10.0097,0.0012207,0.00152588,-2.42684,0.0559862,-0.0747579,0.0532125,0.0697496,-0.0931465,0.145929,-0.126377,-0.0828756,0.0204086,0.0311661,0.0156021,0.0069046,0.0286865,-0.019455,0.0328445,0.0189209,-9.97986,0.0329971,0.000610352,-0.230331,-0.311623,0.0905228,-0.00488281,-0.126495,-0.0043869
1,5,10.0097,-0.000610352,0.000610352,-2.42562,0.0565965,-0.0744527,0.0538228,0.072191,-0.0931465,0.146234,-0.124546,-0.0831808,0.0266266,0.0284576,0.0159836,0.0122452,0.0269318,-0.0263596,0.0255966,0.0161743,-9.97986,0.0524139,-0.00038147,-0.22541,-0.30529,0.0902557,-0.00312805,-0.114174,-0.00267029
1,6,10.0097,0.000305176,0.000610352,-2.4244,0.0550706,-0.0735371,0.0538228,0.0718859,-0.0919257,0.146539,-0.12363,-0.0816549,0.0442123,0.02491,0.0160599,0.00606537,0.0287247,-0.0262451,0.0296021,0.0194931,-9.97986,0.0598526,-0.000228882,-0.22686,-0.309067,0.0857925,-0.00232697,-0.103111,-0.001297
1,7,10.0097,-0.000305176,0,-2.42531,0.0565965,-0.0747579,0.0553487,0.0715807,-0.0910102,0.146844,-0.123935,-0.0813497,0.0568771,0.0244141,0.0181961,0.0094223,0.0278473,-0.0369263,0.0286484,0.0205231,-9.97986,0.0542831,-0.00377655,-0.226364,-0.309982,0.0825119,-0.00213623,-0.0973892,0.00587463
1,8,10.0097,0.000610352,-0.00244141,-2.42714,0.0559862,-0.0738423,0.0510762,0.0312975,-0.0968086,0.145624,-0.127598,-0.0825704,0.051918,0.0299454,0.0178909,0.00431061,0.0272369,-0.0457764,0.0260162,0.0157928,-9.97986,0.0324249,-0.00038147,-0.224915,-0.315094,0.0685501,-0.00297546,-0.0917053,0.00427246
1,9,3.52193,0.000305176,-0.00473022,-2.42562,0.0559862,-0.0735371,0.0516866,-0.0178358,-0.0995551,0.144708,-0.130039,-0.0834859,0.0238037,0.0301361,0.0139236,0.0037384,0.0245285,-0.0535583,0.0269318,0.021553,-9.97986,0.0163269,0.00263214,-0.22934,-0.316505,0.0657272,-0.00526428,-0.0871277,0.0019455
2,0,-4.25578,0.000610352,-0.00518799,-2.42592,0.0572069,-0.0726216,0.0535176,-0.0184462,-0.0971137,0.146844,-0.129123,-0.0822652,0.0012207,0.0292587,0.0118256,0.0075531,0.017128,-0.0666046,0.0222397,0.0178528,-9.97986,0.0102997,-0.00469208,-0.22747,-0.322533,0.0658417,-0.010376,-0.0812912,0.00320435
2,1,-9.99003,0.000305176,-0.0050354,-2.42501,0.0572069,-0.0735371,0.0553487,0.00413684,-0.0919257,0.148065,-0.127903,-0.0804342,-0.00480652,0.0265121,0.0107956,0.00270844,0.00522614,-0.0690842,0.0222778,0.0157166,-9.97986,0.00102997,-0.00320435,-0.221291,-0.323029,0.0666046,-0.0158691,-0.0793839,0.00518799
2,2,-9.99003,0.000915527,-0.00244141,-2.4244,0.0562914,-0.0735371,0.055959,0.0331285,-0.0913154,0.145013,-0.126987,-0.080129,-0.0188065,0.0292206,0.0170135,0.00896454,0.00289917,-0.0690842,0.0209427,0.0155258,-9.97986,-0.00301361,-0.00305176,-0.225639,-0.315399,0.0431442,-0.0138474,-0.0714874,0.0082016
2,3,-9.99003,0.000305176,-0.000610352,-2.42562,0.0553758,-0.0744527,0.0556539,0.0551012,-0.0922309,0.144403,-0.126072,-0.0813497,-0.0299835,0.0269318,0.0143051,0.000839233,0.000152588,-0.0790024,0.0217819,0.00797272,-9.97986,0.00751495,-0.00480652,-0.232391,-0.311165,0.0385666,-0.00392914,-0.0725555,0.00652313
2,4,-9.99003,0.000915527,0.00152588,-2.42684,0.0562914,-0.0738423,0.055959,0.0636461,-0.0922309,0.143792,-0.126377,-0.0819601,-0.0271988,0.0256729,0.0136948,0.00274658,-0.00408173,-0.0797653,0.0186157,0.0159073,-9.97986,0.0221252,0.000610352,-0.224724,-0.287895,0.0362396,-0.000686646,-0.0632095,0.00961304
2,5,-9.99003,0,0.00335693,-2.42684,0.0547655,-0.0741475,0.055959,0.0984362,-0.0864326,0.145929,-0.12363,-0.0819601,-0.0355148,0.0291061,0.0143051,0.00713348,-0.0108337,-0.081749,0.0194931,0.0142288,-9.97986,0.0269699,-0.00465393,-0.218925,-0.262527,0.0625229,0.00473022,-0.0564957,0.0075531
2,6,-3.6439,0,0.00640869,-2.42837,0.0544603,-0.0756734,0.0553487,0.138109,-0.0879585,0.145318,-0.12302,-0.0847066,-0.028038,0.031929,0.0121689,0.00610352,-0.0117111,-0.0837326,0.0144196,0.0128555,-9.97986,0.0284576,-0.00484467,-0.204659,-0.237541,0.0629807,0.00751495,-0.0504684,0.00980377
2,7,3.54482,0,0.00747681,-2.42806,0.0535448,-0.0753682,0.0532125,0.154283,-0.0876533,0.144403,-0.121494,-0.0847066,-0.0113678,0.0309753,0.0165558,0.0018692,-0.0224686,-0.0745773,0.0186539,0.00522614,-9.97986,0.0231171,-0.00492096,-0.192871,-0.212898,0.0675583,0.0114441,-0.0451279,0.00751495
2,8,10.0097,-0.000305176,0.00595093,-2.42867,0.0526292,-0.0768941,0.0532125,0.154588,-0.088874,0.144403,-0.122104,-0.085317,-0.000228882,0.0275421,0.0140381,0.00198364,-0.0222397,-0.0793457,0.0102234,0.01297,-9.97986,0.00835419,-0.000190735,-0.185623,-0.200462,0.0711441,0.0121689,-0.0415421,0.00663757
2,9,10.0097,-0.000610352,0.00320435,-2.4305,0.0529344,-0.0768941,0.0498555,0.102098,-0.0961982,0.142572,-0.125766,-0.0889791,-0.000495911,0.0310135,0.0137329,0.00102997,-0.0267792,-0.0778961,0.0119019,0.0167465,-9.97986,-0.0112915,-0.00137329,-0.179825,-0.187111,0.0724792,0.00774384,-0.0351715,0.00862122
3,0,10.0097,0.000610352,0.00137329,-2.4305,0.0511034,-0.0768941,0.0513814,0.0816515,-0.0971137,0.143487,-0.125461,-0.0883688,0.0126648,0.0313568,0.0143051,0.00183105,-0.0323868,-0.0793839,0.0138855,0.0103378,-9.97986,-0.0272751,0.00038147,-0.174332,-0.179939,0.0803375,0.00865936,-0.0281906,0.00595093
3,1,10.0097,0.000610352,0.000915527,-2.4302,0.0538499,-0.0753682,0.0522969,0.075548,-0.0949775,0.143182,-0.126987,-0.0865377,0.0134277,0.0251007,0.0150681,-0.00102997,-0.0343323,-0.0802231,0.0125885,0.0117111,-9.97986,-0.0263977,0.00606537,-0.160789,-0.170708,0.0841141,0.00392914,-0.0284958,0.00617981
3,2,10.0097,0.0012207,0.00106812,-2.42776,0.0553758,-0.0744527,0.0522969,0.0724962,-0.0943672,0.146234,-0.125766,-0.0859274,0.0327301,0.0260925,0.0138474,0.000228882,-0.0292587,-0.0704575,0.0127411,0.0133133,-9.97986,-0.0313568,0.00465393,-0.144806,-0.159798,0.0938034,0.000343323,-0.0211716,0.00965118
3,3,10.0097,0.0012207,0.000762939,-2.42776,0.0544603,-0.0762837,0.0535176,0.0724962,-0.0931465,0.144403,-0.126072,-0.0850118,0.0562286,0.0277328,0.00831604,0.00331879,-0.0317001,-0.0642776,0.00984192,0.00782013,-9.97986,-0.019722,0.00282288,-0.129509,-0.156975,0.0982285,-0.00118256,-0.0225067,0.00534058
3,4,10.0097,0.00213623,-0.000610352,-2.42714,0.0547655,-0.075063,0.0538228,0.07036,-0.0943672,0.144403,-0.126072,-0.0844015,0.0323486,0.0228882,0.0140762,-0.00541687,-0.0273895,-0.059433,0.00862122,0.00659943,-9.97986,-0.0109863,0.0037384,-0.118141,-0.172615,0.0934982,-0.00263214,-0.0204086,0.00236511
3,5,10.0097,0.000305176,-0.000457764,-2.42531,0.0562914,-0.0741475,0.0544332,0.0706652,-0.0928413,0.146234,-0.124546,-0.0837911,0.0139999,0.0224686,0.0111389,-0.00137329,-0.0232315,-0.0447845,0.00709534,0.0113297,-9.97986,-0.0112534,0.00556946,-0.107117,-0.193901,0.0969696,-0.00720978,-0.0157928,0.00396729
3,6,10.0097,0.00152588,-0.00274658,-2.42562,0.0559862,-0.0735371,0.0550435,0.0715807,-0.0931465,0.145013,-0.123935,-0.0825704,0.0102234,0.0212479,0.0160599,0.0025177,-0.0220871,-0.0328064,0.0135803,0.0125122,-9.97986,0.0075531,0.00350952,-0.0953674,-0.214729,0.0934982,-0.00602722,-0.0177002,0.0019455
3,7,10.0097,0,-0.00183105,-2.42562,0.0562914,-0.0738423,0.0550435,0.072191,-0.0946723,0.147149,-0.12363,-0.0819601,-0.000572205,0.0253677,0.0131989,0.000572205,-0.0144577,-0.0144958,0.00576019,0.0130081,-9.97986,0.0260925,0.000991821,-0.0852966,-0.238686,0.0910187,-0.000686646,-0.0121307,-0.00312805
3,8,10.0097,0.00183105,-0.00442505,-2.42623,0.0559862,-0.0741475,0.0535176,0.0337389,-0.0974189,0.144403,-0.127903,-0.0844015,0.00873566,0.0230408,0.0105667,0.00198364,-0.0137711,-0.00770569,0.00667572,0.015564,-9.97986,0.0513458,0.00476837,-0.0707626,-0.266304,0.0850677,-0.00785828,-0.0124741,-0.000915527
3,9,3.54177,-0.0283813,-0.00595093,-2.42623,0.0590379,-0.073232,0.0526021,-0.0163099,-0.0998603,0.133111,-0.130954,-0.0837911,0.00587463,0.0240707,0.0140381,-0.00377655,-0.0100327,0.00762939,0.00770569,0.0134659,-9.97986,0.061264,0.00232697,-0.056076,-0.283966,0.0826263,-0.012207,-0.00793457,-0.000724792
4,0,-4.36686,-0.00274658,-0.00656128,-2.4244,0.0559862,-0.0738423,0.0544332,-0.0184462,-0.0971137,0.141351,-0.130039,-0.0822652,0.0105667,0.022049,0.0123596,0.000305176,-0.0082016,0.00747681,0.00774384,0.0190353,-9.97986,0.0497818,-0.00350952,-0.0463104,-0.302734,0.078392,-0.00938416,-0.00915527,-0.00366211
4,1,-9.99003,0,-0.00732422,-2.42318,0.0569017,-0.0741475,0.0565694,0.00230578,-0.0913154,0.144708,-0.127903,-0.0804342,0.0171661,0.0215149,0.0110245,0.00175476,0.000114441,0.0244522,0.00461578,0.0141525,-9.97986,0.0372314,-0.000648499,-0.0345612,-0.330887,0.0751877,-0.00862122,-0.00492096,-0.0069046
4,2,-9.99003,0.000305176,-0.0050354,-2.42501,0.0572069,-0.073232,0.0565694,0.0349596,-0.0910102,0.145318,-0.126987,-0.0819601,0.019989,0.0233459,0.0094223,0.000267029,0.00183105,0.0296021,0.00717163,0.0136948,-9.97986,0.0363922,-0.0030899,-0.0159454,-0.356102,0.0456619,-0.00785828,-0.00434875,-0.00789642
4,3,-9.99003,0.000305176,-0.00274658,-2.42501,0.0547655,-0.0744527,0.0562642,0.0544908,-0.0919257,0.143487,-0.125461,-0.0810445,0.0216293,0.0204849,0.0130844,-0.000114441,0.00492096,0.0335693,0.00453949,0.0075531,-9.97986,0.0376129,-0.00133514,0.00228882,-0.372772,0.0482178,-0.00419617,-0.00133514,-0.00648499
4,4,-9.99003,-0.000610352,-0.00152588,-2.42531,0.0553758,-0.0744527,0.0553487,0.0633409,-0.0916206,0.145318,-0.125766,-0.0825704,0.0145721,0.0189209,0.0201035,0.00148773,0.00640869,0.0444412,0.00751495,0.00614166,-9.97986,0.0134277,-0.00255585,0.0134277,-0.373726,0.049324,-0.00411987,-0.0012207,-0.0114441
4,5,-9.99003,0.00274658,0.000305176,-2.42653,0.0547655,-0.0747579,0.0571797,0.0987413,-0.0885688,0.146234,-0.124546,-0.0828756,0.0189972,0.0203705,0.0174713,0.00587463,0.013504,0.0476074,0.0109482,0.00640869,-9.97986,-0.00106812,0.000801086,0.0254059,-0.383415,0.0675583,-0.00408173,-0.000457764,-0.00965118
4,6,-3.84318,-0.000610352,0.00320435,-2.42776,0.0535448,-0.0747579,0.0553487,0.136583,-0.0864326,0.143487,-0.12241,-0.0837911,0.0374985,0.0243378,0.0197983,0.00255585,0.0156403,0.0560379,0.00980377,0.00843048,-9.97986,-0.0178528,0.0019455,0.0465775,-0.388565,0.065155,-0.0110626,0.00331879,-0.00843048
4,7,3.43282,-0.000610352,0.00411987,-2.42806,0.0544603,-0.0756734,0.0544332,0.154588,-0.0894843,0.144708,-0.120884,-0.0847066,0.0534439,0.0236893,0.0146866,0.00347137,0.0258636,0.0625992,0.0131989,0.010643,-9.97986,-0.0286102,0.00125885,0.0622177,-0.38681,0.0655365,-0.0138474,0.00339508,-0.0082016
4,8,10.0097,0.000610352,0.00411987,-2.42806,0.0547655,-0.0762837,0.0529073,0.153673,-0.0897895,0.143182,-0.121189,-0.0862325,0.0398254,0.0263977,0.0180054,0.0043869,0.0222778,0.0636292,0.0149536,0.00701904,-9.97986,-0.0276566,0.000114441,0.0688553,-0.393562,0.0571442,-0.0124359,0.00598907,-0.00743866
4,9,10.0097,0.000610352,0.00183105,-2.43203,0.0532396,-0.0768941,0.0486348,0.102403,-0.09925,0.141656,-0.126377,-0.0895895,0.0205231,0.0246429,0.0191498,0.00526428,0.0315857,0.0676346,0.0141907,0.00389099,-9.97986,0.00282288,0.00141144,0.0773621,-0.389862,0.0497437,-0.0104141,0.00297546,-0.00617981
5,0,10.0097,0.000915527,0.000915527,-2.42989,0.0541551,-0.0765889,0.0513814,0.082567,-0.0968086,0.143487,-0.126987,-0.0868429,0.0102615,0.0248718,0.022049,0.00450134,0.0345993,0.0661087,0.0132751,-0.00244141,-9.97986,0.0273514,-0.00366211,0.0947571,-0.378113,0.045433,-0.00614166,0.00850677,-0.00526428
5,1,10.0097,0.000915527,0.000762939,-2.42837,0.0532396,-0.0778096,0.0510762,0.075548,-0.0955879,0.143792,-0.125766,-0.0868429,-0.0151062,0.0227356,0.0227356,0.0063324,0.0422287,0.0687408,0.0200653,0.000228882,-9.97986,0.0611115,-0.00335693,0.106964,-0.373077,0.0467682,-0.00293732,0.0108337,-0.00354767
5,2,10.0097,0.00183105,0.000762939,-2.42898,0.0544603,-0.0753682,0.0529073,0.0724962,-0.0943672,0.144403,-0.126072,-0.0856222,-0.0324631,0.0238037,0.0145721,0.00114441,0.0417328,0.0739288,0.0169754,0.00350952,-9.97986,0.068779,0.000839233,0.120621,-0.365486,0.0382614,0.0012207,0.0135803,0.000190735
5,3,10.0097,0.000610352,0.00244141,-2.42745,0.0547655,-0.0753682,0.0535176,0.0709703,-0.094062,0.144708,-0.125766,-0.085317,-0.0252914,0.0187683,0.017662,0.0031662,0.0445938,0.0656891,0.0157928,0.000762939,-9.97986,0.043335,0.00480652,0.129738,-0.356064,0.0279236,-0.00354767,0.0107574,0.00137329
5,4,10.0097,0.00213623,0.00137329,-2.42653,0.0550706,-0.0747579,0.054128,0.0706652,-0.0931465,0.145318,-0.126072,-0.0834859,-0.0151062,0.0218964,0.0193024,0.00968933,0.0535583,0.0678253,0.023613,0.00396729,-9.97986,0.019989,-0.00087738,0.13382,-0.337067,0.0281525,-0.000305176,0.0128555,0.0075531
5,5,10.0097,0.000610352,0.00183105,-2.42592,0.0559862,-0.0753682,0.0535176,0.0706652,-0.0925361,0.146844,-0.12363,-0.0822652,-0.00602722,0.0193787,0.0127792,0.00450134,0.0559616,0.0673294,0.0209045,0.00366211,-9.97986,-0.00396729,0.000686646,0.138245,-0.324936,0.0220108,0.000457764,0.0163269,0.00518799
5,6,10.0097,-0.000305176,0.00137329,-2.42562,0.0562914,-0.0747579,0.054128,0.0715807,-0.0916206,0.145318,-0.124851,-0.0816549,-0.0333023,0.0217819,0.0147247,0.00530243,0.0609207,0.0691223,0.020256,0.00232697,-9.97986,-0.0232315,-0.000228882,0.141792,-0.311699,0.0125504,-0.00453949,0.0159836,0.00984192
5,7,10.0097,-0.000915527,0.00152588,-2.42501,0.0572069,-0.073232,0.054128,0.0712755,-0.0916206,0.147149,-0.124851,-0.0810445,-0.0661469,0.0206375,0.0185013,0.0106049,0.0609589,0.0604248,0.0270081,-0.00366211,-9.97986,-0.0299835,0.00495911,0.145836,-0.297356,0.0175476,-0.00686646,0.0220871,0.0109482
5,8,10.0097,0.000305176,-0.000457764,-2.42623,0.0562914,-0.0744527,0.0538228,0.0334337,-0.0961982,0.145013,-0.128818,-0.0831808,-0.0535965,0.0201416,0.0136185,0.00312805,0.0640488,0.0622559,0.0270844,0.00457764,-9.97986,-0.0187302,0.00225067,0.14782,-0.282784,0.0157547,-0.0120926,0.0193405,0.0131607
5,9,3.60189,0.000915527,-0.00320435,-2.42684,0.0553758,-0.0741475,0.0519917,-0.0169203,-0.101081,0.145318,-0.129734,-0.0831808,-0.0295258,0.0190735,0.0126266,0.00816345,0.0565338,0.060463,0.0249481,0.00823975,-9.97986,0.00553131,0.000610352,0.152702,-0.280228,0.00896454,-0.0135422,0.0210571,0.0163269
6,0,-4.25883,0.000610352,-0.00396729,-2.42623,0.055681,-0.0704854,0.0532125,-0.0166151,-0.0965034,0.145929,-0.130649,-0.0810445,0.000724792,0.0193787,0.00976563,0.00598907,0.0639343,0.0583649,0.0272369,0.00957489,-9.97986,0.0261307,0.00492096,0.1548,-0.267105,-0.00038147,-0.00358582,0.0207138,0.0186539
6,1,-9.99003,0,-0.0038147,-2.4244,0.0572069,-0.073232,0.0565694,0.00535754,-0.090705,0.152337,-0.128818,-0.0804342,0.0343323,0.0187683,0.0121307,0.000495911,0.0636673,0.0509262,0.0216675,0.00537872,-9.97986,0.0531006,0.00232697,0.1511,-0.259171,-0.00862122,-0.00205994,0.0226974,0.0221252
6,2,-9.99003,-0.000610352,-0.00213623,-2.42348,0.055681,-0.0738423,0.0565694,0.0352648,-0.0910102,0.145624,-0.126987,-0.0807394,0.0428772,0.0204849,0.0110245,0.0112534,0.0679779,0.046463,0.0291824,0.00762939,-9.97986,0.07061,7.62939e-005,0.155525,-0.253601,-0.0315094,-0.00255585,0.02388,0.0234985
6,3,-9.99003,0.000305176,0.000762939,-2.42562,0.0553758,-0.0759786,0.0556539,0.0560167,-0.0900947,0.146234,-0.127292,-0.0816549,0.0481033,0.0236893,0.015831,0.00610352,0.063858,0.0393677,0.0278091,0.000991821,-9.97986,0.0715637,0.00255585,0.158577,-0.239563,-0.0351334,-0.00362396,0.0275421,0.0273514
6,4,-9.99003,0.0012207,0.000915527,-2.42562,0.0550706,-0.075063,0.0556539,0.0642565,-0.0919257,0.145624,-0.126987,-0.0816549,0.0509262,0.0241852,0.0159454,0.0082016,0.071373,0.0361633,0.0276566,0.00183105,-9.97986,0.0820923,-0.00392914,0.15934,-0.229759,-0.0432205,-0.000686646,0.0262451,0.0281906
6,5,-9.99003,0.000305176,0.00274658,-2.42623,0.0541551,-0.0747579,0.0553487,0.098131,-0.088874,0.144708,-0.12363,-0.0822652,0.0405502,0.0209808,0.0151062,0.00961304,0.0669479,0.0344086,0.0258636,-0.000343323,-9.97986,0.0656509,0.00324249,0.160294,-0.210724,-0.0215912,-0.00320435,0.023613,0.0259399
6,6,-3.73942,0.000610352,0.00549316,-2.42653,0.0532396,-0.0747579,0.054128,0.138109,-0.088874,0.143487,-0.123325,-0.0834859,0.0343323,0.0231552,0.0160599,0.00740051,0.0699997,0.037117,0.0313187,0.00587463,-9.97986,0.0541306,0.00286102,0.165863,-0.200157,-0.0311661,-0.00537872,0.0252151,0.031395
6,7,3.54238,0,0.00579834,-2.42776,0.0544603,-0.0759786,0.0550435,0.154588,-0.0894843,0.144098,-0.117832,-0.0840963,0.0312805,0.0219345,0.0149155,0.00675201,0.0681686,0.0361252,0.0248718,0.00228882,-9.97986,0.0507736,0.000610352,0.163345,-0.18959,-0.0375748,-0.00209808,0.0327682,0.0338745
6,8,10.0097,0,0.00595093,-2.42867,0.0544603,-0.0762837,0.0529073,0.152452,-0.0910102,0.142877,-0.121494,-0.0850118,0.0165176,0.0240326,0.0188446,0.0109482,0.0675964,0.0341034,0.0297928,-0.000152588,-9.97986,0.0379944,0.000991821,0.160866,-0.177917,-0.0508881,-0.00205994,0.0311279,0.0354004
6,9,10.0097,0.000305176,0.00213623,-2.43081,0.0538499,-0.0759786,0.050771,0.102098,-0.0983344,0.141656,-0.125461,-0.0892843,0.0180817,0.0225449,0.0193787,0.00694275,0.0658798,0.0248718,0.0281525,-0.00312805,-9.97986,0.0162506,-0.00118256,0.164299,-0.182724,-0.0602341,-0.00087738,0.0279999,0.0368118
7,0,10.0097,0.00152588,0.000305176,-2.42959,0.0544603,-0.0771993,0.050771,0.0816515,-0.0965034,0.143182,-0.127598,-0.0883688,0.0354385,0.0210571,0.0182724,0.00904083,0.0603104,0.0229645,0.0277328,0.00164032,-9.97986,-0.0063324,-0.0056076,0.157661,-0.188446,-0.064888,-0.00156403,0.0271606,0.0364685
7,1,10.0097,-0.00152588,0.000305176,-2.42867,0.0550706,-0.0759786,0.0519917,0.0752428,-0.0949775,0.143487,-0.127292,-0.0868429,0.0482941,0.0244904,0.0136948,0.00450134,0.0572968,0.0205994,0.031662,0.000534058,-9.97986,-0.021286,-0.00205994,0.160141,-0.179825,-0.0694275,-0.00419617,0.0292587,0.042038
7,2,10.0097,0,0.00106812,-2.42837,0.0553758,-0.0787251,0.0529073,0.0731066,-0.0934516,0.145013,-0.125766,-0.0862325,0.0492859,0.0191116,0.0159073,0.00545502,0.0558853,0.0165939,0.0307083,0.0030899,-9.97986,-0.0270081,-0.00320435,0.15316,-0.16552,-0.0754929,-0.000724792,0.0261307,0.038147
7,3,10.0097,0.000610352,-0.000152588,-2.42684,0.0569017,-0.0747579,0.0535176,0.07036,-0.0937568,0.144708,-0.125461,-0.0847066,0.0440598,0.0196457,0.0156784,0.00999451,0.0587845,0.0136185,0.027771,0.00102997,-9.97986,-0.0409698,-0.00377655,0.152817,-0.162086,-0.0711823,0.00125885,0.0275421,0.038414
7,4,10.0097,0.000305176,0.000457764,-2.42745,0.0547655,-0.075063,0.0529073,0.0706652,-0.0937568,0.143792,-0.126682,-0.0834859,0.0325012,0.0214767,0.018425,0.00991821,0.0545502,0.0122452,0.0294876,0.00396729,-9.97986,-0.0269318,-0.000114441,0.149193,-0.155144,-0.0762177,-0.00167847,0.0286865,0.0403976
7,5,10.0097,0,0.00152588,-2.42653,0.0562914,-0.0735371,0.0529073,0.0728014,-0.0934516,0.146234,-0.124851,-0.0828756,0.0235367,0.0217438,0.0205612,0.0130081,0.0562286,0.00785828,0.0300598,0.00442505,-9.97986,-0.0196457,-0.00328064,0.140114,-0.128746,-0.0791168,0.00534058,0.0290298,0.0448608
7,6,10.0097,0,0.00305176,-2.42531,0.055681,-0.0741475,0.055959,0.0740221,-0.090705,0.144708,-0.126072,-0.0810445,0.017662,0.0219727,0.0164795,0.00728607,0.0492477,0.00190735,0.0252151,-0.00164032,-9.97986,-0.00770569,-0.00637054,0.12516,-0.0986481,-0.0764847,-0.00270844,0.0252151,0.0406647
7,7,10.0097,0,0.00411987,-2.4247,0.0565965,-0.0738423,0.0544332,0.0731066,-0.0913154,0.147149,-0.123935,-0.0804342,0.0231171,0.024147,0.0218964,0.0112534,0.0530243,0.00541687,0.0287628,0.000953674,-9.97986,0.0268936,0.00156403,0.120544,-0.0518417,-0.0616837,-0.000305176,0.0266266,0.0403214
7,8,10.0097,-0.00152588,0.00183105,-2.42684,0.0565965,-0.075063,0.0529073,0.0340441,-0.0965034,0.146234,-0.127903,-0.0825704,0.0322342,0.0266647,0.0202942,0.0102997,0.0492096,0.00396729,0.0268555,0.00770569,-9.97986,0.0339127,0.000686646,0.110092,-0.0246429,-0.0557709,0.00335693,0.0299835,0.0460815
7,9,3.83168,-0.000305176,-0.000610352,-2.42684,0.0559862,-0.0741475,0.0516866,-0.0169203,-0.101691,0.146539,-0.129429,-0.0819601,0.0326538,0.0210953,0.0141907,0.0101089,0.0517654,-0.00904083,0.030098,0.00038147,-9.97986,0.0362396,0.00118256,0.100479,0.0144958,-0.0488281,-3.8147e-005,0.0267029,0.0450897
8,0,-4.0269,0.00244141,-0.000610352,-2.42592,0.0569017,-0.0744527,0.0529073,-0.0187513,-0.0971137,0.146539,-0.130039,-0.0807394,0.0389862,0.0240707,0.0196075,0.0152206,0.0529861,-0.0069809,0.0273132,0.00339508,-9.97986,0.0305176,-0.00202179,0.0951385,0.0584412,-0.0393295,-0.00328064,0.0207901,0.0421906
8,1,-9.99003,0.0012207,-0.000457764,-2.42531,0.0562914,-0.0756734,0.0553487,0.00230578,-0.0931465,0.146844,-0.127598,-0.0795187,0.0415039,0.0228882,0.0159836,0.0087738,0.0511551,-0.0140762,0.0308228,0.00595093,-9.97986,0.0114822,0.00148773,0.0906372,0.0974274,-0.0242996,0.00183105,0.0234222,0.0394821
8,2,-9.99003,0.000610352,0.000610352,-2.42409,0.0553758,-0.0729268,0.0562642,0.032213,-0.090705,0.145318,-0.126072,-0.0798238,0.0246811,0.0228119,0.0154877,0.0110626,0.04879,-0.0172043,0.0322723,0.0122833,-9.97986,-0.00320435,0.000305176,0.0886154,0.130463,-0.0425339,-0.00247955,0.019455,0.0387955
8,3,-9.99003,0.000610352,0.00289917,-2.42592,0.0550706,-0.0738423,0.0556539,0.0538805,-0.0922309,0.145624,-0.126682,-0.0798238,0.00782013,0.0246429,0.0159454,0.00743866,0.0495148,-0.0211334,0.028801,0.0112915,-9.97986,-0.0164032,0.000572205,0.0870895,0.157661,-0.0356293,-0.000190735,0.0172043,0.036087
8,4,-9.99003,0.00183105,0.00335693,-2.42623,0.055681,-0.0744527,0.0562642,0.0627306,-0.0913154,0.144403,-0.124851,-0.0822652,-0.00213623,0.0324631,0.0208282,0.00801086,0.0501633,-0.0185776,0.0323105,0.00808716,-9.97986,-0.0185013,0.00717163,0.0863647,0.195541,-0.0322342,-0.00743866,0.0156021,0.0340271
8,5,-9.99003,0.000915527,0.00320435,-2.42653,0.0541551,-0.0741475,0.0553487,0.0987413,-0.0867378,0.146234,-0.122715,-0.0819601,-0.0185776,0.0250244,0.0201035,0.00888824,0.0490189,-0.0232315,0.0358582,0.00751495,-9.97986,-0.0152588,0.00358582,0.0775528,0.21553,-0.000915527,-0.00553131,0.0163651,0.0308609
8,6,-3.62285,0,0.00701904,-2.42653,0.0547655,-0.0756734,0.0544332,0.137804,-0.088874,0.144708,-0.122104,-0.0828756,-0.0087738,0.0308609,0.0216293,0.0107574,0.0526047,-0.0248337,0.0439072,0.00976563,-9.97986,-0.00488281,0.00301361,0.0777054,0.24395,0.00732422,-0.0117493,0.0146866,0.0293732
8,7,3.62783,0.0012207,0.00656128,-2.42959,0.0532396,-0.0756734,0.0550435,0.154283,-0.0873481,0.143792,-0.121799,-0.0847066,0.00190735,0.0283432,0.0205994,0.0124741,0.0496674,-0.025177,0.041275,0.0110626,-9.97986,0.0163651,-0.00247955,0.0721359,0.261345,0.00629425,-0.0149918,0.0176239,0.0299835
8,8,10.0097,0.00183105,0.00595093,-2.42928,0.0532396,-0.0747579,0.0513814,0.155199,-0.0903999,0.143792,-0.121494,-0.0850118,0.00137329,0.030098,0.0230408,0.01297,0.0554657,-0.0237656,0.0498581,0.00675201,-9.97986,0.0265503,-0.0037384,0.0685501,0.267639,0.0119781,-0.0154877,0.0104141,0.0261307
8,9,10.0097,0.000305176,0.00274658,-2.43172,0.0535448,-0.0768941,0.0504659,0.100878,-0.0968086,0.143182,-0.125766,-0.0886739,-0.0113678,0.0274658,0.0214386,0.0105286,0.0484848,-0.0215912,0.050087,0.00114441,-9.97986,0.0328445,-0.00038147,0.0673294,0.272179,0.00831604,-0.0161362,0.0127411,0.0255203
9,0,10.0097,0.00244141,0.000915527,-2.42989,0.0529344,-0.0756734,0.050771,0.082567,-0.0971137,0.142267,-0.127598,-0.0886739,-0.0151825,0.0306702,0.0235367,0.0137329,0.055542,-0.0142288,0.057373,0.00354767,-9.97986,0.0296021,0.0044632,0.0638962,0.27401,0.00362396,-0.0135422,0.00972748,0.0204468
9,1,10.0097,0,0,-2.42928,0.0541551,-0.0753682,0.0513814,0.0758531,-0.0961982,0.143487,-0.126072,-0.0868429,0.00087738,0.0319672,0.0213623,0.00915527,0.0556183,-0.0115585,0.0543594,-0.000305176,-9.97986,0.0139999,-0.000572205,0.06073,0.269432,0.00717163,-0.00732422,0.0108337,0.0208664
9,2,10.0097,0.00274658,-0.000610352,-2.42867,0.0541551,-0.0756734,0.0526021,0.0724962,-0.0934516,0.144708,-0.126987,-0.0850118,0.0264359,0.0289917,0.0246048,0.016098,0.0476837,-0.00801086,0.0608826,-0.000610352,-9.97986,0.0191498,-0.000686646,0.0543213,0.265579,0.00629425,-0.00728607,0.01194,0.0191879
9,3,10.0097,0,-0.000915527,-2.42714,0.0547655,-0.0759786,0.0532125,0.0712755,-0.094062,0.145929,-0.126377,-0.085317,0.0331879,0.0297928,0.0222015,0.0126648,0.0502014,-0.00480652,0.0605392,-0.000305176,-9.97986,0.0179672,-0.000724792,0.0510406,0.259285,0.00728607,-0.00473022,0.0062561,0.0135422
9,4,10.0097,0.000610352,0,-2.42623,0.055681,-0.0753682,0.0535176,0.0694445,-0.0931465,0.144403,-0.126377,-0.0844015,0.0276947,0.0287247,0.0210571,0.0146484,0.0532913,0.00137329,0.0673676,0.00556946,-9.97986,0.0230026,0.00339508,0.0489807,0.255585,0.00801086,-0.00453949,0.0087738,0.0144196
9,5,10.0097,0.000610352,0.000152588,-2.42653,0.0559862,-0.0738423,0.0553487,0.0715807,-0.0919257,0.145929,-0.124546,-0.0825704,0.00286102,0.0269318,0.022049,0.00881195,0.0502396,0.00225067,0.0632095,0.00591278,-9.97986,0.026207,0.00114441,0.0501251,0.258446,0.00480652,-0.0110245,0.0106812,0.0115204
9,6,10.0097,0.000305176,0.000762939,-2.42592,0.0562914,-0.0741475,0.0532125,0.0715807,-0.0928413,0.145624,-0.12363,-0.0819601,-0.00282288,0.0294876,0.0196075,0.00976563,0.0491714,0.00450134,0.0705719,0.00919342,-9.97986,0.0323868,-0.00411987,0.0447083,0.264091,0.00427246,-0.00469208,0.00484467,0.00919342
9,7,10.0097,0.0012207,0,-2.4244,0.0562914,-0.0735371,0.054128,0.07036,-0.0913154,0.14837,-0.12363,-0.0810445,0.00411987,0.0250626,0.0178528,0.0139236,0.0452042,0.00732422,0.0689316,0.00854492,-9.97986,0.0351715,-0.00408173,0.0422668,0.257416,-0.00221252,-0.00370026,0.0106049,0.00553131
9,8,10.0097,0.000305176,-0.00167847,-2.42776,0.0562914,-0.0744527,0.0516866,0.032213,-0.0980293,0.145929,-0.127292,-0.0831808,0.011673,0.0282669,0.0177002,0.0114059,0.0400162,0.00629425,0.0729752,0.00907898,-9.97986,0.0312042,0.00110626,0.0432205,0.257263,-0.00930786,0.00190735,0.00873566,7.62939e-005
9,9,3.60585,0.000610352,-0.00442505,-2.42684,0.0562914,-0.0771993,0.0519917,-0.0184462,-0.100471,0.144708,-0.130649,-0.0834859,0.0147247,0.0284195,0.0190735,0.0113678,0.0391388,0.00705719,0.0680923,0.0107574,-9.97986,0.0244141,-0.00240326,0.0473404,0.256691,-0.0114059,0.00484467,0.0106049,-0.000801086
10,0,-4.23259,0.00183105,-0.0050354,-2.42562,0.0559862,-0.0738423,0.0544332,-0.0187513,-0.0980293,0.147149,-0.132175,-0.0825704,0.0101852,0.0260544,0.0162506,0.0110626,0.0346756,0.0138092,0.0677872,0.0165558,-9.97986,0.0082016,0.000343323,0.0509262,0.254135,-0.0144196,0.00770569,0.0113678,-0.00415802
10,1,-9.99003,0.0012207,-0.00549316,-2.4244,0.0575121,-0.0729268,0.0565694,0.00200061,-0.0928413,0.147149,-0.128208,-0.0804342,0.00038147,0.0254059,0.016098,0.0131607,0.0346375,0.0100327,0.0670242,0.01297,-9.97986,-0.0025177,0.00190735,0.059967,0.246315,-0.0128937,0.0124741,0.0104523,-0.0063324
10,2,-9.99003,0.00396729,-0.00244141,-2.4244,0.0572069,-0.0741475,0.0565694,0.0343492,-0.0903999,0.146539,-0.126377,-0.0804342,-0.00164032,0.0226212,0.0195313,0.0102615,0.0351715,0.0116348,0.0640488,0.0127792,-9.97986,-0.0133133,0.000457764,0.0672531,0.247116,-0.0403976,0.00743866,0.00972748,-0.00999451
10,3,-9.99003,-0.000305176,-0.000610352,-2.42745,0.0553758,-0.0735371,0.0553487,0.0541857,-0.090705,0.146844,-0.125766,-0.0819601,0.00175476,0.0256729,0.0194168,0.0130081,0.0337219,0.010376,0.0589752,0.0152206,-9.97986,-0.0231552,-0.00183105,0.0794983,0.24559,-0.0444031,0.0108337,0.0104141,-0.0167084
10,4,-9.99003,0.00152588,-0.000152588,-2.42653,0.0547655,-0.0747579,0.055959,0.0639513,-0.0910102,0.145013,-0.125461,-0.0819601,-0.00232697,0.0218201,0.0174713,0.0113297,0.0263214,0.00728607,0.0582886,0.0190353,-9.97986,-0.0203705,0.00141144,0.087738,0.23983,-0.0360489,0.00476837,0.0159073,-0.0178528
10,5,-9.99003,0.000305176,0.00106812,-2.42531,0.0547655,-0.0747579,0.0556539,0.0966051,-0.088874,0.144403,-0.123325,-0.0831808,0.00133514,0.0247192,0.0142288,0.0115585,0.0269699,0.00541687,0.056076,0.0194168,-9.97986,-0.0287628,-0.00297546,0.0899506,0.228844,-0.0138474,-0.00358582,0.0088501,-0.0209427
10,6,-3.89293,-0.000915527,0.00396729,-2.42837,0.0529344,-0.075063,0.0553487,0.137193,-0.0879585,0.143792,-0.124241,-0.0847066,0.00286102,0.0249481,0.00938416,0.0147629,0.027771,0.00343323,0.0509262,0.0199509,-9.97986,-0.018158,0.00125885,0.0931168,0.2285,-0.014267,-0.0117874,0.0151443,-0.0193024
10,7,3.32418,0.000915527,0.0050354,-2.42714,0.0547655,-0.0759786,0.054128,0.154588,-0.0882636,0.144098,-0.121494,-0.0847066,0.00312805,0.0257492,0.0127029,0.0117874,0.023613,0.00305176,0.0518799,0.0148773,-9.97986,-0.00957489,-0.00160217,0.100899,0.233345,-0.013504,-0.0173187,0.0140381,-0.0226212
10,8,10.0097,0.000915527,0.00457764,-2.42806,0.0535448,-0.0759786,0.0535176,0.154588,-0.0897895,0.142877,-0.121494,-0.0850118,0.014267,0.0244141,0.017128,0.0151443,0.0229263,0.00476837,0.0423431,0.0107193,-9.97986,0.00865936,-0.00591278,0.0994873,0.240898,-0.0154495,-0.0182343,0.0147247,-0.022316
10,9,10.0097,0,0.00228882,-2.42959,0.0535448,-0.0768941,0.0504659,0.102709,-0.0974189,0.142267,-0.126072,-0.0895895,0.0317001,0.0280762,0.0170517,0.0123978,0.0200653,0.00267029,0.0395966,0.0170517,-9.97986,0.0271988,-0.000305176,0.0989914,0.243759,-0.0163269,-0.017395,0.0160217,-0.0232315
11,0,10.0097,-0.00244141,0.000457764,-2.42989,0.0529344,-0.0762837,0.0522969,0.0831774,-0.0961982,0.143792,-0.126682,-0.0883688,0.0310135,0.0233459,0.0188065,0.0149155,0.0211716,-0.00179291,0.0351334,0.0167465,-9.97986,0.0242615,0.00148773,0.0994492,0.243378,-0.00961304,-0.0157166,0.0172043,-0.0244141
11,1,10.0097,0.000610352,-0.000305176,-2.42898,0.0541551,-0.075063,0.0516866,0.0752428,-0.0965034,0.144098,-0.126682,-0.0865377,0.00656128,0.0262451,0.0154495,0.0131607,0.0172424,-0.00514984,0.0308609,0.0133896,-9.97986,0.0260544,-0.0012207,0.0993729,0.240364,-0.0157547,-0.017395,0.0192642,-0.0212097
11,2,10.0097,0.000610352,0.000610352,-2.42837,0.0544603,-0.0753682,0.0519917,0.0712755,-0.0952827,0.143792,-0.127292,-0.0862325,-0.0119019,0.0276566,0.0162888,0.0164795,0.0193405,-0.0063324,0.0315094,0.0105667,-9.97986,0.0146484,0.00228882,0.09758,0.242424,-0.0161743,-0.0187683,0.019722,-0.0231171
11,3,10.0097,0,-0.000457764,-2.42806,0.0547655,-0.0756734,0.0532125,0.0715807,-0.0931465,0.145318,-0.126987,-0.0847066,0.00370026,0.0258255,0.0133133,0.0155258,0.0182343,-0.00152588,0.025177,0.0162506,-9.97986,0.000152588,7.62939e-005,0.0872803,0.246887,-0.0208282,-0.0118637,0.0191116,-0.0223923
11,4,10.0097,0.000915527,0.000457764,-2.42745,0.0538499,-0.0747579,0.0538228,0.072191,-0.0934516,0.146539,-0.125461,-0.0837911,0.0328064,0.0247192,0.0162506,0.0174713,0.0117874,0.00270844,0.0276566,0.0227737,-9.97986,0.00148773,0.00415802,0.0815964,0.249214,-0.0166321,-0.0107193,0.0209045,-0.019455
11,5,10.0097,0.00213623,0.000610352,-2.42592,0.0550706,-0.0744527,0.0535176,0.0697496,-0.0916206,0.146539,-0.124546,-0.0822652,0.0426865,0.0222778,0.0193787,0.0134659,0.0124741,-0.00156403,0.0201416,0.0165176,-9.97986,0.00606537,-0.000190735,0.0709915,0.245399,-0.0160217,-0.01194,0.021553,-0.0209808
11,6,10.0097,-0.000305176,-0.000915527,-2.42653,0.0572069,-0.0744527,0.054128,0.0712755,-0.0922309,0.146234,-0.125156,-0.0825704,0.0508881,0.0148392,0.0169373,0.0149536,0.0123215,-0.00297546,0.0188065,0.0213242,-9.97986,0.00545502,0.0044632,0.065155,0.226479,-0.0186157,-0.00778198,0.023613,-0.0180054
11,7,10.0097,0.00152588,-0.000610352,-2.4247,0.0559862,-0.0738423,0.0544332,0.0718859,-0.0916206,0.146844,-0.123325,-0.0804342,0.0535583,0.0205994,0.0157928,0.0121307,0.0148392,0.00419617,0.0159836,0.0206757,-9.97986,0.020752,-0.00278473,0.064621,0.220451,-0.0199509,-0.00663757,0.0252533,-0.0131989
11,8,10.0097,-0.000610352,-0.00152588,-2.42745,0.0553758,-0.0747579,0.0519917,0.0337389,-0.0980293,0.145013,-0.127292,-0.0828756,0.0499725,0.0177002,0.0111771,0.0130844,0.00995636,-0.00137329,0.0110245,0.019722,-9.97986,0.0350952,-0.000762939,0.0576019,0.220757,-0.0191116,-0.00518799,0.0216293,-0.0165176
11,9,3.62691,0.000610352,-0.00488281,-2.42684,0.055681,-0.0756734,0.0519917,-0.018141,-0.101997,0.146539,-0.130039,-0.0834859,0.0453186,0.0173569,0.0137711,0.0127029,0.00904083,0.0012207,0.0124359,0.021553,-9.97986,0.0366974,0.00461578,0.0547028,0.20649,-0.00923157,-0.00511169,0.0246811,-0.0143814
12,0,-4.31254,0.00152588,-0.0050354,-2.42562,0.0572069,-0.0744527,0.0547383,-0.0202772,-0.0974189,0.147455,-0.130649,-0.0822652,0.034256,0.0219727,0.0175476,0.0141525,0.0120544,0.00350952,0.0133133,0.0206757,-9.97986,0.0320053,-0.00301361,0.0453949,0.1968,-0.00133514,-0.000305176,0.0224686,-0.0135422
12,1,-9.99003,0.00152588,-0.00579834,-2.4247,0.0565965,-0.0738423,0.0547383,0.00352649,-0.0937568,0.144708,-0.127903,-0.0798238,0.0110245,0.0249481,0.0123596,0.0140762,0.0102234,0.000724792,0.0115204,0.0220871,-9.97986,0.0241852,-0.00221252,0.0505066,0.186005,7.62939e-005,0.00263214,0.0235367,-0.0167465
12,2,-9.99003,0.000915527,-0.00305176,-2.4247,0.0559862,-0.0735371,0.0568746,0.0346544,-0.090705,0.147149,-0.126987,-0.0813497,-0.0111008,0.0204086,0.0177002,0.0115585,0.00896454,0,0.0062561,0.0204086,-9.97986,0.0206375,-0.000305176,0.0514984,0.181313,-0.0225449,0.00038147,0.0232315,-0.0190353
12,3,-9.99003,-0.000610352,-0.0012207,-2.42531,0.0559862,-0.0753682,0.0553487,0.054796,-0.0913154,0.145929,-0.126072,-0.0825704,-0.0317001,0.0230789,0.0181961,0.0146103,0.00961304,0.00328064,0.00667572,0.0251007,-9.97986,0.022583,-0.00282288,0.0519943,0.170593,-0.0165558,0.00198364,0.0252151,-0.0177383
12,4,-9.99003,0.000610352,-0.000915527,-2.42562,0.055681,-0.0768941,0.0547383,0.0636461,-0.0916206,0.145318,-0.125156,-0.0828756,-0.0363159,0.0223541,0.0181961,0.0109863,0.0139618,0.0018692,0.0044632,0.0256729,-9.97986,0.0216293,-0.00514984,0.0547028,0.162239,-0.0107956,-0.0031662,0.0276184,-0.0206375
12,5,-9.99003,0.000610352,0.000305176,-2.42623,0.0559862,-0.075063,0.0550435,0.100267,-0.0870429,0.145929,-0.12241,-0.0819601,-0.0531006,0.0207901,0.0185394,0.00846863,0.0105667,-0.00408173,-0.00175476,0.017662,-9.97986,0.0100708,-0.00911713,0.0570679,0.154762,0.018692,-0.0037384,0.0224686,-0.0208282
12,6,-3.91185,0.000305176,0.00442505,-2.42653,0.0532396,-0.0753682,0.0553487,0.136278,-0.0885688,0.144098,-0.122715,-0.0840963,-0.0417328,0.0230408,0.0219345,0.014801,0.0135422,0.00141144,0.00205994,0.0251007,-9.97986,0.00442505,-0.000915527,0.057373,0.1548,0.0230789,-0.0075531,0.0239182,-0.0204468
12,7,3.32418,0.000915527,0.00457764,-2.42745,0.0541551,-0.0744527,0.0550435,0.153978,-0.0879585,0.143792,-0.121189,-0.0850118,-0.0281906,0.0317764,0.0205612,0.0118256,0.0110626,0.00236511,-0.00190735,0.0196457,-9.97986,-0.00171661,-0.00209808,0.0572586,0.158157,0.0279999,-0.00743866,0.0275803,-0.0189209
12,8,10.0097,-0.00152588,0.00457764,-2.42867,0.0541551,-0.075063,0.0526021,0.154283,-0.0885688,0.143792,-0.121799,-0.0862325,-0.00488281,0.0234222,0.0162888,0.0116348,0.0107193,0.0037384,-0.00244141,0.0193024,-9.97986,-0.00823975,-0.00606537,0.057106,0.149841,0.029335,-0.00671387,0.0241089,-0.0197983
12,9,10.0097,0.00244141,0.000610352,-2.43111,0.0532396,-0.0762837,0.04894,0.103929,-0.0968086,0.143182,-0.125461,-0.0898946,0.0165939,0.0210571,0.0171661,0.0127792,0.00793457,0.00259399,0.000686646,0.0193405,-9.97986,-0.00980377,-0.00469208,0.0514984,0.147629,0.0351715,-0.00164032,0.0231934,-0.0145721
13,0,10.0097,-0.000915527,-0.000305176,-2.4302,0.0529344,-0.0768941,0.0492452,0.0840929,-0.095893,0.143792,-0.127598,-0.0886739,0.0290298,0.0189209,0.0141144,0.00972748,0.00667572,0.00434875,-0.00343323,0.0186157,-9.97986,0.00621796,-0.00190735,0.049324,0.135612,0.0362778,-0.00488281,0.0268555,-0.0187683
13,1,10.0097,0.00152588,-0.00106812,-2.42959,0.0535448,-0.0756734,0.0519917,0.0764635,-0.0955879,0.143182,-0.126682,-0.0871481,0.0156403,0.018959,0.0164795,0.0173569,0.0104523,0.0037384,-0.00324249,0.0183105,-9.97986,0.0397873,0.000572205,0.0495911,0.127678,0.0353241,0.00240326,0.0283051,-0.0193787
13,2,10.0097,-0.000915527,-0.000762939,-2.42867,0.0544603,-0.0756734,0.0522969,0.0724962,-0.0946723,0.145013,-0.126682,-0.0859274,0.00339508,0.0173187,0.00961304,0.0131226,0.0069809,0.0031662,-0.0030899,0.0187683,-9.97986,0.0513458,0.00102997,0.0462723,0.120087,0.0367737,0.00205994,0.0298309,-0.0153732
13,3,10.0097,-0.00152588,-0.000457764,-2.42684,0.0550706,-0.075063,0.0529073,0.0700548,-0.094062,0.144098,-0.128513,-0.0847066,-0.00896454,0.0161743,0.00911713,0.0108337,0.00385284,0.0043869,-0.00621796,0.0202942,-9.97986,0.0352097,-0.000724792,0.0328064,0.114288,0.0367355,-0.00114441,0.0295258,-0.0134659
13,4,10.0097,0,-0.00167847,-2.42837,0.0547655,-0.0756734,0.0529073,0.0709703,-0.094062,0.145318,-0.125156,-0.0837911,-0.0133514,0.0225067,0.0146484,0.0114059,0.00434875,0.00720978,-0.00709534,0.0242996,-9.97986,0.0312424,0.00156403,0.0334549,0.105133,0.0376129,-0.00514984,0.0271606,-0.0126266
13,5,10.0097,-0.000915527,-0.000457764,-2.42592,0.0559862,-0.0747579,0.0580953,0.0712755,-0.0913154,0.146539,-0.124851,-0.0831808,-0.0222397,0.0216293,0.0109863,0.00995636,0.00774384,0.00785828,-0.00663757,0.0246048,-9.97986,0.0273514,-0.0094986,0.025444,0.0954819,0.0385284,-0.00762939,0.0287247,-0.0134277
13,6,10.0097,0,-0.000457764,-2.42562,0.0553758,-0.0738423,0.0547383,0.0718859,-0.0916206,0.148065,-0.123935,-0.0813497,-0.0216293,0.0186157,0.0139618,0.00701904,0.0012207,0.00591278,-0.00637054,0.0271988,-9.97986,0.0251389,-0.00385284,0.0183105,0.0930023,0.0377655,-0.00659943,0.027771,-0.014267
13,7,10.0097,0,-0.000152588,-2.42531,0.0562914,-0.0744527,0.0532125,0.0731066,-0.0922309,0.147455,-0.123325,-0.0810445,-0.0104523,0.02285,0.0171661,0.0131989,0.00595093,0.00667572,-0.00152588,0.0260544,-9.97986,0.0302124,-0.00537872,0.00507355,0.0881195,0.0401306,-0.00392914,0.0289536,-0.0120926
13,8,10.0097,0,-0.00198364,-2.42776,0.055681,-0.0744527,0.0556539,0.0325182,-0.0965034,0.145318,-0.128513,-0.0837911,-0.00930786,0.0221252,0.0136185,0.0114822,0.00617981,0.00736237,-0.00526428,0.0275421,-9.97986,0.039978,0.00125885,0.00152588,0.0826645,0.0421906,-0.00576019,0.0270081,-0.0105667
13,9,3.64949,-0.000915527,-0.0050354,-2.42684,0.055681,-0.075063,0.0498555,-0.018141,-0.0998603,0.145929,-0.130954,-0.0847066,-0.00202179,0.0295639,0.0125885,0.0126648,0.00152588,0.00782013,-0.00442505,0.0293732,-9.97986,0.0479507,-0.00160217,-0.00534058,0.0772858,0.040741,-0.00801086,0.025444,-0.00682831
14,0,-4.3043,0,-0.00549316,-2.42592,0.0565965,-0.075063,0.0529073,-0.0172255,-0.0965034,0.146234,-0.130039,-0.0819601,0.00480652,0.0242615,0.0127029,0.0088501,0.00377655,0.0107193,-0.00274658,0.0281525,-9.97986,0.0553513,0.00263214,-0.00736237,0.0710297,0.0421143,-0.00724792,0.0251007,-0.0056076
14,1,-9.99003,0.000610352,-0.0050354,-2.4244,0.0562914,-0.0726216,0.0519917,0.00230578,-0.0934516,0.146844,-0.127903,-0.0810445,0.00774384,0.0232315,0.0151825,0.011673,-3.8147e-005,0.0127029,-0.00270844,0.0242996,-9.97986,0.0503922,-0.00320435,-0.0134277,0.0644684,0.0471115,-0.0110626,0.022583,-0.00556946
14,2,-9.99003,-0.0012207,-0.00289917,-2.4244,0.0553758,-0.0738423,0.0574849,0.0346544,-0.090705,0.147455,-0.126987,-0.0810445,0.0164795,0.0241089,0.0167084,0.0142288,0.00244141,0.00659943,-0.00263214,0.0200272,-9.97986,0.0403595,-0.00328064,-0.0127411,0.0606155,0.0210571,-0.0107193,0.0184631,-0.00312805
14,3,-9.99003,-0.000305176,-0.00183105,-2.42562,0.055681,-0.0744527,0.0553487,0.0544908,-0.0916206,0.144708,-0.126072,-0.0822652,0.0159073,0.0271988,0.0142288,0.0110245,0.00602722,0.010376,-0.00114441,0.0215912,-9.97986,0.0226212,-0.00133514,-0.017128,0.0526428,0.0191498,-0.0043869,0.0217056,0.000114441
14,4,-9.99003,0.00152588,-0.000915527,-2.42684,0.0553758,-0.0741475,0.0513814,0.0630358,-0.0916206,0.144403,-0.125461,-0.0831808,0.0255966,0.0266266,0.0150299,0.0122833,0.00553131,0.00972748,-0.00297546,0.0240707,-9.97986,0.0114059,-0.00411987,-0.0199127,0.0471878,0.0235367,-0.00087738,0.0197601,0.00144958
14,5,-9.99003,0,0.00106812,-2.42684,0.0550706,-0.0759786,0.0562642,0.099962,-0.0879585,0.146234,-0.120884,-0.0828756,0.0345612,0.0247574,0.0227737,0.011673,0.00541687,0.0101089,0.000190735,0.0257111,-9.97986,-0.00179291,-0.00297546,-0.019989,0.0438309,0.0436783,0.0038147,0.0174332,0.00133514
14,6,-3.91856,0.000915527,0.00396729,-2.42684,0.0541551,-0.0759786,0.0547383,0.135668,-0.0885688,0.144708,-0.12363,-0.0844015,0.0244522,0.0277328,0.0158691,0.0123596,0.000915527,0.0118256,-0.000152588,0.0246811,-9.97986,-0.0127411,-0.00255585,-0.0195313,0.0439835,0.050621,0.00556946,0.0172043,0.00724792
14,7,3.2845,0.000915527,0.00396729,-2.4302,0.0541551,-0.0762837,0.0544332,0.154588,-0.0903999,0.142267,-0.121189,-0.085317,0.0115204,0.0266266,0.0181961,0.012207,0.00617981,0.0127792,-0.00301361,0.0243378,-9.97986,-0.0176239,0.00202179,-0.0217438,0.0394058,0.045166,0.00995636,0.0182343,0.00553131
14,8,10.0097,-0.000305176,0.00442505,-2.42959,0.0538499,-0.0762837,0.0535176,0.154283,-0.090705,0.143182,-0.121494,-0.0859274,0.0175095,0.0307083,0.0230026,0.0133514,0.00389099,0.0139618,0.00198364,0.0295639,-9.97986,-0.00976563,0.00396729,-0.0205612,0.0328445,0.0534821,0.0131226,0.0162506,0.0120544
14,9,10.0097,-0.000915527,0.000762939,-2.43111,0.0538499,-0.0771993,0.0495503,0.104234,-0.0971137,0.141961,-0.125461,-0.0898946,0.0162125,0.0254822,0.0149155,0.00988007,0.00331879,0.00862122,0.000114441,0.0223923,-9.97986,-0.00709534,0.000305176,-0.0206757,0.0232697,0.0490189,0.0128937,0.0125122,0.0118256
15,0,10.0097,-0.000610352,0.000457764,-2.43142,0.0544603,-0.0771993,0.0501607,0.0840929,-0.0977241,0.142877,-0.126377,-0.0883688,0.0213242,0.0265121,0.0212097,0.0138474,0.0063324,0.0136566,0.000648499,0.0263596,-9.97986,0.0122833,0.001297,-0.0175858,0.0255203,0.0486755,0.00858307,0.00999451,0.017395
15,1,10.0097,-0.000305176,-0.000457764,-2.42867,0.0541551,-0.0759786,0.0519917,0.0752428,-0.0946723,0.145013,-0.126377,-0.0874532,0.0101089,0.0240326,0.0222015,0.0150299,-0.000686646,0.0100708,-0.00198364,0.0243378,-9.97986,0.0244904,-7.62939e-005,-0.0184631,0.0198746,0.0491333,0.00823975,0.0136185,0.0139236
15,2,10.0097,0.00152588,-0.00106812,-2.42928,0.0544603,-0.075063,0.0522969,0.0718859,-0.0943672,0.144403,-0.126377,-0.0856222,0.00999451,0.0294495,0.0202179,0.016098,0.00286102,0.00999451,0.00247955,0.0231171,-9.97986,0.0193787,-0.00289917,-0.0172043,0.0131226,0.0520325,0.00499725,0.00991821,0.0235367
15,3,10.0097,0.000305176,-0.000457764,-2.42776,0.0541551,-0.075063,0.0529073,0.072191,-0.0922309,0.145624,-0.126682,-0.085317,0.00816345,0.027771,0.0204849,0.0141907,0.00221252,0.0120163,0.00583649,0.0183487,-9.97986,0.026741,-0.000839233,-0.0194168,0.00293732,0.0481033,0.00564575,0.0127029,0.0250626
15,4,10.0097,0.0012207,-0.000610352,-2.42745,0.0544603,-0.0747579,0.0538228,0.07036,-0.0937568,0.145929,-0.126072,-0.0850118,0.0103378,0.0252914,0.0188065,0.0128555,0.000648499,0.0142288,0.00232697,0.0218964,-9.97986,0.0234985,-0.000801086,-0.0215149,-0.00541687,0.0486755,0.00816345,0.0138855,0.0300217
15,5,10.0097,0.000915527,-0.00183105,-2.42592,0.0559862,-0.0747579,0.054128,0.0715807,-0.0922309,0.145318,-0.126072,-0.0847066,0.0138855,0.0305939,0.0201416,0.0169373,0.00362396,0.0107956,0.000915527,0.0230789,-9.97986,0.0210953,-0.0019455,-0.0167084,-0.0173187,0.0496292,0.00606537,0.0139236,0.034256
15,6,10.0097,0.00213623,-0.00106812,-2.4247,0.0562914,-0.075063,0.0532125,0.0700548,-0.0931465,0.147149,-0.125766,-0.0825704,-0.0144577,0.0267029,0.0197983,0.011673,0.0030899,0.0127029,-0.00114441,0.0189972,-9.97986,0.0211334,-0.00385284,-0.0228119,-0.0182343,0.0506973,0.00354767,0.0121689,0.0347519
15,7,10.0097,-0.000305176,-0.000915527,-2.4247,0.0562914,-0.0741475,0.0544332,0.0706652,-0.090705,0.147455,-0.123935,-0.0813497,-0.0381088,0.0251007,0.0165176,0.0136185,0.00350952,0.0114822,0.00469208,0.0201416,-9.97986,0.0194931,-0.0019455,-0.0239944,-0.0328064,0.0440216,0.00408173,0.0110626,0.033226
15,8,10.0097,0.000610352,-0.00198364,-2.42623,0.0559862,-0.0747579,0.0519917,0.0316027,-0.0968086,0.147455,-0.127598,-0.0834859,-0.0294876,0.0263214,0.018959,0.0133896,0.00465393,0.01091,0.00236511,0.0192261,-9.97986,0.00694275,-0.00389099,-0.0167084,-0.0353622,0.0475693,0.00629425,0.0139999,0.0399017
15,9,3.7563,0.000305176,-0.00488281,-2.42776,0.0562914,-0.0738423,0.0535176,-0.0184462,-0.100776,0.146234,-0.130649,-0.0834859,-0.0106812,0.0300217,0.0217438,0.0141525,0.00259399,0.0166702,0.00434875,0.0237656,-9.97986,-0.00366211,0.00102997,-0.0233459,-0.0466919,0.045433,0.00679016,0.0110626,0.0385666
16,0,-4.15507,0.000610352,-0.00534058,-2.42592,0.0559862,-0.0747579,0.0529073,-0.018141,-0.0965034,0.146234,-0.130954,-0.0822652,0.0104904,0.0257111,0.0196075,0.0102234,0.00247955,0.0123596,0.00354767,0.0200272,-9.97986,-0.0147247,-0.000343323,-0.020752,-0.0465775,0.0449371,0.00637054,0.0150299,0.0383759
16,1,-9.99003,-0.000915527,-0.00518799,-2.42531,0.0562914,-0.0738423,0.0556539,0.00413684,-0.0925361,0.147149,-0.128513,-0.0804342,0.0297928,0.0243378,0.0193787,0.0100327,0.00179291,0.0109482,0.00507355,0.022049,-9.97986,-0.0215149,-0.00469208,-0.0150299,-0.0477219,0.045929,0.00396729,0.0133514,0.0383377
16,2,-9.99003,-0.000610352,-0.00198364,-2.42409,0.0559862,-0.0741475,0.0556539,0.0337389,-0.090705,0.145929,-0.126682,-0.080129,0.0466156,0.0232697,0.017128,0.0104141,0.00434875,0.0159454,0.00415802,0.0208664,-9.97986,-0.0113297,0.00148773,-0.0178909,-0.0439453,0.0209427,-0.00160217,0.0167084,0.0385284
16,3,-9.99003,0.00274658,-0.000610352,-2.42592,0.0550706,-0.075063,0.0550435,0.0557115,-0.0903999,0.144403,-0.126682,-0.0813497,0.0521088,0.0227356,0.0152969,0.00892639,0.00312805,0.0131989,0.00175476,0.0149155,-9.97986,0.00862122,-0.000686646,-0.0167084,-0.0428391,0.0256729,-0.00228882,0.0186157,0.0403214
16,4,-9.99003,0.000915527,0.000457764,-2.42592,0.0550706,-0.0744527,0.0547383,0.0627306,-0.0922309,0.145318,-0.125766,-0.0825704,0.0585938,0.0196075,0.0164413,0.0114441,0.00488281,0.0138092,-7.62939e-005,0.0187302,-9.97986,0.0411224,-0.00152588,-0.0094986,-0.0400543,0.0251007,0.00377655,0.0170517,0.0401306
16,5,-9.99003,0.000915527,0.0012207,-2.42653,0.0553758,-0.0747579,0.0550435,0.0990465,-0.0885688,0.145624,-0.12363,-0.0828756,0.0512314,0.017662,0.0206757,0.00988007,0.010643,0.0124741,0.000801086,0.0156784,-9.97986,0.0576401,-0.00144958,-0.00988007,-0.03685,0.0455856,0.00728607,0.0169373,0.0402832
16,6,-3.74919,0.000305176,0.00427246,-2.42745,0.0535448,-0.0756734,0.054128,0.136278,-0.0882636,0.144403,-0.12241,-0.0837911,0.0404358,0.0193787,0.0182343,0.00869751,0.0075531,0.0112915,-0.00267029,0.0141144,-9.97986,0.0520706,-0.0037384,-0.00873566,-0.0357056,0.0428391,0.0056839,0.0204468,0.0406647
16,7,3.72548,0.000915527,0.00518799,-2.42837,0.0526292,-0.0753682,0.054128,0.151537,-0.088874,0.143182,-0.120884,-0.0850118,0.0438309,0.0267029,0.0209045,0.0128937,0.000686646,0.0107574,0.00152588,0.0180817,-9.97986,0.0473785,0.00133514,-0.00804901,-0.0311661,0.0430679,0.00823975,0.0199127,0.0466537
16,8,10.0097,0.0012207,0.00457764,-2.42959,0.0538499,-0.0765889,0.0526021,0.153978,-0.0916206,0.144708,-0.121189,-0.0859274,0.00965118,0.0221634,0.0164413,0.0115967,0.00469208,0.0125504,0.00209808,0.0201416,-9.97986,0.0419617,-0.00667572,-0.00244141,-0.0242996,0.0420761,0.0100327,0.0253677,0.0424957
16,9,10.0097,0.000915527,0.00228882,-2.43081,0.0529344,-0.0768941,0.0495503,0.100878,-0.0983344,0.142572,-0.126377,-0.0889791,-0.0131607,0.0199127,0.0186157,0.00846863,0.0044632,0.0114441,0.00419617,0.0210571,-9.97986,0.0317001,-0.00572205,-0.00190735,-0.0195313,0.039711,0.00782013,0.0222397,0.0452805
17,0,10.0097,0.000305176,0.00106812,-2.42989,0.0541551,-0.0762837,0.0510762,0.0828722,-0.0971137,0.142572,-0.126377,-0.0880636,-0.0204086,0.0192261,0.0164795,0.00728607,0.00713348,0.0104904,0.00205994,0.023613,-9.97986,0.0342941,-0.00705719,-0.00442505,-0.0117493,0.0314713,-0.000839233,0.0230026,0.0421143
17,1,10.0097,0,0.000457764,-2.42776,0.055681,-0.0753682,0.0510762,0.0731066,-0.095893,0.143182,-0.126072,-0.0868429,-0.0348282,0.0229645,0.0168228,0.00724792,0.00331879,0.0143051,0.00419617,0.0230789,-9.97986,0.0222015,-0.00114441,-0.00598907,-0.0131226,0.0271988,-0.00350952,0.0221634,0.0423431
17,2,10.0097,0.00274658,0.000305176,-2.42959,0.0550706,-0.0741475,0.0516866,0.0728014,-0.0946723,0.142267,-0.126377,-0.0859274,-0.0316238,0.0176239,0.0220108,0.00579834,0.0082016,0.0130463,0.00205994,0.0273132,-9.97986,0.0121307,-0.00286102,-0.00301361,-0.0075531,0.0250626,-0.0167465,0.0253296,0.0429153
17,3,10.0097,0.000610352,0.000152588,-2.42714,0.0547655,-0.0747579,0.0522969,0.0718859,-0.0937568,0.144098,-0.125766,-0.0850118,-0.0260162,0.0226212,0.0205612,0.00572205,0.0100327,0.0175858,0.00526428,0.0221634,-9.97986,-0.000915527,-0.00587463,-0.00530243,-0.0105286,0.0251007,-0.0199127,0.0215149,0.038147
17,4,10.0097,-0.000915527,0.000762939,-2.42745,0.055681,-0.0744527,0.0538228,0.0718859,-0.0931465,0.145318,-0.126682,-0.0840963,-0.00362396,0.0259399,0.0189209,0.0116348,0.0111389,0.0157928,0.00453949,0.0252151,-9.97986,0.00782013,0.000572205,-0.000839233,-0.00976563,0.0229263,-0.0126648,0.0239944,0.0398636
17,5,10.0097,0.00152588,0.000610352,-2.42592,0.0565965,-0.0735371,0.054128,0.0718859,-0.0931465,0.146234,-0.125461,-0.0837911,0.0229263,0.0258636,0.021553,0.00598907,0.00461578,0.0158691,0.00705719,0.0231171,-9.97986,0.0134659,-0.00572205,-0.001297,-0.00694275,0.00713348,-0.0107956,0.0203705,0.0350189
17,6,10.0097,0.00183105,0.000457764,-2.42592,0.0565965,-0.073232,0.0550435,0.0715807,-0.0919257,0.14776,-0.124241,-0.0810445,0.0367355,0.0292206,0.023613,0.0100327,0.0117874,0.0156403,0.01297,0.0187302,-9.97986,0.0158691,-0.00766754,-0.00274658,0.00114441,0.00305176,-0.00255585,0.0226593,0.0347519
17,7,10.0097,0.00152588,0,-2.42592,0.0559862,-0.0738423,0.0556539,0.0712755,-0.0913154,0.147455,-0.124241,-0.0813497,0.0415039,0.0252533,0.0232315,0.00862122,0.0116348,0.0177765,0.0119019,0.0172806,-9.97986,0.00988007,-0.00205994,-0.00831604,-0.00469208,0.00968933,0.0104523,0.0222778,0.0346375
17,8,10.0097,-0.000305176,-0.000610352,-2.42714,0.0559862,-0.0744527,0.0529073,0.0316027,-0.0968086,0.145624,-0.127292,-0.0825704,0.0427246,0.0291443,0.02285,0.00988007,0.0122833,0.0151443,0.0108337,0.0129318,-9.97986,-0.0018692,0.00297546,-0.0037384,-0.00221252,0.0056839,0.0147247,0.0247955,0.0305557
17,9,3.64278,0.00213623,-0.00411987,-2.42714,0.0565965,-0.0753682,0.0513814,-0.0184462,-0.100471,0.146234,-0.130954,-0.0834859,0.0239563,0.0281906,0.0256729,0.0120544,0.0114059,0.0146484,0.012207,0.021019,-9.97986,-0.00961304,0.000762939,-0.00328064,-0.00213623,0.0115967,0.0143814,0.0223541,0.0330353
18,0,-4.23381,-0.00183105,-0.00427246,-2.42592,0.0559862,-0.0726216,0.0538228,-0.018141,-0.0968086,0.146234,-0.130344,-0.0822652,0.0478745,0.0262451,0.026474,0.00900269,0.00705719,0.0156784,0.0110626,0.020256,-9.97986,-0.0219727,-0.00267029,0.00118256,-0.00488281,0.0105667,0.0119019,0.017128,0.027504
18,1,-9.99003,0.000610352,-0.00488281,-2.4244,0.0559862,-0.0729268,0.0547383,0.00139026,-0.0925361,0.148065,-0.128513,-0.0792135,0.0566483,0.0242996,0.0251007,0.00495911,0.00984192,0.00862122,0.0109482,0.0138474,-9.97986,-0.0299835,0.00167847,-0.000228882,0.000495911,0.0117493,0.01297,0.0191879,0.0269318
18,2,-9.99003,-0.000610352,-0.00167847,-2.4244,0.0572069,-0.075063,0.0565694,0.0346544,-0.0897895,0.145929,-0.126377,-0.080129,0.038681,0.0230408,0.0279617,0.00640869,0.0140762,0.012207,0.0163651,0.0122452,-9.97986,-0.0310898,-0.00274658,-0.00282288,0.000801086,-0.0111008,0.00362396,0.0241852,0.0244904
18,3,-9.99003,-0.000610352,-0.000305176,-2.42653,0.0553758,-0.0759786,0.0577901,0.0560167,-0.0897895,0.146844,-0.126377,-0.0822652,0.0195313,0.0225067,0.0279999,0.00984192,0.0131607,0.0102234,0.0130463,0.0144577,-9.97986,-0.0205612,0.000152588,-0.00137329,-0.00148773,-0.0138474,0.00442505,0.0206757,0.0217056
18,4,-9.99003,0.00152588,-0.000762939,-2.42592,0.0550706,-0.0759786,0.0550435,0.0627306,-0.0922309,0.145929,-0.127598,-0.0822652,0.0162506,0.023613,0.0328445,0.0075531,0.0186157,0.0114059,0.01297,0.0116348,-9.97986,0.00431061,-0.000648499,-0.00263214,-0.00331879,-0.0116348,0.000991821,0.0199127,0.0228119
18,5,-9.99003,0.00152588,0.00137329,-2.42531,0.0547655,-0.0744527,0.0562642,0.0953844,-0.0885688,0.145624,-0.123325,-0.0825704,0.023613,0.0222397,0.033493,0.0110245,0.0131989,0.0160599,0.0119019,0.0178909,-9.97986,0.0186539,-7.62939e-005,-0.00335693,-0.00205994,0.0128937,-0.00961304,0.0232315,0.0244141
18,6,-4.10472,0.00244141,0.00427246,-2.42837,0.0535448,-0.0768941,0.0547383,0.136583,-0.0894843,0.144708,-0.12241,-0.0840963,0.026741,0.019455,0.0284576,0.0106049,0.0145721,0.0142288,0.00995636,0.0270462,-9.97986,0.0270462,-0.0038147,-0.0031662,0.0037384,0.0120544,-0.0165558,0.0251389,0.0208664
18,7,3.32692,0.000305176,0.0050354,-2.42837,0.0547655,-0.0744527,0.0544332,0.152757,-0.0885688,0.143792,-0.12241,-0.0847066,0.0281143,0.0177765,0.0214386,0.0108719,0.0138092,0.0144577,0.00789642,0.0253296,-9.97986,0.0318909,0.000801086,0.00209808,0.00183105,0.00656128,-0.0211716,0.0181198,0.0192642
18,8,10.0097,0.000915527,0.00396729,-2.42898,0.0541551,-0.0756734,0.0519917,0.153368,-0.0900947,0.143792,-0.121494,-0.0859274,0.0209427,0.0172806,0.0196075,0.00686646,0.0180817,0.0130463,0.00648499,0.0260162,-9.97986,0.015564,0.000114441,-7.62939e-005,0.00431061,0.0128174,-0.0228882,0.0205612,0.017395
18,9,10.0097,0.000610352,0.00198364,-2.4305,0.0529344,-0.0771993,0.0516866,0.103624,-0.0974189,0.141351,-0.125766,-0.0892843,0.00289917,0.0146484,0.0102615,0.0056839,0.0147629,0.0132751,0.00587463,0.0263214,-9.97986,-0.00133514,-0.00087738,-0.0019455,0.00961304,0.0115967,-0.0122452,0.0204468,0.0170517
19,0,10.0097,0.000610352,0.000762939,-2.42989,0.0532396,-0.0765889,0.050771,0.0831774,-0.095893,0.142572,-0.126987,-0.0880636,-0.0012207,0.0154495,0.0111008,0.00999451,0.0150299,0.0179672,0.0043869,0.0265884,-9.97986,-0.0153732,-0.00305176,-0.00297546,0.00553131,0.00850677,-0.00671387,0.0183105,0.0125885
19,1,10.0097,0.000610352,0.00167847,-2.42928,0.0544603,-0.0759786,0.0516866,0.0749376,-0.0955879,0.143792,-0.126682,-0.0871481,0.000686646,0.0191116,0.00957489,0.0114822,0.0165176,0.0119781,0.00545502,0.0259781,-9.97986,-0.0120926,-0.00598907,0.00301361,0.0111008,0.01194,0.00301361,0.0167465,0.0122833
19,2,10.0097,0,0,-2.42806,0.0541551,-0.0729268,0.0522969,0.0731066,-0.094062,0.141961,-0.126377,-0.0859274,0.00530243,0.0182724,0.0087738,0.00915527,0.0164795,0.0113297,0.0043869,0.0244141,-9.97986,0.0043869,-0.00179291,0.00534058,0.00984192,0.0102997,0.00228882,0.0198746,0.0136566
19,3,10.0097,0.000610352,0.000762939,-2.42745,0.0547655,-0.073232,0.0532125,0.072191,-0.0934516,0.143792,-0.125766,-0.085317,0.00858307,0.0207138,0.0121307,0.0094986,0.0146866,0.0104141,0.00602722,0.0215149,-9.97986,0.0191498,-0.00579834,0.00335693,0.0173187,0.0108719,0.00591278,0.0233841,0.00740051
19,4,10.0097,0.000610352,-0.0012207,-2.42714,0.055681,-0.0759786,0.0535176,0.0718859,-0.0931465,0.145318,-0.126682,-0.0844015,0.00556946,0.0186539,0.0148773,0.0109863,0.0140762,0.00972748,0.0118256,0.0256729,-9.97986,0.0347519,-0.00305176,0.0044632,0.0182724,0.00980377,0.00572205,0.0198746,0.00720978
19,5,10.0097,0.000610352,0.000152588,-2.42592,0.0559862,-0.073232,0.0562642,0.0715807,-0.0928413,0.144708,-0.125156,-0.0822652,0.00293732,0.018158,0.0152206,0.00972748,0.0134659,0.0138092,0.012207,0.0242615,-9.97986,0.0539398,0.0019455,0.0063324,0.0209045,0.0121689,0.00324249,0.020256,0.00873566
19,6,10.0097,0.000305176,0.000305176,-2.42501,0.0559862,-0.0735371,0.054128,0.0718859,-0.0919257,0.144708,-0.123935,-0.0810445,-0.00453949,0.0232315,0.0175858,0.0143433,0.0209808,0.0157166,0.0193024,0.026741,-9.97986,0.0531387,-3.8147e-005,0.00598907,0.0270844,0.0134659,0.00389099,0.0188828,0.0056839
19,7,10.0097,0.000915527,0.00198364,-2.42562,0.0550706,-0.0744527,0.0544332,0.0734117,-0.0916206,0.146234,-0.124851,-0.0804342,-0.0107574,0.0177002,0.016861,0.00862122,0.0146484,0.0141525,0.0189209,0.0226593,-9.97986,0.0467682,-0.0019455,0.00442505,0.0329208,0.0158691,-0.00572205,0.014801,0.00370026
19,8,10.0097,0.000305176,-0.00167847,-2.42714,0.0569017,-0.0747579,0.0532125,0.032213,-0.0971137,0.145013,-0.127292,-0.0828756,-0.00282288,0.0218201,0.0205231,0.00762939,0.0143814,0.0143051,0.0244522,0.0250244,-9.97986,0.0460434,0.00263214,0.00946045,0.0384521,0.0188828,-0.00511169,0.0145721,0.00480652
19,9,3.70992,0.00183105,-0.00350952,-2.42714,0.0559862,-0.0735371,0.050771,-0.0178358,-0.100165,0.147149,-0.129734,-0.0831808,-0.00694275,0.018959,0.0160217,0.0114441,0.0165176,0.0151825,0.0275803,0.0206757,-9.97986,0.0511932,-0.000152588,0.0108719,0.0418472,0.0198364,-0.00301361,0.0160217,0.00648499
20,0,-4.24968,0,-0.00473022,-2.42653,0.0565965,-0.0738423,0.0529073,-0.0187513,-0.0974189,0.146539,-0.130344,-0.0813497,-0.00743866,0.0239182,0.0191879,0.0102997,0.0165558,0.0123215,0.0344467,0.0197601,-9.97986,0.0511932,-0.00217438,0.00583649,0.0440979,0.0250244,-0.00480652,0.0167084,0.00331879
20,1,-9.99003,-0.000305176,-0.00473022,-2.42531,0.0550706,-0.0738423,0.0568746,0.00322131,-0.0934516,0.147455,-0.129429,-0.0810445,-0.00179291,0.0204086,0.0178909,0.00743866,0.0162125,0.015831,0.0415039,0.0230789,-9.97986,0.040741,0.000839233,0.0123215,0.0488281,0.0335693,-0.00999451,0.0144196,-0.000534058
20,2,-9.99003,-0.000305176,-0.0012207,-2.4244,0.0572069,-0.0726216,0.0562642,0.0346544,-0.0910102,0.14837,-0.125766,-0.0804342,0.0130844,0.0229263,0.0200272,0.0109863,0.0147247,0.0127029,0.03479,0.0165939,-9.97986,0.0318909,0.000343323,0.00518799,0.0508881,0.0109482,-0.0158691,0.0133514,-0.00293732
20,3,-9.99003,0.00152588,0,-2.42592,0.0547655,-0.0753682,0.0550435,0.0560167,-0.0876533,0.145624,-0.124851,-0.0825704,0.0335693,0.019989,0.0233841,0.00873566,0.0158691,0.0153351,0.0308609,0.0156784,-9.97986,0.0273514,-0.00114441,0.0105286,0.0567627,0.00679016,-0.0115967,0.013504,3.8147e-005
20,4,-9.99003,0,0.000152588,-2.42714,0.0541551,-0.0759786,0.055959,0.0627306,-0.0925361,0.146234,-0.125766,-0.0831808,0.0491333,0.0204849,0.0188065,0.0131989,0.016861,0.0146866,0.0300217,0.0159836,-9.97986,0.0212097,-0.000343323,0.00324249,0.0621414,0.00919342,-0.0149536,0.0143051,-0.00198364
20,5,-9.99003,0.00213623,0.00213623,-2.42592,0.0550706,-0.0744527,0.0565694,0.0969103,-0.0885688,0.144403,-0.124851,-0.0810445,0.0400925,0.0221252,0.0202179,0.013504,0.0145721,0.0160599,0.0281143,0.014267,-9.97986,0.0205231,-0.00282288,0.0111008,0.0632477,0.0324631,-0.0133514,0.0148392,-0.00331879
20,6,-3.96586,0,0.00473022,-2.42501,0.0553758,-0.0741475,0.0553487,0.135057,-0.0897895,0.142267,-0.121799,-0.0844015,0.0309753,0.0226593,0.0205994,0.012207,0.0161362,0.0120544,0.0186157,0.0191879,-9.97986,0.0143814,-0.00450134,0.0105286,0.07061,0.0326538,-0.0133896,0.0154877,-0.00137329
20,7,3.28694,0.00183105,0.00518799,-2.42776,0.0529344,-0.0756734,0.054128,0.153978,-0.0894843,0.143487,-0.120578,-0.0850118,0.0266647,0.0260544,0.0224686,0.0112534,0.0163269,0.0167465,0.00934601,0.0218964,-9.97986,0.0131607,-0.00682831,0.0135422,0.0708389,0.0285721,-0.0140381,0.0129318,-0.00225067
20,8,10.0097,0,0.00411987,-2.42837,0.0538499,-0.0765889,0.0526021,0.154588,-0.0900947,0.143792,-0.120578,-0.0859274,0.0160599,0.0246048,0.0259018,0.00694275,0.0173569,0.0125885,0.00881195,0.0206375,-9.97986,0.0127411,-0.00190735,0.0135803,0.0651932,0.0239563,-0.014267,0.0133514,0.00179291
20,9,10.0097,-0.000305176,0.00213623,-2.43111,0.0535448,-0.0765889,0.0492452,0.102098,-0.0980293,0.143487,-0.126072,-0.0898946,0.0094223,0.0193024,0.026207,0.0131607,0.0139618,0.0130081,0.01194,0.019989,-9.97986,0.0094986,-0.00614166,0.0114441,0.0621033,0.022316,-0.0149155,0.013504,-0.000686646
21,0,10.0097,0,0.000762939,-2.42989,0.0544603,-0.07842,0.050771,0.0834825,-0.0965034,0.141961,-0.127292,-0.0880636,0.00736237,0.0247574,0.0215912,0.0142288,0.0172424,0.0186157,0.0167465,0.0180435,-9.97986,0.0117874,-0.00408173,0.0142288,0.0583267,0.0229263,-0.00930786,0.0140381,-0.00408173
21,1,10.0097,0.00244141,-0.000152588,-2.4305,0.0541551,-0.0744527,0.0519917,0.0752428,-0.0946723,0.145013,-0.127292,-0.0892843,0.00343323,0.0180435,0.0209808,0.0118256,0.0170517,0.0139999,0.0228119,0.0168991,-9.97986,0.0142288,-0.00473022,0.019722,0.0561905,0.0173569,-0.00606537,0.0167084,-0.00179291
21,2,10.0097,0,-0.000305176,-2.42653,0.0538499,-0.0756734,0.0519917,0.0715807,-0.0952827,0.145318,-0.127598,-0.0850118,-0.0241089,0.0235367,0.0215149,0.0133514,0.0165558,0.014534,0.0285339,0.0204849,-9.97986,0.0123596,-0.00389099,0.0200653,0.0528336,0.00904083,-0.00461578,0.0128174,-0.00087738
21,3,10.0097,0.000915527,0,-2.42776,0.0544603,-0.075063,0.0532125,0.0746324,-0.0931465,0.144403,-0.125766,-0.0840963,-0.0395584,0.0187302,0.0242233,0.0165558,0.00896454,0.0103378,0.030365,0.0194168,-9.97986,0.0178528,0.00038147,0.0175476,0.0466156,0.0131607,-0.00205994,0.0174332,-0.00141144
21,4,10.0097,0.00152588,-0.000305176,-2.42714,0.0550706,-0.0747579,0.0532125,0.0706652,-0.0931465,0.145318,-0.125766,-0.0837911,-0.0350952,0.02491,0.0243378,0.0104523,0.0107193,0.0141144,0.032959,0.019722,-9.97986,0.0249863,-0.0030899,0.0160599,0.0453186,0.00499725,0.00244141,0.0214386,-0.00202179
21,5,10.0097,0.000915527,0.000152588,-2.42348,0.0544603,-0.0744527,0.0544332,0.07036,-0.0931465,0.145318,-0.124851,-0.0828756,-0.0219727,0.0235748,0.0239563,0.0143433,0.015831,0.0138855,0.0291443,0.0115967,-9.97986,0.0219727,0.000534058,0.0154877,0.0447845,-0.00656128,0.00713348,0.0154495,-0.000572205
21,6,10.0097,0,0.000457764,-2.4247,0.0553758,-0.0738423,0.0553487,0.07036,-0.0900947,0.147455,-0.123935,-0.0816549,-0.013504,0.0252151,0.0243759,0.0153351,0.0168991,0.013504,0.0349426,0.0148773,-9.97986,0.0195313,-0.00350952,0.0205612,0.0453568,-0.00671387,0.0113297,0.0139618,-0.00114441
21,7,10.0097,0.00152588,0.000152588,-2.42531,0.0569017,-0.0744527,0.0553487,0.0715807,-0.0922309,0.147149,-0.123935,-0.0804342,-0.00564575,0.024147,0.0249863,0.0132751,0.0159836,0.0105286,0.0331497,0.0140762,-9.97986,0.0154495,-0.000839233,0.0165939,0.0445175,-0.00656128,0.00370026,0.0180817,-0.000152588
21,8,10.0097,0.000610352,-0.0012207,-2.42776,0.055681,-0.0753682,0.0522969,0.0316027,-0.0961982,0.145318,-0.127292,-0.0840963,-0.00923157,0.0231934,0.0292587,0.0122452,0.0231552,0.0156403,0.0297546,0.0154877,-9.97986,0.0056076,-0.00556946,0.0146866,0.0478363,-0.00476837,-0.000267029,0.0191498,-0.000114441
21,9,3.84114,0.000305176,-0.00457764,-2.42745,0.0559862,-0.0747579,0.0519917,-0.0196669,-0.101386,0.145929,-0.130039,-0.0825704,-0.00778198,0.0209808,0.0242615,0.00976563,0.0202179,0.0128937,0.0282288,0.0169754,-9.97986,-0.00198364,-0.00518799,0.0144958,0.0461578,-0.00225067,-0.00324249,0.0189972,0.00164032
22,0,-4.0803,0.000915527,-0.00427246,-2.42592,0.0553758,-0.0738423,0.0538228,-0.0175306,-0.0965034,0.148065,-0.130649,-0.0816549,0.00537872,0.0226974,0.0255203,0.0133133,0.0214767,0.0133514,0.0235367,0.0161362,-9.97986,-0.0157547,-0.000305176,0.0180817,0.0453949,0.00198364,-0.00358582,0.0217056,0.00301361
22,1,-9.99003,-0.000610352,-0.00564575,-2.42379,0.0565965,-0.0738423,0.0544332,0.00261096,-0.0913154,0.146539,-0.127598,-0.0807394,0.0297165,0.0183487,0.019722,0.0125122,0.0201797,0.00980377,0.0163269,0.0143433,-9.97986,-0.0254059,-0.00549316,0.0129318,0.0466537,0.00305176,-0.00816345,0.0170135,0.000839233
22,2,-9.99003,0.00152588,-0.00244141,-2.4247,0.0559862,-0.0741475,0.0565694,0.0361803,-0.0897895,0.145624,-0.125766,-0.0807394,0.0630951,0.023613,0.0181961,0.014801,0.0195694,0.0162888,0.0210571,0.0165939,-9.97986,-0.0155258,-0.0025177,0.0151443,0.0486755,-0.00595093,-0.000648499,0.0212479,0.00724792
22,3,-9.99003,0.000915527,-0.000915527,-2.42501,0.0559862,-0.0738423,0.0547383,0.054796,-0.0894843,0.147455,-0.125766,-0.0819601,0.0647736,0.0237274,0.0222015,0.0135422,0.0206757,0.0177383,0.0112152,0.015831,-9.97986,-0.0130463,-0.00652313,0.0146103,0.0468826,-0.00934601,-0.00263214,0.0209427,0.00659943
22,4,-9.99003,0.000305176,-0.000610352,-2.42623,0.0553758,-0.0738423,0.0544332,0.0624254,-0.0928413,0.145318,-0.125461,-0.0831808,0.042305,0.0226593,0.0159836,0.0120544,0.0188828,0.0197983,0.0126648,0.0137711,-9.97986,0.00282288,-0.00328064,0.0133514,0.0462341,-0.0087738,-0.00545502,0.0202942,0.00865936
22,5,-9.99003,0.000915527,0.00183105,-2.42623,0.0550706,-0.0741475,0.055959,0.0996569,-0.0876533,0.145318,-0.123325,-0.0831808,0.0201416,0.0204468,0.0159454,0.0133896,0.0207138,0.0203323,0.0151443,0.0168991,-9.97986,0.00751495,-0.00778198,0.0144958,0.043335,0.016861,-0.00656128,0.0209808,0.00667572
22,6,-3.86912,0.000610352,0.00442505,-2.42745,0.0538499,-0.0759786,0.0544332,0.135668,-0.0870429,0.143792,-0.121189,-0.0840963,0.0226212,0.020256,0.0192261,0.0140381,0.0257111,0.025177,0.0217438,0.0218201,-9.97986,0.000610352,-0.00320435,0.0179291,0.0453568,0.02388,-0.0031662,0.0207138,0.0139236
22,7,3.38216,0.00305176,0.00427246,-2.43355,0.0535448,-0.0759786,0.0532125,0.154894,-0.0900947,0.143792,-0.120578,-0.0840963,0.0198746,0.0204468,0.0166702,0.0102234,0.0243378,0.0204086,0.0278473,0.019989,-9.97986,0.00545502,-0.00198364,0.0208664,0.0434113,0.0214005,-0.00522614,0.0218201,0.0106049
22,8,10.0097,0,0.00518799,-2.42776,0.0538499,-0.07842,0.054128,0.155504,-0.0900947,0.142267,-0.120578,-0.0847066,0.0180054,0.0250626,0.0226593,0.0128937,0.02388,0.0200653,0.0325012,0.0140381,-9.97986,0.00766754,-0.00263214,0.018692,0.0415039,0.0194931,-0.00988007,0.0230408,0.0109482
22,9,10.0097,0.000305176,0.00183105,-2.43172,0.0526292,-0.0771993,0.0492452,0.103319,-0.0965034,0.142572,-0.126682,-0.0880636,0.0172424,0.0222778,0.0205612,0.0102234,0.0221634,0.0172424,0.0393677,0.0167465,-9.97986,0.00835419,-0.00175476,0.0154877,0.0417709,0.0243759,-0.0133896,0.022316,0.0107574
23,0,10.0097,0.000610352,0.000762939,-2.43111,0.0538499,-0.0756734,0.0526021,0.0828722,-0.0971137,0.143792,-0.126987,-0.0877584,0.0204849,0.0232315,0.0157928,0.0082016,0.026741,0.0144196,0.0466537,0.0162506,-9.97986,0.0113678,-0.000419617,0.0214005,0.0413895,0.0304413,-0.0137329,0.0222015,0.00583649
23,1,10.0097,0.000610352,0.000152588,-2.42898,0.0538499,-0.0756734,0.0516866,0.075548,-0.0968086,0.144403,-0.126682,-0.0871481,0.0182724,0.0265121,0.0234222,0.0164032,0.0205231,0.0199509,0.0500488,0.0192642,-9.97986,0.0139999,-0.000267029,0.0217438,0.0367355,0.0366974,-0.00415802,0.0185013,0.0063324
23,2,10.0097,0.00213623,-0.000305176,-2.42776,0.0547655,-0.0759786,0.0526021,0.0728014,-0.0937568,0.145013,-0.126377,-0.0856222,0.0214386,0.0309372,0.0225449,0.0125504,0.0244904,0.0176239,0.0537872,0.0232697,-9.97986,0.0147629,0.00179291,0.0252533,0.0409317,0.0412369,0.00507355,0.0236511,0.00984192
23,3,10.0097,-0.00152588,-0.000305176,-2.42806,0.0541551,-0.075063,0.0535176,0.0709703,-0.0949775,0.144098,-0.126987,-0.0850118,0.02491,0.022049,0.0200653,0.00801086,0.021286,0.0132751,0.0471878,0.0114441,-9.97986,0.00801086,-0.00717163,0.0215149,0.0337601,0.0297928,0.00526428,0.0139999,0.00461578
23,4,10.0097,0.0012207,0,-2.42684,0.0550706,-0.0744527,0.0544332,0.0718859,-0.0937568,0.145929,-0.126072,-0.0840963,0.0318527,0.0233841,0.0209427,0.0111771,0.0214005,0.0130463,0.0525665,0.0111771,-9.97986,0.0102615,0.00522614,0.0231171,0.0260162,0.0341797,0.0139236,0.0181961,0.00659943
23,5,10.0097,0.000305176,0,-2.42653,0.0559862,-0.0738423,0.0538228,0.0694445,-0.0931465,0.145013,-0.124546,-0.0819601,0.0119019,0.0241852,0.0226212,0.0111008,0.0177383,0.0115585,0.03685,0.00534058,-9.97986,-0.00328064,0.000534058,0.0194168,0.0182724,0.0222778,0.00526428,0.0169373,0.00434875
23,6,10.0097,0.000610352,-0.000762939,-2.42501,0.0550706,-0.0738423,0.0538228,0.07036,-0.0919257,0.145624,-0.124851,-0.0822652,-0.0075531,0.0268173,0.0219727,0.0136566,0.0226212,0.0134277,0.0258636,0.00537872,-9.97986,-0.00297546,-0.00274658,0.0167847,0.0113678,0.0248718,0.013237,0.0159073,0.00419617
23,7,10.0097,0.00152588,-0.000457764,-2.42562,0.055681,-0.0738423,0.0562642,0.0706652,-0.0922309,0.147149,-0.123935,-0.0810445,-0.00831604,0.0272751,0.0232697,0.0150299,0.0156403,0.0163651,0.0250244,0.00484467,-9.97986,0.00419617,0.00175476,0.0130844,0.0134659,0.0329208,0.00900269,0.0182343,0.001297
23,8,10.0097,0.000610352,-0.00167847,-2.42653,0.0572069,-0.0747579,0.0532125,0.0337389,-0.0971137,0.144708,-0.128208,-0.0847066,-0.00297546,0.0312805,0.0272751,0.010643,0.0182724,0.0159454,0.0202179,0.00804901,-9.97986,0.00911713,0.0044632,0.0214005,0.00762939,0.0389481,0.00339508,0.0202179,0.00514984
23,9,3.87227,0.000305176,-0.00427246,-2.42776,0.0553758,-0.0744527,0.0513814,-0.018141,-0.101081,0.145318,-0.129734,-0.0834859,-0.0109863,0.0272751,0.0252533,0.0138092,0.0215912,0.0124359,0.0233841,0.00720978,-9.97986,0.0150299,0.000534058,0.0192642,0.00152588,0.0401306,0.00389099,0.0164795,0.00637054
24,0,-4.03026,-0.000915527,-0.00457764,-2.42501,0.0565965,-0.0744527,0.0532125,-0.0187513,-0.0974189,0.145624,-0.13126,-0.0822652,-0.0115204,0.0251007,0.0229645,0.00862122,0.022583,0.0147247,0.0244904,0.0140381,-9.97986,0.02285,7.62939e-005,0.0186539,0.00572205,0.0370407,0.00297546,0.0149918,0.0050354
24,1,-9.99003,0.00183105,-0.00473022,-2.42409,0.0572069,-0.0726216,0.0565694,0.00352649,-0.0922309,0.147149,-0.128208,-0.080129,-0.00579834,0.0268936,0.0273132,0.0139999,0.0254822,0.0177383,0.0281143,0.0190353,-9.97986,0.0348663,-0.000305176,0.0211334,-0.00209808,0.036087,0.00591278,0.0177383,0.00473022
24,2,-9.99003,0.0012207,-0.00289917,-2.42592,0.0569017,-0.0738423,0.0556539,0.0340441,-0.0900947,0.145624,-0.126682,-0.0813497,-0.00606537,0.0182724,0.018425,0.0118256,0.0217438,0.017128,0.0337982,0.0198364,-9.97986,0.052681,-0.00175476,0.0129318,-0.00297546,0.0119019,0.00648499,0.0183868,0.00671387
24,3,-9.99003,0.000915527,-0.00137329,-2.42531,0.0553758,-0.0747579,0.0535176,0.0557115,-0.0897895,0.145318,-0.126377,-0.0813497,0.00804901,0.0219345,0.0149536,0.00926971,0.0212479,0.0132751,0.0353622,0.0156021,-9.97986,0.0770569,0.000495911,0.015831,-0.00160217,0.000228882,0.00946045,0.0189209,0.00385284
24,4,-9.99003,-0.000915527,-0.000305176,-2.42653,0.0553758,-0.0744527,0.0547383,0.0627306,-0.0913154,0.145318,-0.126377,-0.0834859,0.0186157,0.0193405,0.0170898,0.0110245,0.0185013,0.0134659,0.0270462,0.0146103,-9.97986,0.0784302,-0.00171661,0.0147629,-0.0075531,-0.0075531,0.00740051,0.0167084,0.00267029
24,5,-9.99003,0,0.000915527,-2.42928,0.0550706,-0.0744527,0.0550435,0.0953844,-0.0897895,0.145624,-0.123325,-0.0822652,0.0204468,0.0206375,0.0184631,0.011673,0.0165939,0.0123215,0.0273514,0.0130463,-9.97986,0.0626373,0.0018692,0.0167465,-0.00305176,0.00904083,0.00301361,0.0206757,0.00366211
24,6,-4.07573,0.000610352,0.00442505,-2.42837,0.0535448,-0.0762837,0.0550435,0.134752,-0.088874,0.144403,-0.121799,-0.0831808,0.0128174,0.0235367,0.0194168,0.0156784,0.0204086,0.00980377,0.0374603,0.0169373,-9.97986,0.0523758,0.00152588,0.0199509,0.00400543,0.0138474,0.00415802,0.0242996,0.00175476
24,7,3.06966,0.00183105,0.00473022,-2.42898,0.0535448,-0.0747579,0.0544332,0.153368,-0.088874,0.144708,-0.121189,-0.0850118,0.000762939,0.023613,0.0217438,0.0149155,0.0158691,0.00671387,0.0479126,0.00713348,-9.97986,0.0543213,-0.00347137,0.0186157,0.0019455,0.0117874,0.00125885,0.0228119,-0.00267029
24,8,10.0097,-0.000610352,0.00442505,-2.42898,0.0538499,-0.0753682,0.0529073,0.155809,-0.0919257,0.143487,-0.120578,-0.0850118,-0.00640869,0.0215912,0.0237656,0.0106812,0.014801,0.0139618,0.0618362,0.00572205,-9.97986,0.0508499,0.00213623,0.0164032,0.0106049,0.0125885,-0.0037384,0.0259018,0.000762939
24,9,10.0097,0.000610352,0.00228882,-2.4305,0.0535448,-0.0775044,0.04894,0.10576,-0.0965034,0.141656,-0.126072,-0.0886739,-0.00694275,0.0216293,0.0186539,0.0120926,0.0206757,0.00854492,0.0535965,0.00694275,-9.97986,0.0315857,-0.00286102,0.0110245,0.0195694,0.00766754,-0.00125885,0.0231171,0.0012207
25,0,10.0097,0.000610352,0.0012207,-2.42989,0.0532396,-0.0762837,0.050771,0.0853136,-0.0971137,0.143182,-0.128208,-0.0883688,0.0136185,0.0173569,0.0193024,0.0139618,0.0141144,0.0082016,0.0479507,0.0135803,-9.97986,0.0247192,0.000762939,0.0138092,0.0292587,0.0122833,0.0075531,0.0262451,0.00221252
25,1,10.0097,0.000305176,0.000305176,-2.42867,0.0544603,-0.0762837,0.0522969,0.0758531,-0.0955879,0.143487,-0.127292,-0.0874532,0.0250244,0.0244904,0.0188446,0.0102234,0.00782013,0.00804901,0.0457764,0.0160217,-9.97986,0.0127792,0.00114441,0.0117493,0.0336456,0.00900269,0.00587463,0.026474,0.00106812
25,2,10.0097,-0.000610352,0.000305176,-2.42776,0.0535448,-0.075063,0.0532125,0.072191,-0.0943672,0.145013,-0.125156,-0.0856222,0.0117874,0.0225449,0.021286,0.00549316,0.0195694,0.00797272,0.0436401,0.0165176,-9.97986,-0.0075531,0.000305176,0.0149536,0.0338745,0.00217438,0.00148773,0.0263977,0.00312805
25,3,10.0097,0.00152588,0.000457764,-2.42684,0.0553758,-0.0756734,0.0519917,0.0700548,-0.0946723,0.144708,-0.125461,-0.0837911,-0.00652313,0.0207901,0.0160217,0.0115204,0.0209427,0.00965118,0.0469589,0.0152588,-9.97986,-0.0112534,0.00434875,0.0146103,0.0410461,-0.000648499,-0.00282288,0.0285339,0.00240326
25,4,10.0097,0.000610352,-0.000152588,-2.42745,0.0550706,-0.0744527,0.0544332,0.0712755,-0.0922309,0.144708,-0.126377,-0.085317,-0.00362396,0.021553,0.019455,0.00865936,0.0200272,0.0117874,0.0465012,0.0175858,-9.97986,-0.0197601,0.000534058,0.0160217,0.0347519,-0.0018692,0.000534058,0.0263214,0.00244141
25,5,10.0097,0.000915527,-0.000305176,-2.42653,0.0559862,-0.0744527,0.0544332,0.0715807,-0.0922309,0.145624,-0.126072,-0.0828756,0.00144958,0.0207901,0.0185013,0.00671387,0.0156403,0.00720978,0.0432587,0.0157928,-9.97986,-0.00411987,-0.00179291,0.014267,0.0265503,-0.00602722,0.000648499,0.02491,-0.00133514
25,6,10.0097,-0.00183105,-0.000152588,-2.4244,0.0569017,-0.075063,0.0538228,0.0712755,-0.0913154,0.145318,-0.125156,-0.0810445,-0.00659943,0.0225067,0.0154877,0.0130463,0.0117493,0.00976563,0.0439453,0.0173187,-9.97986,-0.00175476,-0.00556946,0.011673,0.0254822,0.001297,0.0038147,0.0297546,0.00141144
25,7,10.0097,0.000305176,0.000152588,-2.4244,0.0553758,-0.0735371,0.0538228,0.0706652,-0.0919257,0.146539,-0.124851,-0.0816549,0.00389099,0.0190353,0.0131226,0.0119019,0.0146484,0.0151825,0.0379562,0.0188828,-9.97986,0.00518799,-0.00236511,0.0156021,0.014534,-0.00221252,-0.00328064,0.0263596,0.00228882
25,8,10.0097,-0.0012207,-0.00244141,-2.42684,0.0547655,-0.0753682,0.0522969,0.032213,-0.0980293,0.146234,-0.127903,-0.0840963,0.00144958,0.0167847,0.0141907,0.0120544,0.0145721,0.0145721,0.0370789,0.0154495,-9.97986,0.0205994,0.000686646,0.0149536,0.00976563,-0.00545502,-0.00602722,0.0273514,0.00160217
25,9,3.79201,-0.000610352,-0.00457764,-2.42776,0.0572069,-0.0747579,0.0522969,-0.0187513,-0.100776,0.145929,-0.131565,-0.0834859,0.00453949,0.0221634,0.0126266,0.0174713,0.0154877,0.0109482,0.0321198,0.0158691,-9.97986,0.0138474,-0.00297546,0.0143433,0.00217438,-0.00873566,-0.00404358,0.0228119,0.0025177
26,0,-4.15233,0.000915527,-0.00534058,-2.42562,0.0559862,-0.0738423,0.0535176,-0.0184462,-0.0965034,0.145929,-0.129734,-0.0822652,-0.0062561,0.0224304,0.0137329,0.0121689,0.0152969,0.0118637,0.033226,0.0195694,-9.97986,0.0151443,-0.00473022,0.0188446,-0.00469208,-0.0019455,-0.00602722,0.0269699,0.00293732
26,1,-9.99003,0.00152588,-0.00549316,-2.42379,0.0575121,-0.073232,0.0556539,0.00230578,-0.094062,0.14776,-0.129123,-0.0807394,-0.0268173,0.0263214,0.0165939,0.0112534,0.0200272,0.0139236,0.0312805,0.0187683,-9.97986,0.00740051,-0.00450134,0.0147247,-0.0142288,-0.00331879,0.00183105,0.0244904,-0.00160217
26,2,-9.99003,0.0012207,-0.00366211,-2.42562,0.0569017,-0.0735371,0.0571797,0.0343492,-0.0900947,0.145624,-0.128208,-0.0807394,-0.0375366,0.0200272,0.0139618,0.0120544,0.0165939,0.0151825,0.0346375,0.0163269,-9.97986,0.00461578,-0.00507355,0.0168228,-0.0207138,-0.0309753,0.00377655,0.0263214,-0.00511169
26,3,-9.99003,0.0012207,-0.00198364,-2.42592,0.0547655,-0.0744527,0.0550435,0.0557115,-0.090705,0.146844,-0.125766,-0.0819601,-0.0263977,0.0216293,0.0153351,0.00801086,0.0138092,0.0154114,0.0325775,0.0146484,-9.97986,0.00320435,-0.00324249,0.0137329,-0.02285,-0.0325012,0.00553131,0.0256348,-0.00133514
26,4,-9.99003,0.000610352,0,-2.42684,0.0544603,-0.0738423,0.0550435,0.0645616,-0.0900947,0.145013,-0.126072,-0.0828756,-0.00480652,0.0284195,0.017395,0.0131989,0.014801,0.0155258,0.0313568,0.018425,-9.97986,0.00411987,-0.00621796,0.0136948,-0.0233459,-0.0280762,0.00831604,0.026474,0.00328064
26,5,-9.99003,0.000305176,0.000610352,-2.42592,0.0547655,-0.0738423,0.055959,0.0953844,-0.0882636,0.145624,-0.123935,-0.0831808,0.0213623,0.0221634,0.0180817,0.0122452,0.0149155,0.0176239,0.0194931,0.00900269,-9.97986,0.0167084,-0.00675201,0.0104523,-0.0261307,-0.0109863,0.0012207,0.0243378,0.00488281
26,6,-4.04429,-0.000610352,0.00488281,-2.42806,0.0538499,-0.075063,0.054128,0.135668,-0.0885688,0.143182,-0.122715,-0.0847066,0.0366592,0.0266647,0.0185394,0.0133133,0.0191879,0.0130844,0.0196075,0.0144958,-9.97986,0.0270081,0.00144958,0.0139618,-0.0212097,-0.0114822,-0.00617981,0.0230789,0.0115204
26,7,3.09499,0.000610352,0.00411987,-2.42684,0.0547655,-0.0747579,0.054128,0.150621,-0.088874,0.143487,-0.121799,-0.0850118,0.0278854,0.0242233,0.0180435,0.0127029,0.0214767,0.0127792,0.0239944,0.0160217,-9.97986,0.0292587,-0.0025177,0.0149155,-0.0249863,-0.00961304,-0.00720978,0.0222397,0.0144577
26,8,10.0097,0.0012207,0.00411987,-2.42867,0.0538499,-0.0759786,0.0535176,0.155199,-0.0897895,0.143792,-0.121799,-0.0850118,0.0328827,0.0255966,0.0150299,0.00713348,0.0163651,0.0117493,0.0152206,0.0156403,-9.97986,0.0239182,0.00198364,0.0131989,-0.0315475,-0.00907898,-0.00862122,0.0243759,0.0146484
26,9,10.0097,0.00274658,0.00289917,-2.43142,0.0535448,-0.0768941,0.0501607,0.10454,-0.0952827,0.142572,-0.125156,-0.0886739,0.0274277,0.0285339,0.0230408,0.00896454,0.0188828,0.01194,0.0102997,0.016098,-9.97986,0.0204468,-0.00148773,0.0109863,-0.0282669,-0.00209808,-0.0100327,0.0283813,0.0154114
27,0,10.0097,-0.000915527,0.000610352,-2.43111,0.0535448,-0.0775044,0.0501607,0.0828722,-0.0974189,0.142267,-0.126682,-0.0880636,0.0154495,0.0270081,0.0200653,0.0117493,0.0189972,0.0125122,-0.000534058,0.0181198,-9.97986,0.0175858,0.00171661,0.0123215,-0.0302124,-0.00102997,-0.000343323,0.0285721,0.0170898
27,1,10.0097,-0.00213623,0.000610352,-2.42928,0.055681,-0.0759786,0.0513814,0.0746324,-0.0968086,0.144098,-0.128208,-0.0874532,-0.023613,0.0303268,0.0191498,0.0131989,0.0144196,0.0123978,-0.000419617,0.00801086,-9.97986,0.0164795,-0.00190735,0.00732422,-0.0382233,-0.00362396,-0.00228882,0.0281525,0.0147247
27,2,10.0097,-0.000915527,-0.000457764,-2.42745,0.0553758,-0.0762837,0.0526021,0.0718859,-0.0937568,0.144403,-0.125461,-0.0859274,-0.0371552,0.029335,0.0247955,0.0136566,0.0221252,0.0174332,-0.00724792,0.0082016,-9.97986,0.00728607,-0.00110626,0.0056839,-0.0338745,-0.0031662,-0.00675201,0.0255585,0.0088501
27,3,10.0097,-0.000915527,-0.000152588,-2.42806,0.0553758,-0.0753682,0.0529073,0.0706652,-0.0934516,0.145013,-0.126377,-0.0844015,-0.016861,0.0284576,0.0240707,0.0112534,0.0168991,0.0196457,-0.0102234,0.00427246,-9.97986,0.00839233,-0.00324249,0.00324249,-0.0315475,-0.00244141,-0.0112534,0.026474,0.01091
27,4,10.0097,0,0.000305176,-2.42806,0.0547655,-0.075063,0.054128,0.0700548,-0.0919257,0.145013,-0.125766,-0.0844015,0.00152588,0.0284195,0.0195313,0.010643,0.0157547,0.0143051,-0.00724792,0.00362396,-9.97986,0.0062561,0.000228882,0.00835419,-0.0344086,0.00278473,-0.00965118,0.0257492,0.00926971
27,5,10.0097,0,0.000152588,-2.4247,0.0559862,-0.073232,0.0544332,0.0709703,-0.0919257,0.146234,-0.124851,-0.0834859,0.0336456,0.0314331,0.0218201,0.0133514,0.0115967,0.0162506,0.00740051,0.00484467,-9.97986,-0.0104904,0.000686646,0.00785828,-0.0364304,0.00190735,-0.0111389,0.0248337,0.00442505
27,6,10.0097,-0.0012207,-0.000915527,-2.42531,0.0578172,-0.0741475,0.0544332,0.0728014,-0.0910102,0.147149,-0.124546,-0.0816549,0.0673294,0.0257492,0.0231171,0.0160217,0.00797272,0.022049,0.0268555,0.00785828,-9.97986,-0.0307465,0.00289917,0.0105286,-0.0411606,0.00278473,-0.0158691,0.0247955,0.00408173
27,7,10.0097,-0.000305176,0.000610352,-2.42531,0.0572069,-0.073232,0.0538228,0.0709703,-0.0916206,0.145624,-0.124241,-0.0795187,0.0711823,0.0274658,0.0247955,0.0114059,0.00659943,0.0197601,0.0315094,0.00709534,-9.97986,-0.0339508,0.000190735,0.0111771,-0.0457764,0.00663757,-0.0125885,0.0273514,0.00499725
27,8,10.0097,-0.000305176,-0.00228882,-2.42379,0.0550706,-0.0744527,0.0526021,0.0325182,-0.0965034,0.146234,-0.127903,-0.0837911,0.0681305,0.0221634,0.0233078,0.0106812,0.00652313,0.0206375,0.0283813,0.00320435,-9.97986,-0.0112534,0.00286102,0.0167465,-0.0432205,-0.000534058,-0.0161743,0.0244141,0.00400543
27,9,3.91072,-0.000305176,-0.00396729,-2.42592,0.0559862,-0.0741475,0.0513814,-0.0163099,-0.100776,0.145929,-0.13187,-0.0831808,0.0707245,0.0235367,0.0230408,0.0178528,0.00938416,0.0252914,0.0159836,0.00892639,-9.97986,0.00389099,-0.00320435,0.0189209,-0.0434875,-0.00274658,-0.0268173,0.0250626,0.00827789
28,0,-4.03575,0,-0.00442505,-2.42531,0.0562914,-0.0741475,0.0538228,-0.018141,-0.0980293,0.145318,-0.130649,-0.0819601,0.0489044,0.0260544,0.0189972,0.0120163,0.0105667,0.0251007,0.0044632,0.0156021,-9.97986,0.00995636,-0.00335693,0.0174332,-0.047493,-0.00545502,-0.0249481,0.0226593,0.00804901
28,1,-9.99003,0.00152588,-0.0050354,-2.4244,0.0565965,-0.073232,0.0550435,0.000779904,-0.0916206,0.147149,-0.129734,-0.0804342,0.0396347,0.0204849,0.0170898,0.00850677,0.00839233,0.0227737,-0.00225067,0.0202942,-9.97986,0.0172043,0.00106812,0.0212097,-0.047493,-0.00995636,-0.0156784,0.0262833,0.00549316
28,2,-9.99003,0.000915527,-0.00213623,-2.4244,0.0562914,-0.0744527,0.0568746,0.0349596,-0.0900947,0.146844,-0.127903,-0.080129,0.0267029,0.0138092,0.0136566,0.0113678,0.00495911,0.0248718,-0.00450134,0.0190735,-9.97986,0.0281143,0.000801086,0.0221252,-0.0508499,-0.0306702,-0.00968933,0.0222778,0.00488281
28,3,-9.99003,0.000305176,-0.000457764,-2.4247,0.0559862,-0.0744527,0.055959,0.0557115,-0.0903999,0.145624,-0.126682,-0.0813497,0.0118256,0.0157547,0.0128555,0.0118256,0.0108337,0.0201035,0.00991821,0.0126266,-9.97986,0.0246048,-0.000343323,0.0183868,-0.0522995,-0.0299072,-0.00106812,0.0213623,0.00720978
28,4,-9.99003,-0.000305176,0.000305176,-2.42623,0.0553758,-0.0756734,0.0544332,0.0615099,-0.0913154,0.143792,-0.125156,-0.0825704,0.00549316,0.0177765,0.013504,0.00785828,0.0115585,0.0148392,0.0229263,0.0185776,-9.97986,0.00595093,-0.000953674,0.0172043,-0.0510406,-0.0315094,0.00286102,0.0223541,-0.00175476
28,5,-9.99003,-0.0012207,0.0012207,-2.42623,0.0547655,-0.0741475,0.0550435,0.0938585,-0.0891792,0.144098,-0.12363,-0.0828756,-0.00507355,0.0185013,0.0149536,0.0128174,0.0120926,0.0200272,0.0374603,0.0153351,-9.97986,-0.00778198,0.000152588,0.0134277,-0.051384,-0.00743866,0.0113297,0.0226212,-0.0107574
28,6,-3.96831,0.000915527,0.00289917,-2.42714,0.0544603,-0.0756734,0.0544332,0.136583,-0.0873481,0.144708,-0.12241,-0.0847066,-0.00793457,0.0161743,0.0130844,0.00782013,0.0103378,0.0156784,0.0363541,0.0182724,-9.97986,-0.0108337,-0.00274658,0.00762939,-0.0616837,-0.00522614,0.0124359,0.0235748,-0.0155258
28,7,3.20363,0.000915527,0.00366211,-2.42928,0.0517137,-0.0756734,0.0538228,0.155504,-0.0894843,0.142572,-0.12241,-0.0859274,-0.00587463,0.0172806,0.0135803,0.00667572,0.0135422,0.0214005,0.0208664,0.0230026,-9.97986,-0.00984192,-0.00244141,0.00572205,-0.0679398,-0.00160217,0.0113678,0.0261307,-0.00923157
28,8,10.0097,-0.0012207,0.00396729,-2.42745,0.0541551,-0.0756734,0.0535176,0.154588,-0.0910102,0.144098,-0.12241,-0.0865377,-0.00480652,0.0146484,0.0163269,0.0094223,0.0122452,0.0203705,0.0106049,0.0223923,-9.97986,0.0056076,0.001297,0.00297546,-0.0746918,-0.00919342,0.0102997,0.0228119,-0.00278473
28,9,10.0097,0.00274658,0.00137329,-2.43233,0.0541551,-0.0756734,0.0495503,0.104845,-0.0977241,0.142572,-0.126072,-0.0892843,-0.00427246,0.0153732,0.0147629,0.00972748,0.00488281,0.0249481,-0.000495911,0.0212479,-9.97986,0.019722,0.00228882,0.00705719,-0.0764847,-0.0112152,0.014534,0.0226593,-0.00183105
29,0,10.0097,-0.00274658,0,-2.42928,0.0507982,-0.0759786,0.0513814,0.0840929,-0.0971137,0.143182,-0.126377,-0.0880636,0.00324249,0.0175858,0.0140381,0.00782013,0.0102615,0.0201416,-0.00812531,0.0228882,-9.97986,0.0448227,0.00312805,0.00759125,-0.0789642,-0.00976563,0.0145721,0.0204086,-0.00164032
29,1,10.0097,0.000915527,-0.000762939,-2.42806,0.0535448,-0.0759786,0.0510762,0.0764635,-0.095893,0.143182,-0.126682,-0.0868429,-0.00530243,0.0162125,0.0172806,0.00988007,0.0117111,0.0157928,-0.0125885,0.0252533,-9.97986,0.0633621,0.00499725,0.0101089,-0.079422,0.00106812,0.00305176,0.0199127,-0.00183105
29,2,10.0097,0.000915527,0.000610352,-2.42837,0.0569017,-0.075063,0.0519917,0.0728014,-0.0946723,0.145013,-0.126987,-0.0859274,-0.00236511,0.0206757,0.0193024,0.0114441,0.00957489,0.0114822,-0.00679016,0.0239563,-9.97986,0.0715637,0.00537872,0.0158691,-0.0738525,0.0160217,7.62939e-005,0.0217438,0.00865936
29,3,10.0097,0.00183105,0.000152588,-2.42714,0.0544603,-0.0738423,0.054128,0.0712755,-0.0931465,0.144708,-0.125156,-0.0850118,-0.0115204,0.0212479,0.0206375,0.00915527,0.00892639,0.0151443,0.00583649,0.0218582,-9.97986,0.0588226,0.00202179,0.0217819,-0.0714493,0.0228119,-0.00389099,0.0216293,0.016098
29,4,10.0097,0.00335693,0.00106812,-2.42653,0.0553758,-0.0756734,0.0532125,0.0688341,-0.0903999,0.145624,-0.126072,-0.0837911,-0.0279999,0.0251389,0.0199127,0.0140762,0.0108337,0.0115204,0.0141144,0.0242615,-9.97986,0.0446701,0.000495911,0.021553,-0.0646591,0.0250626,-0.00972748,0.0256348,0.0139618
29,5,10.0097,0.00183105,0.000457764,-2.42653,0.0565965,-0.073232,0.0532125,0.07036,-0.0922309,0.146844,-0.124851,-0.0831808,-0.0182343,0.019989,0.0192642,0.0107574,0.01091,0.0136566,0.0240707,0.0242996,-9.97986,0.034256,-0.000495911,0.0274277,-0.0605011,0.0291443,-0.00587463,0.0202179,0.014801
29,6,10.0097,0.000610352,0.000457764,-2.4247,0.0562914,-0.073232,0.0547383,0.0712755,-0.0922309,0.146539,-0.123935,-0.0816549,-0.00247955,0.0188065,0.0232697,0.00522614,0.0075531,0.0120926,0.0397491,0.0291061,-9.97986,0.0226212,-0.000839233,0.0339127,-0.0589752,0.0358963,-0.00396729,0.0180817,0.016861
29,7,10.0097,0.000610352,0.0012207,-2.42562,0.0562914,-0.075063,0.0550435,0.0706652,-0.0913154,0.146234,-0.124546,-0.0810445,0.00152588,0.022049,0.0229645,0.00537872,0.0112152,0.00892639,0.0547028,0.031395,-9.97986,0.0136185,-0.000724792,0.0343323,-0.0516129,0.0391006,-0.0115204,0.0136948,0.00869751
29,8,10.0097,-0.000305176,-0.000915527,-2.42745,0.0565965,-0.075063,0.0519917,0.0294664,-0.0974189,0.143792,-0.128208,-0.0831808,0.00133514,0.0218201,0.0203323,0.00843048,0.0153732,0.0107956,0.0550842,0.0324249,-9.97986,0.00453949,-0.00617981,0.0316238,-0.0539017,0.0370789,-0.00957489,0.0149155,0.0114059
29,9,3.87715,-0.000610352,-0.00335693,-2.42714,0.0511034,-0.0723164,0.0529073,-0.0187513,-0.100471,0.146539,-0.129734,-0.0844015,0.0113678,0.025177,0.0202179,0.00831604,0.014801,0.00869751,0.0610733,0.031929,-9.97986,0.00102997,-0.000610352,0.0410461,-0.049324,0.0435257,-0.00896454,0.0160599,0.0127792
30,0,-4.08885,0.00183105,-0.00427246,-2.42562,0.0578172,-0.0741475,0.0535176,-0.0160048,-0.0943672,0.146539,-0.130344,-0.0810445,0.0203705,0.0240326,0.022583,0.00434875,0.0149155,0.00583649,0.0620651,0.0336838,-9.97986,-0.00217438,-0.000152588,0.0346756,-0.0517654,0.043869,-0.0107956,0.0166321,0.00907898
30,1,-9.99003,0.00183105,-0.0050354,-2.4244,0.0569017,-0.0735371,0.0562642,0.000779904,-0.0922309,0.146539,-0.128818,-0.0807394,0.0127029,0.0258255,0.0260162,0.00537872,0.0134659,0.0121689,0.0512695,0.030899,-9.97986,-0.00198364,-0.000724792,0.0322723,-0.0569153,0.0369644,-0.0108719,0.0156784,0.00823975
30,2,-9.99003,-0.000305176,-0.00320435,-2.4244,0.0565965,-0.0729268,0.0562642,0.0331285,-0.090705,0.146844,-0.127292,-0.0810445,-0.00328064,0.0250244,0.0270844,0.0113678,0.021286,0.0088501,0.033989,0.0260925,-9.97986,0.00198364,0.00255585,0.0294113,-0.0601578,0.0117493,-0.0141525,0.0151062,0.00976563
30,3,-9.99003,0,-0.0012207,-2.42379,0.0565965,-0.0741475,0.055959,0.0541857,-0.0913154,0.145624,-0.124851,-0.080129,-0.0198746,0.0262833,0.0285339,0.0130463,0.0114441,0.0154495,0.00720978,0.0105667,-9.97986,-0.00354767,0.0031662,0.0295639,-0.0626755,0.0157928,-0.0180817,0.0168991,0.00404358
30,4,-9.99003,-0.000915527,0,-2.42776,0.055681,-0.0741475,0.0547383,0.0621202,-0.0919257,0.144708,-0.126377,-0.0825704,-0.0129318,0.0304413,0.0315475,0.014267,0.0185776,0.00808716,-0.0131226,0.0075531,-9.97986,-0.00740051,0.00221252,0.0287628,-0.0645828,0.00656128,-0.0106812,0.0133896,0.00164032
30,5,-9.99003,0.000915527,0.00213623,-2.42562,0.055681,-0.0747579,0.0553487,0.0941637,-0.0882636,0.145624,-0.123935,-0.0834859,0.0130844,0.0324631,0.0316238,0.01091,0.0138474,0.00209808,-0.0239182,-0.000534058,-9.97986,-0.0063324,-0.00118256,0.0289917,-0.0538635,0.0295639,0.00087738,0.0164795,0.00724792
30,6,-4.16575,0.000610352,0.0038147,-2.42745,0.0532396,-0.0759786,0.0550435,0.136888,-0.0870429,0.144708,-0.12302,-0.0840963,0.0488281,0.0286484,0.0343704,0.0105286,0.0132751,0,-0.0310898,-0.00938416,-9.97986,-0.00907898,-0.0038147,0.0258255,-0.0542068,0.0302124,-0.00358582,0.0124359,0.00450134
30,7,3.04738,0.0012207,0.00549316,-2.42837,0.0538499,-0.0753682,0.0544332,0.154283,-0.088874,0.144708,-0.121189,-0.0865377,0.0922394,0.0313568,0.0311279,0.0136948,0.0127029,0.000419617,-0.0429916,-0.00160217,-9.97986,-0.0228119,0.000534058,0.0247955,-0.0510406,0.0229263,-0.0019455,0.00953674,0.00808716
30,8,10.0097,0.00274658,0.00457764,-2.42776,0.0541551,-0.0765889,0.0526021,0.154588,-0.0919257,0.142877,-0.120578,-0.0862325,0.0844955,0.0274658,0.0304413,0.0136185,0.0142288,0.00156403,-0.0356293,-7.62939e-005,-9.97986,-0.0320435,-0.000953674,0.0239563,-0.0472641,0.0106049,0.00301361,0.0111771,0.00782013
30,9,10.0097,0.000610352,0.00198364,-2.43111,0.0526292,-0.0771993,0.0492452,0.103014,-0.0986396,0.142572,-0.126072,-0.0895895,0.0652695,0.0231934,0.029068,0.0151825,0.0110245,0.0112152,-0.0208664,0.00255585,-9.97986,-0.0505829,0.000190735,0.0200272,-0.0462723,0.000267029,0.00839233,0.00976563,0.00293732
31,0,10.0097,0.0012207,0.000457764,-2.4305,0.0535448,-0.0753682,0.0522969,0.0816515,-0.0986396,0.142877,-0.126987,-0.0886739,0.0631332,0.0252151,0.0235367,0.0128555,0.01194,0.00846863,-0.000801086,0.00389099,-9.97986,-0.0577545,-0.000762939,0.0128555,-0.0511551,-0.0056839,0.00663757,0.00953674,0.00434875
31,1,10.0097,0.00183105,0.000457764,-2.42898,0.0590379,-0.0747579,0.0516866,0.075548,-0.0968086,0.144098,-0.125461,-0.0865377,0.0571442,0.0136566,0.0215912,0.0122452,0.0125885,0.00720978,0.0171661,0.0196838,-9.97986,-0.0641251,-0.00679016,0.0152206,-0.0465393,-0.00637054,0.01297,0.0105667,0.00328064
31,2,10.0097,0.000610352,0.000305176,-2.42867,0.0553758,-0.0753682,0.0516866,0.0731066,-0.094062,0.145013,-0.126377,-0.085317,0.046463,0.0154495,0.0180817,0.0103378,0.022316,0.00377655,0.042305,0.0240707,-9.97986,-0.0539017,-0.00175476,0.0110245,-0.0465012,0.00507355,0.00904083,0.00999451,0.00377655
31,3,10.0097,0.0012207,0.000305176,-2.42806,0.0550706,-0.0744527,0.0538228,0.0715807,-0.0946723,0.144708,-0.126377,-0.085317,0.0271606,0.0121689,0.0177765,0.00576019,0.0166321,0.000762939,0.0601959,0.0250244,-9.97986,-0.0234985,-0.0038147,0.00762939,-0.0491333,0.0125122,0.00812531,0.0164413,0.00415802
31,4,10.0097,0.0012207,0.000305176,-2.42623,0.0559862,-0.0756734,0.0535176,0.0718859,-0.0946723,0.144403,-0.125461,-0.0847066,0.0153732,0.0105667,0.0148773,0.00823975,0.0195313,0.00354767,0.0522995,0.0299454,-9.97986,-0.00694275,-0.00415802,0.0107193,-0.0460815,0.0106812,0.0123596,0.0161362,0.00419617
31,5,10.0097,0.0012207,0.000610352,-2.4247,0.0562914,-0.0747579,0.0550435,0.0691393,-0.0922309,0.145318,-0.125156,-0.0831808,0.0150681,0.00679016,0.0121689,0.00743866,0.0185013,-0.00198364,0.0531387,0.0367737,-9.97986,-0.000724792,-0.0038147,0.0143433,-0.0392532,0.0165176,0.0069046,0.0178909,0.00812531
31,6,10.0097,-0.000610352,0.000610352,-2.42592,0.055681,-0.0741475,0.0547383,0.0715807,-0.0925361,0.145624,-0.123935,-0.0810445,0.0069046,0.00328064,0.00770569,0.0106812,0.0232697,0.00274658,0.0424957,0.0307846,-9.97986,0.00610352,-0.00137329,0.0108719,-0.0377274,0.0208282,0.000648499,0.0131607,0.00705719
31,7,10.0097,0.000305176,-0.000152588,-2.42562,0.0565965,-0.0738423,0.054128,0.0724962,-0.0922309,0.146844,-0.123935,-0.0813497,0.00530243,0.00900269,0.0113678,0.00801086,0.0246048,-0.00102997,0.0352859,0.0293732,-9.97986,0.0123978,-0.00133514,0.00984192,-0.0362778,0.0236893,0.00812531,0.0139236,0.00411987
31,8,10.0097,0.000305176,-0.000915527,-2.42653,0.055681,-0.075063,0.0529073,0.0325182,-0.0974189,0.145318,-0.127598,-0.0825704,-0.00240326,0.0128174,0.0137711,0.00892639,0.0239944,0.000495911,0.0306702,0.026207,-9.97986,0.0217819,-0.00102997,0.00499725,-0.0362015,0.0216675,0.00549316,0.016861,0.00511169
31,9,3.90248,0.000915527,-0.00518799,-2.42745,0.0562914,-0.0744527,0.0513814,-0.018141,-0.100471,0.145318,-0.130954,-0.0828756,-0.0114822,0.0105667,0.0140762,0.00907898,0.0271606,0.00709534,0.034256,0.0209045,-9.97986,0.0301361,-0.0056076,0.00679016,-0.0302505,0.0222778,0.00167847,0.0156021,0.00770569
32,0,-4.06566,0.000610352,-0.00488281,-2.42501,0.0562914,-0.0744527,0.0538228,-0.0184462,-0.0977241,0.147149,-0.130344,-0.0819601,-0.0149155,0.0157166,0.0158691,0.0122833,0.0244141,0.00518799,0.0455475,0.0231934,-9.97986,0.0469208,-0.00148773,0.0130463,-0.0294876,0.0230026,0.00617981,0.016861,0.00537872
32,1,-9.99003,-0.0012207,-0.00427246,-2.42531,0.0550706,-0.0723164,0.055959,0.00169543,-0.0937568,0.146234,-0.129429,-0.0810445,-0.0181961,0.0164032,0.0168991,0.0130081,0.0279999,0.00576019,0.0422287,0.0201035,-9.97986,0.0519562,-0.000724792,0.00274658,-0.0232697,0.0283432,0.00106812,0.0172424,-0.000114441
32,2,-9.99003,-0.00335693,-0.00305176,-2.4244,0.055681,-0.0735371,0.0562642,0.0352648,-0.0900947,0.146539,-0.126682,-0.0825704,-0.0305939,0.0151062,0.0191879,0.00961304,0.0243759,0.00953674,0.0429153,0.0172424,-9.97986,0.0568008,0.000419617,0.00400543,-0.0239944,0.00961304,-0.00152588,0.0189209,0.000839233
32,3,-9.99003,-0.0012207,-0.000610352,-2.42501,0.055681,-0.0747579,0.054128,0.0541857,-0.0916206,0.145318,-0.126072,-0.0822652,-0.026207,0.0165939,0.0202942,0.0123596,0.0268936,0.00957489,0.0434113,0.0133514,-9.97986,0.0689697,0.00106812,0.00282288,-0.0225067,0.0109482,-0.0056076,0.0247955,0.00087738
32,4,-9.99003,0.000305176,0,-2.42592,0.0553758,-0.0753682,0.0550435,0.0630358,-0.090705,0.145013,-0.126377,-0.0825704,-0.0094223,0.0164032,0.0201797,0.0145721,0.0254822,0.0133133,0.0451279,0.0177765,-9.97986,0.0728226,-0.00282288,0.00137329,-0.0188446,0.00919342,-0.00782013,0.0181198,0.000991821
32,5,-9.99003,0,0.00167847,-2.42623,0.055681,-0.0741475,0.055959,0.094774,-0.0879585,0.145318,-0.124241,-0.0825704,0.0151062,0.0209808,0.0198364,0.00976563,0.0222015,0.0109863,0.0554276,0.0177383,-9.97986,0.062027,0.00289917,0.00202179,-0.0123215,0.0345612,-0.0121307,0.0178146,-0.00408173
32,6,-4.20329,-0.000305176,0.00473022,-2.42776,0.0523241,-0.0756734,0.0547383,0.134752,-0.0891792,0.143487,-0.12302,-0.0844015,0.0363541,0.0191498,0.0259399,0.0159836,0.016861,0.0087738,0.0676346,0.020256,-9.97986,0.0413513,-0.00114441,-0.00495911,-0.00766754,0.0330353,-0.00873566,0.014801,-0.00232697
32,7,3.00221,0.000915527,0.00473022,-2.42745,0.0538499,-0.075063,0.054128,0.152147,-0.0894843,0.143792,-0.122104,-0.0837911,0.0283051,0.0204086,0.0209808,0.0109482,0.0185394,0.0114822,0.0696564,0.028038,-9.97986,0.0190735,0.00240326,0.0019455,0.000534058,0.0341797,-0.00461578,0.017395,-0.00282288
32,8,10.0097,-0.000305176,0.0050354,-2.42898,0.0541551,-0.0756734,0.0535176,0.154283,-0.0903999,0.145013,-0.120884,-0.085317,0.0119781,0.0155258,0.0175476,0.00904083,0.0153351,0.0107956,0.0693893,0.0262451,-9.97986,0.000534058,-0.000534058,-0.000305176,0.0110626,0.0360489,-0.00392914,0.0127792,-0.00221252
32,9,10.0097,-0.00213623,0.00350952,-2.43142,0.0529344,-0.0768941,0.0495503,0.104845,-0.0965034,0.141046,-0.125766,-0.0898946,0.00907898,0.0200653,0.0157547,0.0102234,0.0195694,0.00904083,0.0554657,0.0269699,-9.97986,-0.010643,-0.00152588,-0.00682831,0.0235748,0.0373077,0.000114441,0.01297,0.00679016
33,0,10.0097,0,0.00137329,-2.42959,0.0538499,-0.0762837,0.0513814,0.0856188,-0.0961982,0.143182,-0.126682,-0.0883688,0.0043869,0.0127029,0.0149536,0.00923157,0.0226974,0.00961304,0.0485229,0.029068,-9.97986,-0.0056076,-0.00518799,-0.00305176,0.03582,0.03479,-0.000343323,0.0154495,0.00270844
33,1,10.0097,0.00213623,0.000610352,-2.42867,0.0538499,-0.0765889,0.0526021,0.0752428,-0.0955879,0.144403,-0.125461,-0.0856222,0.00778198,0.0157547,0.0156021,0.00667572,0.0234985,0.00679016,0.0426483,0.0287247,-9.97986,0.00976563,-0.00423431,-0.00934601,0.0403976,0.0402451,-0.0037384,0.0123978,0.00511169
33,2,10.0097,0.000610352,0.000457764,-2.42806,0.055681,-0.0768941,0.0532125,0.0740221,-0.0931465,0.144098,-0.126072,-0.0865377,0.0153732,0.0193024,0.00972748,0.00736237,0.0213623,0.00411987,0.0434494,0.0264359,-9.97986,0.026741,0.00396729,-0.00938416,0.0411606,0.041008,-0.00946045,0.0101089,0.00595093
33,3,10.0097,0.000610352,0.000915527,-2.42806,0.0550706,-0.0753682,0.0532125,0.0724962,-0.0931465,0.144403,-0.126377,-0.0847066,0.0255966,0.0179672,0.0117874,0.00766754,0.0226974,0.00904083,0.0488663,0.0298691,-9.97986,0.0396347,0.00228882,-0.00843048,0.0495529,0.0390244,-0.0129318,0.011673,0.00270844
33,4,10.0097,0,0,-2.42806,0.0535448,-0.0741475,0.0535176,0.07036,-0.0943672,0.142877,-0.126682,-0.0840963,0.01297,0.0183868,0.0136948,0.0113297,0.0268555,0.0114441,0.0454712,0.0337601,-9.97986,0.0389481,-0.00499725,-0.00793457,0.0455856,0.0294113,-0.011673,0.0101471,0.00213623
33,5,10.0097,-0.000915527,0.000457764,-2.42531,0.055681,-0.0729268,0.054128,0.0709703,-0.0925361,0.146234,-0.123935,-0.0831808,-0.000762939,0.0169754,0.0107956,0.0124741,0.0211716,0.0120163,0.0421143,0.0353241,-9.97986,0.0569534,0.00328064,-0.00804901,0.0465775,0.0268555,-0.0165176,0.00682831,0.00694275
33,6,10.0097,0.00183105,0.000915527,-2.42562,0.0565965,-0.0741475,0.0550435,0.07036,-0.0916206,0.147455,-0.124851,-0.0816549,-0.00793457,0.0175476,0.0101089,0.0088501,0.0206757,0.00694275,0.0283813,0.0270081,-9.97986,0.0798798,0.00350952,-0.00289917,0.0449371,0.0292587,-0.0249863,0.00759125,0.00915527
33,7,10.0097,0.00213623,0.000610352,-2.42501,0.055681,-0.073232,0.0544332,0.0715807,-0.0922309,0.146234,-0.12363,-0.0822652,-0.00965118,0.0178528,0.0127029,0.0088501,0.0218582,0.00602722,0.022049,0.0282288,-9.97986,0.0780106,-0.000610352,0.000724792,0.0475311,0.0222015,-0.0239182,0.00530243,0.0138474
33,8,10.0097,0.000305176,-0.000915527,-2.42745,0.0559862,-0.075063,0.0529073,0.032213,-0.0974189,0.146539,-0.128513,-0.0834859,-0.000495911,0.0164795,0.0175095,0.0105667,0.0179291,0.00579834,0.0251007,0.0289917,-9.97986,0.0709152,0.00160217,0.00659943,0.0481033,0.0249481,-0.0208664,0.0105667,0.0186539
33,9,3.91225,0,-0.00366211,-2.42776,0.0562914,-0.0738423,0.0513814,-0.0184462,-0.100776,0.146844,-0.130649,-0.0834859,0.00465393,0.0219727,0.0193024,0.00682831,0.0229263,0.00461578,0.0154114,0.0288391,-9.97986,0.0585556,0.000686646,0.00579834,0.0481033,0.0302124,-0.0159836,0.00793457,0.0174332
34,0,-4.0388,0.00152588,-0.00442505,-2.42531,0.0569017,-0.0735371,0.0529073,-0.018141,-0.0980293,0.146539,-0.129734,-0.0822652,0.00118256,0.0198364,0.018425,0.00980377,0.0191116,0.00473022,0.00499725,0.0281525,-9.97986,0.0465393,-0.000152588,0.00679016,0.0580597,0.0227356,-0.00770569,0.0150681,0.0174713
34,1,-9.99003,-0.000610352,-0.00350952,-2.42562,0.0562914,-0.0729268,0.0553487,0.00108508,-0.0934516,0.146844,-0.128818,-0.080129,0.0101471,0.0221634,0.0231934,0.0106812,0.0229645,0.00461578,0.00259399,0.0239182,-9.97986,0.0415039,-0.00198364,0.00804901,0.0730515,0.020256,-0.00144958,0.0132751,0.0172806
34,2,-9.99003,0.000305176,-0.000152588,-2.4247,0.0553758,-0.0747579,0.0556539,0.0352648,-0.0897895,0.146234,-0.127598,-0.0804342,0.0283432,0.0231934,0.0206375,0.0111389,0.0218964,0,-0.00385284,0.0233841,-9.97986,0.0340271,0.000801086,0.00995636,0.0896454,-0.00389099,-0.00289917,0.0100708,0.0128555
34,3,-9.99003,-0.000610352,0.000610352,-2.42562,0.0553758,-0.0756734,0.0556539,0.054796,-0.090705,0.146539,-0.126682,-0.0798238,0.0241852,0.0259781,0.0237274,0.0125122,0.0300217,-0.00209808,0.00328064,0.0252914,-9.97986,0.023613,0.000762939,0.0158691,0.106659,-0.00377655,0.00244141,0.0100708,0.0139618
34,4,-9.99003,0.000305176,0.00106812,-2.42562,0.0538499,-0.075063,0.0550435,0.0627306,-0.0916206,0.145624,-0.125461,-0.0822652,0.0156021,0.0263977,0.016861,0.0111389,0.0299454,-0.00480652,0.0122452,0.0248718,-9.97986,0.0159073,-0.000343323,0.0082016,0.113411,-0.00572205,0.00556946,0.010643,0.0154495
34,5,-9.99003,-0.000610352,0.00183105,-2.42623,0.0553758,-0.075063,0.0553487,0.0938585,-0.0891792,0.145013,-0.124851,-0.0825704,0.00324249,0.0249481,0.0256729,0.0113678,0.0315094,-0.00358582,0.0192261,0.0219727,-9.97986,0.0109863,-0.0018692,0.00770569,0.125771,0.0180817,0.00545502,0.0140762,0.0143814
34,6,-4.22404,0.00183105,0.00518799,-2.42776,0.0523241,-0.0762837,0.0550435,0.135362,-0.0882636,0.144403,-0.12241,-0.0831808,-0.00740051,0.025177,0.02285,0.0115967,0.0344849,-0.00255585,0.0330353,0.0300598,-9.97986,0.00705719,0.000190735,0.00244141,0.130005,0.0227737,0.00282288,0.0141907,0.0110626
34,7,2.98574,0.000610352,0.00549316,-2.42714,0.0538499,-0.0759786,0.0538228,0.152147,-0.0891792,0.142877,-0.120884,-0.0847066,-0.0107193,0.0238037,0.0191879,0.00789642,0.0352859,-0.0069809,0.0403976,0.0328827,-9.97986,0.0149155,0.00148773,-0.00492096,0.138969,0.0210953,-0.00564575,0.0183868,0.010643
34,8,10.0097,0.00152588,0.00442505,-2.42867,0.0541551,-0.0759786,0.0529073,0.154894,-0.0894843,0.144098,-0.121799,-0.0856222,-0.00980377,0.023613,0.0195694,0.00858307,0.038147,-0.00839233,0.0463104,0.0248718,-9.97986,0.0128174,-0.00102997,-0.0101089,0.146904,0.0248718,-0.00854492,0.0139618,0.00415802
34,9,10.0097,-0.000915527,0.00274658,-2.43233,0.0520189,-0.0759786,0.050771,0.10454,-0.0974189,0.141046,-0.125766,-0.0892843,-0.00671387,0.0236511,0.0186157,0.0094986,0.042305,-0.00823975,0.0401688,0.0305557,-9.97986,0.0292587,0.00198364,-0.00183105,0.155373,0.0207901,-0.00766754,0.0162506,-0.000724792
35,0,10.0097,0.000305176,0.00167847,-2.4302,0.0541551,-0.0756734,0.0516866,0.0840929,-0.0977241,0.141961,-0.126072,-0.0877584,0.00289917,0.0230789,0.018692,0.0147629,0.0401306,-0.014801,0.0366974,0.0283813,-9.97986,0.0457764,0.000724792,-0.00488281,0.164337,0.0136566,-0.0114059,0.0181961,-0.00423431
35,1,10.0097,-0.00152588,0,-2.42898,0.0535448,-0.075063,0.0529073,0.0758531,-0.095893,0.144098,-0.126682,-0.0868429,0.00598907,0.022583,0.017662,0.0100327,0.043335,-0.0146103,0.0281143,0.0286865,-9.97986,0.0490189,-0.00247955,-0.00549316,0.165253,0.0166321,-0.00812531,0.0200653,-0.00270844
35,2,10.0097,0.000610352,-0.000152588,-2.42745,0.0541551,-0.0753682,0.0526021,0.072191,-0.0952827,0.144403,-0.126072,-0.0862325,0.0114441,0.0252914,0.0188828,0.00930786,0.0387955,-0.0157166,0.0272369,0.0264359,-9.97986,0.0335693,-0.011673,-0.00301361,0.164642,0.0199127,-0.00209808,0.0179291,0.000228882
35,3,10.0097,0,0,-2.42806,0.0550706,-0.075063,0.0522969,0.0718859,-0.0943672,0.145013,-0.126377,-0.0847066,0.0163651,0.0281525,0.0196838,0.00892639,0.0354385,-0.010643,0.0115585,0.0309753,-9.97986,0.0183105,-0.0111008,-3.8147e-005,0.167923,0.0121307,-0.00370026,0.0173187,0.00667572
35,4,10.0097,0.00274658,0.0012207,-2.42714,0.0541551,-0.0747579,0.0535176,0.0709703,-0.094062,0.145318,-0.126682,-0.0844015,0.0110626,0.0292206,0.0188446,0.0117493,0.0257111,-0.0105667,0.00846863,0.0294495,-9.97986,0.00926971,-0.00804901,0.0102997,0.170937,0.00968933,0.00141144,0.0231171,0.0153732
35,5,10.0097,0.0012207,0.000457764,-2.42592,0.0559862,-0.073232,0.0535176,0.0709703,-0.0925361,0.144708,-0.125766,-0.0840963,0.00156403,0.0255203,0.016861,0.0115204,0.0259781,-0.00946045,0.00511169,0.0360489,-9.97986,-0.00415802,-0.00175476,0.00747681,0.171318,-0.00476837,-0.00255585,0.0238419,0.019722
35,6,10.0097,0.0012207,0.000915527,-2.42592,0.0553758,-0.0741475,0.0550435,0.0712755,-0.0931465,0.146539,-0.124851,-0.0813497,-0.0112534,0.0351715,0.0212479,0.0141144,0.0256729,-0.00614166,0.0133133,0.0440598,-9.97986,0.00343323,0.00999451,0.0193024,0.181313,-0.00038147,-0.00846863,0.02388,0.0335312
35,7,10.0097,0.000915527,0.000305176,-2.42562,0.0578172,-0.0735371,0.0556539,0.0715807,-0.0916206,0.146539,-0.124241,-0.0807394,-0.032196,0.0270081,0.017395,0.00831604,0.0155258,-0.0102615,0.0018692,0.0283051,-9.97986,-0.00923157,-0.000610352,0.0180435,0.164795,-0.01091,-0.0121307,0.0221634,0.0297928
35,8,10.0097,0.000305176,-0.00228882,-2.42776,0.0553758,-0.0744527,0.0519917,0.0300768,-0.0986396,0.145318,-0.127598,-0.0840963,-0.0349426,0.0287628,0.0180054,0.0137329,0.0212097,-0.00804901,0.00576019,0.0422287,-9.97986,-0.0169754,-0.00110626,0.0215912,0.160484,-0.00534058,-0.00209808,0.0246811,0.0359344
35,9,3.9858,0.00244141,-0.00534058,-2.42653,0.0565965,-0.0741475,0.0529073,-0.0184462,-0.101081,0.145013,-0.130954,-0.0837911,-0.0552368,0.0300598,0.0143051,0.0124741,0.0224686,-0.00827789,0.0109863,0.0321198,-9.97986,-0.0173569,0.00213623,0.0213242,0.14225,-0.00564575,0.00312805,0.0259399,0.0345993
36,0,-3.96617,0.000610352,-0.00595093,-2.42653,0.0565965,-0.0738423,0.0535176,-0.0184462,-0.0965034,0.146234,-0.13126,-0.0828756,-0.0551224,0.0342941,0.0168991,0.0149918,0.0193405,-0.0166321,0.0292206,0.0278091,-9.97986,-0.0133133,-0.00404358,0.0154877,0.121803,-0.0050354,0.00305176,0.022583,0.0295639
36,1,-9.99003,0.000610352,-0.00640869,-2.42501,0.0565965,-0.073232,0.0565694,0.00200061,-0.0922309,0.14776,-0.128513,-0.0816549,-0.000839233,0.0318146,0.0190353,0.013237,0.018158,-0.0199127,0.0327301,0.0276947,-9.97986,-0.00995636,-0.000915527,0.0168228,0.108681,0.000114441,0.00537872,0.0218201,0.0214005
36,2,-9.99003,0.000305176,-0.00411987,-2.42531,0.0559862,-0.073232,0.0556539,0.0340441,-0.0900947,0.146234,-0.126987,-0.0810445,0.0469971,0.0299454,0.019989,0.0110245,0.0183487,-0.015564,0.0329971,0.0288773,-9.97986,0.00190735,-0.001297,0.00953674,0.0867462,-0.0283813,0.0105286,0.0249863,0.0149918
36,3,-9.99003,0.000305176,-0.00274658,-2.42531,0.055681,-0.0738423,0.0565694,0.0554064,-0.0900947,0.144403,-0.126377,-0.0825704,0.0604248,0.029335,0.016098,0.0138474,0.0156021,-0.0198746,0.0379181,0.021553,-9.97986,0.0112152,-0.0025177,0.00656128,0.065918,-0.0294495,0.0168228,0.0202942,0.0102997
36,4,-9.99003,0.000305176,-0.00106812,-2.42806,0.0547655,-0.0744527,0.0547383,0.0642565,-0.090705,0.145929,-0.126682,-0.0831808,0.086174,0.034523,0.0178146,0.0120163,0.0209808,-0.0101852,0.0391388,0.0228119,-9.97986,0.0193405,-0.00209808,0.00247955,0.0452423,-0.0235748,0.0134659,0.0191879,0.0109482
36,5,-9.99003,-0.000610352,0.000152588,-2.42623,0.055681,-0.0735371,0.054128,0.0917223,-0.0891792,0.145013,-0.124851,-0.0834859,0.099411,0.0280762,0.0139999,0.00961304,0.017662,-0.0192261,0.0348663,0.0152969,-9.97986,0.017128,-0.00328064,-0.00247955,0.0349426,0.0094223,0.0088501,0.018692,0.0114441
36,6,-4.24632,0.000915527,0.00396729,-2.42684,0.0541551,-0.0756734,0.054128,0.137804,-0.0885688,0.144708,-0.122104,-0.0837911,0.0797272,0.0299454,0.0209427,0.0111771,0.0242615,-0.0131226,0.0205231,0.0193024,-9.97986,0.0132751,0.00267029,-0.00656128,0.0444031,0.0159454,0.0082016,0.0156784,0.0135422
36,7,2.99886,-0.000305176,0.00366211,-2.42776,0.0544603,-0.0753682,0.0544332,0.154283,-0.0873481,0.144708,-0.120578,-0.0847066,0.0501633,0.0297928,0.0149536,0.015564,0.0291443,-0.0126266,0.00701904,0.0196838,-9.97986,-0.00164032,-3.8147e-005,-0.0177765,0.0382233,0.0195694,0.00747681,0.0173569,0.0134659
36,8,10.0097,-0.000305176,0.00488281,-2.42867,0.0541551,-0.0790303,0.0532125,0.155504,-0.0910102,0.143487,-0.119968,-0.085317,0.018959,0.0324631,0.0157547,0.0119781,0.031929,-0.00919342,0.0030899,0.0252533,-9.97986,-0.00919342,-0.00133514,-0.0150299,0.0489426,0.0267792,0.00286102,0.0141907,0.0139999
36,9,10.0097,0.00183105,0.00289917,-2.43142,0.0523241,-0.0775044,0.0495503,0.106066,-0.0989448,0.142572,-0.126072,-0.0892843,-0.0210571,0.0261688,0.0149536,0.0131226,0.038147,-0.0102997,-0.0131989,0.0246429,-9.97986,-0.0188446,-0.00282288,-0.0176239,0.0561523,0.0233841,0.00240326,0.0197601,0.0172043
37,0,10.0097,0.000610352,0,-2.42867,0.0526292,-0.0765889,0.0510762,0.0834825,-0.0974189,0.142877,-0.128208,-0.0880636,-0.037384,0.0290298,0.0136566,0.00873566,0.0387955,-0.00854492,-0.0163269,0.0329971,-9.97986,-0.0147247,-0.00476837,-0.0185776,0.0506973,0.0143433,0.000267029,0.0244904,0.0167084
37,1,10.0097,0.000305176,-0.000457764,-2.42867,0.0538499,-0.075063,0.0513814,0.0746324,-0.0961982,0.143792,-0.127292,-0.0871481,-0.0499725,0.0226974,0.0131989,0.0137329,0.0383759,-0.00995636,-0.01297,0.0289917,-9.97986,-0.00671387,-0.0037384,-0.0155258,0.0482559,-0.000152588,-0.00297546,0.0219345,0.0159454
37,2,10.0097,0.000915527,0.000152588,-2.42928,0.0547655,-0.0759786,0.0522969,0.0743273,-0.094062,0.144708,-0.126072,-0.085317,-0.0439453,0.0224686,0.0148392,0.00980377,0.0389099,-0.0125504,-0.0129318,0.0333405,-9.97986,0.0101089,-0.00328064,-0.0135422,0.0517273,-0.00389099,-0.00347137,0.0284576,0.0125504
37,3,10.0097,-0.000610352,0,-2.42714,0.0550706,-0.0744527,0.0538228,0.0718859,-0.0946723,0.144708,-0.126377,-0.0850118,-0.0229263,0.0244141,0.0114059,0.0113297,0.0329208,-0.00629425,-0.00427246,0.0349808,-9.97986,0.0286865,-0.00682831,-0.00965118,0.0447464,-0.0170135,-0.00663757,0.0249481,0.0094223
37,4,10.0097,-0.000915527,0,-2.42684,0.0553758,-0.0735371,0.0535176,0.0728014,-0.0937568,0.144403,-0.126072,-0.0840963,-0.0094986,0.0264359,0.0191498,0.0127411,0.0366592,-0.00556946,0.00522614,0.0344086,-9.97986,0.0273514,-0.00278473,0.00362396,0.0449371,-0.0101471,-0.00549316,0.0263214,0.00999451
37,5,10.0097,0.000305176,-0.000457764,-2.4247,0.0562914,-0.0744527,0.0544332,0.0706652,-0.0910102,0.144403,-0.125461,-0.0837911,0.00736237,0.0257492,0.0169754,0.0111771,0.0304031,-0.00888824,0.00221252,0.0329971,-9.97986,0.0183487,-0.00175476,0.0188065,0.0336838,-0.00774384,-0.00732422,0.0247574,0.0112534
37,6,10.0097,0,-0.000915527,-2.42623,0.0559862,-0.0738423,0.0547383,0.0715807,-0.0934516,0.146234,-0.12302,-0.0819601,0.0056839,0.0271606,0.0177002,0.010643,0.032692,-0.00896454,0.00408173,0.0360489,-9.97986,0.0104904,-0.00514984,0.0304413,0.0263977,-0.018425,-0.0109863,0.0231171,0.0123978
37,7,10.0097,-0.00213623,-0.000305176,-2.4247,0.0562914,-0.073232,0.0550435,0.0715807,-0.0916206,0.147455,-0.124546,-0.0804342,0.0154877,0.0265884,0.0179291,0.0109863,0.0305176,-0.00679016,0.00614166,0.0312805,-9.97986,-0.00282288,-0.00415802,0.0386047,0.0251389,-0.0239944,-0.0156403,0.0253677,0.0144196
37,8,10.0097,0.000305176,-0.00198364,-2.42623,0.055681,-0.075063,0.0532125,0.0306871,-0.0971137,0.144403,-0.128208,-0.0834859,0.0445175,0.0290298,0.0199127,0.0108719,0.0246429,-0.00328064,0.0140762,0.0370026,-9.97986,-0.0183868,-0.000114441,0.0365067,0.0260925,-0.0252151,-0.0166321,0.0215912,0.0139999
37,9,3.98152,-0.000305176,-0.00335693,-2.42745,0.0559862,-0.0741475,0.0532125,-0.0190565,-0.101081,0.145929,-0.131565,-0.0831808,0.0153732,0.0281143,0.0191498,0.0117493,0.0304794,-0.00396729,0.0238037,0.0309372,-9.97986,-0.0200653,0.00404358,0.0397873,0.0313187,-0.0261688,-0.0134277,0.0199509,0.00995636
38,0,-3.98753,-0.000610352,-0.0050354,-2.42501,0.0569017,-0.073232,0.0529073,-0.0184462,-0.0968086,0.144708,-0.130649,-0.0816549,-0.0242615,0.0285721,0.0169373,0.0109863,0.0281525,-0.00782013,0.0218201,0.0344849,-9.97986,-0.0221252,0.00175476,0.0389481,0.0318527,-0.0237274,-0.00480652,0.021286,0.00640869
38,1,-9.99003,0.00152588,-0.00534058,-2.4247,0.0562914,-0.0729268,0.0550435,0.000169553,-0.0931465,0.147455,-0.128208,-0.080129,-0.0426102,0.0312042,0.0197601,0.00808716,0.0241089,-0.0144196,0.030365,0.0394058,-9.97986,-0.024147,-0.000839233,0.0403214,0.0260162,-0.0164795,-0.00114441,0.0205612,0.000915527
38,2,-9.99003,0.0012207,-0.00366211,-2.42409,0.0553758,-0.073232,0.0568746,0.0349596,-0.0900947,0.146234,-0.126987,-0.0816549,-0.0415421,0.0319672,0.0212479,0.00804901,0.0237656,-0.0117111,0.0292969,0.0408936,-9.97986,-0.0190353,-3.8147e-005,0.0418091,0.00869751,-0.0383377,-0.00904083,0.0178909,-0.00419617
38,3,-9.99003,-0.000305176,-0.0012207,-2.4247,0.0550706,-0.0756734,0.055959,0.054796,-0.0900947,0.145318,-0.126072,-0.0813497,-0.0166321,0.0273132,0.0204849,0.00972748,0.0214005,-0.0191498,0.0265121,0.0402069,-9.97986,0.0110626,-0.00137329,0.047226,-0.00137329,-0.038681,-0.0187302,0.015831,-0.0050354
38,4,-9.99003,0.000610352,-0.000610352,-2.42623,0.0547655,-0.0747579,0.0538228,0.0645616,-0.0910102,0.145013,-0.125461,-0.0825704,0.0134659,0.0286865,0.0248718,0.00972748,0.0280762,-0.0178528,0.0225449,0.0329971,-9.97986,0.0375748,-0.00087738,0.058403,-0.00339508,-0.0293732,-0.0138855,0.0191116,0.00167847
38,5,-9.99003,0.000610352,0.00106812,-2.42592,0.0562914,-0.0747579,0.0553487,0.0944689,-0.0885688,0.144708,-0.124546,-0.0831808,0.0576019,0.0266647,0.0241852,0.0144196,0.0294113,-0.0200272,0.0144958,0.0285339,-9.97986,0.0457764,-0.00461578,0.0600815,-0.00816345,-0.01297,-0.0100327,0.019722,0.00724792
38,6,-4.14714,0.0012207,0.00427246,-2.42776,0.0523241,-0.075063,0.0547383,0.136583,-0.0876533,0.143182,-0.12241,-0.0840963,0.0590897,0.0309753,0.0234985,0.0114822,0.0256729,-0.0228119,0.0151443,0.0226974,-9.97986,0.0304794,-0.00114441,0.0533295,-0.00415802,-0.00980377,-0.0062561,0.0175476,0.00873566
38,7,3.09163,0.000610352,0.00442505,-2.42714,0.0544603,-0.0759786,0.0538228,0.157335,-0.0882636,0.142267,-0.121799,-0.085317,0.0381088,0.0277328,0.0204086,0.0131226,0.0282669,-0.019989,0.0262451,0.0198746,-9.97986,0.026474,-0.00183105,0.0572205,-0.00492096,0.000762939,-0.00453949,0.0144577,0.0118256
38,8,10.0097,0.0012207,0.0038147,-2.42806,0.0553758,-0.0759786,0.0529073,0.158251,-0.0894843,0.144403,-0.120578,-0.0856222,0.0491714,0.0249481,0.0234985,0.0107574,0.027504,-0.021019,0.0257874,0.0148773,-9.97986,0.0335312,-0.00469208,0.0512695,-0.0118637,0.012207,-0.00339508,0.014267,0.0102997
38,9,10.0097,-0.000915527,0.000762939,-2.43142,0.0532396,-0.0768941,0.0495503,0.10454,-0.0980293,0.142267,-0.125461,-0.0898946,0.0760651,0.0295258,0.0228882,0.0146866,0.0310898,-0.0182343,0.0222778,0.0130463,-9.97986,0.0402832,-0.0018692,0.0543976,-0.0177765,0.015831,0.00404358,0.0146866,0.0144196
39,0,10.0097,0.000305176,-0.000610352,-2.43203,0.0520189,-0.0768941,0.0495503,0.0822618,-0.0965034,0.144098,-0.126682,-0.0886739,0.0885773,0.0177002,0.0160599,0.0136948,0.0297546,-0.0246429,0.019455,0.017128,-9.97986,0.0162506,-0.00469208,0.0598907,-0.0381851,0.0162888,0.00419617,0.011673,0.0162888
39,1,10.0097,0.0012207,-0.00228882,-2.42898,0.0535448,-0.0762837,0.050771,0.0743273,-0.0955879,0.143792,-0.125461,-0.0877584,0.0603485,0.0166702,0.0179672,0.0102234,0.0291061,-0.0193024,0.0209427,0.0186157,-9.97986,-0.0198746,-0.00526428,0.0627518,-0.051384,0.022583,-0.00408173,0.00728607,0.0167084
39,2,10.0097,0.000305176,-0.00183105,-2.42684,0.0553758,-0.0762837,0.0522969,0.0724962,-0.0946723,0.144708,-0.126377,-0.0865377,0.0412369,0.0183868,0.0188065,0.00801086,0.0271606,-0.0226593,0.0285339,0.0239944,-9.97986,-0.0407791,-0.00473022,0.06073,-0.0662994,0.032196,-0.00701904,0.00606537,0.0174332
39,3,10.0097,0.00244141,-0.00137329,-2.42745,0.0550706,-0.075063,0.0522969,0.0697496,-0.0934516,0.145929,-0.126377,-0.0847066,0.032196,0.0114059,0.0126266,0.00831604,0.0164413,-0.0194168,0.0333786,0.0194168,-9.97986,-0.0537491,-0.00797272,0.0577927,-0.0786209,0.0364304,-0.0125122,0.00686646,0.0144958
39,4,10.0097,0.000915527,-0.00152588,-2.42745,0.0544603,-0.0747579,0.0538228,0.07036,-0.0943672,0.145624,-0.126377,-0.0856222,-0.0043869,0.0163269,0.0118637,0.0115585,0.0196075,-0.0187302,0.0350952,0.0115967,-9.97986,-0.0645828,-0.00606537,0.0603104,-0.10006,0.0408554,-0.00782013,0.0105667,0.01091
39,5,10.0097,0.000610352,-0.000762939,-2.42623,0.0559862,-0.0717061,0.0544332,0.0712755,-0.0919257,0.145318,-0.124546,-0.0834859,-0.0361633,0.00923157,0.00473022,0.00812531,0.0128937,-0.0158691,0.033226,0.012207,-9.97986,-0.0598145,-0.00564575,0.0696182,-0.116348,0.051384,-0.00835419,0.0161743,0.0162888
39,6,10.0097,-0.000610352,-0.00106812,-2.42531,0.055681,-0.0741475,0.0547383,0.0712755,-0.0910102,0.146844,-0.125156,-0.0825704,-0.043869,0.0104523,0.00686646,0.0131989,0.0102615,-0.0117111,0.0391006,0.0131607,-9.97986,-0.0321198,-0.000267029,0.0699997,-0.125427,0.0558472,-0.0111008,0.0124359,0.0125885
39,7,10.0097,0,-0.0012207,-2.42531,0.0562914,-0.0726216,0.0556539,0.0734117,-0.0916206,0.146539,-0.124546,-0.0813497,-0.0577927,0.012207,0.00499725,0.0125122,0.00911713,-0.0069046,0.0419617,0.0119781,-9.97986,0.01194,-7.62939e-005,0.0733948,-0.132256,0.061264,-0.00495911,0.00991821,0.0149155
39,8,10.0097,-0.0012207,-0.00167847,-2.42714,0.0569017,-0.075063,0.0532125,0.0331285,-0.0965034,0.145624,-0.128513,-0.0834859,-0.0244904,0.0141144,0.00514984,0.00812531,0.0118637,0.0031662,0.0452423,0.021553,-9.97986,0.0222397,-0.00286102,0.0732803,-0.143661,0.069046,-0.00595093,0.0110245,0.017662
39,9,4.11611,0.000610352,-0.00411987,-2.42653,0.0562914,-0.0762837,0.050771,-0.0193617,-0.101691,0.145624,-0.130344,-0.0834859,0.0359726,0.012207,0.00350952,0.010643,0.0105286,0.0136185,0.0487518,0.0201035,-9.97986,0.0145721,-0.00110626,0.0692368,-0.141487,0.0695038,-0.00511169,0.0154495,0.0199127
40,0,-3.84807,-0.000305176,-0.00518799,-2.42592,0.0569017,-0.0747579,0.0529073,-0.0187513,-0.0986396,0.145929,-0.130649,-0.0816549,0.0450897,0.00694275,0.0104904,0.018692,0.0109482,0.0261688,0.0488281,0.02491,-9.97986,0.0323105,-0.0056839,0.0664902,-0.149002,0.073204,-0.00358582,0.018158,0.0179672
40,1,-9.99003,0.00152588,-0.0050354,-2.42562,0.0575121,-0.0729268,0.0553487,0.00108508,-0.0937568,0.145624,-0.128818,-0.0813497,0.00221252,0.0101089,0.00724792,0.0130081,0.0153732,0.0247955,0.0476074,0.0282288,-9.97986,0.0403214,-0.00576019,0.0709915,-0.153809,0.0721359,-0.00522614,0.0108337,0.0159836
40,2,-9.99003,0.000305176,-0.00320435,-2.42409,0.055681,-0.0720113,0.0556539,0.0355699,-0.0922309,0.147149,-0.126682,-0.0804342,-0.03685,0.0172424,0.00404358,0.0148773,0.0167465,0.0351715,0.0453949,0.026474,-9.97986,0.0351334,-0.00606537,0.0675583,-0.165482,0.0479126,-0.00167847,0.0170517,0.015564
40,3,-9.99003,-0.0012207,-0.000762939,-2.42623,0.0559862,-0.075063,0.0568746,0.0541857,-0.090705,0.145013,-0.126072,-0.0816549,-0.0636673,0.014267,0.00835419,0.0176239,0.0138474,0.034256,0.0531387,0.0268936,-9.97986,0.0235367,-0.00366211,0.0756073,-0.175323,0.0479889,-0.00465393,0.0193024,0.0148392
