
Devices
1200
,,BP Load cell - Voltage,String Length - Voltage,Clutch Active - Voltage,#7 iPecs - Voltage,,,,,,,,,EMG 1-8 Left - Voltage,,,,,,,,Pylon Force - Voltage,EMG 9-16 Right - Voltage,,,,,,,,
Frame,Sub Frame,BP Load Cell,String Length,From Arduino Logic,A45,A135,A225,A315,S0,S90,S180,S270,ZSum,EMG 1 Glut Max,EMG 2 Glut Med,EMG 3 Biceps Femoris Long,EMG 4 Rectus Femoris,EMG 5 Vastus Medialis,EMG 6 Tib Ant,EMG 7 Med Gas,EMG 8 Soleus,Pylon volts,EMG 9 Glut Max,EMG 10 Glut Med,EMG 11 Biceps Femoris Long,EMG 12 Rectus Femoris,EMG 13 Vastus Medialis,EMG 14 Tib Ant,EMG 15 Med Gas,EMG 16 Soleus
,,V,V,V,V,V,V,V,V,V,V,V,V,V,V,V,V,V,V,V,V,V,V,V,V,V,V,V,V,V
1,0,10.0097,-0.00366211,0.000152588,-2.42745,0.0547655,-0.075063,0.0532125,0.0706652,-0.094062,0.144098,-0.125766,-0.085317,0.0127411,0.0232315,0.0182724,0.00919342,0.0150681,0.00793457,0.0201035,0.0138855,-9.97986,0.0180435,0.00385284,0.0088501,0.00370026,0.019455,-0.00175476,0.0139999,0.00476837
1,1,10.0097,0.00274658,-0.000152588,-2.42684,0.0550706,-0.0753682,0.054128,0.0712755,-0.0931465,0.145318,-0.126377,-0.0837911,0.00865936,0.0232315,0.0189972,0.00854492,0.0165176,0.0114441,0.0199127,0.017395,-9.97986,0.0137329,-0.00125885,0.0131989,0.00965118,0.0131226,-0.00133514,0.0161362,0.00587463
1,2,10.0097,-0.000305176,0.000762939,-2.42531,0.055681,-0.0747579,0.0538228,0.0709703,-0.0916206,0.145013,-0.125156,-0.0828756,0.0106049,0.0179672,0.0185394,0.0102615,0.0149918,0.0130463,0.0224686,0.0167465,-9.97986,0.0131989,0.00408173,0.014267,0.00534058,0.0148773,-0.00423431,0.0144577,0.00732422
1,3,10.0097,0.000610352,0,-2.42592,0.0559862,-0.073232,0.0547383,0.0706652,-0.0925361,0.147149,-0.124241,-0.0813497,0.0131607,0.0256729,0.0180435,0.0102997,0.0160599,0.0101852,0.0164413,0.0163269,-9.97986,0.0136185,-0.000839233,0.0163651,0.00915527,0.0177383,-0.00164032,0.0137711,0.00617981
1,4,10.0097,0.00183105,0,-2.42562,0.0562914,-0.073232,0.0556539,0.0718859,-0.0922309,0.146539,-0.124241,-0.080129,0.0113678,0.0248718,0.0143433,0.0141144,0.0158691,0.0107193,0.0233841,0.0216293,-9.97986,0.0174713,0.000839233,0.0175095,0.00827789,0.0168991,-0.00286102,0.0130081,0.00743866
1,5,10.0097,-0.000305176,-0.00213623,-2.42745,0.055681,-0.0747579,0.050771,0.0334337,-0.0974189,0.145929,-0.128513,-0.0834859,0.0146866,0.0230408,0.0128937,0.0129318,0.0146103,0.00713348,0.0196075,0.0234985,-9.97986,0.0193024,0.00225067,0.0161362,0.00419617,0.0180435,-0.00514984,0.0128174,0.00545502
1,6,4.58455,0,-0.0038147,-2.42684,0.0559862,-0.0747579,0.0516866,-0.0153944,-0.0995551,0.145624,-0.131565,-0.0831808,0.00740051,0.0222778,0.0199127,0.0126648,0.0167084,0.0105667,0.0210571,0.0235367,-9.97986,0.019989,0.000114441,0.0150681,0.00514984,0.020752,-0.00125885,0.0143814,0.00396729
1,7,-3.06315,-0.000305176,-0.00411987,-2.42623,0.0565965,-0.0738423,0.0538228,-0.0156996,-0.0965034,0.148065,-0.130344,-0.0819601,0.0104141,0.0237274,0.0183487,0.0133514,0.0195694,0.0133514,0.0224686,0.0291443,-9.97986,0.0217438,-0.00133514,0.0165558,0.00476837,0.0218201,-0.00278473,0.0164032,0.00644684
1,8,-9.99003,0.0012207,-0.00427246,-2.4247,0.0569017,-0.0741475,0.0547383,0.00352649,-0.0946723,0.147149,-0.128208,-0.080129,0.00953674,0.0240326,0.0170898,0.0157166,0.0209427,0.0126266,0.022583,0.0273895,-9.97986,0.0217056,-0.000228882,0.016861,0.00465393,0.0197601,-0.00537872,0.0167847,0.00785828
1,9,-9.99003,-0.000915527,-0.00228882,-2.42501,0.0559862,-0.0729268,0.0556539,0.0276354,-0.0919257,0.146539,-0.127598,-0.0810445,0.0140381,0.0167465,0.0193405,0.0144958,0.019989,0.0111771,0.022583,0.0196075,-9.97986,0.0174332,-0.00274658,0.0151443,0.00602722,0,-0.00110626,0.0157547,0.00629425
2,0,-9.99003,0.000305176,-0.000457764,-2.4247,0.0547655,-0.073232,0.0553487,0.0517443,-0.090705,0.145929,-0.126987,-0.0813497,0.0107574,0.0204849,0.0163269,0.00961304,0.0187302,0.0113678,0.027771,0.0208282,-9.97986,0.0178909,0.00190735,0.014267,0.00587463,-0.00644684,-0.00286102,0.0145721,0.00736237
2,1,-9.99003,-0.000915527,-0.000610352,-2.42592,0.055681,-0.0744527,0.0550435,0.0639513,-0.0919257,0.146844,-0.126072,-0.0819601,0.0062561,0.0216675,0.0137711,0.0123978,0.0166321,0.00904083,0.0164795,0.0202942,-9.97986,0.00839233,-0.00350952,0.00980377,0.00694275,-0.00766754,-0.00339508,0.0130463,0.00637054
2,2,-9.99003,0.00183105,0.00152588,-2.42653,0.0553758,-0.0747579,0.055959,0.0950792,-0.0894843,0.144708,-0.124241,-0.0837911,0.00770569,0.0206757,0.0187302,0.0151443,0.0149918,0.0135803,0.0225449,0.0140762,-9.97986,0.00976563,0.00137329,0.014534,0.00652313,0.0195313,-0.00312805,0.014267,0.0087738
2,3,-3.5432,-0.000610352,0.0038147,-2.42806,0.0547655,-0.0753682,0.054128,0.139025,-0.0876533,0.143792,-0.12241,-0.0844015,0.0088501,0.0241089,0.0162506,0.0123215,0.0159454,0.0108719,0.0230789,0.0082016,-9.97986,0.00972748,-0.00221252,0.010376,0.00389099,0.0171661,-0.00431061,0.0159836,0.00629425
2,4,3.65956,0.000610352,0.00427246,-2.42714,0.0550706,-0.0756734,0.0553487,0.152452,-0.0882636,0.144708,-0.121799,-0.0856222,0.0106049,0.0242996,0.0165558,0.0144196,0.0156784,0.00888824,0.0205612,0.0133133,-9.97986,0.00385284,-0.00587463,0.0157928,0.00377655,0.0187302,-0.000228882,0.0167465,0.00480652
2,5,10.0097,0.000915527,0.00442505,-2.42776,0.0535448,-0.0765889,0.0535176,0.15764,-0.0891792,0.144403,-0.120884,-0.0859274,0.011673,0.0237656,0.0154114,0.0108337,0.0190735,0.0130081,0.017395,0.00907898,-9.97986,0.0128937,-0.000267029,0.014267,0.00511169,0.0196838,-0.00331879,0.0183487,0.0062561
2,6,10.0097,0.000915527,0.00183105,-2.43142,0.0532396,-0.0756734,0.0495503,0.100267,-0.0974189,0.142267,-0.126072,-0.0889791,0.010643,0.024147,0.0177765,0.0104141,0.0181961,0.0062561,0.0228882,0.01194,-9.97986,0.00938416,0.00144958,0.0142288,0.00324249,0.0192642,-0.00350952,0.0156784,0.00534058
2,7,10.0097,0.000610352,0.000762939,-2.42989,0.0538499,-0.0762837,0.0516866,0.0819567,-0.0974189,0.144098,-0.127292,-0.0880636,0.00999451,0.02388,0.0212479,0.0112152,0.0162506,0.00900269,0.0196075,0.0155258,-9.97986,0.0139618,-0.0056076,0.0119781,0.00534058,0.0171661,-0.00293732,0.0163651,0.00682831
2,8,10.0097,-0.000305176,-0.000305176,-2.42867,0.0547655,-0.075063,0.0522969,0.0740221,-0.0946723,0.143487,-0.126072,-0.0871481,0.0102997,0.0234985,0.0251389,0.010376,0.0175858,0.014267,0.0231552,0.0138092,-9.97986,0.0111771,-0.00370026,0.0114059,0.00644684,0.0151825,-0.00278473,0.0175095,0.00762939
2,9,10.0097,0,0.000305176,-2.42898,0.0550706,-0.0756734,0.0526021,0.0718859,-0.0946723,0.145318,-0.126682,-0.0850118,0.00862122,0.0222015,0.0191879,0.0139236,0.0190353,0.0107574,0.0233459,0.0159836,-9.97986,0.0108719,-0.00324249,0.014267,0.00610352,0.0158691,0.00156403,0.0175095,0.00679016
3,0,10.0097,0.00152588,0.000457764,-2.42776,0.0541551,-0.0747579,0.0529073,0.07036,-0.0943672,0.144403,-0.126377,-0.0850118,0.00976563,0.0233841,0.0165939,0.0104904,0.0227356,0.014534,0.0226974,0.0194168,-9.97986,0.0130463,0.000305176,0.0131226,0.00762939,0.0146484,-0.0037384,0.0172043,0.0056839
3,1,10.0097,-0.000610352,-0.000152588,-2.42714,0.0550706,-0.0744527,0.0535176,0.0706652,-0.0928413,0.145929,-0.126072,-0.0840963,0.00980377,0.0244141,0.019722,0.0123215,0.0186539,0.0106049,0.0224304,0.0133514,-9.97986,0.0147629,-0.00667572,0.0144196,0.00793457,0.0185776,0.000610352,0.014801,0.00499725
3,2,10.0097,0.000610352,0.000305176,-2.42623,0.0550706,-0.0741475,0.0544332,0.072191,-0.0931465,0.145318,-0.124851,-0.0831808,0.0147247,0.0251389,0.021553,0.0123978,0.0198746,0.00972748,0.0254822,0.0177765,-9.97986,0.0170517,0.00190735,0.0151443,0.00537872,0.0137711,-0.00297546,0.0191879,0.00774384
3,3,10.0097,0.000610352,0.000305176,-2.42501,0.0572069,-0.0738423,0.0556539,0.0712755,-0.0916206,0.145318,-0.124546,-0.0825704,0.00598907,0.0207138,0.0193024,0.01297,0.0149155,0.0101471,0.0204086,0.0170135,-9.97986,0.018158,0.00148773,0.0144196,0.00476837,0.0148392,-0.00102997,0.0165558,0.00770569
3,4,10.0097,0.000915527,0.000152588,-2.4244,0.0565965,-0.073232,0.0544332,0.0712755,-0.0919257,0.147149,-0.125156,-0.0816549,0.0101471,0.0222778,0.0216293,0.0127411,0.0170898,0.00549316,0.0214767,0.0242233,-9.97986,0.0177765,0.000495911,0.0136566,0.00984192,0.0161743,-0.000495911,0.0143051,0.00511169
3,5,10.0097,0,-0.00152588,-2.42714,0.0547655,-0.0747579,0.0535176,0.0319078,-0.0977241,0.145929,-0.126682,-0.0831808,0.00839233,0.0201035,0.0214767,0.0153732,0.0183487,0.00843048,0.0212479,0.0254822,-9.97986,0.0219727,-0.00164032,0.0175858,0.00572205,0.018692,-0.00343323,0.0154495,0.00598907
3,6,4.47103,-0.00152588,-0.00411987,-2.42684,0.0559862,-0.075063,0.0504659,-0.0160048,-0.0998603,0.145318,-0.131565,-0.0831808,0.0119781,0.0249863,0.0231552,0.0115204,0.0163269,0.0101089,0.0220871,0.0271988,-9.97986,0.0229645,-0.00366211,0.0144196,0.00656128,0.0181961,-0.00453949,0.0190735,0.00576019
3,7,-3.23955,0.000610352,-0.00442505,-2.42623,0.0569017,-0.0741475,0.0526021,-0.0153944,-0.0971137,0.145624,-0.130344,-0.0819601,0.0120926,0.0257111,0.0192261,0.0120163,0.014534,0.00938416,0.02285,0.0282669,-9.97986,0.0174332,0.000457764,0.0133896,0.00408173,0.0123596,-0.00621796,0.0145721,0.00640869
3,8,-9.99003,0.000610352,-0.00457764,-2.4247,0.0565965,-0.0723164,0.0562642,0.00139026,-0.0919257,0.14776,-0.128818,-0.0810445,0.0133514,0.0235748,0.019722,0.0121689,0.0179291,0.0152206,0.0204086,0.02285,-9.97986,0.0195694,-0.00148773,0.0143814,0.00579834,0.0183868,-0.0025177,0.0114822,0.00923157
3,9,-9.99003,0.00244141,-0.00244141,-2.42501,0.0562914,-0.0738423,0.055959,0.0282457,-0.0922309,0.146539,-0.126987,-0.0816549,0.0163651,0.0257111,0.019455,0.0122452,0.0207901,0.0139236,0.0218582,0.022049,-9.97986,0.0205231,-0.00110626,0.0162125,0.00782013,-0.00213623,-0.00328064,0.0130844,0.00553131
4,0,-9.99003,0.0012207,-0.000457764,-2.42531,0.0553758,-0.075063,0.0550435,0.0523546,-0.0900947,0.144403,-0.126987,-0.0822652,0.0110245,0.0240707,0.0192261,0.0143433,0.0205231,0.00816345,0.0200653,0.0224686,-9.97986,0.0183105,0.001297,0.0156021,0.0087738,-0.0019455,-0.00240326,0.0178909,0.00946045
4,1,-9.99003,0.00213623,-0.000152588,-2.42592,0.055681,-0.0747579,0.0550435,0.0642565,-0.0916206,0.144098,-0.125461,-0.0825704,0.0113297,0.0214767,0.023613,0.0101471,0.0188446,0.0138092,0.0222397,0.0167084,-9.97986,0.0148773,0.000114441,0.0142288,0.00713348,-0.01091,-0.00499725,0.0147247,0.00579834
4,2,-9.99003,0.00213623,0.00152588,-2.42623,0.0553758,-0.075063,0.0556539,0.0972155,-0.0894843,0.144708,-0.12363,-0.0825704,0.00919342,0.0221252,0.0164413,0.0112152,0.0138474,0.00923157,0.0245667,0.0133133,-9.97986,0.0129318,-0.00213623,0.0167084,0.00411987,0.012207,-0.00190735,0.0185394,0.00629425
4,3,-3.55693,-0.0012207,0.00427246,-2.42653,0.0535448,-0.0753682,0.0550435,0.139635,-0.0879585,0.141961,-0.122104,-0.0847066,0.00923157,0.0186157,0.0181198,0.0115204,0.0148773,0.00915527,0.0209427,0.0114059,-9.97986,0.0111771,-0.000953674,0.0138092,0.00549316,0.0152969,-0.00385284,0.0152969,0.0043869
4,4,3.62233,0.0012207,0.00442505,-2.42898,0.0547655,-0.0762837,0.054128,0.153368,-0.0891792,0.142572,-0.121189,-0.0844015,0.00534058,0.0211334,0.0238419,0.00957489,0.0167847,0.00782013,0.022583,0.0056839,-9.97986,0.00907898,-0.00267029,0.0149536,0.00743866,0.0131607,-0.00362396,0.0146103,0.00587463
4,5,10.0097,-0.000915527,0.00411987,-2.42867,0.0550706,-0.0762837,0.0535176,0.15703,-0.0891792,0.144098,-0.121189,-0.0856222,0.010643,0.021553,0.0166702,0.012207,0.0143814,0.00827789,0.0277328,0.00904083,-9.97986,0.00862122,-0.00209808,0.0119781,0.00583649,0.0147247,-0.00232697,0.0137711,0.0056076
4,6,10.0097,-0.000305176,0.00167847,-2.4302,0.0535448,-0.0762837,0.0504659,0.101183,-0.0983344,0.141656,-0.125766,-0.0886739,0.0113297,0.0199127,0.0172806,0.00892639,0.0165558,0.00999451,0.0188446,0.00869751,-9.97986,0.0137711,-0.00175476,0.0174332,0.00534058,0.00961304,-0.00106812,0.0171661,0.00801086
4,7,10.0097,0.000610352,0.000610352,-2.4305,0.0532396,-0.0753682,0.0519917,0.0822618,-0.0965034,0.143487,-0.127292,-0.0883688,0.0102997,0.0212479,0.0164795,0.0138474,0.0177002,0.0125122,0.0248718,0.0138855,-9.97986,0.00991821,-0.0012207,0.0139618,0.00858307,0.0140381,-0.00179291,0.0157547,0.00640869
4,8,10.0097,-0.000610352,0.000152588,-2.42898,0.0544603,-0.0775044,0.0513814,0.075548,-0.0946723,0.143182,-0.126987,-0.0865377,0.0120926,0.0201416,0.0177765,0.0101852,0.0167847,0.013504,0.0234985,0.0150299,-9.97986,0.0107193,-0.00205994,0.0168991,0.00923157,0.0140381,-0.0019455,0.0156784,0.0063324
4,9,10.0097,0.000305176,-0.000457764,-2.42776,0.0550706,-0.0741475,0.0526021,0.0737169,-0.0946723,0.144708,-0.127598,-0.0859274,0.0116348,0.018959,0.0186157,0.0102997,0.0210571,0.0129318,0.0264359,0.0146484,-9.97986,0.0145721,-0.00629425,0.0156403,0.00564575,0.0151825,-0.0031662,0.0151443,0.00476837
5,0,10.0097,0.00213623,0,-2.42776,0.0550706,-0.0741475,0.0526021,0.0715807,-0.0937568,0.143792,-0.126377,-0.0837911,0.0107956,0.0253296,0.0183105,0.0147629,0.0138855,0.00831604,0.0236511,0.0151825,-9.97986,0.0162888,-0.000152588,0.00900269,0.00862122,0.0134277,-0.0025177,0.0134277,0.00362396
5,1,10.0097,0.00183105,0.000305176,-2.42745,0.0541551,-0.0741475,0.0535176,0.0700548,-0.0946723,0.145013,-0.126377,-0.0840963,0.0141907,0.0231934,0.0152588,0.00713348,0.0167847,0.0122833,0.0273514,0.0166321,-9.97986,0.0147247,-0.000953674,0.0154877,0.00934601,0.0134277,-0.00183105,0.0138855,0.00518799
5,2,10.0097,0.000915527,0.000152588,-2.42684,0.0559862,-0.0744527,0.054128,0.07036,-0.0922309,0.145318,-0.125461,-0.0822652,0.013237,0.0254059,0.0190353,0.0146484,0.0185394,0.0136948,0.0230026,0.0213242,-9.97986,0.0157928,-0.00137329,0.0159073,0.00850677,0.0130463,-0.0037384,0.0160599,0.00724792
5,3,10.0097,0.00244141,0.000610352,-2.42501,0.0562914,-0.0738423,0.0544332,0.0724962,-0.0922309,0.146234,-0.124546,-0.0813497,0.0100327,0.0206375,0.0210571,0.0138474,0.0188446,0.00732422,0.0244141,0.0225067,-9.97986,0.0136566,-0.00164032,0.0182343,0.00564575,0.0149536,0.00148773,0.0164795,0.00984192
5,4,10.0097,0,-0.000305176,-2.42531,0.0559862,-0.0735371,0.0544332,0.072191,-0.090705,0.145929,-0.123325,-0.0804342,0.0113297,0.0229263,0.0159073,0.0111008,0.0154877,0.00869751,0.020752,0.0180054,-9.97986,0.0171661,-0.00789642,0.0151062,0.00534058,0.0146484,-0.00434875,0.0160217,0.00553131
5,5,10.0097,0.000305176,-0.00167847,-2.42562,0.055681,-0.0753682,0.0526021,0.0325182,-0.0974189,0.145929,-0.127292,-0.0840963,0.0094223,0.0213242,0.0170517,0.00904083,0.0137711,0.00904083,0.0191498,0.0261688,-9.97986,0.0218582,-0.00751495,0.0146103,0.00682831,0.0159836,-0.00286102,0.0148773,0.00598907
5,6,4.66451,0,-0.00366211,-2.42776,0.0569017,-0.0747579,0.0519917,-0.0141737,-0.0998603,0.145624,-0.130954,-0.0834859,0.0134659,0.0243378,0.0177765,0.0146866,0.0178528,0.00999451,0.0181198,0.0259399,-9.97986,0.0230789,-0.00389099,0.011673,0.00587463,0.0161362,-0.00480652,0.0136566,0.00492096
5,7,-3.10069,-0.000610352,-0.00442505,-2.42653,0.0562914,-0.0729268,0.0516866,-0.0144789,-0.0986396,0.14776,-0.130344,-0.0816549,0.0120926,0.0247955,0.0196838,0.0133514,0.020256,0.00999451,0.0208282,0.0258255,-9.97986,0.0227356,-0.00171661,0.0145721,0.00602722,0.0194168,-0.00160217,0.014267,0.00675201
5,8,-9.99003,-0.000915527,-0.00411987,-2.4244,0.0572069,-0.0735371,0.0553487,0.00200061,-0.0928413,0.14776,-0.128818,-0.0810445,0.01194,0.0213242,0.0191498,0.0108337,0.0196457,0.0112534,0.0221634,0.0246048,-9.97986,0.0183105,-0.00431061,0.0162506,0.00545502,0.016861,-0.00198364,0.0155258,0.00614166
5,9,-9.99003,0.0012207,-0.00213623,-2.4244,0.0562914,-0.0738423,0.0562642,0.0288561,-0.090705,0.145013,-0.127903,-0.0813497,0.0125504,0.0269318,0.0201416,0.00984192,0.0163651,0.0111008,0.0195313,0.025444,-9.97986,0.0186539,-0.00522614,0.0156784,0.00831604,0.00114441,-0.00190735,0.0172424,0.00682831
6,0,-9.99003,0.0012207,-0.00106812,-2.42531,0.0559862,-0.0753682,0.0556539,0.0520494,-0.0897895,0.144403,-0.126072,-0.0816549,0.0176239,0.0284958,0.0167084,0.0116348,0.019722,0.0104141,0.0256348,0.0240707,-9.97986,0.0143814,0.00160217,0.0156021,0.00808716,-0.00720978,-0.00392914,0.0182343,0.00835419
6,1,-9.99003,0.000610352,0.000305176,-2.42501,0.055681,-0.0738423,0.0550435,0.0633409,-0.0910102,0.146844,-0.125766,-0.0825704,0.01194,0.019722,0.0195313,0.0105286,0.0154495,0.00869751,0.0221634,0.0212479,-9.97986,0.0167847,-0.000801086,0.0112915,0.00644684,-0.00530243,0.000801086,0.0172424,0.00843048
6,2,-9.99003,0.000305176,0.00183105,-2.42684,0.0547655,-0.0744527,0.0547383,0.098131,-0.0894843,0.144708,-0.12363,-0.0825704,0.00816345,0.0232315,0.017395,0.0130081,0.0157547,0.00869751,0.0194931,0.0115585,-9.97986,0.0130463,-0.00621796,0.0110626,0.00659943,0.0134659,-0.00534058,0.0142288,0.0043869
6,3,-3.35032,-0.000305176,0.0050354,-2.42745,0.0532396,-0.0759786,0.0544332,0.140245,-0.0870429,0.144403,-0.123325,-0.0840963,0.012207,0.0253296,0.0192261,0.0120544,0.019455,0.0120544,0.0265884,0.0159454,-9.97986,0.0121307,-0.000419617,0.0143814,0.00946045,0.019455,0.00259399,0.022316,0.0069809
6,4,3.86281,0.000305176,0.0038147,-2.42806,0.0547655,-0.075063,0.054128,0.153978,-0.0891792,0.144403,-0.121494,-0.085317,0.00553131,0.0190735,0.0146103,0.0128174,0.0104904,0.0102234,0.0209427,0.00839233,-9.97986,0.00526428,-0.00282288,0.0101471,0.00480652,0.0122833,-0.00701904,0.0105667,0.00564575
6,5,10.0097,-0.000305176,0.00457764,-2.42898,0.0541551,-0.0753682,0.0535176,0.157945,-0.0903999,0.143792,-0.121189,-0.085317,0.0144577,0.0243378,0.0192642,0.0125885,0.0159836,0.00782013,0.0214005,0.00831604,-9.97986,0.0110626,0.00228882,0.0161743,0.00911713,0.013504,-0.00110626,0.0173187,0.00694275
6,6,10.0097,-0.000305176,0.00228882,-2.4302,0.0535448,-0.0762837,0.0495503,0.100267,-0.0980293,0.142572,-0.125461,-0.0886739,0.00648499,0.0244141,0.0178146,0.0133896,0.0161743,0.00984192,0.0173187,0.00766754,-9.97986,0.00720978,0.00312805,0.0163269,0.00511169,0.0137329,-0.00217438,0.0150681,0.0056839
6,7,10.0097,0.000610352,0.000457764,-2.42989,0.0538499,-0.0759786,0.0510762,0.0798204,-0.095893,0.143792,-0.126377,-0.0883688,0.0112534,0.0240326,0.0200272,0.0134659,0.0157928,0.00991821,0.0207901,0.016098,-9.97986,0.0153732,0.00293732,0.0143814,0.00843048,0.0194931,-0.00347137,0.016861,0.00579834
6,8,10.0097,-0.000305176,0,-2.42898,0.0547655,-0.0759786,0.0522969,0.0758531,-0.095893,0.144708,-0.126072,-0.0871481,0.00873566,0.0247192,0.019722,0.0141525,0.0200653,0.012207,0.0204086,0.0160217,-9.97986,0.0119781,0.000495911,0.0148773,0.0069046,0.0149918,-0.000267029,0.0161362,0.00679016
6,9,10.0097,0.000610352,-0.000152588,-2.42806,0.0547655,-0.0753682,0.0526021,0.0728014,-0.0952827,0.143182,-0.126682,-0.0862325,0.0101089,0.0238037,0.0181198,0.0107956,0.0181198,0.00675201,0.0201416,0.0129318,-9.97986,0.0171661,-0.00450134,0.0154495,0.00766754,0.0189972,-0.00102997,0.0175095,0.00736237
7,0,10.0097,0.000915527,-0.000457764,-2.42684,0.0541551,-0.0747579,0.0529073,0.0728014,-0.0931465,0.145013,-0.126987,-0.0847066,0.0104523,0.0233078,0.0163651,0.00835419,0.0160217,0.00549316,0.0202179,0.0124359,-9.97986,0.014534,-0.00347137,0.0170135,0.0100327,0.0194168,0.00148773,0.0165558,0.00495911
7,1,10.0097,0.000305176,0.000915527,-2.42684,0.0553758,-0.0756734,0.0529073,0.0715807,-0.0928413,0.144403,-0.125461,-0.0831808,0.00915527,0.0267792,0.0207901,0.0101089,0.0180817,0.00831604,0.0223541,0.016861,-9.97986,0.0177383,-0.00312805,0.0167847,0.00759125,0.0167084,-0.000610352,0.0166702,0.00610352
7,2,10.0097,-0.000610352,0.000152588,-2.42501,0.055681,-0.0744527,0.054128,0.0718859,-0.0931465,0.145013,-0.125766,-0.0834859,0.00869751,0.0206757,0.018692,0.0075531,0.013237,0.00873566,0.0187683,0.0136566,-9.97986,0.0178146,0.000572205,0.0129318,0.00511169,0.0169373,-0.000724792,0.0145721,0.00480652
7,3,10.0097,0.000610352,0,-2.42684,0.0565965,-0.0735371,0.0544332,0.0712755,-0.0913154,0.145929,-0.125156,-0.0810445,0.0104523,0.0222015,0.0175858,0.0133896,0.0169754,0.0122452,0.0236511,0.0206757,-9.97986,0.014534,-0.000686646,0.0138474,0.00553131,0.0163651,-0.000572205,0.0165939,0.0094986
7,4,10.0097,0.000610352,0.000457764,-2.42379,0.0565965,-0.0726216,0.0538228,0.0706652,-0.0925361,0.146234,-0.124851,-0.0810445,0.00991821,0.0192642,0.0151825,0.0094986,0.0175095,0.00461578,0.0201416,0.0244141,-9.97986,0.0151443,-0.000953674,0.0114822,0.00480652,0.0147247,-0.00366211,0.0133896,0.00530243
7,5,10.0097,-0.000915527,-0.0012207,-2.42714,0.0559862,-0.0738423,0.0519917,0.0312975,-0.0974189,0.145013,-0.127292,-0.0828756,0.013504,0.0195694,0.0191879,0.00858307,0.0193787,0.011673,0.0202179,0.0284576,-9.97986,0.0222778,-0.00480652,0.0144196,0.00816345,0.0180435,-0.00389099,0.0118637,0.0025177
7,6,4.67885,-0.000915527,-0.00335693,-2.42806,0.0569017,-0.0747579,0.0522969,-0.0163099,-0.100776,0.146234,-0.130649,-0.0828756,0.0151825,0.0250244,0.0232697,0.01091,0.0237274,0.0150681,0.0246811,0.0354004,-9.97986,0.0339127,0.00167847,0.0178528,0.00938416,0.0234985,0.00152588,0.0191879,0.0127411
7,7,-3.02684,0.000610352,-0.00518799,-2.42501,0.0562914,-0.0741475,0.0529073,-0.0147841,-0.0965034,0.146234,-0.130344,-0.0819601,0.00442505,0.0177383,0.0118256,0.00499725,0.01091,0.00339508,0.017128,0.022316,-9.97986,0.0178146,-0.00530243,0.0104904,0.00278473,0.0140762,-0.0100327,0.0127792,0.00263214
7,8,-9.99003,-0.000610352,-0.00411987,-2.42379,0.0569017,-0.0735371,0.0556539,0.00383166,-0.0934516,0.145929,-0.128818,-0.0807394,0.0153351,0.0281525,0.0231171,0.0139236,0.0177383,0.0163269,0.0230408,0.0273132,-9.97986,0.018158,-0.00396729,0.0138092,0.00415802,0.0174713,-0.0025177,0.0180817,0.00411987
7,9,-9.99003,-0.000305176,-0.00228882,-2.42379,0.0565965,-0.0735371,0.0550435,0.0297716,-0.0910102,0.147455,-0.127598,-0.0810445,0.010643,0.0226974,0.0147247,0.0133896,0.0193024,0.0139999,0.0194168,0.0235367,-9.97986,0.0206757,-0.00118256,0.0148773,0.00461578,0.00160217,-0.00213623,0.0136948,0.0082016
8,0,-9.99003,0.0012207,-0.0012207,-2.42348,0.0550706,-0.0744527,0.0565694,0.0520494,-0.090705,0.145318,-0.125766,-0.0825704,0.0118256,0.0203705,0.0196075,0.0104141,0.0164413,0.00675201,0.0202942,0.0169373,-9.97986,0.017128,-0.00453949,0.015831,0.0012207,-0.00846863,-0.00282288,0.0137329,0.00671387
8,1,-9.99003,-0.000610352,0.000305176,-2.42653,0.0550706,-0.0747579,0.0556539,0.0648668,-0.090705,0.145929,-0.126072,-0.0822652,0.0151443,0.0177002,0.0178146,0.0109482,0.0188446,0.00911713,0.0242615,0.0162888,-9.97986,0.0159454,-0.00282288,0.0134659,0.00465393,-0.00270844,-0.00576019,0.016098,0.00514984
8,2,-9.99003,-0.00213623,0.0012207,-2.42684,0.0550706,-0.075063,0.0550435,0.0962999,-0.0885688,0.145318,-0.123325,-0.0825704,0.0112152,0.0234604,0.0208664,0.0118637,0.0163651,0.0122833,0.0201035,0.0139999,-9.97986,0.0120163,-0.00102997,0.014534,0.00816345,0.0190353,0.00137329,0.0168228,0.00541687
8,3,-3.40404,0.00152588,0.00442505,-2.42776,0.0529344,-0.0747579,0.0550435,0.138719,-0.0876533,0.145013,-0.12302,-0.0834859,0.00839233,0.0218582,0.019455,0.0104141,0.0220108,0.0120544,0.0181198,0.0117111,-9.97986,0.01091,0.00205994,0.0141907,0.00694275,0.0147247,-0.00305176,0.0153351,0.00709534
8,4,3.79445,0.00213623,0.00473022,-2.42776,0.0538499,-0.0759786,0.0544332,0.153978,-0.0882636,0.144403,-0.120273,-0.0847066,0.00915527,0.0269699,0.0159073,0.0088501,0.0183868,0.0116348,0.024147,0.00984192,-9.97986,0.00812531,-0.00114441,0.014534,0.000724792,0.0166321,-0.00183105,0.0151825,0.0069046
8,5,10.0097,0.0012207,0.00396729,-2.42837,0.0544603,-0.0759786,0.0535176,0.157945,-0.088874,0.143792,-0.121799,-0.085317,0.0141144,0.0260925,0.0152969,0.0138474,0.0170898,0.0119781,0.0214386,0.0112915,-9.97986,0.0103378,0.00038147,0.0141144,0.00335693,0.0122452,-0.00453949,0.0156021,0.00610352
8,6,10.0097,0.000305176,0.00152588,-2.4305,0.0529344,-0.0775044,0.0504659,0.0993517,-0.0974189,0.143487,-0.126377,-0.0886739,0.0115967,0.0226593,0.0201797,0.00907898,0.0170517,0.0120544,0.0211334,0.0107956,-9.97986,0.0103378,0.000114441,0.0151443,0.00629425,0.0201035,7.62939e-005,0.020256,0.00682831
8,7,10.0097,0.00213623,0.000915527,-2.4305,0.0544603,-0.0753682,0.0516866,0.0810411,-0.0968086,0.143792,-0.126377,-0.0877584,0.0117874,0.0246429,0.0205231,0.00972748,0.016861,0.00537872,0.0211334,0.0114822,-9.97986,0.0130081,-0.000457764,0.0139236,0.00473022,0.0206757,-0.00484467,0.0152969,0.00869751
8,8,10.0097,0.00183105,-0.000305176,-2.42928,0.0529344,-0.0759786,0.0516866,0.0752428,-0.095893,0.143792,-0.126682,-0.0871481,0.010643,0.0234604,0.0191116,0.0110626,0.0164413,0.0082016,0.0224686,0.018425,-9.97986,0.014801,0.00305176,0.0156403,0.00492096,0.0126266,-0.00461578,0.0168228,0.00492096
8,9,10.0097,0.000610352,0.000457764,-2.42867,0.0541551,-0.0747579,0.0519917,0.0724962,-0.0949775,0.145624,-0.126072,-0.0859274,0.0106049,0.0234604,0.0218964,0.0108337,0.0183105,0.0130081,0.0156403,0.0150299,-9.97986,0.0137711,0.0019455,0.0109482,0.00701904,0.0136566,-0.00144958,0.0166321,0.00637054
9,0,10.0097,0.0012207,0.000305176,-2.42684,0.0565965,-0.075063,0.0532125,0.0724962,-0.094062,0.145013,-0.126072,-0.0850118,0.0144196,0.0252151,0.0220871,0.0144958,0.0202179,0.0134659,0.0225067,0.0177765,-9.97986,0.0183868,0.00350952,0.0133514,0.0106049,0.0135803,-0.000572205,0.0172424,0.00701904
9,1,10.0097,0.000610352,-0.000457764,-2.42714,0.0553758,-0.0744527,0.0538228,0.0706652,-0.0931465,0.145318,-0.125156,-0.0840963,0.00553131,0.0226974,0.0178909,0.0126266,0.0162506,0.00976563,0.0159073,0.0155258,-9.97986,0.0122833,-0.0037384,0.0159073,0.00282288,0.0144577,-0.00164032,0.0133514,0.0044632
9,2,10.0097,-0.000610352,0.000915527,-2.42562,0.0553758,-0.0747579,0.0538228,0.07036,-0.0919257,0.145624,-0.124851,-0.0828756,0.0107193,0.0247955,0.0178146,0.0132751,0.0188446,0.0151443,0.024147,0.0208282,-9.97986,0.0144577,0.00038147,0.0172806,0.00804901,0.0211716,0.001297,0.0197601,0.00823975
9,3,10.0097,0.00152588,0.000305176,-2.42501,0.0572069,-0.0747579,0.054128,0.0718859,-0.0922309,0.145929,-0.124851,-0.0816549,0.0112915,0.0244522,0.0163269,0.0109482,0.0171661,0.0118637,0.0236511,0.0191498,-9.97986,0.0154495,-0.0019455,0.0126266,0.00663757,0.0204468,-0.00644684,0.0202179,0.00480652
9,4,10.0097,-0.000305176,0.000152588,-2.42623,0.0559862,-0.073232,0.0538228,0.0709703,-0.0925361,0.146539,-0.12363,-0.0804342,0.0112152,0.0273132,0.0178528,0.00923157,0.0162506,0.00896454,0.0219345,0.0190353,-9.97986,0.0170135,-0.00175476,0.0112915,0.00427246,0.0175476,-0.00225067,0.0150299,0.00865936
9,5,10.0097,0.00213623,-0.000915527,-2.42684,0.0559862,-0.0735371,0.0522969,0.0297716,-0.0974189,0.145318,-0.127903,-0.0837911,0.0130081,0.0242615,0.0171661,0.0143433,0.0219345,0.00740051,0.0235748,0.0276184,-9.97986,0.0219727,0.00205994,0.0126266,0.00911713,0.015831,-0.000686646,0.0179291,0.00614166
9,6,4.446,-0.000305176,-0.00320435,-2.42837,0.055681,-0.075063,0.0516866,-0.0150892,-0.101997,0.146234,-0.130649,-0.0831808,0.0115967,0.0199509,0.0198364,0.0133896,0.0144577,0.0103378,0.0231552,0.0270081,-9.97986,0.0224686,0.00331879,0.0125885,0.0030899,0.0170517,-0.00370026,0.0146866,0.00534058
9,7,-3.25908,0.00152588,-0.00366211,-2.42684,0.0553758,-0.073232,0.0529073,-0.0166151,-0.0974189,0.146844,-0.129734,-0.0819601,0.0175476,0.0214005,0.0212479,0.0114822,0.0191498,0.0105286,0.0251007,0.0282288,-9.97986,0.0236511,0.00225067,0.0138855,0.00854492,0.0216675,-0.00492096,0.0144958,0.00656128
9,8,-9.99003,0.000915527,-0.00457764,-2.4247,0.0565965,-0.0744527,0.0553487,0.00230578,-0.0925361,0.146539,-0.129123,-0.0807394,0.0100327,0.0231552,0.0179672,0.0149536,0.0183105,0.0130844,0.022049,0.0267792,-9.97986,0.0200272,-0.00320435,0.0177002,0.00404358,0.0205231,-0.00343323,0.0170517,0.0069046
9,9,-9.99003,0.000610352,-0.00228882,-2.42501,0.0565965,-0.0735371,0.0556539,0.0276354,-0.090705,0.145929,-0.126987,-0.0807394,0.0112152,0.0232315,0.0166702,0.00740051,0.017395,0.00968933,0.0214005,0.0244141,-9.97986,0.0179291,-0.00301361,0.0184631,0.00553131,-0.00576019,-0.00289917,0.0163651,0.0088501
10,0,-9.99003,0.0012207,-0.000915527,-2.42653,0.0550706,-0.0738423,0.0553487,0.0508287,-0.0919257,0.145318,-0.126377,-0.0816549,0.0145721,0.0245667,0.0165939,0.0127029,0.0175476,0.010376,0.0234985,0.0233841,-9.97986,0.0138474,0.000343323,0.0136948,0.00667572,-0.00839233,-0.000839233,0.0126648,0.0094986
10,1,-9.99003,0.00152588,0.000152588,-2.42623,0.0562914,-0.0744527,0.054128,0.0639513,-0.0916206,0.144708,-0.126987,-0.0831808,0.0107574,0.0251389,0.0188446,0.00782013,0.0191498,0.0127029,0.0183868,0.0168991,-9.97986,0.0159454,-0.0030899,0.00946045,0.00442505,-0.00495911,-0.00289917,0.0177002,0.00827789
10,2,-9.99003,0.00152588,0.00228882,-2.42562,0.0547655,-0.0753682,0.0556539,0.0972155,-0.088874,0.145013,-0.124241,-0.0819601,0.0082016,0.0240707,0.0164795,0.0087738,0.0139618,0.0094223,0.0252533,0.0135803,-9.97986,0.0123596,-0.000267029,0.01091,0.00423431,0.0176239,-0.00278473,0.0168991,0.00595093
10,3,-3.5258,0.0012207,0.0050354,-2.42776,0.0529344,-0.0747579,0.0556539,0.138109,-0.0882636,0.143792,-0.121494,-0.0840963,0.0123978,0.0247192,0.0234222,0.00900269,0.0139236,0.00930786,0.0228882,0.00988007,-9.97986,0.00843048,-0.00324249,0.0151825,0.00701904,0.0146103,-0.00598907,0.0171661,0.00553131
10,4,3.62538,0.000305176,0.00488281,-2.42714,0.0541551,-0.0753682,0.0526021,0.152757,-0.0867378,0.143792,-0.120273,-0.085317,0.0111389,0.0214005,0.0175858,0.00915527,0.0174332,0.0148773,0.022049,0.00511169,-9.97986,0.0125885,-0.00286102,0.0146103,0.00518799,0.0156403,-0.00202179,0.0163651,0.0063324
10,5,10.0097,0.000610352,0.0038147,-2.42867,0.0535448,-0.0762837,0.0529073,0.155199,-0.0897895,0.143792,-0.121799,-0.0847066,0.0112152,0.0245667,0.0187683,0.0109482,0.0160599,0.0118256,0.0220108,0.00530243,-9.97986,0.00762939,-0.0044632,0.0125122,0.00553131,0.0158691,-0.0018692,0.0141144,0.00556946
10,6,10.0097,0.000305176,0.00183105,-2.43142,0.0541551,-0.0753682,0.0501607,0.101793,-0.0971137,0.141961,-0.125766,-0.0889791,0.00766754,0.0257492,0.0152969,0.0113678,0.0150681,0.00991821,0.0226974,0.00797272,-9.97986,0.0110245,-0.00774384,0.0135803,0.00644684,0.0152969,-0.00038147,0.0175858,0.00545502
10,7,10.0097,0.000305176,-0.000152588,-2.4305,0.0535448,-0.0765889,0.050771,0.0819567,-0.0965034,0.143487,-0.125461,-0.0883688,0.0105667,0.026741,0.0257492,0.0127792,0.0209808,0.0107574,0.0247955,0.0130081,-9.97986,0.00980377,-0.00457764,0.0111008,0.00576019,0.0173569,-0.0050354,0.0177383,0.00751495
10,8,10.0097,0,0.000152588,-2.42837,0.0535448,-0.0759786,0.0513814,0.0761583,-0.095893,0.143792,-0.126987,-0.0871481,0.0114059,0.022316,0.0214767,0.00846863,0.0166702,0.0104904,0.0260162,0.0116348,-9.97986,0.0133133,-0.00362396,0.0137711,0.00179291,0.0161743,-0.00259399,0.0154877,0.00747681
10,9,10.0097,-0.000305176,0.000152588,-2.42898,0.0544603,-0.075063,0.0529073,0.0728014,-0.0943672,0.143792,-0.126682,-0.085317,0.00701904,0.0188065,0.0172806,0.0102615,0.0157166,0.0105667,0.0226974,0.0180435,-9.97986,0.0139618,-0.000457764,0.00984192,0.00812531,0.0146866,-0.001297,0.0164795,0.00587463
11,0,10.0097,0.00305176,-0.000457764,-2.42745,0.0538499,-0.0738423,0.0538228,0.0718859,-0.0946723,0.144708,-0.125766,-0.0850118,0.00896454,0.0254822,0.0222778,0.00961304,0.0192642,0.0131989,0.0215912,0.013237,-9.97986,0.0141907,-0.0012207,0.00919342,0.00530243,0.014534,-0.00205994,0.0192642,0.00953674
11,1,10.0097,0.00244141,0.000610352,-2.42714,0.0550706,-0.075063,0.0547383,0.0709703,-0.0943672,0.145929,-0.126682,-0.0840963,0.0108719,0.0237274,0.0193787,0.0120163,0.0119781,0.00778198,0.0193787,0.0158691,-9.97986,0.0127029,-0.00118256,0.0114441,0.00377655,0.014801,-0.00385284,0.0154877,0.00537872
11,2,10.0097,0.000305176,0.000152588,-2.42653,0.0559862,-0.0744527,0.0544332,0.0715807,-0.0916206,0.146539,-0.125461,-0.0831808,0.00896454,0.0246048,0.0197983,0.00946045,0.0208282,0.0112915,0.0188446,0.0154877,-9.97986,0.0141144,-0.00209808,0.0160599,0.00370026,0.0172043,-0.00377655,0.0162506,0.00713348
11,3,10.0097,0.000610352,0,-2.42562,0.0569017,-0.0747579,0.054128,0.0712755,-0.0928413,0.146844,-0.123935,-0.0813497,0.00816345,0.0216293,0.0217819,0.0135803,0.0153351,0.0156021,0.029068,0.0157547,-9.97986,0.0173569,0.00534058,0.0117111,0.0105286,0.0180054,-0.000991821,0.017128,0.00782013
11,4,10.0097,0.000610352,0.000305176,-2.42684,0.0562914,-0.0729268,0.0547383,0.0715807,-0.0913154,0.146539,-0.124241,-0.0807394,0.0134277,0.0218964,0.0205231,0.00835419,0.0143433,0.0109482,0.0201416,0.0191498,-9.97986,0.0163651,-0.00679016,0.0136185,0.0105667,0.0177765,0.000228882,0.0173569,0.00587463
11,5,10.0097,0.00152588,-0.00152588,-2.42623,0.055681,-0.0744527,0.0516866,0.0312975,-0.0968086,0.144708,-0.128208,-0.0828756,0.0094986,0.0227356,0.0202942,0.0101852,0.0186157,0.00972748,0.0195694,0.0215149,-9.97986,0.0212479,-0.00167847,0.0125504,0.00644684,0.0138855,-0.00919342,0.0185013,0.00667572
11,6,4.67916,-0.000610352,-0.00335693,-2.42714,0.0565965,-0.0744527,0.0519917,-0.0150892,-0.101386,0.146539,-0.130649,-0.0847066,0.0154495,0.026207,0.0234222,0.013504,0.022049,0.0111771,0.0250244,0.0263596,-9.97986,0.0238037,0.00110626,0.0163269,0.00991821,0.0196075,-0.00213623,0.0164795,0.00732422
11,7,-3.10374,0.000305176,-0.00473022,-2.42562,0.0572069,-0.073232,0.054128,-0.0150892,-0.0977241,0.146234,-0.130039,-0.0819601,0.0105286,0.0218964,0.0204086,0.00850677,0.0203323,0.0150681,0.0237274,0.0244141,-9.97986,0.0196075,-0.000610352,0.01091,0.0063324,0.0165558,-0.00629425,0.0154495,0.00476837
11,8,-9.99003,0.000915527,-0.00473022,-2.4244,0.0562914,-0.0738423,0.0556539,0.00322131,-0.0931465,0.146234,-0.128818,-0.0804342,0.00919342,0.0180435,0.0209427,0.0138092,0.0205994,0.0109482,0.0244522,0.0239944,-9.97986,0.0213242,-0.00152588,0.0141144,0.00881195,0.0160599,-0.00183105,0.0162125,0.00862122
11,9,-9.99003,0.000915527,-0.00198364,-2.4244,0.0572069,-0.0747579,0.0562642,0.0282457,-0.090705,0.147149,-0.126682,-0.0822652,0.0114822,0.0268555,0.0226212,0.0130844,0.0229645,0.0123596,0.0233078,0.0257111,-9.97986,0.0192642,-0.000305176,0.0159836,0.00968933,0.0043869,0.000495911,0.0190735,0.00850677
12,0,-9.99003,-0.000915527,-0.00137329,-2.42714,0.0559862,-0.0747579,0.0571797,0.0508287,-0.090705,0.145013,-0.126072,-0.0810445,0.00797272,0.0278473,0.0177765,0.00839233,0.0145721,0.0126648,0.0162506,0.0188828,-9.97986,0.0196457,-0.00350952,0.0105286,0.0082016,-0.00919342,-0.00209808,0.0171661,0.00297546
12,1,-9.99003,0,-0.000610352,-2.42562,0.055681,-0.0735371,0.0553487,0.0666979,-0.0910102,0.145318,-0.125766,-0.0825704,0.00965118,0.0229263,0.019455,0.0133896,0.0182724,0.0134277,0.0240707,0.0175476,-9.97986,0.0173569,-3.8147e-005,0.0193024,0.00991821,-0.00114441,-0.00114441,0.0145721,0.0062561
12,2,-9.99003,0.00427246,0.00106812,-2.42714,0.0553758,-0.075063,0.0556539,0.0978258,-0.0876533,0.145318,-0.124241,-0.0825704,0.0128174,0.0209808,0.0160599,0.00888824,0.0160599,0.00644684,0.021286,0.00968933,-9.97986,0.00881195,0.000152588,0.0141525,0.00530243,0.0148773,-0.00614166,0.0140762,0.00392914
12,3,-3.36436,0.000610352,0.00427246,-2.42867,0.0535448,-0.0756734,0.0544332,0.137804,-0.0882636,0.143792,-0.122715,-0.0844015,0.00736237,0.020752,0.0179291,0.00988007,0.0175476,0.0159073,0.0208664,0.01194,-9.97986,0.00701904,-0.00331879,0.0148773,0.0101471,0.0102234,-0.00576019,0.0177002,0.00770569
12,4,3.79384,0.0012207,0.00473022,-2.42806,0.0535448,-0.0756734,0.0532125,0.153673,-0.0882636,0.144403,-0.12241,-0.0859274,0.0139618,0.0231171,0.0177002,0.0108337,0.0160217,0.0120544,0.020752,0.00514984,-9.97986,0.00980377,-0.00526428,0.0165558,0.00549316,0.0136948,-0.00221252,0.0163269,0.00415802
12,5,10.0097,0.000915527,0.00427246,-2.42928,0.0544603,-0.0759786,0.0526021,0.156725,-0.0903999,0.142877,-0.121494,-0.0859274,0.0109482,0.0230789,0.0218582,0.0102997,0.014267,0.013237,0.0221634,0.00774384,-9.97986,0.0123596,-0.00328064,0.0174713,0.00461578,0.014801,-0.0043869,0.0150299,0.0069046
12,6,10.0097,0.000305176,0.0012207,-2.4305,0.0523241,-0.0756734,0.050771,0.100267,-0.0971137,0.142572,-0.126072,-0.0898946,0.0087738,0.0237656,0.0140762,0.01297,0.0177383,0.0125504,0.0231552,0.00900269,-9.97986,0.0123978,0.000495911,0.0151825,0.00705719,0.0150299,-0.00415802,0.0142288,0.00362396
12,7,10.0097,0,0.00106812,-2.43081,0.0529344,-0.0756734,0.050771,0.0813463,-0.0971137,0.142572,-0.126682,-0.0880636,0.0135803,0.0218582,0.0158691,0.0140381,0.018158,0.0144577,0.0194931,0.0123596,-9.97986,0.014801,0.000190735,0.0164032,0.00904083,0.0141144,-0.00312805,0.015831,0.0044632
12,8,10.0097,0.00183105,0.000152588,-2.42806,0.0532396,-0.0759786,0.0519917,0.0752428,-0.0961982,0.143792,-0.126072,-0.0865377,0.0126266,0.022316,0.0172424,0.0104523,0.0133133,0.0114059,0.0211334,0.00972748,-9.97986,0.0108337,-0.00591278,0.0156403,0.00297546,0.0167465,-0.00202179,0.0166321,0.00694275
12,9,10.0097,-0.000305176,0.000305176,-2.42837,0.0541551,-0.0756734,0.0519917,0.0728014,-0.0955879,0.142267,-0.127292,-0.085317,0.0111389,0.0238037,0.0162125,0.0106049,0.0193024,0.00911713,0.0209427,0.0161743,-9.97986,0.0164795,3.8147e-005,0.0156784,0.00740051,0.0162888,-0.00572205,0.0170517,0.0056839
13,0,10.0097,0.000305176,0.000305176,-2.42745,0.0550706,-0.0741475,0.0519917,0.0712755,-0.0925361,0.144708,-0.126377,-0.0844015,0.0145721,0.026207,0.0188446,0.0125122,0.0178909,0.0106812,0.0176239,0.0156021,-9.97986,0.015564,-0.000762939,0.0110626,0.00778198,0.0174332,-0.00343323,0.0175476,0.00747681
13,1,10.0097,-0.000610352,0.000610352,-2.42714,0.0550706,-0.0741475,0.054128,0.0706652,-0.0922309,0.145013,-0.126682,-0.0844015,0.0122452,0.0208282,0.0183487,0.014267,0.017395,0.0140381,0.0209045,0.0143814,-9.97986,0.0157928,-0.00255585,0.0146866,0.00888824,0.017395,-0.000267029,0.0164032,0.0063324
13,2,10.0097,0.000305176,0.000305176,-2.42623,0.055681,-0.075063,0.0538228,0.0712755,-0.0931465,0.145624,-0.125156,-0.0831808,0.0107193,0.0252533,0.0138474,0.00724792,0.0208282,0.00751495,0.0233078,0.0178146,-9.97986,0.0181961,-0.00175476,0.0131607,0.00850677,0.0186157,-0.00347137,0.0165939,0.00564575
13,3,10.0097,-0.000610352,0.000457764,-2.42501,0.0562914,-0.0738423,0.0547383,0.0712755,-0.0916206,0.145929,-0.124851,-0.0822652,0.0101089,0.0254059,0.0168991,0.013237,0.0194931,0.00926971,0.0222397,0.0192642,-9.97986,0.0152206,-0.00442505,0.0115585,0.00541687,0.0170898,-0.00541687,0.0174332,0.0044632
13,4,10.0097,0.000915527,0.000305176,-2.4247,0.055681,-0.0735371,0.0544332,0.0724962,-0.0910102,0.146539,-0.124241,-0.0813497,0.00659943,0.0297546,0.0195313,0.0141525,0.0185394,0.00778198,0.0238419,0.021553,-9.97986,0.0183487,-0.00339508,0.0146866,0.00858307,0.0151443,0.00202179,0.017395,0.00541687
13,5,10.0097,-0.000915527,-0.00137329,-2.42714,0.0559862,-0.0747579,0.0519917,0.0309923,-0.0974189,0.145013,-0.128513,-0.0831808,0.0130081,0.0231552,0.0167084,0.013237,0.014267,0.0115204,0.0228882,0.0230408,-9.97986,0.0199509,-0.00556946,0.0125504,0.00549316,0.0165176,-0.00617981,0.0183487,0.00770569
13,6,4.43868,0.000305176,-0.00366211,-2.42684,0.0562914,-0.0738423,0.0510762,-0.0160048,-0.09925,0.145013,-0.130954,-0.0840963,0.0139999,0.0258255,0.0140762,0.0133896,0.0207901,0.00720978,0.0204086,0.0273895,-9.97986,0.0223541,-0.00469208,0.0131607,0.00328064,0.0183487,-0.00453949,0.0119019,0.00801086
13,7,-3.26701,0.00152588,-0.00442505,-2.42684,0.0581224,-0.073232,0.054128,-0.0150892,-0.0989448,0.146539,-0.129429,-0.0822652,0.0101852,0.0230026,0.0162506,0.0120544,0.0167084,0.010376,0.0199509,0.0266266,-9.97986,0.0216293,-0.00610352,0.0175476,0.00778198,0.016861,0.000419617,0.0160217,0.00549316
13,8,-9.99003,-0.000305176,-0.00442505,-2.42409,0.0565965,-0.0735371,0.0562642,0.00139026,-0.0928413,0.146539,-0.128513,-0.0810445,0.00751495,0.0205994,0.0183868,0.00999451,0.0183868,0.0110626,0.021553,0.0243378,-9.97986,0.0181961,-0.0087738,0.0127792,0.00347137,0.016098,-0.00541687,0.0149536,0.00656128
13,9,-9.99003,0.0012207,-0.00213623,-2.42531,0.0553758,-0.0738423,0.0553487,0.0285509,-0.0916206,0.146234,-0.126377,-0.0804342,0.00961304,0.0272751,0.0186157,0.00984192,0.0204468,0.00904083,0.0244904,0.0218201,-9.97986,0.0193024,-0.00213623,0.0139236,0.00507355,-0.00514984,-0.00572205,0.0148392,0.00480652
14,0,-9.99003,0.000610352,-0.000915527,-2.42623,0.0569017,-0.0744527,0.0550435,0.0520494,-0.0903999,0.147149,-0.126072,-0.0810445,0.00965118,0.0210571,0.0175095,0.0117111,0.0179672,0.0135422,0.0234985,0.0168228,-9.97986,0.0187302,0.00114441,0.017662,0.00953674,-0.00392914,0.000267029,0.0185394,0.00778198
14,1,-9.99003,0.00152588,0.000305176,-2.42653,0.055681,-0.0744527,0.0544332,0.0636461,-0.0925361,0.145013,-0.125156,-0.0825704,0.00888824,0.0230789,0.0160599,0.0114441,0.0187302,0.00934601,0.0204468,0.0165558,-9.97986,0.015831,0.000724792,0.0137329,0.00457764,-0.0069046,-0.0031662,0.0151825,0.00259399
14,2,-9.99003,0.00183105,0.00152588,-2.42653,0.0547655,-0.0753682,0.0550435,0.0969103,-0.088874,0.145624,-0.12363,-0.0825704,0.00988007,0.022316,0.0179672,0.0138855,0.0176239,0.00938416,0.0183868,0.0105286,-9.97986,0.0114059,-0.00331879,0.0159454,0.00518799,0.019455,-0.00198364,0.017662,0.00385284
14,3,-3.59538,0.000305176,0.00442505,-2.42776,0.0535448,-0.0753682,0.0562642,0.137499,-0.0879585,0.143792,-0.122715,-0.0834859,0.00904083,0.0205994,0.0166702,0.0120544,0.0166321,0.0114822,0.0236893,0.0122452,-9.97986,0.00915527,-0.000801086,0.018692,0.00541687,0.0163651,-0.00389099,0.0184631,0.00629425
14,4,3.58205,-0.000305176,0.00457764,-2.42745,0.0541551,-0.075063,0.054128,0.152757,-0.0897895,0.144403,-0.122104,-0.0847066,0.00831604,0.0175095,0.0153732,0.0112534,0.014267,0.0082016,0.022583,0.00999451,-9.97986,0.00839233,-0.00331879,0.0166702,0.00556946,0.0186539,-0.00366211,0.0180817,0.00572205
14,5,10.0097,0.00152588,0.00488281,-2.42806,0.0538499,-0.0753682,0.0529073,0.15642,-0.0897895,0.144098,-0.120578,-0.0847066,0.00827789,0.0218964,0.0186539,0.010643,0.0180435,0.0108719,0.0178528,0.0130844,-9.97986,0.00976563,-0.00297546,0.010643,0.00453949,0.0170898,-0.00415802,0.0178909,0.00274658
14,6,10.0097,0,0.00289917,-2.43203,0.0532396,-0.0759786,0.0498555,0.100267,-0.0977241,0.142572,-0.126072,-0.0892843,0.0139236,0.021019,0.0187302,0.0127029,0.0201797,0.00991821,0.0204468,0.0105286,-9.97986,0.0121307,-0.00137329,0.0151062,0.00675201,0.0175095,-0.000114441,0.016861,0.00606537
14,7,10.0097,-0.000610352,0.000305176,-2.42928,0.0523241,-0.0759786,0.04894,0.0798204,-0.0974189,0.144403,-0.126682,-0.0886739,0.0102234,0.026207,0.0193405,0.0134659,0.0189972,0.0129318,0.0225449,0.0143814,-9.97986,0.0125885,-0.000839233,0.0130463,0.00419617,0.0125122,0.000953674,0.016861,0.00900269
14,8,10.0097,-0.000610352,-0.000610352,-2.42867,0.0544603,-0.0765889,0.0504659,0.0743273,-0.0955879,0.144403,-0.127292,-0.0865377,0.0124359,0.02285,0.0191498,0.0122833,0.0162125,0.0128937,0.0214005,0.0154495,-9.97986,0.00968933,0.000419617,0.0148773,0.00263214,0.0176239,-0.00179291,0.0168228,0.00343323
14,9,10.0097,0.000305176,-0.000457764,-2.42867,0.0535448,-0.0756734,0.0529073,0.0718859,-0.0943672,0.145318,-0.126072,-0.0865377,0.00770569,0.0258255,0.0162888,0.0168228,0.0157547,0.0123215,0.021553,0.0162888,-9.97986,0.0143814,-0.00282288,0.0143433,0.00900269,0.0156403,0.00148773,0.0151443,0.0056076
15,0,10.0097,0.00152588,-0.000305176,-2.42867,0.0550706,-0.0744527,0.0516866,0.0709703,-0.0934516,0.145013,-0.126377,-0.0850118,0.00915527,0.0211716,0.0215149,0.00976563,0.0180435,0.0104904,0.0278091,0.0160217,-9.97986,0.0110245,0.00480652,0.00553131,0.00629425,0.0195313,-0.00297546,0.0162888,0.00770569
15,1,10.0097,0.0012207,0.000305176,-2.42776,0.0550706,-0.0744527,0.0544332,0.0706652,-0.0934516,0.145318,-0.124546,-0.0844015,0.0101471,0.0208664,0.0228119,0.0129318,0.0151062,0.00808716,0.0215149,0.0146484,-9.97986,0.0180054,-0.000686646,0.0117493,0.00724792,0.0154877,-0.0019455,0.0161362,0.00663757
15,2,10.0097,0.00305176,0.000305176,-2.42623,0.055681,-0.0741475,0.0538228,0.07036,-0.0925361,0.145929,-0.125461,-0.0834859,0.0120163,0.0227737,0.0178909,0.00965118,0.0196838,0.0107956,0.0204468,0.016098,-9.97986,0.0166321,-0.00270844,0.0143433,0.00427246,0.0163651,-0.00202179,0.0164413,0.00667572
15,3,10.0097,0.00152588,0,-2.42592,0.0562914,-0.0747579,0.0532125,0.0718859,-0.0919257,0.146234,-0.124546,-0.0813497,0.00846863,0.0247955,0.0139618,0.0137329,0.0165176,0.0148773,0.0265121,0.0203323,-9.97986,0.0151825,-0.000572205,0.0136566,0.00873566,0.014267,-0.00553131,0.0156403,0.0102997
15,4,10.0097,0.000610352,0.000305176,-2.42562,0.0575121,-0.0738423,0.0550435,0.0715807,-0.0916206,0.146234,-0.124241,-0.0804342,0.0135803,0.0254822,0.0146866,0.0130081,0.0209045,0.0125504,0.0242996,0.0222015,-9.97986,0.0151062,-0.00572205,0.0155258,0.0088501,0.0182724,0.000343323,0.0170898,0.00930786
15,5,10.0097,-0.000305176,-0.00228882,-2.42714,0.0565965,-0.0744527,0.0529073,0.0325182,-0.0968086,0.145929,-0.128208,-0.0847066,0.0113678,0.0240707,0.0168991,0.0141525,0.0194931,0.0108719,0.0247574,0.0209045,-9.97986,0.0161743,-0.00335693,0.0104141,0.00255585,0.0173187,-0.000610352,0.0151825,0.00881195
15,6,4.25862,0.000305176,-0.00366211,-2.42714,0.0559862,-0.075063,0.0519917,-0.0160048,-0.100471,0.146539,-0.129123,-0.0825704,0.0113678,0.0232697,0.0214005,0.0146484,0.0167465,0.00541687,0.0268936,0.0249863,-9.97986,0.0214386,-0.00488281,0.0160217,0.00518799,0.0201797,-0.001297,0.0180817,0.00919342
15,7,-3.50139,0.000610352,-0.00411987,-2.42653,0.0565965,-0.0747579,0.0538228,-0.0166151,-0.0974189,0.146844,-0.129734,-0.0825704,0.0143814,0.0222397,0.0182343,0.0130081,0.0226974,0.014534,0.0206375,0.0318146,-9.97986,0.0237274,0.000801086,0.0156403,0.00671387,0.018959,-0.00911713,0.0154877,0.00854492
15,8,-9.99003,-0.000610352,-0.00427246,-2.4244,0.0575121,-0.073232,0.055959,0.00200061,-0.0931465,0.147455,-0.127292,-0.0813497,0.0117493,0.021286,0.0165939,0.01091,0.0196457,0.0127792,0.0209427,0.0239563,-9.97986,0.0218964,-0.00377655,0.0151062,0.00720978,0.0145721,-0.0056839,0.0152588,0.00602722
15,9,-9.99003,0.00183105,-0.00213623,-2.42501,0.0565965,-0.075063,0.0553487,0.0300768,-0.0903999,0.146844,-0.126987,-0.0810445,0.0133133,0.0251007,0.0222778,0.0129318,0.0204086,0.0108719,0.0239182,0.0222015,-9.97986,0.0177002,0.000305176,0.0142288,0.00892639,-0.00247955,0.000343323,0.0163651,0.00728607
16,0,-9.99003,0.000915527,-0.000610352,-2.42501,0.0553758,-0.0759786,0.0553487,0.0538805,-0.0919257,0.146844,-0.125156,-0.0816549,0.0117111,0.0214005,0.0150299,0.0122833,0.0173187,0.0104141,0.0230408,0.0242996,-9.97986,0.0225067,-0.000724792,0.0165558,0.00545502,-0.00400543,-0.00247955,0.0194168,0.0050354
16,1,-9.99003,-0.000915527,-0.000305176,-2.42623,0.0553758,-0.0756734,0.0550435,0.0624254,-0.0925361,0.144403,-0.126377,-0.0825704,0.00579834,0.0233078,0.0181961,0.00431061,0.019989,0.00457764,0.0220108,0.0153351,-9.97986,0.0141525,-0.0038147,0.0159454,0.00038147,-0.00835419,-0.0056839,0.0136185,0.0062561
16,2,-9.99003,0.000610352,0.00198364,-2.42684,0.0550706,-0.075063,0.055959,0.0972155,-0.0876533,0.145624,-0.12302,-0.0831808,0.0160217,0.0263977,0.018692,0.0119781,0.0163269,0.00656128,0.0250626,0.0144196,-9.97986,0.00999451,0.000267029,0.0164795,0.00427246,0.0213242,-0.00171661,0.0174713,0.00671387
16,3,-3.79954,-0.000305176,0.0038147,-2.42776,0.0544603,-0.0753682,0.054128,0.136583,-0.0876533,0.144708,-0.122104,-0.0834859,0.00991821,0.0230026,0.018959,0.0119781,0.0174713,0.0115585,0.02285,0.00881195,-9.97986,0.0118637,0.000495911,0.0164032,0.00934601,0.018158,-0.00297546,0.0146866,0.00469208
16,4,3.31563,0.000305176,0.00488281,-2.42714,0.0550706,-0.0762837,0.0535176,0.153368,-0.0885688,0.144403,-0.121189,-0.0847066,0.00892639,0.0243378,0.0146866,0.0100327,0.0174332,0.0142288,0.0242996,0.0094223,-9.97986,0.00553131,-0.001297,0.0149536,0.0056076,0.018425,-0.00240326,0.014801,0.00442505
16,5,10.0097,0.000610352,0.00473022,-2.42867,0.0541551,-0.0759786,0.0529073,0.156725,-0.0897895,0.144098,-0.120884,-0.085317,0.0104904,0.0266647,0.0158691,0.0149155,0.0206375,0.0127411,0.025444,0.0123596,-9.97986,0.00881195,0.00343323,0.0126648,0.00602722,0.0170517,-0.00354767,0.0185394,0.00789642
16,6,10.0097,0.000610352,0.00228882,-2.43111,0.0535448,-0.0756734,0.0513814,0.102403,-0.0980293,0.143487,-0.125766,-0.0892843,0.00823975,0.0201416,0.0141907,0.00835419,0.0171661,0.00648499,0.0242615,0.012207,-9.97986,0.0075531,-0.00106812,0.0149155,0.00427246,0.016861,-0.00102997,0.0157547,0.00511169
16,7,10.0097,-0.000305176,0.000457764,-2.42928,0.0547655,-0.0756734,0.0501607,0.0822618,-0.0968086,0.142572,-0.126682,-0.0877584,0.00717163,0.020752,0.0180435,0.0087738,0.0164795,0.00812531,0.0208282,0.0119019,-9.97986,0.010376,-0.000228882,0.0178146,0.00537872,0.0178528,-0.000152588,0.0122452,0.00957489
16,8,10.0097,0.000305176,-0.000305176,-2.42867,0.0550706,-0.0756734,0.0529073,0.0758531,-0.095893,0.143487,-0.126377,-0.0874532,0.0138855,0.0243759,0.0174332,0.0133133,0.0181198,0.0088501,0.0225067,0.0153732,-9.97986,0.0138092,0.000534058,0.0139999,0.0082016,0.0148392,-0.00347137,0.0171661,0.0069809
16,9,10.0097,0.00274658,-0.000457764,-2.42745,0.0550706,-0.0753682,0.0535176,0.0731066,-0.0934516,0.145013,-0.126377,-0.0856222,0.00610352,0.0196457,0.0160217,0.0105286,0.0173569,0.0122833,0.0226593,0.0149536,-9.97986,0.0181961,-0.00282288,0.018425,0.00831604,0.0145721,-0.00156403,0.0143051,0.00793457
17,0,10.0097,0.000305176,0,-2.42837,0.0550706,-0.0753682,0.0535176,0.0709703,-0.0943672,0.144403,-0.125766,-0.0847066,0.00850677,0.020256,0.0165176,0.010643,0.0204086,0.0119781,0.019989,0.0205231,-9.97986,0.0131607,-0.00156403,0.0139618,0.00808716,0.0170135,-0.00782013,0.0152969,0.00453949
17,1,10.0097,0.000915527,0.000152588,-2.42684,0.0553758,-0.075063,0.0535176,0.0709703,-0.0931465,0.145318,-0.126072,-0.0831808,0.0112915,0.0218964,0.0153351,0.0105286,0.016098,0.0106812,0.0226974,0.0177383,-9.97986,0.0101089,0.00450134,0.0204849,0.0112152,0.0206757,0.000572205,0.0180435,0.010643
17,2,10.0097,0.000610352,0,-2.42592,0.0550706,-0.0753682,0.0544332,0.0712755,-0.0928413,0.146539,-0.125461,-0.0822652,0.00778198,0.0211716,0.0136566,0.0088501,0.0144196,0.00858307,0.0200272,0.0166702,-9.97986,0.0136566,-0.00198364,0.0187683,0.00564575,0.0162888,-0.00743866,0.0115967,0.00747681
17,3,10.0097,0.00152588,0,-2.42562,0.0575121,-0.073232,0.054128,0.0731066,-0.0928413,0.146234,-0.123935,-0.0816549,0.0130081,0.0240326,0.0193405,0.0144958,0.0177765,0.0125504,0.0234985,0.0174332,-9.97986,0.0107193,-0.00137329,0.018158,0.00415802,0.0163269,-0.00377655,0.0136185,0.00453949
17,4,10.0097,0.00183105,0.000305176,-2.42501,0.0550706,-0.0741475,0.0544332,0.0715807,-0.0903999,0.147455,-0.12363,-0.0813497,0.0108719,0.0211334,0.0198746,0.01297,0.0202942,0.0107956,0.0237274,0.0232697,-9.97986,0.015831,0.0012207,0.0153732,0.00450134,0.0156784,-0.00217438,0.0160217,0.00736237
17,5,10.0097,-0.000915527,-0.00213623,-2.42592,0.0547655,-0.0744527,0.0516866,0.0319078,-0.0983344,0.146234,-0.128208,-0.0834859,0.0100327,0.020256,0.0177002,0.0111389,0.0141907,0.0075531,0.0177002,0.0266647,-9.97986,0.0212479,0.00434875,0.0160599,0.00827789,0.0177765,-0.00656128,0.0146484,0.00537872
17,6,4.17104,0.000915527,-0.00366211,-2.42684,0.0565965,-0.0726216,0.0526021,-0.0150892,-0.100776,0.147149,-0.130344,-0.0837911,0.0125122,0.0221252,0.022049,0.0119781,0.017662,0.0106049,0.0203705,0.0259018,-9.97986,0.0205612,0.00255585,0.0151825,0.00537872,0.0172424,-0.00263214,0.0179672,0.00621796
17,7,-3.46293,-0.00183105,-0.00396729,-2.42592,0.0575121,-0.0744527,0.0535176,-0.0147841,-0.0965034,0.146234,-0.130344,-0.0822652,0.0112534,0.0188065,0.019722,0.0144958,0.0156403,0.0120544,0.0211716,0.0294495,-9.97986,0.022316,0.00350952,0.0131607,0.00858307,0.0165939,-0.00659943,0.0141907,0.0063324
17,8,-9.99003,0.00183105,-0.00396729,-2.4244,0.0572069,-0.073232,0.0547383,0.00169543,-0.0928413,0.145318,-0.128513,-0.0804342,0.0128174,0.0222015,0.02285,0.0138474,0.0182343,0.00934601,0.0232697,0.0269318,-9.97986,0.0203323,-0.000228882,0.0152969,0.00511169,0.0167847,-0.00617981,0.0165558,0.00675201
17,9,-9.99003,0.000610352,-0.00244141,-2.42531,0.0559862,-0.0735371,0.0553487,0.0288561,-0.0913154,0.146539,-0.127598,-0.0810445,0.00923157,0.021553,0.0216675,0.0144196,0.0180054,0.0115204,0.02285,0.0225449,-9.97986,0.0180054,0.000534058,0.0149536,0.0107956,-0.00617981,0.000228882,0.0135422,0.00579834
18,0,-9.99003,0.0012207,-0.000915527,-2.42592,0.055681,-0.0747579,0.0556539,0.0544908,-0.0900947,0.146539,-0.126072,-0.0819601,0.0136948,0.0236511,0.0196838,0.00881195,0.0185776,0.0111389,0.0223541,0.0219345,-9.97986,0.0128555,0.0037384,0.0159836,0.0044632,-0.00656128,-0.00453949,0.0122452,0.0101089
18,1,-9.99003,0.000305176,0,-2.42623,0.0553758,-0.075063,0.0550435,0.0618151,-0.0913154,0.145318,-0.126377,-0.0828756,0.0104904,0.0233841,0.0202179,0.0106049,0.0162506,0.00724792,0.018425,0.017128,-9.97986,0.0170898,0.000953674,0.0125504,0.0069046,-0.00671387,-0.00301361,0.0140762,0.00701904
18,2,-9.99003,-0.00183105,0.00198364,-2.42592,0.0562914,-0.0756734,0.0550435,0.0969103,-0.0876533,0.145318,-0.123325,-0.0834859,0.0111771,0.0251389,0.0196457,0.0123978,0.0133514,0.00720978,0.0225067,0.0115585,-9.97986,0.0121689,0.00282288,0.0156784,0.00423431,0.0155258,-0.000152588,0.0156784,0.00694275
18,3,-3.70433,-0.000915527,0.00442505,-2.42776,0.0538499,-0.0759786,0.0553487,0.137499,-0.090705,0.144098,-0.122715,-0.0840963,0.00881195,0.0147629,0.0183487,0.0118256,0.0141144,0.00919342,0.0147247,0.0118637,-9.97986,0.00648499,-7.62939e-005,0.0141525,0.00419617,0.0130463,-0.00202179,0.0154114,0.00583649
18,4,3.43801,0.00274658,0.00442505,-2.42714,0.0535448,-0.0759786,0.0550435,0.154283,-0.0891792,0.143487,-0.121799,-0.085317,0.0107574,0.0211334,0.0199509,0.0154114,0.0144958,0.00732422,0.0166702,0.00709534,-9.97986,0.00926971,0.000343323,0.0188446,0.0101089,0.0165939,-0.00328064,0.0157547,0.00469208
18,5,10.0097,0.0012207,0.00442505,-2.42928,0.0532396,-0.0756734,0.0522969,0.157335,-0.0894843,0.144708,-0.121799,-0.0856222,0.0110626,0.0225449,0.0197601,0.0127411,0.0140381,0.00717163,0.0233078,0.00961304,-9.97986,0.0094223,3.8147e-005,0.0163651,0.00762939,0.0157547,-0.00537872,0.0178146,0.00667572
18,6,10.0097,0.000305176,0.00183105,-2.43142,0.0523241,-0.0765889,0.04894,0.100572,-0.0980293,0.142877,-0.126377,-0.0889791,0.00808716,0.0193405,0.0163269,0.0125122,0.0149918,0.00984192,0.0206757,0.00907898,-9.97986,0.00965118,-0.00114441,0.0137329,0.0101089,0.0164032,-0.00370026,0.0160217,0.00728607
18,7,10.0097,0.00152588,0.000610352,-2.42928,0.0529344,-0.0765889,0.050771,0.0831774,-0.0977241,0.144403,-0.126987,-0.0889791,0.0104904,0.0225449,0.0214386,0.0127411,0.0168228,0.00740051,0.0229645,0.00923157,-9.97986,0.0131989,0.000801086,0.0146484,0.00896454,0.0150681,0.000686646,0.0141144,0.00572205
18,8,10.0097,-0.0012207,0.000152588,-2.42928,0.0532396,-0.0759786,0.050771,0.0749376,-0.0952827,0.143792,-0.126987,-0.0865377,0.0133514,0.0230026,0.0242615,0.0134659,0.0161743,0.0111008,0.0233078,0.0160217,-9.97986,0.0125885,0.000457764,0.0167465,0.00564575,0.0174713,0.000457764,0.0193787,0.00205994
18,9,10.0097,-0.000305176,0,-2.42776,0.0550706,-0.0747579,0.0535176,0.0734117,-0.0949775,0.144708,-0.126682,-0.0856222,0.0123215,0.0239944,0.0182724,0.0112152,0.0165558,0.00793457,0.0210571,0.0161743,-9.97986,0.0123978,0.00148773,0.0157166,0.0050354,0.0156403,-0.00312805,0.0142288,0.00583649
19,0,10.0097,-0.000305176,0,-2.42714,0.0559862,-0.075063,0.0535176,0.0715807,-0.0931465,0.145013,-0.125461,-0.0850118,0.0128174,0.0251389,0.0219727,0.0105286,0.0172424,0.00377655,0.025444,0.0150681,-9.97986,0.0114822,0.00324249,0.0165558,0.00419617,0.0139236,-0.00106812,0.015564,0.00453949
19,1,10.0097,0.00244141,0.000305176,-2.42653,0.0562914,-0.075063,0.0522969,0.0715807,-0.0937568,0.145318,-0.126377,-0.0840963,0.0123978,0.0231171,0.017128,0.0103378,0.012207,0.0109482,0.0205994,0.0176239,-9.97986,0.0126648,-0.00141144,0.0128937,0.0094986,0.0167465,-0.00144958,0.017395,0.00354767
19,2,10.0097,0.00152588,-0.000152588,-2.42562,0.0559862,-0.0738423,0.0529073,0.07036,-0.0922309,0.147149,-0.125766,-0.0831808,0.0119781,0.0251389,0.0205994,0.0104141,0.0177765,0.0108337,0.0195313,0.0178528,-9.97986,0.0123215,-0.000724792,0.0162506,0.00846863,0.0191116,0.00038147,0.016861,0.00659943
19,3,10.0097,0.000610352,0.000152588,-2.42592,0.055681,-0.075063,0.0550435,0.0709703,-0.0922309,0.146844,-0.12363,-0.0822652,0.0121689,0.0256348,0.0201035,0.0141525,0.017395,0.0123978,0.0221634,0.0194931,-9.97986,0.0192261,0.00202179,0.0169754,0.0094986,0.0170898,-0.00133514,0.0166702,0.0087738
19,4,10.0097,-0.000305176,0,-2.4244,0.0569017,-0.0738423,0.0553487,0.0724962,-0.0925361,0.146234,-0.123935,-0.0810445,0.00717163,0.0208664,0.0137711,0.0113297,0.0152969,0.00934601,0.0232315,0.0183487,-9.97986,0.0149155,-0.00732422,0.0139618,0.00328064,0.0124359,-0.0012207,0.0159454,0.00297546
19,5,10.0097,-0.000610352,-0.0012207,-2.42592,0.055681,-0.0741475,0.0526021,0.0319078,-0.0971137,0.146234,-0.127292,-0.0837911,0.0111008,0.0243759,0.0213623,0.0119019,0.0244141,0.00789642,0.0245667,0.0298691,-9.97986,0.0218964,-0.000457764,0.0175476,0.00999451,0.0200653,-0.001297,0.0187683,0.00865936
19,6,4.4341,0.00152588,-0.00350952,-2.42684,0.0565965,-0.0735371,0.0526021,-0.0163099,-0.101081,0.145929,-0.130344,-0.0840963,0.0155258,0.0232697,0.0176239,0.013237,0.0151825,0.0110626,0.0204849,0.0291061,-9.97986,0.0223541,-0.00476837,0.0186539,0.00461578,0.0183105,-0.00511169,0.0192642,0.00572205
19,7,-3.32896,0.00244141,-0.00396729,-2.42623,0.0575121,-0.0738423,0.0522969,-0.0156996,-0.0971137,0.146539,-0.129123,-0.0822652,0.01091,0.0263214,0.0206757,0.0147629,0.0186157,0.00556946,0.02491,0.0292969,-9.97986,0.0218964,-0.00358582,0.0142288,0.00663757,0.0155258,-0.00442505,0.016861,0.0111389
19,8,-9.99003,-0.000305176,-0.00457764,-2.42501,0.0569017,-0.0729268,0.0553487,0.00291613,-0.0928413,0.14837,-0.128818,-0.0807394,0.0141144,0.0247192,0.021019,0.0152206,0.0173569,0.0125122,0.024147,0.0252533,-9.97986,0.0187683,-0.00385284,0.0146103,0.00747681,0.0149155,-0.00415802,0.016861,0.00907898
19,9,-9.99003,0.000305176,-0.00259399,-2.42501,0.0562914,-0.0753682,0.0562642,0.0297716,-0.0913154,0.145624,-0.128513,-0.080129,0.011673,0.0233459,0.0216675,0.0149918,0.0206757,0.0128937,0.0251007,0.0265121,-9.97986,0.0191498,-0.000343323,0.0152969,0.00759125,-0.0043869,-0.00259399,0.0164413,0.00671387
20,0,-9.99003,0.0012207,-0.000762939,-2.4247,0.0550706,-0.0735371,0.0562642,0.0532701,-0.090705,0.146234,-0.126377,-0.0816549,0.0151062,0.0265884,0.0195694,0.0159836,0.0182343,0.0120163,0.0228119,0.0201035,-9.97986,0.0162888,0.000991821,0.0151825,0.00988007,-0.00385284,-0.00167847,0.0180817,0.00991821
20,1,-9.99003,-0.000305176,-0.000457764,-2.42562,0.0541551,-0.075063,0.0544332,0.0630358,-0.0919257,0.145013,-0.124851,-0.0825704,0.0111389,0.0217438,0.0146484,0.00888824,0.0153732,0.00740051,0.0201035,0.0120163,-9.97986,0.0137329,-0.00778198,0.01297,0.00659943,-0.0122833,-0.00869751,0.0131989,0.00255585
20,2,-9.99003,0.0012207,0.00213623,-2.42653,0.0553758,-0.0744527,0.0562642,0.098131,-0.0879585,0.146234,-0.124241,-0.0825704,0.0115585,0.0251007,0.0202942,0.00869751,0.0146103,0.011673,0.0226593,0.0125504,-9.97986,0.0117874,-0.00118256,0.0128937,0.00858307,0.0115585,0.00087738,0.0195313,0.00957489
20,3,-3.50352,-0.000610352,0.00396729,-2.42684,0.0541551,-0.075063,0.0547383,0.136888,-0.0882636,0.144708,-0.122715,-0.0850118,0.01091,0.0227737,0.0177002,0.00617981,0.0140381,0.00961304,0.0252151,0.0118637,-9.97986,0.0100327,0.000648499,0.0126648,0.0056076,0.0121689,-0.00385284,0.0171661,0.00564575
20,4,3.65926,-0.00213623,0.00473022,-2.42837,0.0544603,-0.0762837,0.0535176,0.153978,-0.0891792,0.143792,-0.12241,-0.085317,0.0101471,0.0230408,0.0167847,0.00904083,0.0139236,0.00961304,0.0234604,0.00782013,-9.97986,0.00785828,-0.00759125,0.0201797,0.00541687,0.0149155,-0.00484467,0.0140762,0.0062561
20,5,10.0097,0.000610352,0.00457764,-2.42837,0.0544603,-0.0753682,0.0522969,0.155809,-0.0897895,0.142877,-0.121799,-0.0862325,0.0107574,0.0253296,0.0162125,0.0151825,0.0119019,0.0118637,0.0234604,0.00919342,-9.97986,0.00881195,-0.00301361,0.0180054,0.00663757,0.0138855,-0.00648499,0.0199509,0.0062561
20,6,10.0097,0.00183105,0.00167847,-2.43111,0.0523241,-0.0765889,0.0501607,0.100572,-0.0983344,0.142877,-0.125156,-0.0889791,0.00835419,0.025177,0.0181198,0.0123215,0.0170898,0.00759125,0.0187683,0.0138855,-9.97986,0.0102997,-0.00087738,0.0107956,0.00694275,0.0140762,-0.00415802,0.0178146,0.00679016
20,7,10.0097,0.00213623,0.000305176,-2.42989,0.0532396,-0.0768941,0.0501607,0.082567,-0.0980293,0.142877,-0.126987,-0.0880636,0.0111389,0.0230026,0.017662,0.0106049,0.0157547,0.00812531,0.0222397,0.0136185,-9.97986,0.0110626,-0.00156403,0.014801,0.00770569,0.0164795,-0.00038147,0.015564,0.00789642
20,8,10.0097,0.00152588,0,-2.42989,0.0526292,-0.0753682,0.0529073,0.0743273,-0.095893,0.144098,-0.126377,-0.0868429,0.0114822,0.0234604,0.0203323,0.00652313,0.013237,0.0113678,0.0260162,0.0159454,-9.97986,0.0167847,0.00171661,0.0138855,0.00911713,0.016098,-0.00465393,0.0154877,0.00621796
20,9,10.0097,0.000610352,-0.0012207,-2.42837,0.0538499,-0.0741475,0.0519917,0.0718859,-0.0946723,0.144098,-0.127292,-0.0859274,0.0126266,0.0273895,0.0175095,0.013504,0.0163651,0.0094986,0.0233459,0.0205231,-9.97986,0.0140381,-0.00118256,0.0129318,0.00766754,0.0175095,-0.00476837,0.0170135,0.00518799
21,0,10.0097,0.000915527,0.000762939,-2.42837,0.0532396,-0.0747579,0.0529073,0.0709703,-0.094062,0.144403,-0.126072,-0.0847066,0.00865936,0.0231934,0.0142288,0.00793457,0.0155258,0.00717163,0.0227737,0.0147247,-9.97986,0.0100708,0.00213623,0.0137711,0.00442505,0.0149536,-0.0031662,0.0173187,0.00629425
21,1,10.0097,-0.000610352,-0.000152588,-2.42806,0.0538499,-0.075063,0.0522969,0.0712755,-0.0931465,0.145013,-0.125461,-0.0844015,0.0110626,0.0224686,0.0183487,0.0138092,0.0156021,0.0101471,0.0288773,0.0170135,-9.97986,0.0130463,0.00267029,0.0125122,0.00892639,0.0149918,-0.00198364,0.0154877,0.00545502
21,2,10.0097,-0.000915527,0.000152588,-2.42562,0.0572069,-0.0738423,0.054128,0.072191,-0.0928413,0.145929,-0.125766,-0.0828756,0.0160217,0.0236893,0.016861,0.0125122,0.0157928,0.00930786,0.0208282,0.0153351,-9.97986,0.016098,-0.00198364,0.0104523,0.00598907,0.0139236,-0.0050354,0.0140762,0.00537872
21,3,10.0097,0.00152588,0.000305176,-2.42592,0.0562914,-0.0747579,0.0550435,0.0712755,-0.0919257,0.145624,-0.125461,-0.0822652,0.0136185,0.022049,0.0178909,0.0149918,0.0169754,0.00995636,0.022583,0.0209808,-9.97986,0.017395,-0.00244141,0.0135422,0.00595093,0.0144196,-0.00125885,0.0136185,0.00614166
21,4,10.0097,0.000915527,-0.000152588,-2.42684,0.0565965,-0.0726216,0.054128,0.0715807,-0.0913154,0.146539,-0.124241,-0.0813497,0.00946045,0.0256729,0.019722,0.00782013,0.0204468,0.0104523,0.0226212,0.0221634,-9.97986,0.0186539,0.000686646,0.0115585,0.00812531,0.0152588,-0.00133514,0.0178909,0.00850677
21,5,10.0097,0.000610352,-0.000915527,-2.42745,0.0559862,-0.0744527,0.0513814,0.032213,-0.095893,0.146844,-0.127598,-0.0834859,0.0143814,0.0246811,0.0173187,0.00991821,0.0179672,0.00869751,0.0258255,0.0250626,-9.97986,0.020256,-0.00244141,0.00988007,0.00980377,0.0147247,-0.00759125,0.0181198,0.00675201
21,6,4.55556,-0.000610352,-0.00411987,-2.42684,0.0569017,-0.0744527,0.050771,-0.0150892,-0.0998603,0.145318,-0.130954,-0.0831808,0.0143814,0.0235367,0.0193024,0.00961304,0.0184631,0.00926971,0.0191879,0.0270844,-9.97986,0.0233841,0.000801086,0.0131607,0.00709534,0.0166702,-0.00183105,0.0112152,0.00774384
21,7,-3.2307,0.000305176,-0.00457764,-2.42531,0.0575121,-0.0741475,0.0538228,-0.0160048,-0.0980293,0.14837,-0.130039,-0.0822652,0.013237,0.0232315,0.018425,0.0119019,0.0204086,0.00812531,0.0251389,0.0289536,-9.97986,0.0226593,-0.000686646,0.0124359,0.00720978,0.0175858,-0.00694275,0.0132751,0.00652313
21,8,-9.99003,0,-0.00457764,-2.42501,0.0569017,-0.0729268,0.0565694,0.00169543,-0.0931465,0.14837,-0.128513,-0.0813497,0.0138092,0.0240707,0.0216293,0.0128937,0.0171661,0.0105667,0.0257874,0.0240707,-9.97986,0.0225067,-0.00114441,0.00984192,0.00873566,0.0207901,-0.00400543,0.0152206,0.0075531
21,9,-9.99003,0.000610352,-0.00259399,-2.4247,0.055681,-0.0726216,0.0553487,0.0282457,-0.0922309,0.145318,-0.127292,-0.0816549,0.0150681,0.0201035,0.0162125,0.0113297,0.0146866,0.0131607,0.0202942,0.0213242,-9.97986,0.0243759,0.000572205,0.010376,0.00537872,0.000228882,-0.00236511,0.017128,0.00579834
22,0,-9.99003,-0.000915527,-0.000610352,-2.42531,0.0559862,-0.0744527,0.0556539,0.0520494,-0.0910102,0.146234,-0.126377,-0.0825704,0.0128174,0.0213242,0.017395,0.0114441,0.0174713,0.00713348,0.0212097,0.0178909,-9.97986,0.018425,-0.000724792,0.0154114,0.0106812,-0.00644684,-0.0044632,0.0139236,0.00694275
22,1,-9.99003,-0.000915527,0,-2.42623,0.0550706,-0.0747579,0.0550435,0.0657823,-0.0900947,0.146234,-0.124546,-0.0825704,0.0127029,0.0238037,0.018425,0.0106812,0.0172424,0.0050354,0.0198746,0.0157547,-9.97986,0.0166702,-0.00118256,0.0160217,0.00816345,-0.00621796,-0.00274658,0.0138474,0.00591278
22,2,-9.99003,0.000610352,0.0012207,-2.42623,0.0550706,-0.075063,0.055959,0.0987413,-0.088874,0.145624,-0.124546,-0.0822652,0.010376,0.0252533,0.0193787,0.0127792,0.0178146,0.0106049,0.0216675,0.0130463,-9.97986,0.0112152,-0.000839233,0.0156403,0.00762939,0.0165558,-0.00213623,0.0160599,0.00366211
22,3,-3.44859,-0.000305176,0.00457764,-2.42776,0.0538499,-0.0759786,0.0553487,0.135362,-0.0879585,0.144708,-0.124546,-0.0837911,0.00736237,0.0263596,0.0143814,0.0104141,0.0170898,0.0069809,0.0213242,0.00511169,-9.97986,0.0105667,-0.00267029,0.017395,0.00682831,0.0153732,-0.00225067,0.0148773,0.00946045
22,4,3.62996,-0.000305176,0.00457764,-2.42806,0.0541551,-0.0762837,0.0532125,0.153368,-0.088874,0.144098,-0.121494,-0.085317,0.00770569,0.0232315,0.0177002,0.0119781,0.0177765,0.00904083,0.0226974,0.00484467,-9.97986,0.01091,-0.000305176,0.0164795,0.0102234,0.0173187,-0.00358582,0.0144577,0.00465393
22,5,10.0097,0.00152588,0.00427246,-2.42806,0.0529344,-0.0759786,0.054128,0.156114,-0.0910102,0.143792,-0.121494,-0.0859274,0.0111008,0.0250626,0.0178528,0.0118256,0.0176239,0.0101089,0.0207901,0.00751495,-9.97986,0.0105286,-0.00354767,0.0139618,0.0112915,0.0175858,-0.00431061,0.0157928,0.00663757
22,6,10.0097,0.00183105,0.00228882,-2.43203,0.0532396,-0.0759786,0.0495503,0.100572,-0.0977241,0.142572,-0.126377,-0.0889791,0.0110626,0.0236893,0.0175858,0.0104141,0.014534,0.014534,0.0212097,0.00717163,-9.97986,0.0117874,-0.000762939,0.0165176,0.00663757,0.0146484,-0.00556946,0.0136185,0.00415802
22,7,10.0097,0.00152588,-0.000305176,-2.42959,0.0532396,-0.0744527,0.050771,0.082567,-0.0943672,0.144098,-0.126987,-0.0883688,0.00919342,0.020752,0.0179291,0.0069046,0.0159836,0.0108337,0.0208282,0.0111008,-9.97986,0.0120544,-0.00427246,0.0120544,0.00480652,0.0149155,-0.00522614,0.0139618,0.00328064
22,8,10.0097,-0.000305176,-0.000457764,-2.42928,0.0538499,-0.0771993,0.0529073,0.0746324,-0.0955879,0.142572,-0.126377,-0.0865377,0.0102234,0.0232697,0.0143051,0.0121307,0.0169754,0.00896454,0.0223923,0.0122452,-9.97986,0.00839233,-0.00217438,0.0153351,0.00694275,0.0160599,-0.00114441,0.0141907,0.00473022
22,9,10.0097,0.0012207,-0.000152588,-2.42776,0.0553758,-0.075063,0.0516866,0.0724962,-0.0946723,0.144708,-0.125766,-0.0856222,0.0117874,0.0226212,0.0223541,0.0122833,0.0178146,0.00946045,0.0248337,0.0139999,-9.97986,0.0117493,0.000457764,0.0135803,0.00484467,0.014801,-0.00293732,0.0170898,0.00797272
23,0,10.0097,-0.00274658,0,-2.42776,0.0553758,-0.0756734,0.0519917,0.0706652,-0.0937568,0.144403,-0.126377,-0.085317,0.0101471,0.0240707,0.0175476,0.0137329,0.0191116,0.00572205,0.0253677,0.0142288,-9.97986,0.0150681,0.000190735,0.0141144,0.00602722,0.0165939,0.00320435,0.0150299,0.00648499
23,1,10.0097,0.000610352,0.000457764,-2.42684,0.0550706,-0.0756734,0.0532125,0.0700548,-0.0931465,0.144708,-0.125766,-0.0844015,0.0117874,0.0236511,0.0207901,0.0109482,0.0175476,0.0123978,0.0240707,0.0169373,-9.97986,0.0142288,-0.00453949,0.0137711,0.00598907,0.0156021,-0.00164032,0.0160599,0.00782013
23,2,10.0097,0.000305176,-0.000152588,-2.42684,0.0559862,-0.0747579,0.0526021,0.0706652,-0.0931465,0.145929,-0.124851,-0.0828756,0.0153351,0.0254059,0.0230408,0.010643,0.0167465,0.0120163,0.0229263,0.0174332,-9.97986,0.0200272,-0.00411987,0.0115204,0.00869751,0.0143051,-0.00297546,0.0157166,0.00614166
23,3,10.0097,0.000305176,0,-2.42562,0.0559862,-0.0735371,0.0553487,0.0706652,-0.0919257,0.145929,-0.124546,-0.0816549,0.0130844,0.0235748,0.0156784,0.0114822,0.0170135,0.0128174,0.0231552,0.0193024,-9.97986,0.0156021,-0.00148773,0.0156021,0.00396729,0.0159073,-0.00370026,0.0159454,0.00637054
23,4,10.0097,0.0012207,-0.000610352,-2.4244,0.0550706,-0.075063,0.0538228,0.0718859,-0.0916206,0.146234,-0.124241,-0.0804342,0.0107956,0.0222397,0.0167084,0.0113297,0.0215149,0.0146866,0.0234985,0.0208282,-9.97986,0.014534,-0.00171661,0.016098,0.00534058,0.0196457,-0.000572205,0.0169373,0.00667572
23,5,10.0097,-0.000915527,-0.00198364,-2.42714,0.055681,-0.0747579,0.0513814,0.032213,-0.0971137,0.146539,-0.127598,-0.0837911,0.0105667,0.0211716,0.0182343,0.0114822,0.0144577,0.0136948,0.021553,0.0188828,-9.97986,0.0212097,-0.00137329,0.0106812,0.00244141,0.0177002,-0.00137329,0.0165176,0.00606537
23,6,4.02394,0.000915527,-0.00350952,-2.42653,0.0559862,-0.0741475,0.0513814,-0.0156996,-0.100471,0.145624,-0.129429,-0.0834859,0.0119019,0.0266266,0.0193024,0.0130463,0.0203705,0.0107574,0.0268555,0.0270462,-9.97986,0.0214005,-0.00534058,0.011673,0.00595093,0.0166321,-0.00648499,0.0148773,0.00514984
23,7,-3.57005,0,-0.00442505,-2.42623,0.055681,-0.0744527,0.0532125,-0.0153944,-0.0986396,0.146539,-0.130039,-0.0828756,0.0106049,0.0224686,0.0158691,0.0111389,0.0194168,0.01194,0.0233841,0.0301361,-9.97986,0.017128,-0.00167847,0.017395,0.00995636,0.0168991,-0.00366211,0.0188446,0.00675201
23,8,-9.99003,-0.000305176,-0.00473022,-2.42409,0.0559862,-0.073232,0.0553487,0.00444201,-0.0943672,0.147149,-0.127903,-0.0807394,0.00980377,0.0212097,0.0192261,0.00743866,0.0163269,0.0124359,0.0241089,0.0256348,-9.97986,0.014801,-0.001297,0.0126648,0.00740051,0.0159836,-0.00495911,0.0128937,0.00545502
23,9,-9.99003,0.000610352,-0.00259399,-2.42409,0.0559862,-0.0747579,0.0550435,0.030382,-0.090705,0.145624,-0.127292,-0.0807394,0.0113678,0.0235748,0.0203705,0.00907898,0.0164032,0.00991821,0.02491,0.0254822,-9.97986,0.0188065,-0.00385284,0.0152206,0.00873566,-0.00274658,-0.00038147,0.018158,0.00926971
24,0,-9.99003,0.000305176,-0.000305176,-2.42531,0.055681,-0.0747579,0.0547383,0.052965,-0.0910102,0.146844,-0.125766,-0.0825704,0.0112534,0.0242996,0.0189209,0.0119019,0.0163651,0.010376,0.021286,0.0212479,-9.97986,0.0186539,-0.00236511,0.00782013,0.00473022,-0.010376,-0.00606537,0.015831,0.00720978
24,1,-9.99003,0.0012207,0.000305176,-2.42714,0.0544603,-0.0744527,0.0550435,0.0608995,-0.0922309,0.146539,-0.125461,-0.0819601,0.0104523,0.0213623,0.0207138,0.00717163,0.0165939,0.0104904,0.0227737,0.0157166,-9.97986,0.0191498,0.00225067,0.0149536,0.00900269,-0.0119019,-0.00484467,0.0200272,0.00614166
24,2,-9.99003,0.000305176,0.00137329,-2.4247,0.055681,-0.075063,0.0547383,0.0987413,-0.0876533,0.144708,-0.123325,-0.0831808,0.00762939,0.0255203,0.0173187,0.00728607,0.0125504,0.00816345,0.0160599,0.00862122,-9.97986,0.00900269,0.00183105,0.0166702,0.00843048,0.016098,-0.00213623,0.015564,0.0043869
24,3,-3.60789,0,0.00457764,-2.42684,0.0535448,-0.0756734,0.0538228,0.137804,-0.0867378,0.144403,-0.12363,-0.0847066,0.00801086,0.0261688,0.0180054,0.00923157,0.0191116,0.0130844,0.0207138,0.00946045,-9.97986,0.00923157,0.00495911,0.0123596,0.00736237,0.0148392,0.00358582,0.0165176,0.00774384
24,4,3.4966,0.000305176,0.00442505,-2.42867,0.0535448,-0.0759786,0.0535176,0.151537,-0.0900947,0.141961,-0.121189,-0.085317,0.00812531,0.0220871,0.0197983,0.0082016,0.0194168,0.00999451,0.0178909,0.00881195,-9.97986,0.00720978,0.00312805,0.0165176,0.00793457,0.0150681,-0.00209808,0.0150681,0.00404358
24,5,10.0097,0,0.0050354,-2.42837,0.0547655,-0.0756734,0.0529073,0.154588,-0.0894843,0.143487,-0.120884,-0.0862325,0.0127792,0.0226974,0.0181198,0.01297,0.0121689,0.010643,0.0204849,0.00984192,-9.97986,0.0105286,-0.000343323,0.0136948,0.00270844,0.0163651,-0.00335693,0.0150681,0.00988007
24,6,10.0097,0.000610352,0.00183105,-2.4305,0.0538499,-0.0765889,0.0501607,0.101793,-0.0974189,0.142267,-0.124851,-0.0889791,0.00476837,0.0225449,0.0165558,0.0125122,0.0166702,0.01091,0.0182343,0.0105667,-9.97986,0.0106812,-0.00545502,0.014267,0.0102997,0.0168991,-0.00102997,0.0166321,0.00392914
24,7,10.0097,-0.000305176,0.000915527,-2.42989,0.0523241,-0.0768941,0.0510762,0.082567,-0.0974189,0.141351,-0.126072,-0.0892843,0.0101471,0.024147,0.016098,0.0110245,0.0110626,0.0180435,0.0181961,0.0165558,-9.97986,0.0117874,-0.00278473,0.00984192,0.00976563,0.0149155,-0.00198364,0.0192261,0.00587463
24,8,10.0097,0.00305176,-0.000457764,-2.42867,0.0535448,-0.0762837,0.0513814,0.0764635,-0.0949775,0.144403,-0.126377,-0.0871481,0.0146866,0.0215912,0.0215149,0.0105667,0.0151443,0.0138092,0.0191116,0.0172806,-9.97986,0.0137329,-0.00476837,0.011673,0.00797272,0.0157928,-0.00286102,0.0168228,0.00709534
24,9,10.0097,-0.00183105,-0.000152588,-2.42837,0.0547655,-0.0759786,0.0526021,0.0737169,-0.0943672,0.144098,-0.125156,-0.0847066,0.0114059,0.0247955,0.0209045,0.0117493,0.0196075,0.0114059,0.0246048,0.0172806,-9.97986,0.0154877,0.000152588,0.0151062,0.00537872,0.0182343,-0.00453949,0.0146103,0.00778198
25,0,10.0097,0.000610352,-0.000610352,-2.42745,0.0544603,-0.0759786,0.0519917,0.0712755,-0.0937568,0.144403,-0.127292,-0.0859274,0.0120926,0.0218582,0.0183487,0.0125122,0.0206757,0.0088501,0.023613,0.0131989,-9.97986,0.0154114,0.000572205,0.0159073,0.00656128,0.0163651,-0.00228882,0.0136566,0.0050354
25,1,10.0097,0.00183105,0.000457764,-2.42714,0.0550706,-0.0741475,0.0538228,0.0706652,-0.0931465,0.145318,-0.126682,-0.0844015,0.00988007,0.0211334,0.0218964,0.0126266,0.0213623,0.0088501,0.0203705,0.013237,-9.97986,0.0140762,-0.0050354,0.0153732,0.00736237,0.0188065,0.000762939,0.0163651,0.00827789
25,2,10.0097,0,0.000457764,-2.42592,0.055681,-0.0747579,0.0535176,0.0700548,-0.0922309,0.145318,-0.125156,-0.0831808,0.0131989,0.0225067,0.0188065,0.00961304,0.0148392,0.0102234,0.0179672,0.0142288,-9.97986,0.0141144,-0.00118256,0.0148773,0.00537872,0.0168991,0.000572205,0.0185013,0.0056839
25,3,10.0097,0.000305176,0.000152588,-2.42592,0.0559862,-0.0729268,0.0544332,0.0715807,-0.0922309,0.147455,-0.124851,-0.0825704,0.00648499,0.0260925,0.0169754,0.0094223,0.0194931,0.0141144,0.0225449,0.0165176,-9.97986,0.0160217,-0.00328064,0.0125885,0.00682831,0.0159454,-0.00141144,0.0158691,0.00778198
25,4,10.0097,0.000915527,-0.000305176,-2.4244,0.0547655,-0.0744527,0.0547383,0.0712755,-0.0916206,0.146539,-0.12363,-0.0813497,0.0140762,0.0276566,0.0177002,0.00713348,0.018425,0.0082016,0.0218201,0.0180817,-9.97986,0.0163651,-0.000228882,0.0164795,0.00556946,0.0217056,-0.00476837,0.0180817,0.00679016
25,5,10.0097,0.000305176,-0.00137329,-2.42714,0.0544603,-0.0744527,0.0522969,0.0306871,-0.0980293,0.145929,-0.127903,-0.0831808,0.0122452,0.0230408,0.021286,0.0131989,0.0162888,0.00640869,0.0179291,0.0237274,-9.97986,0.0196075,-0.00392914,0.0156021,0.00732422,0.0215912,-0.00423431,0.0147629,0.0056076
25,6,4.3926,0,-0.00335693,-2.42714,0.0575121,-0.0744527,0.0516866,-0.0172255,-0.101081,0.146844,-0.129734,-0.0834859,0.00991821,0.0244522,0.020752,0.0133514,0.0126648,0.0164032,0.0197601,0.0239182,-9.97986,0.0252533,-0.0030899,0.0127029,0.00915527,0.0198746,-0.0069046,0.0159836,0.00854492
25,7,-3.41868,0.00152588,-0.00473022,-2.42562,0.055681,-0.0747579,0.0532125,-0.0160048,-0.0971137,0.145624,-0.129734,-0.0819601,0.00675201,0.0229645,0.0187302,0.0087738,0.0193024,0.0125504,0.0227737,0.0255585,-9.97986,0.0212097,-0.00240326,0.0157928,0.0110626,0.0198746,-0.00358582,0.0157928,0.0121689
25,8,-9.99003,0.00152588,-0.00488281,-2.42501,0.0572069,-0.0729268,0.0550435,0.00352649,-0.0922309,0.146539,-0.129123,-0.080129,0.00518799,0.0236893,0.0201035,0.0113678,0.0201035,0.0104141,0.0207901,0.0264359,-9.97986,0.0222397,-0.00274658,0.0149536,0.00686646,0.0175858,-0.000267029,0.0144196,0.00720978
25,9,-9.99003,-0.0012207,-0.00244141,-2.42409,0.0559862,-0.0744527,0.0562642,0.0285509,-0.0919257,0.145929,-0.127903,-0.0807394,0.00984192,0.0236511,0.0151443,0.00915527,0.0191879,0.0111008,0.0200272,0.0235748,-9.97986,0.0177765,-0.00408173,0.0145721,0.00427246,-0.00198364,-0.00179291,0.0155258,0.00671387
26,0,-9.99003,0.000305176,-0.0012207,-2.4244,0.0553758,-0.0738423,0.0556539,0.052965,-0.0900947,0.145013,-0.126682,-0.0828756,0.01091,0.0226593,0.0175858,0.0133896,0.0162506,0.0120926,0.0236511,0.0244141,-9.97986,0.0165939,-0.000991821,0.0144958,0.00492096,-0.00370026,-0.00190735,0.0138855,0.0087738
26,1,-9.99003,0.000915527,0,-2.42653,0.0559862,-0.0747579,0.0553487,0.0627306,-0.0913154,0.144708,-0.125461,-0.0819601,0.0101089,0.0211716,0.0165939,0.00812531,0.0168228,0.00846863,0.017662,0.0239563,-9.97986,0.0139236,-0.000572205,0.010376,0.00469208,-0.00629425,-0.00267029,0.0151443,0.00843048
26,2,-9.99003,0.000610352,0.0012207,-2.42501,0.0550706,-0.0753682,0.0556539,0.0972155,-0.0879585,0.145929,-0.12363,-0.0831808,0.0107193,0.0222778,0.0139236,0.00968933,0.014534,0.00953674,0.0209808,0.0118256,-9.97986,0.00801086,-0.00663757,0.0134659,0.00663757,0.0178146,-0.00385284,0.0149918,0.00377655
26,3,-3.49223,-0.000610352,0.00427246,-2.42653,0.0547655,-0.0747579,0.0556539,0.137499,-0.0879585,0.144403,-0.12241,-0.0837911,0.00759125,0.0244141,0.0166321,0.0196457,0.0123215,0.011673,0.0228119,0.00976563,-9.97986,0.00995636,-0.0030899,0.0168228,0.0119019,0.0135803,-0.000228882,0.0151062,0.00888824
26,4,3.61135,-0.000610352,0.00366211,-2.42776,0.0544603,-0.0765889,0.0544332,0.152147,-0.0894843,0.143792,-0.121494,-0.085317,0.00862122,0.020752,0.0167465,0.0103378,0.0144958,0.0087738,0.0217438,0.00724792,-9.97986,0.00663757,-0.00118256,0.0131989,0.00900269,0.0164795,-0.00232697,0.0149536,0.00484467
26,5,10.0097,-0.000915527,0.00457764,-2.42714,0.0547655,-0.0756734,0.0532125,0.155809,-0.0900947,0.143792,-0.121494,-0.0865377,0.00717163,0.0268173,0.0133133,0.0110626,0.0162125,0.00652313,0.0247192,0.0104523,-9.97986,0.0107574,0.00137329,0.0176239,0.00740051,0.0161743,-0.00205994,0.0144958,0.00652313
26,6,10.0097,0,0.00167847,-2.43172,0.0523241,-0.0775044,0.04894,0.101183,-0.0977241,0.142267,-0.126377,-0.0880636,0.00999451,0.0226593,0.0172806,0.00919342,0.0182343,0.00659943,0.019455,0.0140381,-9.97986,0.0143814,0.000801086,0.0159454,0.00873566,0.017395,-0.000114441,0.0196838,0.00431061
26,7,10.0097,0.000610352,0.000915527,-2.42959,0.0535448,-0.0759786,0.0513814,0.0816515,-0.0965034,0.143792,-0.126987,-0.0883688,0.0125122,0.0199509,0.018692,0.00751495,0.0179291,0.0118256,0.0196838,0.0138474,-9.97986,0.0144577,-0.0031662,0.014801,0.00465393,0.019989,-0.00396729,0.0139618,0.00324249
26,8,10.0097,0,0.000305176,-2.42867,0.0532396,-0.0756734,0.0522969,0.0746324,-0.0949775,0.144098,-0.127292,-0.0871481,0.00751495,0.0210953,0.0191498,0.0149918,0.0151825,0.0140762,0.0214386,0.0164032,-9.97986,0.0177383,-0.00328064,0.0151062,0.00869751,0.0167465,3.8147e-005,0.0110626,0.00652313
26,9,10.0097,0.000305176,-0.000152588,-2.42653,0.0553758,-0.0756734,0.0522969,0.0718859,-0.0946723,0.145013,-0.126682,-0.085317,0.0116348,0.0199127,0.0179291,0.0163651,0.0145721,0.00728607,0.018959,0.0163269,-9.97986,0.0135803,-0.00434875,0.0131226,0.0056839,0.0144958,-0.00274658,0.0162506,0.00461578
27,0,10.0097,0.000915527,0,-2.42714,0.0535448,-0.0741475,0.0522969,0.0724962,-0.0934516,0.144708,-0.126072,-0.0847066,0.0138092,0.0224686,0.0195694,0.0112152,0.0140762,0.0101089,0.0213623,0.0151443,-9.97986,0.0153732,-0.000610352,0.0169373,0.00637054,0.0209045,-0.00320435,0.0169373,0.00537872
27,1,10.0097,-0.000305176,-0.000152588,-2.42776,0.0541551,-0.075063,0.0526021,0.0718859,-0.0934516,0.145318,-0.126682,-0.0837911,0.0139236,0.0217438,0.0136566,0.00808716,0.0149536,0.00835419,0.0177765,0.0164413,-9.97986,0.0145721,-0.00335693,0.0113678,0.00701904,0.015564,-0.00106812,0.0150299,0.0037384
27,2,10.0097,0.00152588,0.0012207,-2.42684,0.0559862,-0.0744527,0.0535176,0.0709703,-0.0916206,0.144098,-0.125156,-0.0825704,0.0150299,0.025444,0.019455,0.0163269,0.016098,0.00961304,0.0220108,0.0159073,-9.97986,0.0167084,-0.000686646,0.0101471,0.00930786,0.0159454,0.000495911,0.0178528,0.00736237
27,3,10.0097,0.000610352,0.000152588,-2.42562,0.0575121,-0.0738423,0.0553487,0.0715807,-0.0922309,0.147149,-0.124241,-0.0819601,0.013504,0.0233078,0.019455,0.0146103,0.0154114,0.0120926,0.02388,0.0194931,-9.97986,0.0193405,-0.00297546,0.0153732,0.00911713,0.017395,-0.00270844,0.0174713,0.00648499
27,4,10.0097,0.000610352,-0.000305176,-2.42501,0.0575121,-0.0735371,0.054128,0.0731066,-0.0910102,0.146844,-0.124241,-0.0813497,0.0138855,0.026474,0.0180435,0.0109482,0.0147629,0.00778198,0.0206375,0.018158,-9.97986,0.0131607,-0.00118256,0.0163269,0.00869751,0.0201035,-0.00179291,0.0155258,0.00843048
27,5,10.0097,0.0012207,-0.00198364,-2.42806,0.0550706,-0.0747579,0.0526021,0.0297716,-0.0971137,0.145013,-0.126987,-0.0834859,0.00839233,0.0252533,0.0184631,0.00843048,0.0180054,0.0133514,0.0196075,0.0245285,-9.97986,0.0247574,-0.00171661,0.00957489,0.00720978,0.0205612,-0.00617981,0.0165176,0.00816345
27,6,4.16097,-0.0012207,-0.00335693,-2.42653,0.0581224,-0.075063,0.0519917,-0.0153944,-0.100471,0.146539,-0.130344,-0.0828756,0.00843048,0.0247955,0.0215149,0.00946045,0.0199509,0.00995636,0.0230408,0.0272751,-9.97986,0.0239182,-0.00541687,0.0151443,0.00492096,0.0226212,-0.0038147,0.0177002,0.0056076
27,7,-3.52366,0.000610352,-0.00396729,-2.42562,0.0569017,-0.0747579,0.0535176,-0.0144789,-0.0968086,0.145929,-0.129734,-0.0819601,0.0118637,0.0242615,0.0193405,0.00762939,0.0164413,0.0102997,0.0201797,0.0260925,-9.97986,0.0261688,-0.000228882,0.0113297,0.00392914,0.0172806,-0.00480652,0.0148392,0.00457764
27,8,-9.99003,0.000305176,-0.00457764,-2.4247,0.0575121,-0.0735371,0.0550435,0.00261096,-0.0931465,0.147149,-0.128513,-0.080129,0.0112915,0.0244904,0.0185013,0.00785828,0.0191116,0.0137711,0.0219727,0.0305176,-9.97986,0.0244141,0.00228882,0.0141525,0.00411987,0.0205612,-0.00644684,0.0159454,0.00801086
27,9,-9.99003,-0.000610352,-0.00244141,-2.42501,0.0565965,-0.073232,0.0568746,0.0288561,-0.0910102,0.145929,-0.127903,-0.0804342,0.0159454,0.0252533,0.021286,0.0125122,0.0176239,0.0094986,0.0222778,0.0237656,-9.97986,0.021553,-0.00183105,0.0153732,0.00759125,-0.00392914,-0.00476837,0.0146103,0.00644684
28,0,-9.99003,-0.00213623,-0.000915527,-2.4244,0.0547655,-0.075063,0.0562642,0.0541857,-0.0903999,0.144403,-0.126072,-0.0822652,0.0126648,0.0200653,0.0223923,0.0125504,0.0193405,0.0105667,0.0200272,0.021286,-9.97986,0.0198746,0.000686646,0.0170517,0.00797272,-0.00617981,-0.00427246,0.0175476,0.00797272
28,1,-9.99003,0.000610352,-0.000610352,-2.42684,0.055681,-0.0741475,0.054128,0.0627306,-0.0922309,0.145624,-0.126072,-0.0825704,0.0105286,0.0232697,0.0177765,0.0101471,0.0138855,0.0111389,0.0193787,0.0177002,-9.97986,0.013504,0.000991821,0.0167847,0.00812531,-0.00370026,-0.00324249,0.021019,0.00476837
28,2,-9.99003,0.00366211,0.00213623,-2.42592,0.055681,-0.0753682,0.0556539,0.0972155,-0.0885688,0.145624,-0.124546,-0.0822652,0.00396729,0.0236511,0.0209808,0.00522614,0.014534,0.0123596,0.0224686,0.0128937,-9.97986,0.0135422,-0.000114441,0.0161743,0.00671387,0.019455,-0.00385284,0.014801,0.00621796
28,3,-3.6143,0.0012207,0.0038147,-2.42837,0.0532396,-0.0759786,0.0544332,0.136278,-0.0882636,0.144403,-0.121494,-0.0844015,0.00774384,0.0223923,0.0169373,0.00617981,0.0149155,0.0107193,0.0201035,0.00934601,-9.97986,0.00988007,-0.0018692,0.0156403,0.0115585,0.0173187,-0.00343323,0.0195694,0.00640869
28,4,3.46761,0.000610352,0.00473022,-2.42837,0.0538499,-0.075063,0.0535176,0.152757,-0.0891792,0.144708,-0.120884,-0.0850118,0.00785828,0.0257492,0.0195313,0.00999451,0.0160599,0.0107574,0.0187683,0.00793457,-9.97986,0.0104141,0.00282288,0.0144577,0.0109863,0.015564,-0.00171661,0.0151062,0.0044632
28,5,10.0097,0,0.00427246,-2.42837,0.0535448,-0.0762837,0.0550435,0.155199,-0.0900947,0.144098,-0.121494,-0.0859274,0.00862122,0.017395,0.0193024,0.00892639,0.0154877,0.00843048,0.0188446,0.0113297,-9.97986,0.0107193,3.8147e-005,0.0159454,0.0044632,0.0128174,-0.000801086,0.0144577,0.00579834
28,6,10.0097,0.000305176,0.00183105,-2.43142,0.0529344,-0.0762837,0.0495503,0.101183,-0.0977241,0.142877,-0.125461,-0.0898946,0.0127029,0.0276566,0.0189209,0.00740051,0.015564,0.0124359,0.0214767,0.0123978,-9.97986,0.0105667,0.00087738,0.0170898,0.00164032,0.0178909,-0.00377655,0.0121307,0.00686646
28,7,10.0097,0.000915527,0.000762939,-2.42928,0.0535448,-0.0762837,0.0504659,0.0828722,-0.0974189,0.141351,-0.126682,-0.0886739,0.0122452,0.0256348,0.0185776,0.0104141,0.017662,0.00923157,0.0185013,0.00961304,-9.97986,0.0110626,0.00244141,0.0157547,0.00240326,0.0134659,-0.00473022,0.0149536,0.0063324
28,8,10.0097,0.00152588,-0.000152588,-2.42837,0.0541551,-0.0762837,0.0510762,0.0752428,-0.0937568,0.142572,-0.126987,-0.0865377,0.00846863,0.0245667,0.0174332,0.013504,0.0138474,0.00976563,0.0190353,0.0118256,-9.97986,0.012207,-0.00102997,0.0146103,0.00465393,0.0156403,0.00114441,0.017128,0.0075531
28,9,10.0097,0,-0.000610352,-2.42898,0.0541551,-0.0759786,0.0532125,0.0731066,-0.0952827,0.145624,-0.125461,-0.0856222,0.0113297,0.0259399,0.0186157,0.0125122,0.019722,0.00862122,0.0228119,0.0149155,-9.97986,0.00984192,0.00270844,0.0133514,0.00694275,0.0186157,-0.0030899,0.0205994,0.00785828
29,0,10.0097,-0.000305176,0,-2.42623,0.0541551,-0.075063,0.0538228,0.0706652,-0.0943672,0.144403,-0.126377,-0.085317,0.010643,0.0246048,0.0213242,0.00923157,0.0160217,0.00988007,0.022049,0.0153351,-9.97986,0.0141907,-0.000267029,0.0112534,0.00816345,0.01297,-0.00202179,0.0140762,0.00827789
29,1,10.0097,0.000915527,0.000152588,-2.42684,0.0547655,-0.075063,0.0519917,0.0694445,-0.0937568,0.144708,-0.126377,-0.0850118,0.00980377,0.0240707,0.0200653,0.0138092,0.0157166,0.00694275,0.0194168,0.0200653,-9.97986,0.00968933,0.00038147,0.0120544,0.0082016,0.0109863,-0.000495911,0.0103378,0.00469208
29,2,10.0097,-0.000915527,0.000152588,-2.42684,0.0565965,-0.0756734,0.0529073,0.0715807,-0.0931465,0.144403,-0.125461,-0.0819601,0.0136185,0.0259781,0.0167847,0.0146103,0.0115585,0.00675201,0.0231171,0.0130844,-9.97986,0.0135422,-0.000762939,0.0132751,0.00934601,0.0152588,-0.000610352,0.0120163,0.00858307
29,3,10.0097,0.00183105,0.000610352,-2.42562,0.0559862,-0.0747579,0.054128,0.0694445,-0.0931465,0.146234,-0.124241,-0.0819601,0.0152588,0.0280762,0.02285,0.0120926,0.0153351,0.0120544,0.0268173,0.0156021,-9.97986,0.0162506,-0.00278473,0.0141525,0.00965118,0.0181961,-0.00511169,0.0156403,0.00720978
29,4,10.0097,0.000915527,-0.000152588,-2.42592,0.0575121,-0.0735371,0.0544332,0.0715807,-0.0919257,0.146234,-0.124546,-0.0816549,0.01194,0.0270462,0.0190735,0.014801,0.0155258,0.0105286,0.0204468,0.0157547,-9.97986,0.0166321,-0.00106812,0.0123215,0.00694275,0.0154877,-0.000610352,0.017662,0.00637054
29,5,10.0097,0.00152588,-0.00137329,-2.42745,0.0547655,-0.0747579,0.0532125,0.0309923,-0.0974189,0.145318,-0.128513,-0.0840963,0.0123596,0.0276184,0.0212479,0.0160599,0.0170898,0.0117111,0.0203323,0.0236511,-9.97986,0.0199127,-0.00267029,0.0124359,0.00724792,0.0153351,-0.00534058,0.0141144,0.00602722
29,6,4.11153,0.000610352,-0.0038147,-2.42684,0.0569017,-0.0747579,0.0516866,-0.0166151,-0.09925,0.145929,-0.130954,-0.0834859,0.0137329,0.0234222,0.0150681,0.0118637,0.0181961,0.0135803,0.0242233,0.0279999,-9.97986,0.0236893,-0.00244141,0.0123215,0.00770569,0.0174713,-0.00244141,0.0185013,0.00904083
29,7,-3.58348,0.000610352,-0.00442505,-2.42592,0.0565965,-0.0738423,0.054128,-0.0163099,-0.0980293,0.146234,-0.129429,-0.0819601,0.0123978,0.0231171,0.0239182,0.0087738,0.0159836,0.00762939,0.0255203,0.0265884,-9.97986,0.0213623,0.00236511,0.00965118,0.00774384,0.0154495,-0.00495911,0.0182724,0.00865936
29,8,-9.99003,-0.00152588,-0.00473022,-2.42318,0.0575121,-0.0744527,0.0547383,0.00200061,-0.0919257,0.147149,-0.129429,-0.0807394,0.00862122,0.0196075,0.0163651,0.01091,0.0154114,0.0105286,0.0220871,0.0235367,-9.97986,0.018158,-0.00160217,0.0127029,0.00484467,0.0185776,-0.00591278,0.0165939,0.00457764
29,9,-9.99003,0.000610352,-0.00244141,-2.4247,0.0565965,-0.0744527,0.0553487,0.0297716,-0.0910102,0.146844,-0.127903,-0.080129,0.0120544,0.0255585,0.0177765,0.0101852,0.0188065,0.0133514,0.0246811,0.0252533,-9.97986,0.0187302,-0.00144958,0.0165939,0.00865936,-0.00488281,-0.00324249,0.0139236,0.00610352
30,0,-9.99003,0.000305176,-0.000610352,-2.42562,0.0553758,-0.075063,0.0565694,0.0535753,-0.0891792,0.146234,-0.126072,-0.0813497,0.0138855,0.0233841,0.0181961,0.0141144,0.0187302,0.0102615,0.0259781,0.0218964,-9.97986,0.0131989,-0.00297546,0.0131989,0.00736237,-0.00873566,-0.000152588,0.0144577,0.00629425
30,1,-9.99003,0.000305176,0.000152588,-2.42623,0.0550706,-0.0744527,0.0553487,0.0624254,-0.0919257,0.145624,-0.124851,-0.0834859,0.00972748,0.0302505,0.0201035,0.0131607,0.0208664,0.0104523,0.0253677,0.0203323,-9.97986,0.0157547,-0.00377655,0.0129318,0.0043869,-0.00579834,-0.0019455,0.0159073,0.00659943
30,2,-9.99003,-0.000610352,0.00183105,-2.42592,0.0553758,-0.0753682,0.0556539,0.0993517,-0.0900947,0.144708,-0.12363,-0.0822652,0.00720978,0.0238037,0.0205231,0.0140762,0.0161743,0.0121307,0.0247192,0.00823975,-9.97986,0.0125122,-0.00347137,0.014534,0.00453949,0.0163651,-0.00141144,0.0179672,0.00499725
30,3,-3.63749,0,0.00518799,-2.42745,0.0544603,-0.0756734,0.0550435,0.136278,-0.0873481,0.143487,-0.12241,-0.085317,0.00358582,0.0232315,0.0222397,0.0121689,0.0135422,0.0107574,0.0234985,0.0104904,-9.97986,0.0112534,-0.00259399,0.0110245,0.00873566,0.0152969,-0.00694275,0.0149918,0.00743866
30,4,3.50392,-0.000610352,0.00488281,-2.42806,0.0529344,-0.0759786,0.0538228,0.153063,-0.0894843,0.143792,-0.122104,-0.0850118,0.00804901,0.0252151,0.0197601,0.00938416,0.0137329,0.00904083,0.0204086,0.0087738,-9.97986,0.0112915,-0.00225067,0.0160217,0.00976563,0.0154877,-0.00221252,0.0192642,0.00705719
30,5,10.0097,0.000610352,0.00442505,-2.42837,0.0538499,-0.0756734,0.0532125,0.154283,-0.0891792,0.143792,-0.120884,-0.0856222,0.00892639,0.0198364,0.0182343,0.0125122,0.0143433,0.0109863,0.0191498,0.00652313,-9.97986,0.00995636,-0.00320435,0.0147629,0.00629425,0.0141144,-0.00411987,0.0149918,0.00499725
30,6,10.0097,0.000305176,0.00183105,-2.43203,0.0532396,-0.0762837,0.0504659,0.101183,-0.095893,0.142267,-0.125156,-0.0886739,0.00999451,0.02285,0.0177002,0.0104904,0.0154495,0.00717163,0.0213623,0.0163651,-9.97986,0.0164413,0.000801086,0.0164795,0.00579834,0.0199127,-0.0031662,0.0145721,0.00549316
30,7,10.0097,0.0012207,0.000305176,-2.4302,0.0532396,-0.0762837,0.0513814,0.0831774,-0.0971137,0.143792,-0.125766,-0.0883688,0.00923157,0.0230789,0.0163269,0.00953674,0.0163269,0.00652313,0.0235367,0.0128555,-9.97986,0.0127029,-0.000305176,0.0137329,0.00808716,0.0128555,-0.00347137,0.0134659,0.00473022
30,8,10.0097,-0.0012207,0.000305176,-2.42806,0.0541551,-0.0756734,0.0510762,0.075548,-0.0949775,0.143487,-0.127292,-0.0871481,0.014801,0.0214767,0.0174713,0.0146866,0.0134659,0.0125504,0.0275803,0.0157166,-9.97986,0.00999451,-0.00156403,0.0122452,0.0094986,0.0111771,-0.00526428,0.0166321,0.00396729
30,9,10.0097,0.000305176,-0.000152588,-2.42776,0.0535448,-0.0753682,0.0522969,0.0737169,-0.0937568,0.144403,-0.124851,-0.085317,0.0108337,0.0272369,0.0165939,0.0111008,0.0190735,0.0125504,0.0203323,0.0177002,-9.97986,0.0134277,-0.00377655,0.0129318,0.00518799,0.0147629,-0.00102997,0.0147247,0.00427246
31,0,10.0097,0.000610352,-0.000152588,-2.42806,0.055681,-0.0756734,0.0526021,0.0715807,-0.094062,0.145929,-0.125156,-0.0844015,0.00957489,0.027504,0.0190353,0.0148773,0.0201416,0.0110626,0.0230026,0.0175858,-9.97986,0.00892639,-0.00415802,0.0141525,0.00629425,0.0142288,-0.00190735,0.0165176,0.00488281
31,1,10.0097,0.000915527,0.000762939,-2.42653,0.0550706,-0.0747579,0.0544332,0.0712755,-0.0925361,0.145013,-0.126072,-0.0850118,0.00938416,0.0215149,0.0180435,0.0107574,0.0221252,0.0094223,0.0227356,0.0179291,-9.97986,0.00854492,0.00118256,0.0145721,0.00671387,0.0142288,-0.00389099,0.0141907,0.00392914
31,2,10.0097,0.00183105,0.000305176,-2.42531,0.0559862,-0.0738423,0.0532125,0.0724962,-0.0919257,0.145624,-0.125766,-0.0825704,0.0122833,0.0251389,0.0205612,0.0160217,0.0196075,0.0117874,0.0242615,0.0187302,-9.97986,0.0164413,-0.00133514,0.0152588,0.00843048,0.0133514,-0.00225067,0.0183105,0.00682831
31,3,10.0097,-0.00183105,0,-2.42501,0.055681,-0.0738423,0.0550435,0.072191,-0.0922309,0.146539,-0.124241,-0.0819601,0.00961304,0.0201797,0.0181961,0.0133133,0.0167084,0.00762939,0.0271225,0.0206375,-9.97986,0.0166321,-0.00480652,0.0206375,0.00614166,0.017395,-0.00038147,0.0156403,0.00679016
31,4,10.0097,0.0012207,0.000305176,-2.4247,0.0569017,-0.0735371,0.0556539,0.0718859,-0.0922309,0.146539,-0.12363,-0.0819601,0.0127792,0.0254059,0.018425,0.0127411,0.0146484,0.00926971,0.0210953,0.0196075,-9.97986,0.0162506,-0.00312805,0.0128937,0.00427246,0.0172806,-0.00167847,0.0128174,0.00652313
31,5,10.0097,0.000915527,-0.0012207,-2.42714,0.0559862,-0.0741475,0.0516866,0.032213,-0.0980293,0.146234,-0.128513,-0.0828756,0.0111771,0.0229263,0.0170135,0.0150299,0.014534,0.00934601,0.0221252,0.0211716,-9.97986,0.0218964,-0.0018692,0.0148392,0.00759125,0.0161362,-0.00301361,0.0160599,0.00816345
31,6,4.23848,0.000915527,-0.00335693,-2.42714,0.0559862,-0.0744527,0.0522969,-0.0169203,-0.0995551,0.146844,-0.130039,-0.0828756,0.0141907,0.028801,0.0163651,0.0100327,0.0154877,0.0119781,0.0241852,0.0272751,-9.97986,0.0218582,-0.000801086,0.0202179,0.00865936,0.0136566,-0.00171661,0.0186539,0.00610352
31,7,-3.49009,0.000915527,-0.00396729,-2.42592,0.0581224,-0.0735371,0.0532125,-0.0160048,-0.0977241,0.146844,-0.131565,-0.0816549,0.0134659,0.0246811,0.0207138,0.0157928,0.018959,0.0133896,0.025444,0.0310135,-9.97986,0.0187683,-0.00270844,0.0136948,0.00865936,0.0204849,0.000190735,0.0170517,0.00816345
31,8,-9.99003,0.000915527,-0.00366211,-2.42501,0.0562914,-0.0738423,0.0562642,0.00200061,-0.0931465,0.145624,-0.128208,-0.0807394,0.0104523,0.0242615,0.0157166,0.0104523,0.0159073,0.0125504,0.0225067,0.0250626,-9.97986,0.0222015,-0.00312805,0.0162888,0.00740051,0.0192261,-0.0056076,0.0161743,0.00549316
31,9,-9.99003,-0.000305176,-0.00244141,-2.4244,0.0562914,-0.0741475,0.0550435,0.0300768,-0.0903999,0.145929,-0.127292,-0.0816549,0.0137329,0.020256,0.012207,0.0149536,0.0179672,0.0113678,0.018158,0.0236511,-9.97986,0.022049,-0.00297546,0.0187683,0.00488281,-0.00804901,0.00171661,0.0157166,0.00598907
32,0,-9.99003,0,-0.0012207,-2.42592,0.0559862,-0.0762837,0.0547383,0.052965,-0.090705,0.145929,-0.126987,-0.0819601,0.0104523,0.0245667,0.0126648,0.0129318,0.0153732,0.0102234,0.0199127,0.0187683,-9.97986,0.0140762,-0.00301361,0.0130463,0.00507355,-0.00789642,-0.000610352,0.0193787,0.00919342
32,1,-9.99003,0.000305176,0.000152588,-2.42592,0.0550706,-0.075063,0.0556539,0.0627306,-0.0910102,0.145624,-0.126072,-0.0828756,0.00850677,0.0214767,0.0125885,0.0144958,0.0172806,0.0121689,0.0229645,0.0154495,-9.97986,0.0118256,-0.00160217,0.0136185,0.00778198,-0.00507355,-0.00366211,0.0136566,0.00324249
32,2,-9.99003,0.000915527,0.00183105,-2.42592,0.0559862,-0.0747579,0.0556539,0.0966051,-0.0885688,0.145013,-0.123935,-0.0837911,0.0193405,0.0219345,0.0220108,0.0168228,0.022316,0.0141907,0.0287247,0.0146484,-9.97986,0.0133896,0.00144958,0.0181961,0.00766754,0.0175858,0.000724792,0.019722,0.00926971
32,3,-3.5139,0.00183105,0.0038147,-2.42562,0.0547655,-0.0756734,0.0550435,0.136583,-0.0879585,0.144098,-0.122104,-0.0840963,0.0037384,0.0184631,0.0094986,0.0104523,0.00953674,0.00728607,0.0173187,0.00656128,-9.97986,0.0044632,0.000495911,0.01194,0.00240326,0.0120926,-0.00579834,0.0111389,0.00247955
32,4,3.60921,-0.0012207,0.00473022,-2.42745,0.0535448,-0.0759786,0.0535176,0.152757,-0.088874,0.143487,-0.121494,-0.085317,0.00782013,0.0208664,0.0194931,0.00858307,0.0190735,0.0166321,0.0257111,0.0063324,-9.97986,0.0112534,0.0018692,0.0148773,0.00713348,0.00843048,-0.00198364,0.0126266,0.00743866
32,5,10.0097,0.000305176,0.00442505,-2.42867,0.0535448,-0.0762837,0.0532125,0.154894,-0.0916206,0.143792,-0.121799,-0.0859274,0.00984192,0.0214005,0.0123978,0.00926971,0.0183487,0.0111008,0.0151825,0.00972748,-9.97986,0.0116348,0.00362396,0.0170517,0.00915527,0.0134659,-0.00259399,0.0166321,0.00324249
32,6,10.0097,-0.000305176,0.00152588,-2.43142,0.0532396,-0.0771993,0.0483296,0.102098,-0.0965034,0.142572,-0.126072,-0.0886739,0.0132751,0.0236511,0.0115585,0.00915527,0.0184631,0.00934601,0.0232697,0.0114059,-9.97986,0.0117493,0.000648499,0.0150299,0.00743866,0.0150299,0.000343323,0.0169373,0.00434875
32,7,10.0097,0.000915527,0.000762939,-2.43111,0.0532396,-0.0762837,0.0513814,0.0819567,-0.0965034,0.144098,-0.126682,-0.0886739,0.0108719,0.0223923,0.0177002,0.0138092,0.0122833,0.0104523,0.0206375,0.0171661,-9.97986,0.012207,-0.0019455,0.017395,0.00610352,0.0151062,-0.0037384,0.0168991,0.00232697
32,8,10.0097,-0.000305176,0.000152588,-2.42928,0.055681,-0.0759786,0.0513814,0.0749376,-0.0952827,0.144403,-0.127903,-0.0868429,0.00793457,0.0222397,0.019455,0.012207,0.0219345,0.00995636,0.023613,0.0156403,-9.97986,0.0128555,0.00305176,0.0136948,0.00343323,0.0138855,-0.000495911,0.0114441,0.00160217
32,9,10.0097,-0.000610352,-0.000610352,-2.42745,0.055681,-0.0759786,0.0526021,0.0731066,-0.0949775,0.144403,-0.126682,-0.0856222,0.0109863,0.0172806,0.0152969,0.00888824,0.0152588,0.00808716,0.0251007,0.013504,-9.97986,0.0124741,-0.00038147,0.0137329,0.00297546,0.017662,-0.00274658,0.0127792,0.00419617
33,0,10.0097,0.00183105,0.000305176,-2.42776,0.0541551,-0.0741475,0.0519917,0.0718859,-0.0946723,0.144403,-0.126682,-0.0850118,0.0122452,0.019722,0.0191498,0.0112915,0.0179291,0.0114441,0.0227356,0.0149155,-9.97986,0.015831,0.001297,0.0139618,0.00537872,0.0185394,-0.00133514,0.0154495,0.00495911
33,1,10.0097,0.000610352,0.000610352,-2.42684,0.0550706,-0.0759786,0.0538228,0.0709703,-0.0925361,0.144403,-0.126072,-0.0834859,0.00724792,0.0221252,0.0199127,0.0107956,0.0189209,0.0105667,0.0163269,0.0170517,-9.97986,0.0146866,-0.0031662,0.0152588,0.00453949,0.017128,-0.00312805,0.0141907,0.00591278
33,2,10.0097,0,0,-2.42684,0.055681,-0.073232,0.0544332,0.0709703,-0.0925361,0.145013,-0.125461,-0.0828756,0.0124741,0.0228882,0.019722,0.0115967,0.0164032,0.0131226,0.0165939,0.0220871,-9.97986,0.0131226,-0.00324249,0.0139618,0.00415802,0.0146484,-0.00179291,0.0157547,0.00511169
33,3,10.0097,0.000915527,0.000152588,-2.42531,0.055681,-0.0741475,0.0544332,0.0718859,-0.0916206,0.145624,-0.125156,-0.0813497,0.01194,0.0209808,0.0174713,0.0172806,0.0181961,0.00808716,0.0253296,0.0156403,-9.97986,0.0148392,-0.00400543,0.0126648,0.00740051,0.0171661,-0.0031662,0.014801,0.00724792
33,4,10.0097,-0.0012207,-0.000152588,-2.42501,0.0562914,-0.0738423,0.0550435,0.0728014,-0.0903999,0.147455,-0.12363,-0.080129,0.00728607,0.0193024,0.0173187,0.0124741,0.0176239,0.00843048,0.0225449,0.0158691,-9.97986,0.0174713,-0.00366211,0.0164032,0.00144958,0.0131989,-0.00213623,0.0165558,0.00514984
33,5,10.0097,-0.00152588,-0.00167847,-2.42745,0.0559862,-0.0747579,0.0519917,0.0316027,-0.0977241,0.146844,-0.126072,-0.0834859,0.010376,0.018158,0.0182343,0.0131989,0.0191498,0.0121689,0.0227356,0.0252151,-9.97986,0.0189972,-0.00144958,0.0123978,0.00816345,0.0167847,-0.00408173,0.0140762,0.00720978
33,6,4.24611,0.000915527,-0.0038147,-2.42623,0.0569017,-0.0741475,0.0513814,-0.0144789,-0.100471,0.145318,-0.129734,-0.0831808,0.0135422,0.0234222,0.0233459,0.0143814,0.020256,0.0121689,0.0226593,0.0288391,-9.97986,0.0258636,0.000953674,0.0144196,0.00789642,0.017128,-0.00606537,0.0151062,0.00541687
33,7,-3.46019,0.000915527,-0.00442505,-2.42562,0.0562914,-0.0729268,0.054128,-0.0156996,-0.0980293,0.146539,-0.129734,-0.0816549,0.0144196,0.0212479,0.0218582,0.0144577,0.0190353,0.0101471,0.0202179,0.0270462,-9.97986,0.0216293,0.00167847,0.0117111,0.0101852,0.0114441,-0.00549316,0.0156403,0.00709534
33,8,-9.99003,0.000610352,-0.00457764,-2.4244,0.0569017,-0.0738423,0.0562642,0.00291613,-0.0931465,0.146234,-0.128818,-0.0810445,0.0100327,0.0189209,0.021553,0.0108719,0.0170517,0.00518799,0.0178909,0.0235367,-9.97986,0.0218582,-0.00156403,0.0147629,0.00511169,0.0168228,-0.00549316,0.0131607,0.00526428
33,9,-9.99003,0.00152588,-0.00228882,-2.42379,0.0569017,-0.0744527,0.0562642,0.0288561,-0.090705,0.145624,-0.127598,-0.0804342,0.0108337,0.0197983,0.0168228,0.0123215,0.0206757,0.0125122,0.0259781,0.0248718,-9.97986,0.0204849,-0.00160217,0.01297,0.00900269,-0.00709534,-0.00106812,0.0125885,0.00679016
34,0,-9.99003,-0.000305176,-0.00137329,-2.42592,0.055681,-0.0744527,0.0547383,0.0535753,-0.0913154,0.145318,-0.126072,-0.0819601,0.00713348,0.0178909,0.0170517,0.0118637,0.0175476,0.0117111,0.0231934,0.0204086,-9.97986,0.0173569,0.00144958,0.0164413,0.00400543,-0.00720978,3.8147e-005,0.019722,0.0069809
34,1,-9.99003,0.000915527,-0.000457764,-2.42623,0.0559862,-0.0741475,0.0547383,0.0639513,-0.0916206,0.146234,-0.126377,-0.0822652,0.00598907,0.0177765,0.0170135,0.0120926,0.0188828,0.00865936,0.0167465,0.0168991,-9.97986,0.0139999,-0.000114441,0.0154495,0.00328064,-0.0075531,-0.00919342,0.0146866,0.00801086
34,2,-9.99003,-0.000305176,0.00167847,-2.42653,0.0547655,-0.0747579,0.0562642,0.0990465,-0.0882636,0.146234,-0.123935,-0.0828756,0.0102234,0.0229645,0.0153351,0.00869751,0.0172806,0.00740051,0.0226593,0.0117493,-9.97986,0.0117874,-0.0019455,0.0169754,0.00751495,0.0148773,-0.00465393,0.0136185,0.0056839
34,3,-3.37687,0.000915527,0.00427246,-2.42684,0.0541551,-0.0756734,0.0538228,0.138109,-0.0870429,0.143182,-0.121494,-0.0844015,0.00968933,0.0219727,0.0200653,0.00980377,0.0129318,0.00980377,0.0231934,0.0088501,-9.97986,0.0108337,0.000991821,0.00930786,0.0117111,0.0149918,-0.0056076,0.0128937,0.00591278
34,4,3.80513,0.000610352,0.00442505,-2.42806,0.0541551,-0.0747579,0.0526021,0.153978,-0.0897895,0.143792,-0.121494,-0.0847066,0.00888824,0.0155258,0.0163269,0.0113678,0.0149536,0.0126648,0.0218964,0.00972748,-9.97986,0.00789642,0.00110626,0.0146866,0.00434875,0.0123215,-0.00240326,0.016861,0.00812531
34,5,10.0097,-0.0012207,0.00396729,-2.42867,0.0532396,-0.0756734,0.0535176,0.154894,-0.090705,0.144403,-0.120884,-0.0856222,0.0063324,0.0221634,0.0159454,0.00782013,0.0162888,0.010643,0.0209808,0.00888824,-9.97986,0.0075531,7.62939e-005,0.0154495,0.00492096,0.0182343,-0.0043869,0.0168228,0.00679016
34,6,10.0097,0.000915527,0.00183105,-2.43081,0.0529344,-0.0768941,0.0495503,0.0993517,-0.0980293,0.142572,-0.125766,-0.0895895,0.00896454,0.0265121,0.0153351,0.00865936,0.0156784,0.0104523,0.0236893,0.0139236,-9.97986,0.0116348,0.00141144,0.012207,0.00537872,0.011673,-0.0056076,0.0147247,0.00366211
34,7,10.0097,-0.000305176,0.000305176,-2.42959,0.0535448,-0.075063,0.0510762,0.0816515,-0.0961982,0.143487,-0.126682,-0.0889791,0.00965118,0.0187302,0.0198746,0.01091,0.0180817,0.0101471,0.0223541,0.00888824,-9.97986,0.0117874,0.00144958,0.0120926,0.0063324,0.0117493,-0.00293732,0.0155258,0.00732422
34,8,10.0097,0.00152588,0.000152588,-2.42837,0.0544603,-0.075063,0.0516866,0.0758531,-0.095893,0.145013,-0.126377,-0.0862325,0.00968933,0.0208664,0.0148392,0.0117493,0.0176239,0.0104141,0.0234985,0.0151062,-9.97986,0.0120926,-0.00286102,0.0131607,0.00904083,0.0111389,-0.00144958,0.0165558,0.00465393
34,9,10.0097,0.000305176,-0.000457764,-2.42928,0.0553758,-0.0747579,0.0516866,0.0724962,-0.0943672,0.145929,-0.126682,-0.0865377,0.0104141,0.0223923,0.0133896,0.0118256,0.0177002,0.00682831,0.0234222,0.0161743,-9.97986,0.0130081,-7.62939e-005,0.0154495,0.00694275,0.0147629,-0.00350952,0.0167084,0.00656128
35,0,10.0097,0.000610352,0,-2.42867,0.0547655,-0.0744527,0.0535176,0.0709703,-0.0937568,0.145318,-0.126377,-0.0837911,0.0114441,0.0280762,0.0183868,0.00999451,0.0189209,0.0119019,0.023613,0.0187683,-9.97986,0.0159836,-0.000991821,0.0111771,0.00473022,0.0152969,-0.00324249,0.0195694,0.00656128
35,1,10.0097,0,-0.000457764,-2.42592,0.0559862,-0.0759786,0.0526021,0.0712755,-0.0922309,0.143792,-0.126682,-0.0837911,0.0094223,0.0227737,0.0201797,0.0135422,0.018692,0.0123978,0.0227737,0.018959,-9.97986,0.0140762,0.000343323,0.0102615,0.00892639,0.0163269,-0.00038147,0.0173569,0.0056076
35,2,10.0097,0.000305176,0.000152588,-2.4244,0.0553758,-0.0747579,0.0547383,0.0706652,-0.0928413,0.146539,-0.125156,-0.0828756,0.0123978,0.0243378,0.0212097,0.0144958,0.0168228,0.0110245,0.0221634,0.0169373,-9.97986,0.0215912,-0.000724792,0.0139236,0.0094223,0.0156403,-0.0037384,0.0151062,0.00843048
35,3,10.0097,-0.000915527,-0.000152588,-2.42562,0.0553758,-0.0747579,0.054128,0.0718859,-0.094062,0.145929,-0.123935,-0.0816549,0.00988007,0.0216675,0.0168228,0.0105667,0.0162888,0.0107193,0.0220871,0.0185013,-9.97986,0.017395,-0.00137329,0.0122452,0.00591278,0.0143814,-0.00553131,0.016861,0.00843048
35,4,10.0097,0,0.000305176,-2.4244,0.0569017,-0.0744527,0.0550435,0.0724962,-0.0913154,0.147149,-0.123325,-0.0810445,0.0126648,0.0222778,0.0175476,0.0104523,0.0151825,0.00679016,0.016098,0.0205231,-9.97986,0.0173569,-0.00278473,0.0123215,0.00652313,0.0148392,-0.00331879,0.0148773,0.00682831
35,5,10.0097,0.000610352,-0.00137329,-2.42623,0.055681,-0.0738423,0.0529073,0.0319078,-0.0971137,0.146539,-0.127903,-0.0828756,0.014267,0.0187302,0.0181961,0.0123596,0.0156784,0.00873566,0.0221252,0.0258636,-9.97986,0.019722,-0.00293732,0.011673,0.00392914,0.0152588,-0.00240326,0.0165558,0.00469208
35,6,4.20339,0,-0.00411987,-2.42714,0.0572069,-0.075063,0.0516866,-0.0156996,-0.101691,0.146539,-0.130954,-0.0831808,0.0120926,0.0230026,0.0205612,0.0148773,0.0185776,0.00835419,0.0185776,0.0262833,-9.97986,0.022583,-0.000610352,0.0106049,0.00888824,0.0174332,-0.00221252,0.0164413,0.00442505
35,7,-3.47697,-0.00213623,-0.00411987,-2.42531,0.0569017,-0.0744527,0.054128,-0.0150892,-0.0955879,0.147149,-0.128818,-0.0819601,0.0126648,0.0227356,0.021019,0.0145721,0.0204849,0.0126648,0.0238037,0.0296021,-9.97986,0.0233841,-0.00343323,0.0166702,0.00907898,0.0221252,-7.62939e-005,0.0169373,0.00881195
35,8,-9.99003,0.000915527,-0.00518799,-2.42501,0.0575121,-0.0738423,0.0550435,0.00352649,-0.0919257,0.146844,-0.128513,-0.0810445,0.0111389,0.0227356,0.0191879,0.0124359,0.0178146,0.00839233,0.0184631,0.0227356,-9.97986,0.0231934,-0.00591278,0.0111771,0.00301361,0.0156021,-0.0050354,0.015564,0.00591278
35,9,-9.99003,0.000610352,-0.00213623,-2.42409,0.0559862,-0.0744527,0.0562642,0.0297716,-0.090705,0.146539,-0.127903,-0.0807394,0.0106049,0.0260162,0.0196457,0.0126266,0.0130844,0.0141144,0.022583,0.0220108,-9.97986,0.0191498,-0.00450134,0.0136185,0.00720978,-0.000343323,0.000457764,0.0178909,0.00904083
36,0,-9.99003,-0.000610352,-0.00106812,-2.42623,0.0547655,-0.073232,0.0565694,0.0526598,-0.0910102,0.146234,-0.126682,-0.0813497,0.00892639,0.0213623,0.0191879,0.0115967,0.0176239,0.00904083,0.0196838,0.0176239,-9.97986,0.0178528,-0.00202179,0.0139618,0.00679016,-0.00785828,-0.00324249,0.0153732,0.00614166
36,1,-9.99003,0.000610352,-0.000305176,-2.42592,0.0553758,-0.0756734,0.0550435,0.0654772,-0.0910102,0.145929,-0.126072,-0.0822652,0.0132751,0.0252533,0.02285,0.0107956,0.0207138,0.0107956,0.0242996,0.0203705,-9.97986,0.0108719,-0.00347137,0.0144958,0.00419617,-0.00362396,-0.00293732,0.0175095,0.00801086
36,2,-9.99003,-0.000610352,0.00137329,-2.42592,0.0559862,-0.0744527,0.0553487,0.098131,-0.0876533,0.145624,-0.124241,-0.0822652,0.00892639,0.02388,0.0203323,0.0133514,0.0145721,0.0108719,0.0183487,0.0134659,-9.97986,0.00576019,-0.00320435,0.0105667,0.00152588,0.0178146,-0.00305176,0.015564,0.00782013
36,3,-3.21757,0.0012207,0.00473022,-2.42745,0.0538499,-0.0756734,0.0544332,0.138109,-0.0885688,0.144403,-0.122715,-0.0844015,0.00915527,0.0264359,0.0185394,0.0127029,0.0196075,0.0100708,0.0208282,0.0114822,-9.97986,0.00858307,-0.000801086,0.0136566,0.00156403,0.0189209,-0.00156403,0.0182343,0.00736237
36,4,3.90035,0.000610352,0.00473022,-2.42867,0.0547655,-0.0756734,0.0544332,0.153673,-0.088874,0.143792,-0.120884,-0.0850118,0.00907898,0.0264359,0.0177002,0.0131989,0.0162888,0.0126266,0.0170135,0.0112915,-9.97986,0.00766754,7.62939e-005,0.0125122,0.00476837,0.0169373,-0.00164032,0.0174713,0.00549316
36,5,10.0097,0.00152588,0.00411987,-2.42806,0.0532396,-0.0762837,0.054128,0.154588,-0.0894843,0.143182,-0.121189,-0.085317,0.00862122,0.0216675,0.0200272,0.0139999,0.0174713,0.0125504,0.0200653,0.00839233,-9.97986,0.0124741,-0.000839233,0.0159073,0.0075531,0.0175858,-0.00305176,0.018158,0.00801086
36,6,10.0097,0.000305176,0.00106812,-2.43111,0.0526292,-0.0771993,0.0501607,0.0990465,-0.0983344,0.142572,-0.123935,-0.0898946,0.00988007,0.0220871,0.018158,0.0104523,0.0156784,0.00946045,0.0205231,0.0131607,-9.97986,0.0104141,-0.00553131,0.0163269,0.00576019,0.0175095,-0.00461578,0.0159454,0.00602722
36,7,10.0097,0.000305176,0.000915527,-2.42989,0.0538499,-0.0756734,0.050771,0.0810411,-0.0965034,0.143792,-0.126682,-0.0883688,0.0111389,0.0247955,0.0188828,0.00911713,0.0164795,0.00858307,0.0223541,0.0154114,-9.97986,0.0113297,-0.00183105,0.0145721,0.00579834,0.0159454,-0.000839233,0.0149536,0.00484467
36,8,10.0097,0.000915527,-0.000305176,-2.42928,0.0538499,-0.0768941,0.0513814,0.0752428,-0.0952827,0.144403,-0.126682,-0.0859274,0.0118637,0.0253296,0.018959,0.0120926,0.0198364,0.00892639,0.0222015,0.0137329,-9.97986,0.00972748,-0.00259399,0.0123215,0.00762939,0.0149918,0.000762939,0.0171661,0.00701904
36,9,10.0097,-0.000305176,0.000305176,-2.42837,0.0541551,-0.0759786,0.0522969,0.0737169,-0.0946723,0.143487,-0.127598,-0.085317,0.00846863,0.0250626,0.0196075,0.0185776,0.0175858,0.00907898,0.0184631,0.0201035,-9.97986,0.0152588,0.000534058,0.0105286,0.0104904,0.0169373,0.00114441,0.0179672,0.00629425
37,0,10.0097,0.000305176,0.000610352,-2.42776,0.0550706,-0.0753682,0.0535176,0.0706652,-0.0934516,0.144708,-0.125156,-0.0850118,0.0114441,0.0242996,0.0202942,0.0118637,0.0176239,0.00835419,0.0234222,0.0175858,-9.97986,0.0160599,0.00328064,0.0182724,0.00915527,0.0195313,0.00213623,0.016861,0.0102234
37,1,10.0097,-0.0012207,0,-2.42623,0.0550706,-0.0744527,0.0529073,0.0718859,-0.0934516,0.145013,-0.126377,-0.0847066,0.0104904,0.0221252,0.0166321,0.0107193,0.0216675,0.00961304,0.0205612,0.0164795,-9.97986,0.0162506,-0.00267029,0.0137329,0.00629425,0.0139618,0.000839233,0.01194,0.0056839
37,2,10.0097,0.000610352,0.000457764,-2.42562,0.0569017,-0.0762837,0.0538228,0.0712755,-0.0928413,0.146234,-0.126072,-0.0822652,0.0153732,0.0252533,0.0177765,0.0125122,0.0165558,0.0106049,0.0230408,0.0170898,-9.97986,0.0182343,-0.00156403,0.0144196,0.0062561,0.0192261,0.000343323,0.0195694,0.00598907
37,3,10.0097,-0.000610352,0.000610352,-2.42531,0.0562914,-0.0744527,0.0556539,0.0709703,-0.0928413,0.145318,-0.124851,-0.0819601,0.0075531,0.0244904,0.0192642,0.00900269,0.0169373,0.0102997,0.0211334,0.0163651,-9.97986,0.0167465,-0.00282288,0.0173569,0.00389099,0.0180817,-0.00244141,0.015831,0.00480652
37,4,10.0097,-0.000915527,0.000762939,-2.42531,0.0578172,-0.0744527,0.0538228,0.0715807,-0.0916206,0.147455,-0.124241,-0.0822652,0.0144577,0.0260925,0.0181961,0.0129318,0.0157928,0.00736237,0.0249481,0.0263596,-9.97986,0.0170135,-0.000762939,0.0110626,0.00724792,0.0174332,-0.0037384,0.0156021,0.00537872
37,5,10.0097,0.000305176,-0.00137329,-2.42714,0.0562914,-0.0747579,0.0526021,0.0312975,-0.0977241,0.144403,-0.127903,-0.0831808,0.0146103,0.0259781,0.0186157,0.0152206,0.0175858,0.0111771,0.0236893,0.0258255,-9.97986,0.0189209,0.000457764,0.0135422,0.00972748,0.0180054,-0.00484467,0.0154877,0.0082016
37,6,4.18447,-0.000305176,-0.0038147,-2.42684,0.0565965,-0.0738423,0.0516866,-0.0160048,-0.100471,0.146234,-0.130039,-0.0840963,0.0151443,0.0257492,0.0193787,0.0111771,0.017662,0.00984192,0.018959,0.0266266,-9.97986,0.0244141,-0.00713348,0.0147629,0.00549316,0.0210571,-0.0044632,0.0146103,0.00743866
37,7,-3.57097,-0.000610352,-0.00427246,-2.42562,0.0565965,-0.0747579,0.054128,-0.0178358,-0.0980293,0.146539,-0.130954,-0.0828756,0.0109863,0.0198746,0.0193024,0.0156784,0.0190353,0.00526428,0.0204849,0.0299835,-9.97986,0.02388,0.000152588,0.0134659,0.00606537,0.0178909,-0.00671387,0.013504,0.00812531
37,8,-9.99003,0.00152588,-0.00488281,-2.42501,0.0565965,-0.073232,0.0553487,0.00261096,-0.0946723,0.146539,-0.127903,-0.0813497,0.0130844,0.0224304,0.0255585,0.00865936,0.018692,0.0112915,0.0258255,0.0258636,-9.97986,0.0201035,0.00366211,0.0138092,0.00835419,0.0206375,-0.00164032,0.0160217,0.00850677
37,9,-9.99003,-0.000305176,-0.00213623,-2.42501,0.0553758,-0.0726216,0.0556539,0.030382,-0.0919257,0.146234,-0.127598,-0.0807394,0.0112915,0.0223923,0.0194931,0.00846863,0.0178528,0.00968933,0.0244522,0.0247574,-9.97986,0.0186157,0.00267029,0.0148773,0.00652313,-0.00740051,-0.00617981,0.0188446,0.00591278
38,0,-9.99003,0.00213623,-0.00106812,-2.42501,0.0572069,-0.0747579,0.0556539,0.0523546,-0.0916206,0.146234,-0.126682,-0.0819601,0.0153351,0.0213623,0.0150299,0.0116348,0.0172806,0.0141525,0.0199127,0.0255203,-9.97986,0.0174713,0.000534058,0.0160217,0.00759125,-0.00610352,-0.00419617,0.0169373,0.00717163
38,1,-9.99003,0.000610352,0.000305176,-2.42592,0.0553758,-0.075063,0.0553487,0.0645616,-0.0910102,0.143792,-0.124546,-0.0825704,0.0130463,0.0230408,0.0224304,0.0128555,0.0182724,0.0106812,0.0200272,0.0167847,-9.97986,0.0172043,0.0019455,0.0177765,0.00919342,-0.00541687,-0.00366211,0.0127029,0.00507355
38,2,-9.99003,0.000610352,0.00183105,-2.42562,0.0550706,-0.0738423,0.0565694,0.0975206,-0.0879585,0.145318,-0.124241,-0.0834859,0.00839233,0.0203323,0.019989,0.0163269,0.0176239,0.0139618,0.0190353,0.00968933,-9.97986,0.0101471,-0.000228882,0.0145721,0.00976563,0.0154877,-7.62939e-005,0.0146866,0.00686646
38,3,-3.3903,0.000610352,0.00396729,-2.42714,0.0541551,-0.075063,0.0550435,0.137804,-0.0879585,0.144708,-0.122715,-0.0850118,0.0113678,0.0214386,0.018425,0.0107193,0.0175095,0.0148392,0.0210953,0.00896454,-9.97986,0.0107574,0.00244141,0.011673,0.00736237,0.017662,-0.000343323,0.0150681,0.00740051
38,4,3.75264,0.000610352,0.00473022,-2.42714,0.0538499,-0.0762837,0.054128,0.153978,-0.0891792,0.144708,-0.121189,-0.0850118,0.013504,0.0225067,0.020256,0.0103378,0.0162506,0.0127792,0.0226212,0.0115585,-9.97986,0.00984192,0.00404358,0.014534,0.0102615,0.0114441,-0.00328064,0.0144958,0.00370026
38,5,10.0097,0.00152588,0.00457764,-2.42837,0.0529344,-0.0759786,0.0535176,0.153978,-0.090705,0.142572,-0.121799,-0.0868429,0.0140762,0.019989,0.018425,0.0141907,0.0199127,0.0119019,0.0208664,0.00713348,-9.97986,0.0103378,0.0030899,0.0157166,0.00610352,0.0158691,-0.00640869,0.0138092,0.00724792
38,6,10.0097,0.000610352,0.00106812,-2.43203,0.0532396,-0.0759786,0.0501607,0.101183,-0.0971137,0.141961,-0.125766,-0.0895895,0.00770569,0.0200272,0.0210953,0.0152969,0.0180054,0.012207,0.0204849,0.0157928,-9.97986,0.0141525,-0.0018692,0.0124359,0.00499725,0.0135422,-0.00492096,0.0139999,0.00465393
38,7,10.0097,0,0.000152588,-2.42989,0.0544603,-0.0759786,0.0510762,0.082567,-0.0971137,0.142877,-0.126987,-0.0883688,0.00965118,0.0214386,0.0167084,0.00991821,0.0149536,0.0082016,0.0239563,0.0131226,-9.97986,0.0132751,-0.00339508,0.0136566,0.00419617,0.0151443,-0.00331879,0.0199127,0.00392914
38,8,10.0097,-0.000915527,-0.000762939,-2.42867,0.0547655,-0.0759786,0.0516866,0.0758531,-0.0946723,0.143792,-0.127598,-0.0868429,0.0125885,0.0265503,0.0148773,0.0136948,0.0180817,0.0094986,0.0189209,0.0127792,-9.97986,0.0156021,0.0030899,0.018692,0.00926971,0.0175858,-0.0019455,0.0178146,0.00545502
38,9,10.0097,0.000915527,-0.000305176,-2.42867,0.0550706,-0.0753682,0.0529073,0.0731066,-0.0943672,0.144098,-0.126072,-0.0859274,0.0100327,0.025444,0.0165939,0.0123596,0.0150681,0.0130081,0.0210953,0.0183487,-9.97986,0.015564,0.000534058,0.010643,0.00614166,0.0136948,-0.00507355,0.0200653,0.00896454
39,0,10.0097,0,0.000305176,-2.42745,0.0547655,-0.0747579,0.0538228,0.0715807,-0.094062,0.145929,-0.126682,-0.0844015,0.010376,0.025177,0.0228882,0.0120544,0.0165176,0.0126266,0.020752,0.0140762,-9.97986,0.0140381,0.00038147,0.0169754,0.00648499,0.0153732,-0.00537872,0.0152206,0.00465393
39,1,10.0097,0.00183105,-0.000305176,-2.42714,0.0547655,-0.075063,0.0529073,0.0715807,-0.0922309,0.144708,-0.125766,-0.0840963,0.0127792,0.0239182,0.0186157,0.0135803,0.0160599,0.0135803,0.0236893,0.0131607,-9.97986,0.0120926,-0.00202179,0.0133133,0.00553131,0.0164032,-0.00038147,0.014534,0.00831604
39,2,10.0097,0,0.000610352,-2.42531,0.0569017,-0.0741475,0.0535176,0.0706652,-0.0922309,0.145929,-0.126072,-0.0828756,0.010376,0.0220871,0.020752,0.00686646,0.0163269,0.0125122,0.0227737,0.0185013,-9.97986,0.013237,-0.00320435,0.013237,0.00911713,0.0185394,-0.00244141,0.0170898,0.00453949
39,3,10.0097,-0.000610352,0.000152588,-2.42592,0.055681,-0.0747579,0.0550435,0.0718859,-0.0919257,0.145624,-0.124851,-0.0810445,0.0114441,0.0236511,0.0207901,0.0123596,0.0177383,0.0113297,0.0239563,0.0164795,-9.97986,0.0162506,-0.0019455,0.0130844,0.0063324,0.0131989,-0.00385284,0.0153732,0.00797272
39,4,10.0097,0.000305176,0,-2.42592,0.0562914,-0.0738423,0.054128,0.0718859,-0.0922309,0.147149,-0.123935,-0.0813497,0.0112915,0.0247955,0.0143814,0.0159454,0.0170898,0.0146484,0.0243759,0.0220871,-9.97986,0.0208282,0.00160217,0.014267,0.00644684,0.0175476,0.00118256,0.0146103,0.00709534
39,5,10.0097,0.000915527,-0.000610352,-2.42653,0.0559862,-0.0741475,0.0519917,0.0325182,-0.0968086,0.146844,-0.127598,-0.0837911,0.0150299,0.0237274,0.0233841,0.0120544,0.0187683,0.00679016,0.0202179,0.0233459,-9.97986,0.0186157,-0.00190735,0.014534,0.00312805,0.0149918,-0.00411987,0.0161362,0.00434875
39,6,4.24092,-0.00213623,-0.00411987,-2.42623,0.0562914,-0.075063,0.0513814,-0.0144789,-0.0998603,0.146234,-0.130954,-0.0840963,0.0149918,0.019989,0.018425,0.0107574,0.0203705,0.0133896,0.0240707,0.0259399,-9.97986,0.0224686,0.000419617,0.01297,0.00919342,0.0172806,-0.00289917,0.0139618,0.0101471
39,7,-3.42662,0.00152588,-0.00350952,-2.42776,0.055681,-0.0744527,0.0532125,-0.0153944,-0.0974189,0.147149,-0.129734,-0.0819601,0.0131607,0.0246811,0.0195313,0.0100327,0.0165939,0.0105667,0.0238037,0.024147,-9.97986,0.0230026,-0.00175476,0.0155258,0.00896454,0.0192261,-0.0069046,0.0139236,0.00564575
39,8,-9.99003,0.000610352,-0.00427246,-2.42409,0.0569017,-0.0738423,0.0553487,0.00352649,-0.0931465,0.146539,-0.127903,-0.0810445,0.0136566,0.0238419,0.0193024,0.0141525,0.0188065,0.0119019,0.0227356,0.0248718,-9.97986,0.019455,-3.8147e-005,0.0134277,0.0088501,0.0208282,-0.00259399,0.0150299,0.00671387
39,9,-9.99003,0.000610352,-0.00274658,-2.4247,0.0565965,-0.073232,0.055959,0.0297716,-0.0919257,0.145624,-0.127292,-0.0807394,0.01194,0.0196075,0.0208282,0.00984192,0.0202942,0.0135803,0.0206375,0.0236511,-9.97986,0.0188065,-0.000991821,0.0142288,0.00808716,-0.000915527,-0.00389099,0.0152969,0.00736237
40,0,-9.99003,0.000915527,-0.00106812,-2.4247,0.0547655,-0.0741475,0.0562642,0.0535753,-0.0910102,0.145929,-0.126987,-0.0816549,0.0136566,0.019989,0.017395,0.0123215,0.0174332,0.00984192,0.0234985,0.0201416,-9.97986,0.0180435,-0.00141144,0.0151443,0.0075531,-0.00667572,-0.00320435,0.0155258,0.00522614
40,1,-9.99003,-0.000610352,-0.000152588,-2.42714,0.0569017,-0.0744527,0.0550435,0.0642565,-0.090705,0.145624,-0.125766,-0.0831808,0.00938416,0.0239182,0.0177383,0.0160599,0.018158,0.0138092,0.0238037,0.0166321,-9.97986,0.0131607,-0.00114441,0.0148773,0.00804901,-0.00534058,-0.00453949,0.0174332,0.0069046
40,2,-9.99003,0.0012207,0.00152588,-2.42562,0.0550706,-0.0747579,0.0562642,0.100572,-0.0879585,0.144403,-0.12363,-0.0834859,0.00709534,0.0209808,0.0146866,0.0102615,0.0177002,0.0126648,0.0245285,0.013237,-9.97986,0.00930786,-0.000648499,0.015831,0.00846863,0.0163269,-0.000495911,0.0180054,0.00587463
40,3,-3.27373,0.000305176,0.00396729,-2.42867,0.0538499,-0.0753682,0.0547383,0.136278,-0.088874,0.144098,-0.12241,-0.0825704,0.010376,0.0207901,0.0183105,0.0148773,0.0178909,0.0136185,0.0219345,0.0100708,-9.97986,0.00740051,-0.00499725,0.0130844,0.00305176,0.0144196,-0.00366211,0.0153351,0.00534058
40,4,3.84236,0.000915527,0.00427246,-2.42714,0.0535448,-0.0747579,0.054128,0.153368,-0.0900947,0.143487,-0.121494,-0.0844015,0.00751495,0.0178146,0.0180817,0.0114441,0.020256,0.0123215,0.0222778,0.0104523,-9.97986,0.0115204,-0.001297,0.0140381,0.00320435,0.0150299,-0.00175476,0.017662,0.00488281
