
Devices
1200
,,BP Load cell - Voltage,String Length - Voltage,Clutch Active - Voltage,#7 iPecs - Voltage,,,,,,,,,EMG 1-8 Left - Voltage,,,,,,,,Pylon Force - Voltage,EMG 9-16 Right - Voltage,,,,,,,,
Frame,Sub Frame,BP Load Cell,String Length,From Arduino Logic,A45,A135,A225,A315,S0,S90,S180,S270,ZSum,EMG 1 Glut Max,EMG 2 Glut Med,EMG 3 Biceps Femoris Long,EMG 4 Rectus Femoris,EMG 5 Vastus Medialis,EMG 6 Tib Ant,EMG 7 Med Gas,EMG 8 Soleus,Pylon volts,EMG 9 Glut Max,EMG 10 Glut Med,EMG 11 Biceps Femoris Long,EMG 12 Rectus Femoris,EMG 13 Vastus Medialis,EMG 14 Tib Ant,EMG 15 Med Gas,EMG 16 Soleus
,,V,V,V,V,V,V,V,V,V,V,V,V,V,V,V,V,V,V,V,V,V,V,V,V,V,V,V,V,V
1,0,10.0097,-0.000610352,0.000762939,-2.42592,0.0553758,-0.0729268,0.0550435,0.0712755,-0.090705,0.146539,-0.124546,-0.0816549,0.0166321,0.0283813,0.0331879,-0.0209045,0.0225067,0.0105667,0.0220871,0.0165558,-9.97986,0.0111389,0.000495911,0.0136185,0.00911713,0.0150299,-0.0138474,0.0183868,0.0050354
1,1,10.0097,0.000610352,-0.000457764,-2.42623,0.0575121,-0.0744527,0.0529073,0.0709703,-0.0913154,0.141961,-0.12363,-0.0807394,0.0117493,0.0288773,0.0264359,-0.0244904,0.0218201,0.00965118,0.0278473,0.018959,-9.97986,0.01091,0.000114441,0.0164413,0.00537872,0.0127411,-0.0124741,0.0168991,0.00331879
1,2,10.0097,0.0012207,0.000762939,-2.4247,0.0565965,-0.0744527,0.0553487,0.0715807,-0.0910102,0.147149,-0.12363,-0.080129,0.0120926,0.0297546,0.0289154,-0.0296402,0.0204468,0.00644684,0.0273895,0.0207901,-9.97986,0.0136185,0.00453949,0.0138092,0.00846863,0.0165176,-0.0154495,0.0121689,0.00362396
1,3,10.0097,-0.000305176,-0.000610352,-2.42562,0.055681,-0.0759786,0.0550435,0.058153,-0.0943672,0.146234,-0.124546,-0.0810445,0.0119781,0.0312042,0.0358582,-0.0304413,0.0226974,0.0101471,0.0357437,0.0137711,-9.97986,0.0111008,0.000152588,0.0103378,0.00843048,0.0159836,-0.0143051,0.0173187,0.00480652
1,4,9.86684,0.000305176,-0.00198364,-2.42684,0.0562914,-0.0741475,0.0535176,0.0349596,-0.0949775,0.146539,-0.127903,-0.0816549,0.00946045,0.0279617,0.0283051,-0.0307465,0.0191116,0.0103378,0.0354767,0.0125122,-9.97986,0.0112915,0.00507355,0.0102997,0.00450134,0.0150299,-0.0101089,0.0203323,0.000839233
1,5,7.53865,-0.000610352,-0.00137329,-2.4244,0.0565965,-0.0738423,0.0544332,0.0474718,-0.0922309,0.146539,-0.126377,-0.0816549,0.0143051,0.0244141,0.0328064,-0.0378036,0.0231171,0.0110626,0.0297165,0.0172424,-9.97986,0.0139618,-0.00343323,0.0114822,0.00717163,0.0168991,-0.00320435,0.0178146,0.00617981
1,6,6.77938,0,-0.000305176,-2.42531,0.0562914,-0.075063,0.0550435,0.0596788,-0.0937568,0.144708,-0.127292,-0.0819601,0.0100327,0.0373077,0.0297546,-0.0535583,0.0240707,0.0114441,0.0265121,0.0146103,-9.97986,0.0133514,0.00202179,0.0140381,0.0108337,0.0156403,-0.00274658,0.0189209,0.0043869
1,7,6.78487,0.0012207,0.000305176,-2.42653,0.0547655,-0.0747579,0.0553487,0.0660875,-0.0928413,0.14776,-0.124851,-0.0825704,0.0131226,0.0396347,0.0376129,-0.0559616,0.020752,0.00980377,0.0273514,0.0159073,-9.97986,0.00923157,0.00152588,0.0132751,0.00656128,0.0172424,-0.00331879,0.0170898,0.0037384
1,8,7.42177,0.0012207,0.000915527,-2.42745,0.0541551,-0.0756734,0.0547383,0.0819567,-0.0903999,0.145318,-0.125156,-0.0834859,0.0125122,0.0344086,0.0399399,-0.0556183,0.0225067,0.00679016,0.0266266,0.0185013,-9.97986,0.0191498,-0.000991821,0.0129318,0.00961304,0.0210571,0.000572205,0.0185013,0.00476837
1,9,10.0097,0.00152588,0.00244141,-2.42745,0.0541551,-0.075063,0.054128,0.111254,-0.0903999,0.143182,-0.123935,-0.0837911,0.0157928,0.0320435,0.039444,-0.0427246,0.022583,0.0110245,0.0255203,0.017128,-9.97986,0.0128174,-0.000991821,0.0125504,0.00812531,0.0217438,-0.00301361,0.0178909,0.00465393
2,0,10.0097,-0.000305176,0.00106812,-2.42714,0.0535448,-0.0759786,0.0513814,0.0862291,-0.0937568,0.144403,-0.126987,-0.0871481,0.0146103,0.0351334,0.039978,-0.0217438,0.0234604,0.00587463,0.0217819,0.0158691,-9.97986,0.0165176,-0.00431061,0.0139999,0.00450134,0.0181961,-0.00152588,0.0159836,0.00232697
2,1,10.0097,0.000305176,0.000152588,-2.42898,0.0529344,-0.0759786,0.0513814,0.0767687,-0.0961982,0.144708,-0.126987,-0.0871481,0.011673,0.0355148,0.0349045,-0.00953674,0.0213242,0.00717163,0.022583,0.0156403,-9.97986,0.00816345,-0.00335693,0.0179291,0.00259399,0.0188828,-0.00232697,0.0159836,0.00217438
2,2,10.0097,0.000305176,0.000152588,-2.42928,0.0538499,-0.0753682,0.0516866,0.0715807,-0.0949775,0.143792,-0.127903,-0.0874532,0.0114822,0.0273895,0.0333023,0.00156403,0.0168228,0.00965118,0.0256729,0.0146866,-9.97986,0.0117493,-0.00175476,0.0133133,0.00415802,0.0166321,-0.00286102,0.0149155,0.00419617
2,3,10.0097,-0.000610352,0.000305176,-2.42989,0.0535448,-0.0753682,0.0516866,0.0694445,-0.0949775,0.14013,-0.127903,-0.0877584,0.0117493,0.0227356,0.0308609,0.00804901,0.0187302,0.00873566,0.0186539,0.018158,-9.97986,0.0157166,0.00133514,0.0122452,0.00907898,0.0214767,-0.00709534,0.0184631,0.00759125
2,4,10.0097,0.0012207,-0.000457764,-2.42837,0.0547655,-0.0762837,0.0529073,0.0694445,-0.0949775,0.143792,-0.127903,-0.0868429,0.0107956,0.0170898,0.0265884,-0.00125885,0.0173569,0.00736237,0.0170898,0.0148773,-9.97986,0.0124741,-0.0018692,0.00991821,0.00720978,0.0163651,-0.0143433,0.016861,0.00522614
2,5,10.0097,0.000610352,-0.000305176,-2.42714,0.0547655,-0.075063,0.0532125,0.0691393,-0.0943672,0.144403,-0.126682,-0.0862325,0.00774384,0.0149155,0.0305939,-0.00179291,0.0202942,0.0075531,0.0172424,0.0165939,-9.97986,0.00934601,-0.00183105,0.0132751,0.0063324,0.0175095,-0.0187302,0.0148392,0.00579834
2,6,10.0097,0.0012207,-0.000152588,-2.42806,0.0538499,-0.0747579,0.0532125,0.0700548,-0.0928413,0.14776,-0.126072,-0.0850118,0.01194,0.0289917,0.0212097,0.00522614,0.0128174,0.00652313,0.017662,0.0165939,-9.97986,0.0182343,-0.00255585,0.0143814,0.00347137,0.0178146,-0.014801,0.0180817,0.00492096
2,7,10.0097,0.000305176,0.000762939,-2.42684,0.0562914,-0.0759786,0.0535176,0.0700548,-0.0934516,0.145318,-0.126987,-0.0847066,0.0121689,0.0300598,0.0127792,0.00362396,0.0154877,0.00579834,0.0162125,0.0136948,-9.97986,0.0154877,-0.00541687,0.0121689,0.00663757,0.0164795,-0.00839233,0.0172043,0.00450134
2,8,10.0097,0.00152588,0.000915527,-2.42531,0.0559862,-0.0744527,0.0556539,0.0697496,-0.0934516,0.144098,-0.126072,-0.0831808,0.0141144,0.0266647,0.0144577,0.00389099,0.0157166,0.00846863,0.0183487,0.013504,-9.97986,0.0123978,-0.00144958,0.0125885,0.00667572,0.0189972,-0.00488281,0.0161743,0.00919342
2,9,10.0097,-0.000305176,0.000152588,-2.42409,0.0569017,-0.0738423,0.0562642,0.0712755,-0.0925361,0.145318,-0.124546,-0.0807394,0.0130081,0.0185013,0.0111389,-0.00144958,0.0120544,0.00782013,0.0178146,0.0169754,-9.97986,0.0169754,-0.00217438,0.0130463,0.00736237,0.0205612,-0.00141144,0.0169754,0.00598907
3,0,10.0097,0.00183105,0.000457764,-2.42531,0.0572069,-0.0729268,0.0538228,0.0712755,-0.0919257,0.146539,-0.123935,-0.0813497,0.0127792,0.0188065,0.0181961,-0.00671387,0.014267,0.00640869,0.0193405,0.0167084,-9.97986,0.0106812,-0.00160217,0.0133896,0.00377655,0.0214005,0.00492096,0.0144958,0.0043869
3,1,10.0097,0.00213623,0.000305176,-2.42409,0.0559862,-0.0735371,0.0550435,0.0724962,-0.0922309,0.147149,-0.125156,-0.0825704,0.0109863,0.0187683,0.0209808,-0.0117874,0.0153732,0.00450134,0.0173187,0.0146103,-9.97986,0.0160599,0.0012207,0.0147629,0.00850677,0.019722,0.00621796,0.0164413,0.00679016
3,2,10.0097,0.0012207,0.000305176,-2.42409,0.0572069,-0.075063,0.0556539,0.0724962,-0.0916206,0.145318,-0.124546,-0.0816549,0.00862122,0.0211334,0.022583,-0.00797272,0.0125504,0.00705719,0.0188065,0.0139618,-9.97986,0.0134659,0.000648499,0.0152969,0.00675201,0.0207901,0.00839233,0.0181961,0.00511169
3,3,10.0097,0.000305176,0.000305176,-2.42592,0.0550706,-0.0735371,0.0550435,0.0584581,-0.0928413,0.146539,-0.125461,-0.0816549,0.0140762,0.0265884,0.021019,-0.00465393,0.0106049,0.00816345,0.0168991,0.019722,-9.97986,0.0140381,-0.000228882,0.0139236,0.00450134,0.0239944,0.00778198,0.0123978,0.00801086
3,4,9.69655,0.000610352,-0.00213623,-2.42592,0.0553758,-0.0741475,0.0535176,0.0352648,-0.0949775,0.147149,-0.126072,-0.0819601,0.0101471,0.0249481,0.0139618,0.01194,0.0131226,0.00812531,0.0229263,0.013504,-9.97986,0.0147629,-0.00465393,0.0141144,0.00370026,0.0227356,0.00297546,0.0139618,0.00434875
3,5,7.37355,-0.000610352,-0.00137329,-2.42592,0.055681,-0.0744527,0.0547383,0.0471666,-0.0922309,0.147455,-0.126072,-0.0831808,0.0119019,0.029335,0.0211334,0.015831,0.01297,0.00843048,0.016861,0.0161743,-9.97986,0.0124741,0.000114441,0.0125122,0.00499725,0.0172424,0.00526428,0.0139618,0.00297546
3,6,6.60909,0.000305176,-0.000305176,-2.42531,0.0562914,-0.0747579,0.0538228,0.0593737,-0.0922309,0.145318,-0.125156,-0.0819601,0.0101471,0.0172806,0.0183487,0.0123215,0.00896454,0.0113678,0.0183868,0.0115967,-9.97986,0.0216675,-0.00190735,0.0151443,0.00835419,0.0197601,-0.0037384,0.0156403,0.00656128
3,7,6.62923,0.000915527,0.000915527,-2.42653,0.0547655,-0.0747579,0.0550435,0.0660875,-0.0919257,0.146539,-0.126072,-0.0816549,0.0113297,0.0253296,0.0190353,0.00724792,0.0119019,0.0075531,0.0173569,0.0161362,-9.97986,0.0178146,-0.00038147,0.0153732,0.00900269,0.0221634,-0.00545502,0.0159836,0.00747681
3,8,7.26094,-0.00152588,0.00137329,-2.42684,0.0547655,-0.0759786,0.054128,0.0798204,-0.090705,0.145624,-0.124851,-0.0834859,0.0167084,0.0220108,0.0191116,0.00900269,0.0156403,0.0105286,0.0148773,0.0214767,-9.97986,0.0146866,0.00137329,0.0151443,0.00419617,0.0167847,-0.00461578,0.0175858,0.00431061
3,9,10.0097,-0.00183105,0.00198364,-2.42714,0.0547655,-0.0759786,0.054128,0.113695,-0.0894843,0.144708,-0.123935,-0.0847066,0.010643,0.0223923,0.015564,0.00724792,0.0118637,0.00988007,0.0162506,0.0202179,-9.97986,0.0111008,-0.00495911,0.014267,0.00774384,0.0136185,-0.00514984,0.0166321,0.00724792
4,0,10.0097,0.000610352,0.00213623,-2.42959,0.0538499,-0.0771993,0.0522969,0.0892809,-0.0937568,0.142267,-0.126072,-0.0868429,0.0102997,0.0292206,0.0180435,0.0102234,0.0113297,0.00854492,0.0209045,0.0203705,-9.97986,0.0154114,-0.00205994,0.0159073,0.000114441,0.0143433,-0.00259399,0.014801,0.0111771
4,1,10.0097,-0.000610352,0.000762939,-2.42867,0.0532396,-0.0759786,0.050771,0.0761583,-0.0949775,0.141656,-0.126377,-0.0865377,0.0100327,0.0290298,0.0203323,0.0107193,0.0129318,0.00816345,0.014267,0.0185776,-9.97986,0.0141525,-0.00198364,0.0143814,0.00617981,0.0111771,-0.00453949,0.0118637,0.00968933
4,2,10.0097,0.000305176,0.000457764,-2.4302,0.0541551,-0.0756734,0.0519917,0.0709703,-0.0955879,0.143792,-0.127903,-0.0862325,0.0128937,0.0272369,0.0221252,0.00892639,0.015831,0.00972748,0.0173569,0.017662,-9.97986,0.0114822,-7.62939e-005,0.0130844,0.00389099,0.0150299,-0.00423431,0.0117874,0.00946045
4,3,10.0097,0.000305176,-0.000152588,-2.42989,0.0541551,-0.0768941,0.0526021,0.0700548,-0.0949775,0.143792,-0.127903,-0.0874532,0.0124359,0.0278473,0.0197601,0.0136185,0.0209808,0.0116348,0.0199127,0.0157166,-9.97986,0.0113297,-0.0031662,0.013504,0.000648499,0.0144196,-0.00537872,0.011673,0.00896454
4,4,10.0097,0.000915527,-0.000457764,-2.42806,0.0535448,-0.0768941,0.0532125,0.0688341,-0.095893,0.143792,-0.127903,-0.0874532,0.0110245,0.0320816,0.0198746,0.0127792,0.0135422,0.0094986,0.0214386,0.0161743,-9.97986,0.0134277,-0.00289917,0.0137711,0.00297546,0.0143433,-0.00205994,0.0141144,0.0101089
4,5,10.0097,0.00183105,0.000152588,-2.42745,0.0541551,-0.0756734,0.0538228,0.0700548,-0.0949775,0.145624,-0.127903,-0.085317,0.0136185,0.032196,0.0246048,0.0125885,0.014534,0.0131607,0.0278473,0.0194931,-9.97986,0.0147629,-0.000343323,0.0165558,0.00537872,0.0236893,-0.00305176,0.0139236,0.00801086
4,6,10.0097,0.000305176,0.000457764,-2.42714,0.0550706,-0.0747579,0.0522969,0.0691393,-0.0931465,0.145013,-0.125766,-0.0847066,0.00976563,0.0273895,0.0163651,0.0112152,0.0109863,0.00980377,0.0253296,0.0267029,-9.97986,0.0120163,-0.00125885,0.014534,-0.00141144,0.0224686,-0.000762939,0.0132751,0.00564575
4,7,10.0097,-0.000915527,0.000305176,-2.42806,0.0544603,-0.0753682,0.0544332,0.07036,-0.0934516,0.144098,-0.125461,-0.0844015,0.0132751,0.0280762,0.0190735,0.0113297,0.0123215,0.00965118,0.0299835,0.0214386,-9.97986,0.0135803,-0.0025177,0.0139618,0.00461578,0.0226212,-0.00362396,0.0136566,0.00431061
4,8,10.0097,-0.000305176,0.000457764,-2.42653,0.0569017,-0.0744527,0.0547383,0.0685289,-0.0937568,0.145624,-0.125461,-0.0834859,0.0114822,0.0292587,0.0177002,0.00926971,0.0153732,0.0109482,0.0312805,0.0209427,-9.97986,0.016861,-0.00518799,0.0165939,0.00511169,0.0214386,-0.000495911,0.0155258,0.00286102
4,9,10.0097,-0.000610352,0.00106812,-2.42531,0.055681,-0.0741475,0.0553487,0.0709703,-0.0913154,0.146539,-0.125461,-0.0822652,0.0125885,0.0315094,0.018959,0.0012207,0.0103378,0.0094223,0.0269318,0.0222397,-9.97986,0.0131989,-0.00110626,0.0107574,0.000610352,0.0196075,-0.00175476,0.0140381,0.00106812
5,0,10.0097,0,0,-2.42501,0.0562914,-0.0747579,0.0544332,0.0712755,-0.0919257,0.14776,-0.125156,-0.0816549,0.0139236,0.0306702,0.0120163,-0.00640869,0.0145721,0.0121689,0.0268173,0.0219345,-9.97986,0.0134659,-0.000190735,0.0113678,0.00160217,0.0214386,-0.000915527,0.0125504,0.00389099
5,1,10.0097,0.00183105,0.000610352,-2.4244,0.0559862,-0.0735371,0.0550435,0.0706652,-0.0925361,0.147149,-0.12363,-0.0813497,0.0109482,0.035553,0.0143814,-0.00442505,0.0130844,0.00667572,0.030098,0.0136948,-9.97986,0.0141907,-0.00835419,0.0153351,0.00228882,0.019722,0.0025177,0.0135803,0.00701904
5,2,10.0097,-0.000305176,0.000152588,-2.42562,0.0562914,-0.0741475,0.0556539,0.0715807,-0.0922309,0.148065,-0.124546,-0.0810445,0.0115204,0.0336838,0.0149918,-0.00476837,0.0140381,0.0101089,0.0271225,0.0172806,-9.97986,0.0114059,-0.00339508,0.0111389,0.00366211,0.0190735,-0.00144958,0.0123596,0.00556946
5,3,10.0097,-0.00183105,0.000457764,-2.42623,0.0575121,-0.073232,0.0544332,0.0572374,-0.094062,0.145929,-0.125461,-0.0813497,0.0115585,0.0146866,0.00984192,-0.00659943,0.020752,0.00740051,0.0169754,0.0175476,-9.97986,0.0165558,0.00114441,0.00888824,0.00190735,0.0155258,-0.00267029,0.0157547,0.0082016
5,4,9.67763,-0.000305176,-0.00137329,-2.42623,0.0584276,-0.0741475,0.0544332,0.0349596,-0.0949775,0.146234,-0.127903,-0.0813497,0.01297,0.00278473,0.00831604,-0.00785828,0.0162125,0.0109482,0.0114059,0.0157547,-9.97986,0.0151825,-0.000686646,0.0141907,0.00312805,0.0159454,-0.00610352,0.0163651,0.0087738
5,5,7.3235,0,-0.00106812,-2.42684,0.0575121,-0.0747579,0.0544332,0.0468614,-0.0922309,0.146234,-0.127292,-0.0822652,0.0101089,0.0149536,0.0131607,-0.0106812,0.0118637,0.0104904,0.0130081,0.0153732,-9.97986,0.0149918,0.000228882,0.0159073,0.00312805,0.0188065,-0.00137329,0.0149155,0.00740051
5,6,6.59535,-0.000305176,-0.000305176,-2.42562,0.0559862,-0.0738423,0.0535176,0.0593737,-0.0913154,0.145318,-0.125461,-0.0825704,0.0109863,0.0169373,0.0167465,-0.0123596,0.0154495,0.0140762,0.0165939,0.0147247,-9.97986,0.0151825,-0.00385284,0.0178909,-0.000534058,0.0179291,0.00171661,0.0144196,0.00823975
5,7,6.60207,0.000610352,0.000305176,-2.42684,0.0559862,-0.0756734,0.0550435,0.0679186,-0.0925361,0.145624,-0.124851,-0.0831808,0.0120926,0.0258255,0.0224686,-0.01091,0.0168991,0.0128937,0.0144196,0.0162506,-9.97986,0.0131226,-0.00263214,0.0159454,0.0019455,0.0217438,0.0100708,0.0149536,0.0056839
5,8,7.29787,0.000305176,0.00106812,-2.42592,0.055681,-0.0741475,0.0550435,0.080736,-0.0919257,0.145929,-0.124241,-0.0834859,0.0107574,0.031929,0.0228119,-0.0115967,0.0208664,0.00915527,0.017395,0.0143814,-9.97986,0.0123978,-0.00450134,0.0141525,0.00217438,0.0185013,0.00701904,0.0126266,0.00564575
5,9,10.0097,0.00152588,0.00213623,-2.42806,0.0559862,-0.0741475,0.0550435,0.112779,-0.0885688,0.143182,-0.124241,-0.0847066,0.014267,0.036087,0.02285,0.0111389,0.0130844,0.0177765,0.0186539,0.0179291,-9.97986,0.0146484,-0.000572205,0.01297,0.00476837,0.0176239,0.0111008,0.0160217,0.00862122
6,0,10.0097,0.000610352,0.00167847,-2.42989,0.0544603,-0.0753682,0.0516866,0.0892809,-0.0952827,0.142572,-0.126072,-0.0865377,0.0134659,0.0316238,0.0240707,0.0435638,0.0156784,0.0147629,0.0221634,0.0148773,-9.97986,0.0201416,0.00366211,0.0162125,0.00320435,0.0229645,0.0104523,0.0152588,0.00782013
6,1,10.0097,-0.000915527,0,-2.42959,0.0526292,-0.0759786,0.0516866,0.075548,-0.0955879,0.141961,-0.125766,-0.0862325,0.0117111,0.0206757,0.0180435,0.0599289,0.0165939,0.0094986,0.019455,0.0131607,-9.97986,0.0140762,-0.0038147,0.0120926,-0.00225067,0.0163269,0.00522614,0.0105286,0.00480652
6,2,10.0097,0.000305176,0.000305176,-2.42867,0.0544603,-0.0765889,0.0526021,0.0737169,-0.0952827,0.143792,-0.126987,-0.0874532,0.0111771,0.0136948,0.025177,0.0572205,0.0175858,0.00801086,0.0279236,0.0187302,-9.97986,0.0199509,0.00404358,0.0122833,0.00476837,0.0176239,0.00823975,0.0181198,0.0112915
6,3,10.0097,0.000610352,0.000152588,-2.4302,0.0535448,-0.0768941,0.0522969,0.07036,-0.0946723,0.143792,-0.127292,-0.0871481,0.00789642,0.0161743,0.0257492,0.0422287,0.0187302,0.00953674,0.028038,0.0107574,-9.97986,0.0115967,-0.00648499,0.0107193,-0.00171661,0.0143051,-0.00118256,0.00968933,0.00572205
6,4,10.0097,-0.000915527,0.000305176,-2.42928,0.0538499,-0.0759786,0.0526021,0.07036,-0.0943672,0.142572,-0.126987,-0.0871481,0.0108337,0.0159836,0.0315475,0.0374222,0.0194931,0.0148392,0.030899,0.0164413,-9.97986,0.0204086,0.00164032,0.0143051,0.00549316,0.0242996,0.0018692,0.0144577,0.0101852
6,5,10.0097,0.000610352,-0.000457764,-2.42745,0.0547655,-0.0753682,0.0522969,0.0700548,-0.0931465,0.145929,-0.127292,-0.0859274,0.00766754,0.0200653,0.0275421,0.0296021,0.0138474,0.0094223,0.027504,0.0145721,-9.97986,0.0169754,-0.00377655,0.00984192,0.00312805,0.0196075,0.00209808,0.0164032,0.00362396
6,6,10.0097,0.000610352,0.000152588,-2.42745,0.0532396,-0.0756734,0.0532125,0.0691393,-0.0949775,0.145013,-0.126682,-0.0847066,0.01194,0.0226593,0.0223923,0.0288391,0.0174713,0.0135803,0.0300598,0.0179672,-9.97986,0.0230026,-0.000228882,0.01194,0.00125885,0.021553,-0.00205994,0.0144196,0.0103378
6,7,10.0097,0,0.000610352,-2.42531,0.0553758,-0.0753682,0.0538228,0.0697496,-0.0934516,0.144708,-0.126987,-0.0844015,0.0108719,0.0184631,0.0112915,0.0307465,0.0196457,0.01091,0.0230408,0.0157547,-9.97986,0.0206757,-0.000534058,0.00999451,0.0069046,0.0193405,0.00686646,0.0148773,0.00621796
6,8,10.0097,-0.000610352,0.000305176,-2.42653,0.0553758,-0.0747579,0.0538228,0.0712755,-0.0922309,0.145624,-0.126377,-0.0840963,0.0106049,0.0199127,0.00801086,0.0219727,0.0146103,0.0125122,0.0254059,0.0147247,-9.97986,0.0183868,-0.00244141,0.0143814,0.00469208,0.016861,0.00724792,0.0154877,0.00873566
6,9,10.0097,0.00152588,0.000915527,-2.4247,0.0562914,-0.0729268,0.0550435,0.0706652,-0.0922309,0.145624,-0.125156,-0.0810445,0.00938416,0.0237274,0.00453949,0.0234985,0.0186539,0.00923157,0.0244141,0.0191116,-9.97986,0.0211716,-0.00148773,0.0117493,0.00148773,0.0204086,0.00476837,0.0137329,0.00972748
7,0,10.0097,-0.0012207,0.000610352,-2.42501,0.0565965,-0.073232,0.0547383,0.0694445,-0.0900947,0.146844,-0.125156,-0.0813497,0.010643,0.0191498,0.00545502,0.0204849,0.0196075,0.0114441,0.0218582,0.0156784,-9.97986,0.0133133,-0.00038147,0.00843048,0.00259399,0.018158,0.00148773,0.0135803,0.00297546
7,1,10.0097,-0.000915527,0.000152588,-2.42501,0.0565965,-0.073232,0.0550435,0.0709703,-0.0903999,0.146234,-0.125461,-0.0807394,0.013504,0.0172806,0.00167847,0.0220871,0.0195694,0.0156784,0.0230789,0.0160217,-9.97986,0.0180054,0.000343323,0.0119781,0.00358582,0.0236893,-0.00087738,0.0150299,0.00614166
7,2,10.0097,0.000915527,0.000152588,-2.42562,0.0553758,-0.0735371,0.055959,0.0712755,-0.0910102,0.147149,-0.124851,-0.0804342,0.0108337,0.0177383,0.00236511,0.0203705,0.0231552,0.0121689,0.0252151,0.0212479,-9.97986,0.0183868,-0.00293732,0.0149918,-0.00148773,0.0215912,0.00774384,0.014267,0.00976563
7,3,10.0097,0.000305176,0.000610352,-2.42592,0.0572069,-0.0744527,0.0535176,0.058153,-0.0943672,0.145929,-0.126377,-0.0825704,0.0142288,0.0156403,0.00480652,0.0214386,0.0167465,0.0100327,0.0275421,0.0151062,-9.97986,0.0204086,-0.00377655,0.0113678,0.00125885,0.0191498,0.00377655,0.0143433,0.0100327
7,4,9.89217,0.000305176,-0.000610352,-2.42562,0.0575121,-0.0738423,0.0538228,0.0358751,-0.095893,0.147149,-0.126377,-0.0816549,0.0162506,0.0194168,0.00549316,0.0173187,0.0181961,0.00843048,0.0273132,0.0196838,-9.97986,0.0154114,-0.001297,0.0157166,0.00164032,0.0195694,-0.00228882,0.0178146,0.00923157
7,5,7.57985,0.000610352,-0.000305176,-2.42501,0.0569017,-0.0744527,0.054128,0.0474718,-0.0952827,0.146539,-0.126072,-0.0828756,0.00926971,0.0196075,0.00778198,0.0170517,0.0166321,0.00720978,0.0246048,0.0152969,-9.97986,0.0151443,0.00419617,0.00972748,0.00431061,0.0162506,-0.00991821,0.0133514,0.00946045
7,6,6.80867,-0.000305176,0.000305176,-2.42562,0.0569017,-0.0738423,0.0526021,0.0590685,-0.0931465,0.146539,-0.125156,-0.0828756,0.0094986,0.0228119,0.0101852,0.0223923,0.0193024,0.0100708,0.0226212,0.0165558,-9.97986,0.018692,0.00217438,0.0136566,0.00396729,0.0207138,-0.0118256,0.0148392,0.0062561
7,7,6.77999,0.0012207,0,-2.42684,0.0547655,-0.0747579,0.0544332,0.0663927,-0.0922309,0.145013,-0.126987,-0.0825704,0.0106812,0.0229645,0.0149155,0.019455,0.0179291,0.0062561,0.0217438,0.0150681,-9.97986,0.0180435,0.000572205,0.0123978,-0.00102997,0.019722,-0.00946045,0.0167465,0.00679016
7,8,7.42482,-0.000610352,0.0012207,-2.42745,0.0559862,-0.0753682,0.0544332,0.0813463,-0.0916206,0.146539,-0.12363,-0.0837911,0.0125885,0.0255585,0.0162506,0.0190735,0.0224304,0.0144958,0.022049,0.0193024,-9.97986,0.0094986,-0.00343323,0.00881195,0.000267029,0.0141144,-0.00392914,0.0149155,0.00396729
7,9,10.0097,0,0.00228882,-2.42684,0.0550706,-0.0762837,0.0486348,0.110948,-0.0891792,0.145013,-0.12363,-0.0847066,0.0127029,0.0275803,0.0154114,0.019455,0.0205612,0.0123978,0.0188828,0.0193405,-9.97986,0.020752,-0.00038147,0.0111771,0.00175476,0.0151443,0.00255585,0.0144196,0.00774384
8,0,10.0097,0.000915527,0.00137329,-2.42837,0.0538499,-0.0771993,0.0516866,0.0865343,-0.0961982,0.142877,-0.126377,-0.0865377,0.00995636,0.0279999,0.0176239,0.0187302,0.0193024,0.0109863,0.0203323,0.0211716,-9.97986,0.014534,-7.62939e-005,0.0130081,0.0037384,0.0125122,3.8147e-005,0.0122833,0.00675201
8,1,10.0097,0.00152588,0.000152588,-2.42928,0.0550706,-0.0765889,0.0519917,0.0764635,-0.0971137,0.142877,-0.126682,-0.0862325,0.00946045,0.0269318,0.0139236,0.0156784,0.018959,0.0102234,0.0198746,0.0182724,-9.97986,0.0167084,0.00209808,0.014267,0.00537872,0.0151825,0.00324249,0.0132751,0.00511169
8,2,10.0097,-0.00183105,-0.000610352,-2.42898,0.0526292,-0.0759786,0.0526021,0.0709703,-0.0955879,0.142877,-0.127903,-0.0865377,0.0113297,0.0265121,0.0142288,0.0162888,0.0165939,0.00740051,0.0175095,0.0218201,-9.97986,0.0115204,0.00137329,0.0148773,0.00354767,0.00926971,0.0118256,0.0141907,0.0063324
8,3,10.0097,0.000305176,0.000152588,-2.42959,0.0532396,-0.0762837,0.0522969,0.0691393,-0.0949775,0.143792,-0.128513,-0.0874532,0.0137711,0.025444,0.0143814,0.015831,0.017662,0.0119781,0.0222015,0.0208282,-9.97986,0.013237,0.00087738,0.00919342,0.00587463,0.0133514,0.0121689,0.016098,0.00846863
8,4,10.0097,0.00183105,-0.000305176,-2.42928,0.0535448,-0.0759786,0.0526021,0.0679186,-0.0946723,0.141656,-0.126987,-0.0862325,0.00480652,0.0246429,0.0130844,0.0145721,0.0200272,0.00919342,0.0225067,0.0203323,-9.97986,0.0100708,-0.00579834,0.0127029,0.000991821,0.0178909,0.00869751,0.0171661,0.0107574
8,5,10.0097,0,0.000610352,-2.42806,0.0535448,-0.0753682,0.0519917,0.07036,-0.0952827,0.142877,-0.127598,-0.0859274,0.0124741,0.0219727,0.0186539,0.0162506,0.0138474,0.0119019,0.0183487,0.0165176,-9.97986,0.0143433,-0.0056839,0.0126648,0.00179291,0.0126266,0.00167847,0.0176239,0.00953674
8,6,10.0097,0.000915527,0.000610352,-2.42745,0.0544603,-0.0735371,0.054128,0.0691393,-0.0925361,0.144403,-0.128513,-0.0859274,0.0104904,0.0257874,0.0209427,0.0145721,0.0170135,0.00873566,0.0204086,0.0125122,-9.97986,0.0141144,-0.000114441,0.015564,0.00415802,0.0142288,-0.000915527,0.0135803,0.00915527
8,7,10.0097,0,0.000305176,-2.42684,0.0553758,-0.0744527,0.0532125,0.0715807,-0.0931465,0.143487,-0.126072,-0.0844015,0.0105286,0.0214386,0.0186157,0.0122833,0.0185776,0.0102997,0.0196838,0.0134277,-9.97986,0.0144958,-0.000228882,0.0151825,0.0037384,0.0151062,0.00370026,0.0184631,0.0116348
8,8,10.0097,0.00152588,0.000152588,-2.42623,0.0547655,-0.0756734,0.0553487,0.07036,-0.0931465,0.144098,-0.124851,-0.0840963,0.0105667,0.0193405,0.0185013,0.00617981,0.0165176,0.013504,0.019989,0.0147247,-9.97986,0.0125885,-0.00213623,0.0149536,0.00602722,0.0111389,0.00133514,0.0174332,0.0082016
8,9,10.0097,-0.000305176,0,-2.4244,0.0559862,-0.0735371,0.0547383,0.0712755,-0.0931465,0.147455,-0.128208,-0.0816549,0.010376,0.0223923,0.0152969,-0.00656128,0.0174713,0.00667572,0.0192261,0.0137329,-9.97986,0.0140381,-0.00431061,0.00919342,0.00385284,0.0131607,0.00408173,0.0116348,0.00713348
9,0,10.0097,0,0.000305176,-2.42592,0.055681,-0.0735371,0.0550435,0.0709703,-0.0928413,0.142572,-0.123935,-0.0813497,0.0147247,0.0200272,0.0210571,-0.00854492,0.0162888,0.00808716,0.0165939,0.0193024,-9.97986,0.0147247,-0.00038147,0.0100708,0.00469208,0.0144958,0.00671387,0.0155258,0.00637054
9,1,10.0097,0,0.000457764,-2.4244,0.0562914,-0.073232,0.0568746,0.0709703,-0.0922309,0.146844,-0.124851,-0.0816549,0.00984192,0.0219345,0.0121307,-0.0141907,0.0175858,0.00717163,0.0225067,0.018425,-9.97986,0.0114822,-0.00148773,0.00629425,0.00579834,0.0170517,0.00762939,0.0142288,0.00808716
9,2,10.0097,0.000915527,0.000152588,-2.42501,0.055681,-0.0735371,0.0544332,0.0731066,-0.0900947,0.146844,-0.126987,-0.0804342,0.0117111,0.018425,0.0191498,-0.00923157,0.0171661,0.0115967,0.0208282,0.0218582,-9.97986,0.0141525,-0.0012207,0.0128174,0.00400543,0.0179672,0.00385284,0.0156021,0.00797272
9,3,10.0097,-0.000305176,0.000305176,-2.42592,0.0550706,-0.0744527,0.0535176,0.0602892,-0.0937568,0.146844,-0.124851,-0.0825704,0.01194,0.0272369,0.0217819,-0.0152969,0.0200272,0.00785828,0.0292587,0.028801,-9.97986,0.0135422,-0.00297546,0.0192642,0.00553131,0.0130081,-0.00457764,0.0135422,0.00679016
9,4,9.91689,0.000305176,-0.00244141,-2.42562,0.0562914,-0.0747579,0.0556539,0.0346544,-0.0952827,0.146844,-0.127292,-0.0822652,0.00919342,0.0260925,0.0246048,-0.0211334,0.0228119,0.00713348,0.0309372,0.0299454,-9.97986,0.0094223,-0.00495911,0.0170517,-0.00106812,0.0177383,-0.00453949,0.0147247,0.00507355
9,5,7.60396,0.000915527,-0.000305176,-2.42562,0.0553758,-0.0738423,0.0550435,0.0486925,-0.0925361,0.145318,-0.126072,-0.0819601,0.01091,0.0244522,0.0289536,-0.0353241,0.0167084,0.0148773,0.029068,0.0305557,-9.97986,0.00995636,-0.00282288,0.0108337,0.00659943,0.0223541,-0.0037384,0.019455,0.00705719
9,6,6.85079,0.000305176,0,-2.42562,0.0559862,-0.0735371,0.0556539,0.059984,-0.0931465,0.143792,-0.126987,-0.0825704,0.0104523,0.0299454,0.0244141,-0.0348663,0.0163651,0.00980377,0.0314331,0.029068,-9.97986,0.0111771,0.00125885,0.0154495,0.0056839,0.0224304,-0.00328064,0.0214386,0.00461578
9,7,6.80806,0.00183105,0.00198364,-2.42623,0.0553758,-0.0753682,0.0574849,0.067003,-0.0931465,0.145624,-0.125766,-0.0831808,0.0147629,0.0347519,0.0279236,-0.0421524,0.016861,0.0101089,0.0338364,0.0318909,-9.97986,0.00694275,-0.00556946,0.0148773,0.000152588,0.018692,-0.00377655,0.0196075,0.00228882
9,8,7.46694,-0.0012207,0.00137329,-2.42684,0.055681,-0.0765889,0.0538228,0.0813463,-0.0919257,0.145624,-0.129429,-0.0831808,0.0149536,0.043602,0.0324631,-0.0557709,0.0159454,0.0110245,0.028038,0.0318146,-9.97986,0.00484467,0.000343323,0.0112915,0.00648499,0.0183487,-0.0118637,0.018692,0.00564575
9,9,10.0097,0.000610352,0.00259399,-2.42684,0.0553758,-0.0756734,0.0550435,0.112169,-0.0885688,0.147149,-0.123935,-0.0840963,0.0130844,0.0444794,0.0328445,-0.0537491,0.0230026,0.0108337,0.0285721,0.030098,-9.97986,0.00522614,-0.00350952,0.0137711,0.00518799,0.0185394,-0.00457764,0.0205994,0.00576019
10,0,10.0097,-0.000610352,0.00259399,-2.42959,0.0544603,-0.0762837,0.0522969,0.0874498,-0.0943672,0.144708,-0.126377,-0.0865377,0.016098,0.0362015,0.0379944,-0.0341415,0.019989,0.00865936,0.0268173,0.0311661,-9.97986,0.00312805,-0.00167847,0.0162506,0.00602722,0.0191879,0.000991821,0.0188446,0.00572205
10,1,10.0097,-0.000915527,0.000305176,-2.42989,0.0538499,-0.0781148,0.0522969,0.0764635,-0.095893,0.144098,-0.123935,-0.0871481,0.0130463,0.0409698,0.0460052,-0.0290298,0.0209045,0.0087738,0.0261307,0.0275803,-9.97986,0.00396729,-0.00236511,0.0157928,0.0075531,0.0137329,0.00488281,0.0195313,0.00709534
10,2,10.0097,0,0.000152588,-2.42989,0.0538499,-0.0762837,0.0519917,0.0706652,-0.0971137,0.145013,-0.127292,-0.0868429,0.00934601,0.0384903,0.0495911,-0.0460052,0.0201797,0.00556946,0.0217438,0.0262451,-9.97986,0.00377655,-0.00392914,0.0189972,0.00514984,0.0169754,0.00602722,0.0172424,0.00804901
10,3,10.0097,0.000305176,0,-2.42837,0.0535448,-0.0762837,0.0532125,0.07036,-0.0946723,0.142572,-0.127292,-0.0880636,0.00850677,0.0243759,0.050087,-0.0609207,0.0208282,0.0119781,0.0236511,0.0177765,-9.97986,0.00564575,-0.000915527,0.0138855,0.0062561,0.0190353,0.00835419,0.0205612,0.00682831
10,4,10.0097,-0.000610352,-0.000610352,-2.42898,0.0535448,-0.0771993,0.0522969,0.0688341,-0.0955879,0.143792,-0.125766,-0.0874532,0.00934601,0.0233841,0.0499725,-0.0720596,0.021019,0.00995636,0.0217056,0.00259399,-9.97986,0.00556946,0.00087738,0.0163651,0.00644684,0.0152969,0.00415802,0.0193787,0.00522614
10,5,10.0097,0.000305176,0,-2.42745,0.0535448,-0.0753682,0.0519917,0.0682238,-0.0934516,0.14013,-0.126987,-0.0856222,0.0159073,0.0286484,0.0411224,-0.0851059,0.0199509,0.00938416,0.0225067,-0.0109482,-9.97986,0.0105286,0.00160217,0.0161743,0.0063324,0.0130081,0.00404358,0.0225449,0.00492096
10,6,10.0097,0.000305176,0.000305176,-2.42867,0.0553758,-0.075063,0.0538228,0.0697496,-0.0946723,0.144403,-0.124851,-0.0859274,0.0088501,0.041008,0.046463,-0.0293732,0.025444,0.0110626,0.0229645,-0.0135422,-9.97986,0.00999451,0.000305176,0.0128555,0.00679016,0.0146484,0.00171661,0.020752,0.00656128
10,7,10.0097,0.000305176,0.000152588,-2.42684,0.0538499,-0.0744527,0.054128,0.0700548,-0.0934516,0.145013,-0.127903,-0.0844015,0.0108719,0.0520706,0.0559998,0.0030899,0.0242996,0.00743866,0.0185776,-0.0123596,-9.97986,0.0137711,-0.00171661,0.0115585,0.00724792,0.0145721,0.00144958,0.0187683,0.00732422
10,8,10.0097,-0.00183105,0.000610352,-2.42653,0.0553758,-0.0747579,0.054128,0.07036,-0.0934516,0.145929,-0.124241,-0.0837911,0.0115967,0.0242233,0.0566864,0.015831,0.0240326,0.0118637,0.0251007,-0.00350952,-9.97986,0.012207,-0.000839233,0.0180817,0.00774384,0.0125504,0.000419617,0.0167084,0.00740051
10,9,10.0097,0.00183105,0,-2.42531,0.0562914,-0.073232,0.0556539,0.0712755,-0.0910102,0.146234,-0.124241,-0.0813497,0.0117493,-0.013504,0.0567627,0.109291,0.0241089,0.00305176,0.0231171,-0.00595093,-9.97986,0.0169373,-0.00217438,0.0163651,0.00999451,0.0138092,-0.00217438,0.018959,0.00694275
11,0,10.0097,-0.000915527,0.00106812,-2.42531,0.055681,-0.0704854,0.0547383,0.0709703,-0.0916206,0.147455,-0.122104,-0.0807394,0.0139618,-0.014267,0.0589752,0.160522,0.0254059,0.0154114,0.0206757,-0.00152588,-9.97986,0.0194168,-0.00183105,0.018692,0.0094986,0.0175095,-0.000152588,0.0210953,0.00602722
11,1,10.0097,0.000915527,0,-2.42592,0.0559862,-0.0744527,0.0544332,0.0718859,-0.0919257,0.151117,-0.123935,-0.0810445,0.00701904,0.00778198,0.0400925,0.174599,0.0219345,0.0104523,0.0212097,0.00782013,-9.97986,0.0228119,-0.00404358,0.0138855,0.0050354,0.0117111,0.00133514,0.018158,0.00656128
11,2,10.0097,-0.0012207,-0.000152588,-2.42409,0.0553758,-0.0741475,0.0553487,0.0718859,-0.0919257,0.146844,-0.124546,-0.0810445,0.00812531,0.0264359,0.0204468,0.181694,0.0236893,0.0142288,0.021286,0.0119781,-9.97986,0.0307083,-0.00606537,0.0135803,0.0130844,0.0159836,0.00556946,0.0211716,0.00717163
11,3,10.0097,-0.000610352,0.000305176,-2.42623,0.0562914,-0.0741475,0.0538228,0.058153,-0.0934516,0.145929,-0.126072,-0.0816549,0.00850677,0.0284195,-0.0117493,0.161858,0.0215912,0.00934601,0.0206375,0.0113297,-9.97986,0.032196,0.000343323,0.0185013,0.0114822,0.0182724,0.00663757,0.0196075,0.00591278
11,4,9.78108,-0.000305176,-0.0012207,-2.42623,0.0569017,-0.073232,0.0532125,0.0355699,-0.0955879,0.147149,-0.126377,-0.0825704,0.00354767,0.0172424,-0.0322342,0.145645,0.0185394,0.0117493,0.0183487,0.0155258,-9.97986,0.0400543,-0.00366211,0.0177765,0.00930786,0.0159073,-0.000495911,0.0177002,0.00377655
11,5,7.4471,0.00183105,-0.00137329,-2.42592,0.0565965,-0.0735371,0.0550435,0.0465563,-0.0928413,0.145624,-0.126682,-0.0816549,0.00522614,0.0162888,-0.0351715,0.128975,0.0165939,0.00900269,0.0204086,0.0175476,-9.97986,0.0366211,-0.00156403,0.0188828,0.0123596,0.0157547,-0.000305176,0.0191116,0.0069809
11,6,6.6628,-0.000305176,-0.000152588,-2.42592,0.0559862,-0.080251,0.0544332,0.0587633,-0.090705,0.146234,-0.126987,-0.0816549,0.00499725,0.0112152,-0.0335312,0.111389,0.0188828,0.0112915,0.0194168,0.0159836,-9.97986,0.0298309,0.00499725,0.0170517,0.0128937,0.0182343,-0.00144958,0.0198746,0.00679016
11,7,6.67043,0.000610352,-0.000457764,-2.42623,0.0550706,-0.075063,0.0544332,0.0657823,-0.0913154,0.144403,-0.126072,-0.0825704,0.00827789,0.00747681,-0.0339127,0.0992966,0.0206757,0.0115204,0.0231171,0.0188828,-9.97986,0.0300598,0.000762939,0.0159073,0.00976563,0.0141907,-0.00724792,0.0189972,0.00427246
11,8,7.30092,0.00183105,0.00137329,-2.42592,0.0547655,-0.075063,0.0556539,0.0795153,-0.090705,0.145013,-0.125156,-0.0828756,0.00434875,0.00831604,-0.0397873,0.0833893,0.0206757,0.012207,0.0186539,0.0202179,-9.97986,0.0352859,-0.00164032,0.0167847,0.0122833,0.0187302,-0.00366211,0.0204468,0.00843048
11,9,10.0097,0.000305176,0.0012207,-2.42806,0.0550706,-0.0790303,0.0550435,0.111864,-0.0882636,0.144403,-0.124546,-0.0840963,0.00335693,0.00297546,-0.0424957,0.0765228,0.0185394,0.00965118,0.017662,0.011673,-9.97986,0.0260544,-0.000495911,0.0159073,0.00968933,0.01297,-0.0136566,0.0187302,0.00606537
12,0,10.0097,-0.000305176,0.0012207,-2.42837,0.0535448,-0.0771993,0.0526021,0.0886705,-0.0943672,0.146844,-0.125766,-0.0868429,0.00740051,0.00789642,-0.0485992,0.0666809,0.0188446,0.0114822,0.0220108,0.0143814,-9.97986,0.0280762,0.000534058,0.0177383,0.00873566,0.0160599,-0.0158691,0.0164795,0.0082016
12,1,10.0097,-0.000305176,0.000457764,-2.42867,0.0532396,-0.0753682,0.0526021,0.0767687,-0.0946723,0.143792,-0.125766,-0.0868429,0.00965118,0.00576019,-0.043869,0.0571442,0.0164413,0.0102234,0.0208664,0.0176239,-9.97986,0.0259399,-0.000114441,0.0164032,0.010643,0.0193787,-0.0142288,0.018425,0.00751495
12,2,10.0097,0.000915527,-0.000152588,-2.42928,0.0541551,-0.0826924,0.0532125,0.0715807,-0.0955879,0.144098,-0.127903,-0.0871481,0.00663757,0.00602722,-0.0333405,0.0417709,0.0180054,0.0131607,0.0191879,0.0134659,-9.97986,0.022583,0.00205994,0.018158,0.00965118,0.0161743,-0.00747681,0.0181198,0.00980377
12,3,10.0097,-0.000305176,0.000457764,-2.42928,0.0544603,-0.0762837,0.0519917,0.0709703,-0.0955879,0.143182,-0.126987,-0.0874532,0.00896454,-0.00225067,-0.0291061,0.0416946,0.019455,0.0106049,0.0218201,0.0177002,-9.97986,0.0234604,0.00312805,0.0185013,0.0112152,0.0178909,-0.00675201,0.0193787,0.010376
12,4,10.0097,-0.000610352,-0.000457764,-2.4302,0.0538499,-0.0753682,0.0535176,0.0694445,-0.094062,0.143792,-0.127598,-0.0868429,0.0110626,0.00701904,-0.0286484,0.0375748,0.0221634,0.0135422,0.0163651,0.0149918,-9.97986,0.0225449,0,0.0181198,0.0056076,0.0168991,0.00144958,0.0187302,0.00442505
12,5,10.0097,0.000305176,0,-2.42806,0.0529344,-0.0787251,0.0529073,0.0691393,-0.0925361,0.144403,-0.126987,-0.085317,0.00900269,0.00602722,-0.0221252,0.0320435,0.0309753,0.0151062,0.0194168,0.017128,-9.97986,0.021286,0.0012207,0.017128,0.00751495,0.0193024,0.00370026,0.0175476,0.00881195
12,6,10.0097,-0.00152588,-0.000152588,-2.42745,0.0544603,-0.0756734,0.0526021,0.0697496,-0.0913154,0.145013,-0.126377,-0.085317,0.00923157,0.00537872,-0.010376,0.0240707,0.0268555,0.0128555,0.0157166,0.0205612,-9.97986,0.0252533,0.000839233,0.0172424,0.0105667,0.0194931,-0.000610352,0.0196457,0.0104141
12,7,10.0097,-0.000610352,0.00106812,-2.42837,0.055681,-0.0747579,0.0535176,0.0691393,-0.0928413,0.146234,-0.125766,-0.0837911,0.00946045,0.00514984,-0.00278473,0.0249863,0.0291824,0.00713348,0.0222015,0.0172806,-9.97986,0.0182343,-0.00278473,0.0162125,0.0105667,0.0164795,-0.000686646,0.0212479,0.00614166
12,8,10.0097,0.00213623,0.00106812,-2.42653,0.0547655,-0.0726216,0.0532125,0.0697496,-0.0919257,0.146234,-0.125156,-0.0831808,0.0110626,0.0102234,-0.00335693,0.0228882,0.0232697,0.0120544,0.0227356,0.0165558,-9.97986,0.0178909,0.00244141,0.0188446,0.00747681,0.0121307,-0.00389099,0.0204468,0.0104141
12,9,10.0097,0.000610352,0,-2.42501,0.0569017,-0.073232,0.0547383,0.0706652,-0.0928413,0.150812,-0.125156,-0.0813497,0.00869751,0.011673,0.00377655,0.0180817,0.0182724,0.00965118,0.021019,0.0163269,-9.97986,0.0148773,-0.000343323,0.0145721,0.00579834,0.0154877,-0.00988007,0.0169373,0.00648499
13,0,10.0097,-0.000305176,-0.000305176,-2.42562,0.0575121,-0.0741475,0.054128,0.0709703,-0.0925361,0.147149,-0.124241,-0.0804342,0.0107193,0.0153351,0.0110626,0.0117111,0.0220108,0.0130844,0.0191498,0.0191116,-9.97986,0.0122833,-0.00377655,0.0122833,0.00743866,0.0144196,-0.0120544,0.0202179,0.00762939
13,1,10.0097,0.000610352,-0.000610352,-2.42562,0.0562914,-0.0729268,0.0553487,0.0712755,-0.0922309,0.146844,-0.124546,-0.0822652,0.0120926,0.0157547,0.0122452,0.00183105,0.0188446,0.0134659,0.0136948,0.0177765,-9.97986,0.0163269,0.000572205,0.0167465,0.0105286,0.0172043,-0.0120926,0.0219345,0.00785828
13,2,10.0097,0.000915527,0.000610352,-2.4244,0.0581224,-0.0723164,0.055959,0.0712755,-0.0919257,0.151117,-0.123935,-0.0813497,0.0117111,0.0170517,0.0127029,0.0069046,0.0206757,0.0087738,0.0128555,0.0163651,-9.97986,0.0144958,0.000572205,0.0157928,0.0111771,0.0135803,-0.0170517,0.018959,0.00263214
13,3,10.0097,-0.000610352,0.00106812,-2.42623,0.0553758,-0.0747579,0.0535176,0.0572374,-0.0937568,0.145013,-0.125766,-0.0813497,0.0133133,0.0180817,0.0178146,0.000953674,0.0193787,0.00713348,0.0157928,0.0183868,-9.97986,0.016861,0.00221252,0.0160217,0.0100327,0.0131607,-0.0170898,0.0174332,0.00873566
13,4,9.90041,-0.000305176,-0.00137329,-2.42592,0.0572069,-0.0744527,0.0535176,0.0361803,-0.094062,0.146539,-0.125766,-0.0822652,0.0105667,0.0170517,0.0161362,0.000572205,0.0194931,0.013237,0.0155258,0.0196838,-9.97986,0.01297,-0.000991821,0.0121307,0.00541687,0.0115967,-0.015831,0.0174713,0.00972748
13,5,7.57131,0.000610352,-0.000610352,-2.42653,0.0562914,-0.0765889,0.0553487,0.0499132,-0.0928413,0.142877,-0.126987,-0.0828756,0.0156021,0.0201416,0.0194168,-0.00549316,0.0190353,0.0115967,0.0122833,0.0179672,-9.97986,0.014534,0.00213623,0.0188065,0.0103378,0.0127029,-0.0125885,0.0191498,0.00984192
13,6,6.83003,0.000610352,-0.000457764,-2.42684,0.0550706,-0.0738423,0.0553487,0.0596788,-0.0916206,0.145318,-0.126072,-0.0825704,0.0145721,0.0229263,0.020752,-0.00648499,0.0162125,0.00843048,0.0110626,0.0185394,-9.97986,0.017662,0.000343323,0.0170135,0.00507355,0.0150299,-0.0170898,0.0176239,0.00808716
13,7,6.8221,-0.000610352,-0.000152588,-2.42623,0.0553758,-0.0759786,0.0547383,0.0673082,-0.0922309,0.145624,-0.125766,-0.0819601,0.0115585,0.0275803,0.0218201,-0.00629425,0.0162506,0.0110626,0.0165176,0.019455,-9.97986,0.0114441,0.00114441,0.0149918,0.00915527,0.0125122,-0.0148773,0.0176239,0.0100708
13,8,7.48616,0,0,-2.42714,0.0562914,-0.0741475,0.0535176,0.0819567,-0.0913154,0.144403,-0.124851,-0.0831808,0.00904083,0.0225449,0.0243759,-0.0125885,0.0148773,0.0107193,0.0169754,0.0149918,-9.97986,0.014534,-0.000686646,0.0144196,0.00385284,0.0112915,-0.013237,0.0167465,0.00728607
13,9,10.0097,0.000610352,0.000152588,-2.42714,0.0544603,-0.0747579,0.0544332,0.112779,-0.088874,0.144403,-0.123935,-0.0840963,0.0123596,0.0252151,0.0292206,-0.0101852,0.0193787,0.0114822,0.0224686,0.016098,-9.97986,0.00972748,-0.00205994,0.0157928,0.00679016,0.0164032,-0.00598907,0.0186539,0.00984192
14,0,10.0097,-0.000610352,0.00106812,-2.42989,0.0526292,-0.0771993,0.0513814,0.0853136,-0.0955879,0.143487,-0.125766,-0.0871481,0.0108719,0.0263214,0.0307465,-0.010376,0.0165558,0.0127792,0.0233078,0.0173569,-9.97986,0.011673,-0.00453949,0.0154877,0.00545502,0.0184631,-0.00541687,0.0150299,0.00782013
14,1,10.0097,0,0.000305176,-2.42959,0.0541551,-0.0759786,0.0513814,0.0752428,-0.095893,0.145929,-0.126377,-0.0862325,0.00892639,0.0234985,0.0293732,-0.0154495,0.0117874,0.0142288,0.0226593,0.0158691,-9.97986,0.0123215,-0.00259399,0.0163269,0.0082016,0.0191498,-0.00343323,0.0139999,0.00709534
14,2,10.0097,-0.000915527,-0.000610352,-2.42959,0.0529344,-0.0762837,0.0532125,0.0718859,-0.0955879,0.143487,-0.126987,-0.0874532,0.00804901,0.0257111,0.0287628,-0.0140381,0.00934601,0.0113678,0.0247955,0.0165939,-9.97986,0.0142288,-0.00202179,0.0154877,0.00591278,0.0213623,-0.00274658,0.0148392,0.00526428
14,3,10.0097,-0.000610352,0,-2.42867,0.0535448,-0.0747579,0.0519917,0.0694445,-0.0961982,0.144098,-0.126987,-0.0865377,0.0121689,0.0309753,0.0317383,-0.0188065,0.00881195,0.0157166,0.0283813,0.0184631,-9.97986,0.0140381,0.00228882,0.0159836,0.0056076,0.0186157,0.00228882,0.0167847,0.00247955
14,4,10.0097,-0.000915527,-0.000152588,-2.42928,0.0535448,-0.0756734,0.0510762,0.0694445,-0.0943672,0.144403,-0.126682,-0.0862325,0.00938416,0.0287628,0.0314331,-0.0160217,0.01091,0.0131989,0.0281525,0.0246048,-9.97986,0.0101471,-0.00335693,0.0106812,0.00526428,0.0188828,0.00282288,0.01297,0.0038147
14,5,10.0097,0.000305176,0.000610352,-2.42837,0.0541551,-0.0762837,0.054128,0.0685289,-0.0937568,0.144403,-0.126987,-0.085317,0.00988007,0.0314331,0.0364685,-0.0144196,0.0138855,0.0131989,0.0262451,0.0189972,-9.97986,0.00610352,-0.00408173,0.0138092,0.00801086,0.0181961,0.00514984,0.0141144,0.00400543
14,6,10.0097,-0.000915527,0.000152588,-2.42806,0.0553758,-0.0756734,0.0532125,0.0688341,-0.0937568,0.144403,-0.126072,-0.0847066,0.0114822,0.0326538,0.0350571,-0.014801,0.00751495,0.0102997,0.0244522,0.0209045,-9.97986,0.0075531,0.00289917,0.0147247,0.00473022,0.0157547,0.00537872,0.0188065,0.00431061
14,7,10.0097,-0.000305176,-0.000152588,-2.42745,0.0562914,-0.075063,0.0538228,0.07036,-0.094062,0.145013,-0.126377,-0.0834859,0.0104523,0.0304794,0.0370026,-0.0181961,0.0102234,0.00968933,0.0232315,0.0189209,-9.97986,0.0094223,-0.00198364,0.014267,0.00724792,0.0233459,0.00164032,0.0127411,0.00720978
14,8,10.0097,-0.000915527,0.000610352,-2.42714,0.0562914,-0.0744527,0.0535176,0.0697496,-0.0925361,0.145929,-0.124851,-0.0825704,0.00995636,0.0345612,0.0373077,-0.0140381,0.0128937,0.0159836,0.0239944,0.01297,-9.97986,0.0109863,-0.00431061,0.0150299,0.00999451,0.0156021,7.62939e-005,0.017662,0.00324249
14,9,10.0097,0.00305176,0.000305176,-2.42501,0.0562914,-0.0759786,0.0553487,0.07036,-0.0919257,0.145624,-0.124546,-0.0819601,0.0142288,0.0414658,0.0368881,-0.00946045,0.0134659,0.01194,0.0243759,0.0145721,-9.97986,0.0113678,0.000801086,0.0152969,0.0088501,0.017128,-0.00244141,0.0151825,0.00175476
15,0,10.0097,-0.000915527,0.000305176,-2.4244,0.0565965,-0.073232,0.0538228,0.072191,-0.0913154,0.145929,-0.125156,-0.0816549,0.0136185,0.043869,0.0328064,-0.0150681,0.0101852,0.0114441,0.0274277,0.0233841,-9.97986,0.0108337,0.00125885,0.0127411,0.0104523,0.0174713,-0.000953674,0.0185394,0.00495911
15,1,10.0097,0.000610352,0.000457764,-2.42562,0.0562914,-0.0738423,0.0547383,0.0709703,-0.0919257,0.147455,-0.12363,-0.0810445,0.00972748,0.0349426,0.0364304,-0.0151825,0.00778198,0.014534,0.0249481,0.0197601,-9.97986,0.0123978,-0.000343323,0.0179672,0.00915527,0.0210571,-0.00312805,0.0182343,0.00350952
15,2,10.0097,0,-0.000152588,-2.4247,0.0565965,-0.0735371,0.0556539,0.0718859,-0.0913154,0.146844,-0.125156,-0.0810445,0.013504,0.0388336,0.0340271,-0.0149918,0.0148392,0.0137711,0.0265121,0.0156403,-9.97986,0.0110626,0.00274658,0.0166702,0.0105286,0.0180054,-0.0056076,0.0160599,0.00278473
15,3,10.0097,-0.000610352,0,-2.42623,0.0565965,-0.0747579,0.0538228,0.0584581,-0.0943672,0.147455,-0.125461,-0.0813497,0.00915527,0.0391769,0.0345612,-0.0226593,0.0134277,0.0115585,0.0264359,0.0192642,-9.97986,0.00976563,-0.000457764,0.0110245,0.00423431,0.0144577,-0.00606537,0.0146866,0.00385284
15,4,9.85463,-0.000610352,-0.00106812,-2.42653,0.0569017,-0.0735371,0.054128,0.0343492,-0.0955879,0.146539,-0.126377,-0.0816549,0.0120163,0.0312805,0.0329208,-0.0180435,0.0157166,0.0125504,0.0206757,0.0153732,-9.97986,0.0112915,0.00278473,0.0165558,0.0114441,0.0171661,-0.00751495,0.0155258,0.00839233
15,5,7.49898,-0.00152588,-0.00137329,-2.4247,0.0553758,-0.0747579,0.0547383,0.0483873,-0.0919257,0.146234,-0.126987,-0.0825704,0.0114822,0.0265121,0.0224686,-0.00694275,0.0128555,0.0125885,0.0226593,0.014267,-9.97986,0.012207,0.00389099,0.00984192,0.00595093,0.0195313,-0.0153351,0.0138474,0.00282288
15,6,6.73604,-0.00152588,-0.000305176,-2.42562,0.0553758,-0.0729268,0.0544332,0.0587633,-0.0913154,0.146844,-0.124851,-0.0825704,0.01091,0.0214767,0.0247192,-0.00728607,0.0151825,0.0122833,0.0229263,0.0153732,-9.97986,0.0146484,-0.00167847,0.0136566,0.00782013,0.0149918,-0.0131607,0.0117493,0.00854492
15,7,6.71254,0.000305176,0.000152588,-2.42653,0.0550706,-0.0738423,0.0544332,0.0688341,-0.0922309,0.145929,-0.124851,-0.0828756,0.0114822,0.0244522,0.0273514,-0.00854492,0.0152206,0.0143814,0.0247574,0.0156403,-9.97986,0.0117111,0.0038147,0.0144958,0.00972748,0.0179291,-0.011673,0.0139618,0.00453949
15,8,7.35341,-0.00183105,0.000305176,-2.42653,0.0559862,-0.0756734,0.054128,0.080736,-0.090705,0.144708,-0.125156,-0.0822652,0.0123978,0.0162125,0.021019,-0.00514984,0.0135422,0.0087738,0.022049,0.0159836,-9.97986,0.0167847,0.0025177,0.0107574,0.00442505,0.0154495,-0.00980377,0.0143814,0.00526428
15,9,10.0097,0.000610352,0.00167847,-2.42714,0.0538499,-0.075063,0.0553487,0.109422,-0.0897895,0.14776,-0.124241,-0.0847066,0.0141525,0.0187302,0.019722,-0.0069046,0.0149536,0.0108719,0.0239182,0.0207901,-9.97986,0.0157166,0.000534058,0.0125504,0.00827789,0.0157166,-0.00934601,0.0151825,0.00602722
16,0,10.0097,-0.000915527,0.00152588,-2.42898,0.0541551,-0.0759786,0.0513814,0.0859239,-0.0952827,0.142267,-0.126377,-0.0871481,0.0112534,0.0219727,0.0199127,-0.00320435,0.0109482,0.00892639,0.0252533,0.020256,-9.97986,0.0114441,0.00110626,0.0175858,0.00354767,0.0143051,-0.0019455,0.0118637,0.00495911
16,1,10.0097,0,0.000610352,-2.42898,0.0535448,-0.075063,0.0513814,0.0746324,-0.0949775,0.143487,-0.126987,-0.0868429,0.0126648,0.02388,0.0256729,-0.00434875,0.016098,0.0143051,0.0208664,0.0174713,-9.97986,0.0162506,-0.00362396,0.0153351,0.00816345,0.0155258,0.000152588,0.0131226,0.00759125
16,2,10.0097,-0.00213623,-0.000305176,-2.43081,0.0532396,-0.0756734,0.050771,0.0712755,-0.0952827,0.145013,-0.127903,-0.0865377,0.00759125,0.0239944,0.0224686,-0.00598907,0.0149536,0.0113297,0.0172424,0.0205231,-9.97986,0.0113297,-0.00450134,0.0107956,0.0044632,0.0129318,-0.00205994,0.0122833,0.0062561
16,3,10.0097,0.000610352,-0.000152588,-2.42959,0.0541551,-0.0759786,0.0522969,0.0679186,-0.095893,0.143792,-0.127598,-0.0871481,0.0136185,0.0269318,0.0270844,-0.00686646,0.0130463,0.00946045,0.0175476,0.0162506,-9.97986,0.0137711,0.000610352,0.0167084,0.00549316,0.0123978,-0.00038147,0.0162506,0.00343323
16,4,10.0097,-0.000610352,0.000152588,-2.42837,0.0541551,-0.0756734,0.0513814,0.0679186,-0.0946723,0.143487,-0.126987,-0.085317,0.0135422,0.0289917,0.0241852,-0.0043869,0.0130081,0.0141525,0.0206375,0.0167084,-9.97986,0.0172424,-0.00118256,0.018692,0.00827789,0.0125885,-0.00205994,0.0102234,0.00869751
16,5,10.0097,0.000610352,-0.000152588,-2.42684,0.0541551,-0.0747579,0.0535176,0.0688341,-0.0943672,0.145013,-0.128513,-0.085317,0.0120544,0.0198746,0.0213623,-0.00286102,0.0152969,0.00656128,0.0186157,0.0214386,-9.97986,0.0168991,-0.000915527,0.0176239,0.00576019,0.0157166,-0.00484467,0.0136948,0.00537872
16,6,10.0097,0.000610352,0.000152588,-2.42684,0.0553758,-0.0753682,0.0529073,0.0712755,-0.0928413,0.145013,-0.127598,-0.0837911,0.0136948,0.0248718,0.0224304,-0.00442505,0.0232697,0.0101471,0.0231171,0.0153351,-9.97986,0.0111008,-3.8147e-005,0.0151443,0.00423431,0.0115967,0.0030899,0.0152588,0.00675201
16,7,10.0097,0.00305176,0.000610352,-2.42806,0.0547655,-0.0741475,0.0532125,0.0706652,-0.0928413,0.145013,-0.126072,-0.0859274,0.0128937,0.0292587,0.0254059,-0.00339508,0.0195313,0.0118637,0.0165939,0.0213623,-9.97986,0.014267,-0.000801086,0.0135422,0.00808716,0.0157547,-0.000801086,0.0113678,0.00873566
16,8,10.0097,-0.000305176,0.000305176,-2.43142,0.0559862,-0.0741475,0.0547383,0.07036,-0.0928413,0.144403,-0.126072,-0.0837911,0.0110245,0.0284195,0.0237274,-0.00366211,0.0157928,0.0120544,0.0192642,0.0196457,-9.97986,0.0138474,0.00125885,0.0169373,0.00423431,0.0130081,-0.00347137,0.0130463,0.00701904
16,9,10.0097,-0.000305176,-0.000152588,-2.42501,0.0565965,-0.0747579,0.0556539,0.0709703,-0.0919257,0.146539,-0.124241,-0.0807394,0.0104141,0.0304794,0.0237274,-0.00225067,0.0118256,0.00816345,0.0209427,0.0191116,-9.97986,0.00965118,0.00232697,0.0137711,0.00827789,0.0133896,-0.00400543,0.0166321,0.00530243
17,0,10.0097,0,0.000152588,-2.4247,0.0562914,-0.073232,0.0547383,0.072191,-0.0928413,0.145929,-0.124546,-0.0810445,0.011673,0.0257874,0.0260162,0.00148773,0.0147247,0.0120926,0.0191879,0.0205231,-9.97986,0.0135803,-0.000495911,0.0132751,0.00717163,0.0102615,-0.00263214,0.0123215,0.00976563
17,1,10.0097,0.00183105,-0.000152588,-2.42409,0.0562914,-0.0747579,0.0547383,0.0709703,-0.0922309,0.146234,-0.124241,-0.0807394,0.0104141,0.0270844,0.0250626,-3.8147e-005,0.0157928,0.00926971,0.0284576,0.0211716,-9.97986,0.0191498,-0.00545502,0.0177765,0.0056839,0.0190353,-0.00179291,0.0186157,0.0123215
17,2,10.0097,-0.000610352,0.000457764,-2.42531,0.0559862,-0.0738423,0.0544332,0.0697496,-0.0922309,0.146844,-0.124546,-0.0807394,0.0136948,0.0327682,0.0276184,0.00354767,0.0135803,0.0115204,0.0252151,0.0206375,-9.97986,0.0128555,0.000953674,0.0108719,0.00610352,0.0146866,-0.0031662,0.0160599,0.00728607
17,3,10.0097,0.000305176,0,-2.42623,0.0547655,-0.0756734,0.0532125,0.0593737,-0.094062,0.145624,-0.125461,-0.0822652,0.00789642,0.0257492,0.0247574,0.0044632,0.0110626,0.0111771,0.0198746,0.018959,-9.97986,0.00804901,0.00156403,0.0146866,0.0069046,0.0150681,0.000495911,0.0156403,0.00637054
17,4,9.85097,-0.00152588,-0.00198364,-2.42135,0.0572069,-0.0738423,0.0529073,0.0340441,-0.0961982,0.146234,-0.126377,-0.0819601,0.00972748,0.0255203,0.0236893,0.00492096,0.0146103,0.00747681,0.0230789,0.0162888,-9.97986,0.0100327,-0.00389099,0.0144196,0.00480652,0.0114441,-0.00648499,0.0120926,0.00576019
17,5,7.50569,-0.00152588,-0.000610352,-2.42653,0.0569017,-0.0747579,0.0550435,0.0483873,-0.0931465,0.145318,-0.126377,-0.0819601,0.0141144,0.022316,0.0237656,0.00564575,0.0164032,0.0148392,0.0219727,0.0214386,-9.97986,0.0126266,-0.00114441,0.0124741,0.00480652,0.013237,-0.00846863,0.0140762,0.00648499
17,6,6.78395,0.00183105,-0.000610352,-2.42531,0.0553758,-0.0738423,0.0544332,0.0593737,-0.0919257,0.145929,-0.125766,-0.0834859,0.013504,0.0273514,0.0234985,0.00709534,0.0139999,0.0101471,0.0275421,0.0188065,-9.97986,0.0156021,-0.00213623,0.0162888,0.00175476,0.0156784,-0.00617981,0.015831,0.00556946
17,7,6.76198,0,-0.000610352,-2.42196,0.0565965,-0.0744527,0.0553487,0.0676134,-0.0916206,0.145318,-0.125156,-0.0837911,0.0131226,0.0218201,0.0274658,0.00511169,0.00995636,0.00831604,0.0273895,0.0136566,-9.97986,0.0163269,0.000495911,0.0175858,0.00370026,0.0143433,-0.0104141,0.0144196,0.00392914
17,8,7.39583,0.000915527,0.000762939,-2.42684,0.0562914,-0.0753682,0.0544332,0.0822618,-0.0913154,0.144403,-0.125766,-0.0825704,0.00972748,0.0246048,0.0232315,0.00358582,0.0126648,0.0069046,0.0232697,0.0198364,-9.97986,0.0148392,0.00213623,0.0131989,0.00160217,0.0217438,-0.00980377,0.0156021,0.00610352
17,9,10.0097,0,0.00228882,-2.42745,0.0535448,-0.075063,0.055959,0.108812,-0.0891792,0.147149,-0.123935,-0.0859274,0.0117493,0.0244522,0.0221634,0.00816345,0.013237,0.0102234,0.0248718,0.0196838,-9.97986,0.013504,-0.000762939,0.0131226,0.00213623,0.0181961,-0.00934601,0.0145721,0.00400543
18,0,10.0097,-0.000610352,0.000762939,-2.42867,0.0529344,-0.075063,0.0513814,0.0871447,-0.0946723,0.142267,-0.126072,-0.0868429,0.00915527,0.0196075,0.021286,0.00659943,0.0139618,0.0156403,0.0257111,0.0212479,-9.97986,0.0105667,0.00244141,0.0178909,0.0050354,0.0208664,-0.00427246,0.0138474,0.00663757
18,1,10.0097,-0.00152588,0.000152588,-2.42898,0.0535448,-0.0765889,0.0522969,0.0758531,-0.0946723,0.145318,-0.127292,-0.0871481,0.0101089,0.0194931,0.0224686,0.00850677,0.0150299,0.00846863,0.0270081,0.0179291,-9.97986,0.0114059,-0.000648499,0.0187302,0.00366211,0.0164032,-0.00320435,0.0162506,0.00541687
18,2,10.0097,0.000610352,-0.000305176,-2.42959,0.0550706,-0.0775044,0.0522969,0.0715807,-0.0946723,0.143792,-0.127598,-0.0880636,0.00740051,0.0237274,0.0186539,0.00637054,0.0130081,0.00759125,0.0235748,0.0176239,-9.97986,0.00923157,-0.000648499,0.0156784,0.00461578,0.0170517,0.00526428,0.0148773,0.00846863
18,3,10.0097,0.000610352,-0.000305176,-2.4305,0.0532396,-0.0765889,0.050771,0.0697496,-0.0952827,0.144708,-0.128208,-0.0871481,0.0069809,0.0185394,0.0206757,0.00843048,0.0165176,0.00988007,0.0222778,0.0197983,-9.97986,0.0107574,-0.00324249,0.0139236,0.0018692,0.0193024,0.00350952,0.013504,0.00766754
18,4,10.0097,-0.000915527,0.000610352,-2.42989,0.0550706,-0.0756734,0.0516866,0.0682238,-0.094062,0.144098,-0.128818,-0.0868429,0.0168991,0.02491,0.0269699,0.00961304,0.0210953,0.0137711,0.0335693,0.0222015,-9.97986,0.0177383,0.00289917,0.0199509,0.00926971,0.0215149,0.00659943,0.0152969,0.0114822
18,5,10.0097,-0.00152588,-0.000152588,-2.42776,0.0553758,-0.0756734,0.0535176,0.0688341,-0.0931465,0.145013,-0.126682,-0.0868429,0.00705719,0.0136566,0.017662,0.00747681,0.00934601,0.00637054,0.0178146,0.0139618,-9.97986,0.00804901,-0.000572205,0.00865936,0.00495911,0.0138092,-0.00682831,0.0123978,0.00171661
18,6,10.0097,0.000610352,-0.000152588,-2.42928,0.0541551,-0.075063,0.0529073,0.0706652,-0.0931465,0.143487,-0.125766,-0.0837911,0.0151062,0.022583,0.0251007,0.0156021,0.017662,0.0143814,0.0268173,0.0213623,-9.97986,0.0135803,-0.00270844,0.0174332,0.00392914,0.0213623,-0.00110626,0.0141144,0.00694275
18,7,10.0097,0.0012207,-0.000305176,-2.42806,0.055681,-0.0747579,0.0532125,0.0700548,-0.0916206,0.145624,-0.126682,-0.0847066,0.0101471,0.0201035,0.0200653,0.0107193,0.0211334,0.0102997,0.022583,0.0179672,-9.97986,0.00812531,-0.00156403,0.0155258,0.0069809,0.0183868,-0.000839233,0.0110245,0.00728607
18,8,10.0097,0.000915527,-0.000457764,-2.42592,0.0544603,-0.0756734,0.0532125,0.07036,-0.0919257,0.145624,-0.125766,-0.0840963,0.0101089,0.0159073,0.0188446,0.0116348,0.0142288,0.0118637,0.0204849,0.0183105,-9.97986,0.01297,0.00179291,0.0150681,0.00579834,0.0185776,-0.000419617,0.0149155,0.00331879
18,9,10.0097,0.0012207,-0.000152588,-2.42501,0.055681,-0.0738423,0.055959,0.0718859,-0.0928413,0.145929,-0.124546,-0.0813497,0.0102615,0.0191879,0.0222015,0.0123215,0.0162125,0.00938416,0.0231171,0.0167465,-9.97986,0.012207,-0.00240326,0.0129318,0.0111771,0.0170517,0.00137329,0.0140381,0.00530243
19,0,10.0097,-0.000610352,-0.000152588,-2.42531,0.0553758,-0.0738423,0.054128,0.0715807,-0.0913154,0.146844,-0.125156,-0.0813497,0.00774384,0.0185776,0.020256,0.0149536,0.0154495,0.00873566,0.0223541,0.020256,-9.97986,0.0152588,-0.000724792,0.0117874,0.0109863,0.0141525,-0.0019455,0.0141144,0.00587463
19,1,10.0097,0.000915527,-0.000305176,-2.42348,0.0553758,-0.0744527,0.0544332,0.0718859,-0.0928413,0.146234,-0.124546,-0.0810445,0.0111008,0.0174713,0.0191116,0.0104523,0.0180435,0.00869751,0.018692,0.017128,-9.97986,0.0133514,-0.00267029,0.0107574,0.00442505,0.0161743,-0.00183105,0.0125885,0.00511169
19,2,10.0097,0.000610352,0.000915527,-2.42592,0.0572069,-0.0741475,0.0556539,0.0706652,-0.0903999,0.14776,-0.124241,-0.0810445,0.00904083,0.0207138,0.019455,0.0147629,0.021286,0.00850677,0.0249481,0.0202179,-9.97986,0.0107574,0.00118256,0.00972748,0.00495911,0.015564,-0.00545502,0.0107956,0.00522614
19,3,10.0097,-0.000915527,-0.000152588,-2.42592,0.055681,-0.0738423,0.0538228,0.0605944,-0.094062,0.146234,-0.126072,-0.0816549,0.0056839,0.0218964,0.0206757,0.0137711,0.0163651,0.00957489,0.0163269,0.0159073,-9.97986,0.0178528,0.000572205,0.0101471,0.00930786,0.017662,-0.00850677,0.0121307,0.0062561
19,4,9.86318,0.00213623,-0.00198364,-2.42623,0.0575121,-0.0747579,0.0526021,0.0355699,-0.0955879,0.147455,-0.126682,-0.0822652,0.0133896,0.0211334,0.0194168,0.0141144,0.0157547,0.00743866,0.0210571,0.0180817,-9.97986,0.0119019,-0.00110626,0.014534,0.00774384,0.0121307,-0.00904083,0.0165558,0.00537872
19,5,7.54201,0.000915527,-0.000915527,-2.42684,0.0553758,-0.0747579,0.0550435,0.0480822,-0.0934516,0.145624,-0.126987,-0.0825704,0.00980377,0.0259018,0.0189972,0.0130081,0.0130463,0.0114441,0.0217819,0.0147247,-9.97986,0.0168991,-0.00190735,0.0114822,0.00846863,0.0173187,-0.0109482,0.0163651,0.00778198
19,6,6.77877,0,-0.000152588,-2.42562,0.0559862,-0.0741475,0.0538228,0.0596788,-0.0928413,0.145929,-0.124851,-0.0819601,0.00915527,0.0207901,0.0186539,0.014267,0.0179672,0.0111771,0.0238419,0.0172424,-9.97986,0.0157166,-0.00106812,0.0117874,0.0105286,0.0155258,-0.0227737,0.0123215,0.00545502
19,7,6.78975,-0.000305176,0.000152588,-2.42653,0.0562914,-0.0744527,0.0547383,0.0666979,-0.0910102,0.145929,-0.125461,-0.0825704,0.00961304,0.0210571,0.0173569,0.0108719,0.0151062,0.00797272,0.0214386,0.0170898,-9.97986,0.0130081,0.00183105,0.00995636,0.00572205,0.0144196,-0.0261307,0.0114822,0.00389099
19,8,7.43245,0.0012207,0.00106812,-2.4244,0.0547655,-0.075063,0.0544332,0.0801256,-0.0919257,0.143487,-0.125766,-0.0837911,0.0126648,0.0224304,0.0174713,0.0106049,0.0165939,0.0102234,0.020256,0.0171661,-9.97986,0.0180817,-7.62939e-005,0.00881195,0.00865936,0.0174332,-0.0204468,0.0130081,0.00408173
19,9,10.0097,0.000610352,0.00137329,-2.42776,0.0547655,-0.0741475,0.0547383,0.109117,-0.0897895,0.144708,-0.123935,-0.0847066,0.0161362,0.0214767,0.0164795,0.0122833,0.0163651,0.0114822,0.0230789,0.0170135,-9.97986,0.0136185,-0.00259399,0.0144958,0.00640869,0.0144196,-0.0131989,0.0156021,0.00598907
20,0,10.0097,-0.000305176,0.00137329,-2.42989,0.0532396,-0.0759786,0.0522969,0.0874498,-0.0937568,0.141351,-0.126987,-0.0865377,0.00659943,0.0230408,0.0104523,0.0143814,0.018158,0.00843048,0.0171661,0.0157166,-9.97986,0.0144958,-0.00324249,0.0113297,0.00476837,0.0142288,-0.00534058,0.0114822,0.00801086
20,1,10.0097,0.00213623,0.000152588,-2.42837,0.0535448,-0.0762837,0.0513814,0.077379,-0.0952827,0.143792,-0.127292,-0.0862325,0.0115967,0.026207,0.0156403,0.0146103,0.0198364,0.0136566,0.0161743,0.0187302,-9.97986,0.0136948,-0.00221252,0.0175095,0.00629425,0.0163651,0.000534058,0.0151825,0.00583649
20,2,10.0097,0.000305176,-0.000152588,-2.42959,0.0538499,-0.0768941,0.0526021,0.0724962,-0.0937568,0.143792,-0.127598,-0.0871481,0.00335693,0.0256348,0.0181961,0.0154114,0.0185013,0.0119019,0.0163651,0.014534,-9.97986,0.015564,-0.00389099,0.0140381,0.00980377,0.014267,0.00778198,0.0125885,0.00488281
20,3,10.0097,0.00183105,-0.000152588,-2.4305,0.0538499,-0.0762837,0.0513814,0.0700548,-0.0961982,0.144098,-0.127292,-0.0862325,0.0115967,0.0262451,0.0165558,0.0165939,0.0180435,0.00953674,0.0160599,0.0175858,-9.97986,0.0166702,-0.00141144,0.0147247,0.0105667,0.0144196,0.0131989,0.0122452,0.00808716
20,4,10.0097,0.0012207,-0.000762939,-2.42806,0.0523241,-0.0762837,0.0532125,0.0694445,-0.0946723,0.144708,-0.127598,-0.0874532,0.0130463,0.0205231,0.0143814,0.0166702,0.0151825,0.00656128,0.0152206,0.0140381,-9.97986,0.0149536,-0.00587463,0.0056839,0.00514984,0.0152969,0.00732422,0.0128937,0.00759125
20,5,10.0097,-0.000305176,-0.000305176,-2.42776,0.0547655,-0.0762837,0.054128,0.0694445,-0.0952827,0.143792,-0.127292,-0.085317,0.0112915,0.020752,0.0175095,0.0177383,0.0191498,0.0108337,0.0174713,0.0203323,-9.97986,0.0134659,-0.000610352,0.0125122,0.00740051,0.0101471,0.00286102,0.0112915,0.0104523
20,6,10.0097,0.0012207,0,-2.42776,0.0535448,-0.075063,0.0538228,0.0700548,-0.0946723,0.144403,-0.126377,-0.085317,0.0111389,0.0239182,0.0178528,0.0164795,0.0170135,0.0104523,0.0186157,0.0146484,-9.97986,0.0167847,0.000724792,0.0112152,0.00801086,0.0132751,-0.00679016,0.0151825,0.00465393
20,7,10.0097,0.00183105,0,-2.42806,0.0553758,-0.0756734,0.0535176,0.0706652,-0.0934516,0.145013,-0.126682,-0.0847066,0.00789642,0.0199127,0.0153732,0.0159836,0.0195313,0.00881195,0.0263977,0.0147247,-9.97986,0.0187302,0.00038147,0.0160599,0.00713348,0.0200272,-0.00881195,0.0139999,0.00514984
20,8,10.0097,0.00183105,0.000610352,-2.42592,0.0562914,-0.075063,0.0532125,0.0706652,-0.0931465,0.145624,-0.125766,-0.0840963,0.0121307,0.0229263,0.0173187,0.0176239,0.0164795,0.0115585,0.0286865,0.0190353,-9.97986,0.0191879,-0.00179291,0.0149536,0.00774384,0.0171661,7.62939e-005,0.0151062,0.00705719
20,9,10.0097,-0.0012207,0.000610352,-2.42501,0.0565965,-0.0741475,0.0544332,0.0697496,-0.0919257,0.145318,-0.125766,-0.0822652,0.0107193,0.0222778,0.0155258,0.0133133,0.0128937,0.00904083,0.0260925,0.0191498,-9.97986,0.0199127,-0.000762939,0.0123596,0.00774384,0.0201416,-0.00343323,0.0172806,0.00537872
21,0,10.0097,0.00274658,-0.000152588,-2.42409,0.0569017,-0.0735371,0.0535176,0.0706652,-0.0913154,0.146844,-0.124851,-0.0816549,0.0101089,0.021553,0.0162125,0.0154877,0.0154495,0.00930786,0.0260162,0.0131989,-9.97986,0.0140762,-0.00175476,0.0121307,0.00778198,0.0184631,0.000114441,0.0178528,0.00743866
21,1,10.0097,0.000305176,-0.000305176,-2.42562,0.0565965,-0.0729268,0.0550435,0.0715807,-0.0916206,0.145929,-0.124241,-0.0813497,0.0111771,0.0221634,0.0177002,0.0128937,0.0186539,0.00946045,0.0261307,0.0167465,-9.97986,0.0120163,0.000228882,0.014801,0.00259399,0.0200272,0.00202179,0.0162125,0.00473022
21,2,10.0097,-0.000305176,0.000305176,-2.42623,0.0575121,-0.0729268,0.0550435,0.0688341,-0.0913154,0.14776,-0.12302,-0.0807394,0.0102234,0.0247574,0.0212479,0.0159073,0.0181961,0.00999451,0.0284576,0.0168228,-9.97986,0.0179672,0.00232697,0.0128555,0.00816345,0.0195694,0.00324249,0.0152588,0.00564575
21,3,10.0097,0.000610352,-0.000152588,-2.42714,0.0565965,-0.075063,0.0544332,0.0551012,-0.0934516,0.145318,-0.125766,-0.0819601,0.00831604,0.0237656,0.0188828,0.0144958,0.0139236,0.0104141,0.0189972,0.0189209,-9.97986,0.0164032,-0.00610352,0.01091,0.0056839,0.0177383,0.0056839,0.0160217,0.00675201
21,4,9.66695,0.000305176,-0.00137329,-2.42562,0.0550706,-0.0735371,0.0538228,0.0352648,-0.0952827,0.14776,-0.127292,-0.0834859,0.0088501,0.0264359,0.0217819,0.0151062,0.0188065,0.0094223,0.0165939,0.0175095,-9.97986,0.0193405,-0.0037384,0.0133896,0.00682831,0.0180054,0.00331879,0.0158691,0.00518799
21,5,7.29695,0.00152588,-0.000762939,-2.42653,0.0575121,-0.0738423,0.0544332,0.0480822,-0.0925361,0.145624,-0.126072,-0.0810445,0.00930786,0.0252151,0.0160217,0.0142288,0.0141525,0.0117874,0.0148392,0.0178528,-9.97986,0.0157928,-0.00179291,0.0172806,0.00785828,0.0161362,0.00408173,0.0142288,0.00728607
21,6,6.56056,0.000305176,-0.000305176,-2.42531,0.0559862,-0.0741475,0.0544332,0.0593737,-0.0925361,0.143792,-0.125156,-0.0831808,0.0133133,0.028801,0.0194168,0.0146484,0.0151443,0.0100327,0.0132751,0.0208664,-9.97986,0.0177002,-0.00328064,0.01091,0.00614166,0.0170898,0.00854492,0.0153351,0.00896454
21,7,6.56026,-0.0012207,-0.000152588,-2.42684,0.0562914,-0.0741475,0.0544332,0.067003,-0.0919257,0.146234,-0.125156,-0.0828756,0.013504,0.02491,0.0199127,0.0162125,0.0178146,0.0130081,0.00968933,0.0168991,-9.97986,0.0155258,0.00255585,0.0094986,0.00740051,0.0173187,0.010376,0.0195694,0.0115585
21,8,7.22158,0.000610352,0,-2.42653,0.0550706,-0.0747579,0.0544332,0.0810411,-0.0913154,0.144403,-0.124851,-0.0825704,0.013504,0.030098,0.0194168,0.0190353,0.020256,0.0115585,0.00919342,0.0180817,-9.97986,0.0162125,-0.000762939,0.0136185,0.0087738,0.0101471,0.00835419,0.0210953,0.0111008
21,9,10.0097,0.00152588,0.00137329,-2.42684,0.0550706,-0.0753682,0.054128,0.109117,-0.0900947,0.143487,-0.12363,-0.0834859,0.00320435,0.0286865,0.0188065,0.0156784,0.0212479,0.00904083,0.00904083,0.0133133,-9.97986,0.019455,-0.00152588,0.0112152,0.00816345,0.0104904,0.00476837,0.0198746,0.0109482
22,0,10.0097,0,0.00106812,-2.42989,0.0526292,-0.0759786,0.050771,0.087755,-0.0949775,0.142572,-0.126377,-0.0868429,0.0082016,0.0242615,0.0145721,0.0151825,0.0158691,0.00968933,0.0111008,0.0153351,-9.97986,0.0156021,-0.00366211,0.00888824,0.00686646,0.0114822,-0.000152588,0.0154495,0.00617981
22,1,10.0097,0.000915527,0.000305176,-2.42898,0.0541551,-0.075063,0.0522969,0.0758531,-0.0949775,0.144708,-0.126377,-0.0868429,0.0111389,0.0231171,0.0182343,0.0163269,0.0225067,0.00991821,0.0200653,0.0214005,-9.97986,0.0178146,0.000419617,0.0112152,0.00549316,0.0101852,-0.00118256,0.019722,0.00988007
22,2,10.0097,0.000610352,-0.000152588,-2.42959,0.0529344,-0.0756734,0.0516866,0.0728014,-0.0965034,0.143487,-0.126682,-0.0874532,0.01091,0.0236893,0.0187683,0.0150299,0.0152206,0.0105667,0.0189209,0.0154114,-9.97986,0.0152206,-0.00225067,0.00801086,0.00480652,0.0159836,-0.00236511,0.0148392,0.0103378
22,3,10.0097,0.000305176,0.000305176,-2.42867,0.0535448,-0.0756734,0.0513814,0.0700548,-0.0952827,0.142572,-0.127598,-0.0871481,0.0101471,0.0299454,0.0177765,0.0137329,0.0201035,0.00904083,0.0193024,0.0186157,-9.97986,0.0132751,-0.000572205,0.012207,0.00396729,0.0159454,0.00152588,0.0152206,0.00926971
22,4,10.0097,0.00152588,-0.000457764,-2.42776,0.0541551,-0.0759786,0.0526021,0.0691393,-0.0943672,0.144403,-0.126987,-0.0871481,0.0109863,0.02491,0.0177765,0.00896454,0.0165939,0.0123596,0.0198364,0.0188065,-9.97986,0.013237,0.000190735,0.00823975,0.00640869,0.0170898,0.000152588,0.0191116,0.00968933
22,5,10.0097,0,-0.000457764,-2.42837,0.0547655,-0.0756734,0.0519917,0.0706652,-0.094062,0.144098,-0.125766,-0.0856222,0.013504,0.0243759,0.014534,0.0101089,0.0159836,0.0103378,0.022049,0.0192261,-9.97986,0.0128555,-0.0025177,0.00671387,0.00545502,0.0148773,-0.000801086,0.0151443,0.00465393
22,6,10.0097,0,0.000305176,-2.42776,0.0541551,-0.0756734,0.0535176,0.0700548,-0.0949775,0.144098,-0.126682,-0.0847066,0.00831604,0.026207,0.0152588,0.00888824,0.017395,0.0108719,0.0318146,0.0156403,-9.97986,0.0143051,-7.62939e-005,0.0069046,0.00614166,0.0190353,0.00167847,0.0207138,0.00740051
22,7,10.0097,0,0.000457764,-2.42867,0.0559862,-0.0726216,0.0516866,0.0694445,-0.0937568,0.144098,-0.126377,-0.0840963,0.00907898,0.0272751,0.0140381,0.00652313,0.0176239,0.0102997,0.0284576,0.0187302,-9.97986,0.014801,0,0.0117874,0.00652313,0.0208664,0.00606537,0.017128,0.00656128
22,8,10.0097,0.000305176,0,-2.42776,0.0538499,-0.075063,0.054128,0.0697496,-0.0925361,0.143792,-0.125156,-0.0834859,0.00724792,0.0296021,0.0177383,0.0025177,0.0135422,0.0128555,0.0333405,0.0233078,-9.97986,0.0126648,-0.00389099,0.00911713,0.00480652,0.0236893,0.00602722,0.0179672,0.00965118
22,9,10.0097,0.000915527,0.000152588,-2.4247,0.0565965,-0.0747579,0.0562642,0.0724962,-0.0910102,0.146234,-0.125156,-0.0819601,0.00762939,0.0230408,0.0178146,-0.00457764,0.0131607,0.00911713,0.0328445,0.0183868,-9.97986,0.0110245,-0.00610352,0.0112152,0.00392914,0.0214386,0.00534058,0.0160217,0.00221252
23,0,10.0097,-0.000305176,-0.000305176,-2.42562,0.0550706,-0.0738423,0.0553487,0.0688341,-0.0919257,0.14776,-0.126377,-0.0816549,0.0128937,0.0263596,0.0171661,-0.0196075,0.0140762,0.00682831,0.0269318,0.0190353,-9.97986,0.0144196,0.00267029,0.0101089,0.00549316,0.0199127,0.00102997,0.0154877,0.00640869
23,1,10.0097,0.000915527,0.000305176,-2.42501,0.0547655,-0.0744527,0.0553487,0.0709703,-0.0922309,0.145624,-0.125156,-0.0819601,0.0156784,0.0233841,0.0182343,-0.0173569,0.0163651,0.0123978,0.0286102,0.019455,-9.97986,0.0138474,0.000648499,0.00801086,0.00453949,0.0216293,0.000801086,0.0177002,0.00694275
23,2,10.0097,0,0.000457764,-2.42592,0.0562914,-0.0726216,0.0556539,0.0728014,-0.090705,0.146539,-0.123935,-0.0807394,0.0143433,0.0228119,0.0224686,0.0122452,0.0221252,0.00762939,0.0288773,0.014267,-9.97986,0.0139236,0.00156403,0.0115967,0.0056839,0.0236893,-0.00228882,0.0143814,0.00331879
23,3,10.0097,0.0012207,-0.000305176,-2.42562,0.0550706,-0.0747579,0.0538228,0.0596788,-0.0934516,0.147149,-0.124851,-0.0819601,0.0131989,0.0247574,0.0227356,0.037117,0.0187302,0.00854492,0.0291443,0.01194,-9.97986,0.0162888,0.00244141,0.0173569,0.00934601,0.0219345,-0.00331879,0.0138474,0.00465393
23,4,10.0002,-0.00152588,-0.00152588,-2.42592,0.0572069,-0.0744527,0.0532125,0.0349596,-0.0961982,0.146539,-0.126682,-0.0831808,0.0136185,0.022583,0.0200272,0.0244522,0.0246811,0.00377655,0.0228882,0.0112152,-9.97986,0.0156021,-0.00144958,0.00991821,0.00789642,0.0183868,-0.00782013,0.0103378,0.00812531
23,5,7.69033,-0.000915527,-0.00106812,-2.42562,0.0562914,-0.0741475,0.0544332,0.0486925,-0.0955879,0.146234,-0.126377,-0.0810445,0.0121689,0.0318146,0.0222778,0.0128174,0.0239182,0.00896454,0.0215912,0.0140381,-9.97986,0.0146103,-0.00171661,0.016861,0.00717163,0.0209808,-0.0037384,0.0131226,0.00743866
23,6,6.96828,0.00183105,-0.0012207,-2.42562,0.055681,-0.0744527,0.0547383,0.059984,-0.0922309,0.145318,-0.126072,-0.0837911,0.0138092,0.0277328,0.0266266,0.00495911,0.0204468,0.00640869,0.0213242,0.0197983,-9.97986,0.0094223,-0.00564575,0.0163651,0.00556946,0.0173187,-0.00293732,0.0125885,0.00827789
23,7,6.96157,0.00213623,0.000152588,-2.42562,0.0535448,-0.075063,0.0532125,0.0663927,-0.0928413,0.145318,-0.125766,-0.0822652,0.0144196,0.0189972,0.0285339,0.00240326,0.0216293,0.0140381,0.0202942,0.021286,-9.97986,0.0173569,-0.00259399,0.0161743,0.00846863,0.0136566,-0.00671387,0.0127411,0.00637054
23,8,7.60732,0.0012207,0.000305176,-2.42653,0.0550706,-0.075063,0.0556539,0.0813463,-0.0931465,0.146234,-0.124851,-0.0831808,0.0130081,0.0152969,0.0291443,0.0104523,0.0201797,0.00907898,0.0202179,0.0211716,-9.97986,0.0176239,-0.00549316,0.013504,0.0087738,0.0138092,-0.00514984,0.0171661,0.0082016
23,9,10.0097,0.0012207,0.00152588,-2.42837,0.0544603,-0.0747579,0.0538228,0.109422,-0.0897895,0.144098,-0.124546,-0.0844015,0.0106812,0.0259018,0.0278854,0.0158691,0.0216293,0.00911713,0.0217056,0.020752,-9.97986,0.0123215,-0.00591278,0.0120163,0.00469208,0.0108337,-0.00713348,0.0138092,0.00492096
24,0,10.0097,0,0.0012207,-2.42959,0.0550706,-0.0771993,0.050771,0.0871447,-0.0949775,0.143182,-0.125156,-0.0871481,0.0142288,0.0317001,0.0305939,0.00579834,0.0196075,0.012207,0.0187683,0.018158,-9.97986,0.015564,-0.000152588,0.0170898,0.00312805,0.0113678,-0.00331879,0.0146866,0.00202179
24,1,10.0097,-0.000610352,0.000457764,-2.42806,0.0538499,-0.075063,0.0522969,0.0749376,-0.0928413,0.142572,-0.127292,-0.0871481,0.0120163,0.0320816,0.0373077,0.000534058,0.0193024,0.0069046,0.0217056,0.0119781,-9.97986,0.0156021,0.00156403,0.0159454,0.00476837,0.0178146,-0.00495911,0.0157547,0.00484467
24,2,10.0097,0,0.000305176,-2.42867,0.0535448,-0.0759786,0.0516866,0.07036,-0.0955879,0.141656,-0.126377,-0.0871481,0.015564,0.0318909,0.0241852,-0.00389099,0.020752,0.00869751,0.0220108,0.0191498,-9.97986,0.0192642,-0.000114441,0.0127411,0.00789642,0.0131607,-0.00133514,0.0164032,0.00637054
24,3,10.0097,0.00244141,-0.000457764,-2.42959,0.0584276,-0.0762837,0.0532125,0.0706652,-0.0949775,0.143182,-0.127292,-0.0877584,0.00808716,0.0332642,0.017395,-0.01297,0.0230026,0.00648499,0.0186157,0.0112534,-9.97986,0.0184631,0.00106812,0.0146866,0.00751495,0.0164795,-0.00255585,0.014801,0.00484467
24,4,10.0097,-0.00152588,-0.000457764,-2.42959,0.0541551,-0.0759786,0.0522969,0.0685289,-0.0949775,0.142572,-0.127598,-0.0865377,0.0123978,0.0281906,0.00278473,-0.0141525,0.0207138,0.00492096,0.0244904,0.015831,-9.97986,0.0188446,-0.00114441,0.0123596,0.00873566,0.0161743,-0.00629425,0.0154495,0.00457764
24,5,10.0097,0,-0.000457764,-2.42837,0.0532396,-0.0762837,0.0522969,0.0688341,-0.0943672,0.144403,-0.127292,-0.0850118,0.0094223,0.0255203,0.00301361,-0.0213242,0.0165558,0.00736237,0.025444,0.0130081,-9.97986,0.0172806,0.000915527,0.0128174,0.00782013,0.0163651,-0.00331879,0.019455,0.00724792
24,6,10.0097,0.000610352,0.000152588,-2.42684,0.0538499,-0.0753682,0.0547383,0.0697496,-0.0943672,0.145318,-0.125156,-0.0844015,0.00858307,0.0286484,0.00598907,0.00431061,0.0226212,0.00782013,0.0189972,0.0185394,-9.97986,0.0163651,0.00213623,0.0138474,0.0056839,0.0176239,-0.00553131,0.0164795,0.00530243
24,7,10.0097,0.0012207,-0.000610352,-2.42684,0.0541551,-0.0747579,0.0529073,0.0694445,-0.0931465,0.145013,-0.125766,-0.0844015,0.0102997,0.0291443,0.00358582,0.0600052,0.0156784,0.00854492,0.0242996,0.0218201,-9.97986,0.0187683,-0.0030899,0.0178146,0.0127792,0.0186157,-0.00610352,0.0175095,0.00534058
24,8,10.0097,0.000610352,0.000305176,-2.42592,0.0559862,-0.0741475,0.0522969,0.0706652,-0.0925361,0.145624,-0.124851,-0.0834859,0.00854492,0.0247955,0.00263214,0.0984955,0.0193024,0.00862122,0.0224686,0.0191879,-9.97986,0.0188446,0.00171661,0.0137711,0.0112534,0.0167465,-0.00720978,0.0188065,0.00656128
24,9,10.0097,-0.000610352,0.000457764,-2.42562,0.0520189,-0.0735371,0.0538228,0.07036,-0.0928413,0.146844,-0.124851,-0.0813497,0.00850677,0.0251007,0.00606537,0.101776,0.0188828,0.00621796,0.0185013,0.016861,-9.97986,0.0176239,0.000114441,0.0152206,0.0100708,0.0194168,-0.00362396,0.0190735,0.00404358
25,0,10.0097,0.000305176,0.000152588,-2.42501,0.0569017,-0.0738423,0.0547383,0.072191,-0.0910102,0.146844,-0.124851,-0.0813497,0.00812531,0.029068,0.00934601,0.0759888,0.0171661,0.0114441,0.0196075,0.0209427,-9.97986,0.0196457,0.0050354,0.0132751,0.00888824,0.0147629,-0.00106812,0.0162125,0.00335693
25,1,10.0097,0.000610352,-0.000305176,-2.42562,0.0565965,-0.0738423,0.0544332,0.0709703,-0.0910102,0.146844,-0.124546,-0.0807394,0.00858307,0.033493,0.0050354,0.0634003,0.0191879,0.00999451,0.0178909,0.0207138,-9.97986,0.0168228,0.00476837,0.0193024,0.0114822,0.0174332,-0.00347137,0.0168228,0.00415802
25,2,10.0097,-0.00213623,-0.000152588,-2.4244,0.0526292,-0.0738423,0.054128,0.0718859,-0.090705,0.145929,-0.124546,-0.0804342,0.0114059,0.0176239,0.00961304,0.057373,0.0193024,0.00968933,0.0171661,0.018425,-9.97986,0.017662,0.00244141,0.0137711,0.00881195,0.0181961,-0.00389099,0.0179672,0.00675201
25,3,10.0097,-0.0012207,0,-2.42562,0.0553758,-0.0753682,0.0538228,0.058153,-0.0928413,0.146234,-0.126682,-0.0819601,0.00896454,0.0109863,0.0100327,0.0477219,0.0152206,0.00907898,0.0191498,0.0188446,-9.97986,0.0177383,0.00183105,0.0140762,0.0062561,0.019722,-0.000953674,0.019455,0.00747681
25,4,9.80947,0.0012207,-0.00183105,-2.42623,0.0565965,-0.073232,0.054128,0.0367906,-0.0955879,0.146539,-0.127292,-0.0822652,0.0143051,0.0126266,0.0104141,0.0415039,0.0202942,0.00988007,0.0182343,0.0202942,-9.97986,0.0165176,0.00148773,0.0133896,0.00366211,0.0153732,-0.00408173,0.0171661,0.0062561
25,5,7.49532,0.00183105,-0.00152588,-2.42653,0.0520189,-0.0738423,0.0532125,0.0486925,-0.0922309,0.14776,-0.125766,-0.0816549,0.00896454,0.0202942,0.0106049,0.0389099,0.0212097,0.0156784,0.0182343,0.0202179,-9.97986,0.0141907,-7.62939e-005,0.0130081,0.00614166,0.0164413,-0.00190735,0.0160599,0.00518799
25,6,6.73665,0.00183105,-0.000915527,-2.42562,0.0559862,-0.0753682,0.0544332,0.0593737,-0.0922309,0.145624,-0.125766,-0.0822652,0.0105286,0.0218582,0.0153732,0.0325775,0.018425,0.0112915,0.0214767,0.0201797,-9.97986,0.0147629,-0.0037384,0.015831,0.00579834,0.0175476,0.00156403,0.0182724,0.00972748
25,7,6.72597,-0.000610352,0.000457764,-2.42623,0.0562914,-0.0747579,0.0550435,0.0666979,-0.0910102,0.145318,-0.124546,-0.0825704,0.0113678,0.0228119,0.00862122,0.0318527,0.0138855,0.00968933,0.0221634,0.0153732,-9.97986,0.0164032,-0.00377655,0.0146866,0.00804901,0.0139999,0.00431061,0.0214767,0.00789642
25,8,7.33388,0.000915527,0.000305176,-2.42684,0.0535448,-0.075063,0.0535176,0.0801256,-0.0919257,0.144403,-0.126072,-0.0831808,0.0120926,0.0194168,0.00869751,0.0254822,0.00499725,0.0087738,0.0223541,0.0201035,-9.97986,0.0151062,0.00225067,0.0151062,0.00553131,0.0183868,0.000457764,0.017662,0.0062561
25,9,10.0097,0.00244141,0.00198364,-2.42684,0.0541551,-0.0753682,0.0568746,0.109422,-0.0894843,0.144708,-0.12363,-0.0834859,0.0101471,0.0190735,0.00492096,0.0248337,-0.00522614,0.0104904,0.0159454,0.021553,-9.97986,0.0168228,0.00431061,0.0145721,0.00747681,0.0138855,-0.000495911,0.0177765,0.00957489
26,0,10.0097,-0.000915527,0.000762939,-2.42989,0.0529344,-0.0756734,0.0516866,0.0883654,-0.094062,0.143487,-0.126682,-0.0865377,0.00984192,0.019989,0.0146484,0.0246429,-0.00968933,0.0139618,0.0201797,0.0212097,-9.97986,0.0157166,0.000419617,0.0161743,0.00537872,0.015564,-0.00137329,0.0160217,0.00892639
26,1,10.0097,0,0.000305176,-2.42867,0.0544603,-0.0762837,0.0513814,0.0764635,-0.0971137,0.144403,-0.126682,-0.0874532,0.0102997,0.0217438,0.0139236,0.0197601,-0.0102997,0.0133133,0.0240326,0.0141144,-9.97986,0.0160217,-0.00209808,0.0143051,0.00583649,0.0161362,-0.00263214,0.0196457,0.00518799
26,2,10.0097,-0.000915527,-0.000457764,-2.43081,0.0553758,-0.0744527,0.0513814,0.0715807,-0.0955879,0.142877,-0.126987,-0.0874532,0.00637054,0.0182724,0.0152969,0.0167465,-0.00789642,0.0117111,0.0239182,0.0196457,-9.97986,0.0168228,-0.000839233,0.0175858,0.00694275,0.0172806,-0.00183105,0.021019,0.00488281
26,3,10.0097,0.000915527,-0.000610352,-2.42959,0.0535448,-0.075063,0.0522969,0.0709703,-0.0949775,0.143487,-0.127292,-0.0874532,0.00926971,0.017662,0.016098,0.0183105,-0.00595093,0.00900269,0.030899,0.0153351,-9.97986,0.0159073,-0.00301361,0.0173187,0.00408173,0.0180054,0.00106812,0.0175476,0.00427246
26,4,10.0097,0.00183105,0,-2.42898,0.0538499,-0.0771993,0.0526021,0.0700548,-0.0949775,0.145013,-0.128208,-0.0859274,0.0107574,0.0180054,0.0181198,0.0126648,-0.00957489,0.00968933,0.0271988,0.0160599,-9.97986,0.0151443,-0.000152588,0.0180435,0.00999451,0.0175476,0.00350952,0.0157166,0.00179291
26,5,10.0097,-0.0012207,-0.000305176,-2.42714,0.0541551,-0.075063,0.0529073,0.0700548,-0.0946723,0.143182,-0.126377,-0.0865377,0.00770569,0.0154495,0.0168228,0.0094223,-0.00236511,0.00713348,0.0275421,0.0138855,-9.97986,0.0170135,-0.0018692,0.0165176,0.00480652,0.0169754,-0.00171661,0.0162888,0.00175476
26,6,10.0097,0.00183105,-0.000152588,-2.42745,0.0553758,-0.0735371,0.0538228,0.0697496,-0.0931465,0.145013,-0.126682,-0.085317,0.0104141,0.0191879,0.0177765,0.0111008,-0.000419617,0.0136566,0.0286484,0.018959,-9.97986,0.0156784,0.00263214,0.0157166,0.00404358,0.0104523,0.000228882,0.0195313,0.00423431
26,7,10.0097,0,0.000762939,-2.42684,0.0553758,-0.075063,0.054128,0.0691393,-0.0919257,0.144403,-0.126377,-0.0856222,0.0105667,0.0229645,0.0204086,0.0107193,0.00133514,0.00934601,0.0266266,0.0188065,-9.97986,0.0158691,0.00213623,0.0194931,0.00629425,0.0117493,0.00377655,0.0168991,0.00221252
26,8,10.0097,-0.000305176,0.000610352,-2.42592,0.0553758,-0.0744527,0.0550435,0.0694445,-0.094062,0.145624,-0.125156,-0.0837911,0.0094986,0.021286,0.0176239,0.0107574,-0.000762939,0.0125885,0.0273514,0.0166321,-9.97986,0.0169754,0.00244141,0.0165558,0.0050354,0.0186539,0.00221252,0.0146484,0.00343323
26,9,10.0097,-0.00183105,0.000610352,-2.4247,0.0559862,-0.0741475,0.0550435,0.0709703,-0.0919257,0.146539,-0.124546,-0.0819601,0.00957489,0.0202179,0.017128,0.00514984,0.000915527,0.00988007,0.0255203,0.0149155,-9.97986,0.0149155,0.00160217,0.0128555,0.00339508,0.015831,-0.00324249,0.0158691,0.00282288
27,0,10.0097,0.0012207,0.000305176,-2.42379,0.0578172,-0.073232,0.0550435,0.0709703,-0.0919257,0.146234,-0.124241,-0.0810445,0.0125122,0.0207138,0.0215912,-0.00289917,0.00556946,0.010376,0.0258255,0.0183868,-9.97986,0.0131607,-0.000839233,0.0143051,0.00846863,0.0173187,-0.00461578,0.0203323,0.00339508
27,1,10.0097,0.00152588,0.000152588,-2.42501,0.0569017,-0.0747579,0.0553487,0.0712755,-0.0919257,0.147149,-0.124241,-0.0810445,0.00862122,0.0199509,0.0183487,0.00484467,0.00659943,0.0111008,0.0224686,0.0191498,-9.97986,0.0152206,0.00202179,0.0177383,0.00679016,0.014534,-0.000686646,0.0152206,0.0018692
27,2,10.0097,0.0012207,0.000152588,-2.42531,0.0559862,-0.0747579,0.0544332,0.0706652,-0.0910102,0.146539,-0.12302,-0.0804342,0.00801086,0.0193787,0.0174332,0.00400543,0.0031662,0.00930786,0.0242996,0.0193787,-9.97986,0.0159073,-0.00217438,0.0179672,0.0038147,0.0145721,-0.00370026,0.0139999,0.00389099
27,3,10.0097,-0.000610352,0,-2.42684,0.0559862,-0.0735371,0.054128,0.058153,-0.0943672,0.145318,-0.125156,-0.0816549,0.0109863,0.0205231,0.019989,-0.000152588,0.00659943,0.00926971,0.0238037,0.0204468,-9.97986,0.0175476,0.000915527,0.0184631,0.00644684,0.0133133,-0.0050354,0.015831,0.00267029
27,4,9.8412,-0.000610352,-0.00228882,-2.42623,0.0559862,-0.075063,0.0535176,0.0343492,-0.0955879,0.146234,-0.126987,-0.0816549,0.014534,0.0168228,0.0196457,0.00087738,0.0111389,0.00831604,0.0246811,0.0174713,-9.97986,0.0171661,0.00167847,0.0156403,0.00404358,0.0155258,-0.0110626,0.0146484,0.00335693
27,5,7.46968,-0.000610352,-0.00152588,-2.4247,0.0562914,-0.0738423,0.0538228,0.0468614,-0.0922309,0.144403,-0.124546,-0.0816549,0.0101852,0.0219727,0.0225449,0.00362396,0.0110245,0.0119781,0.0255966,0.0187683,-9.97986,0.0133133,-0.0019455,0.0143051,0.00808716,0.0146484,-0.00606537,0.016861,0.0056076
27,6,6.74825,0.00152588,-0.000305176,-2.42684,0.055681,-0.0744527,0.0544332,0.0584581,-0.0922309,0.145624,-0.123935,-0.0828756,0.0123596,0.0268555,0.0162888,-0.00461578,0.0159836,0.0138474,0.0215912,0.016861,-9.97986,0.013504,-0.00102997,0.0137329,0.00469208,0.0164032,-0.00736237,0.016098,0.00110626
27,7,6.75679,0.00213623,0.000152588,-2.42684,0.0550706,-0.0747579,0.0547383,0.067003,-0.0913154,0.145929,-0.125766,-0.0831808,0.0108719,0.0241852,0.0207901,0.000801086,0.0111008,0.0127792,0.0183105,0.0158691,-9.97986,0.0130081,-0.00423431,0.0167084,0.00839233,0.0162125,-0.000534058,0.0167465,0.0056076
27,8,7.42299,-0.000305176,0,-2.42623,0.0547655,-0.0744527,0.0547383,0.0813463,-0.090705,0.144708,-0.125156,-0.0828756,0.012207,0.018959,0.0189209,0.001297,0.0160599,0.0094223,0.0199127,0.0197601,-9.97986,0.0143051,-0.00240326,0.0142288,0.00694275,0.0121689,-0.0018692,0.0139999,0.00358582
27,9,10.0097,0.000305176,0.00198364,-2.42714,0.055681,-0.0762837,0.0532125,0.109728,-0.088874,0.145013,-0.12363,-0.0847066,0.00907898,0.0222015,0.0161362,0,0.0167084,0.00892639,0.0222015,0.0214386,-9.97986,0.0153732,0.000190735,0.0188828,0.00579834,0.0167847,-0.00476837,0.016098,0.0044632
28,0,10.0097,0.00152588,0.000915527,-2.42806,0.0520189,-0.0771993,0.0519917,0.0865343,-0.0955879,0.143487,-0.126072,-0.0868429,0.0130081,0.0265503,0.0202942,0.000801086,0.0146103,0.00995636,0.0247192,0.0219727,-9.97986,0.0123596,0.000267029,0.0179291,0.00740051,0.0164032,-0.00347137,0.0130463,0.00404358
28,1,10.0097,0.00183105,0.000305176,-2.42898,0.0529344,-0.0759786,0.0519917,0.0764635,-0.0952827,0.144098,-0.127292,-0.0874532,0.0104904,0.0231171,0.0177002,-0.00366211,0.0218201,0.0107574,0.022583,0.0176239,-9.97986,0.0128555,0.001297,0.0159836,0.00469208,0.0143051,-0.000991821,0.015564,0.00171661
28,2,10.0097,0.000610352,0.000305176,-2.42867,0.0535448,-0.0765889,0.0513814,0.0718859,-0.0961982,0.143487,-0.125766,-0.0874532,0.00915527,0.0274277,0.0224304,0.000343323,0.0188828,0.0116348,0.0207138,0.017395,-9.97986,0.0104141,-0.00366211,0.0119781,0.00667572,0.0165939,-0.00576019,0.0163651,0.00522614
28,3,10.0097,0.00274658,-0.000762939,-2.42867,0.0541551,-0.0768941,0.0526021,0.0700548,-0.0949775,0.142267,-0.128208,-0.0868429,0.0134277,0.0235367,0.0170898,-0.000495911,0.0170135,0.00705719,0.0207901,0.0151062,-9.97986,0.0135422,0.000190735,0.0143433,0.0030899,0.0139618,-0.00701904,0.0159836,0.00564575
28,4,10.0097,0,-0.000762939,-2.42928,0.0538499,-0.0768941,0.0516866,0.07036,-0.0952827,0.145013,-0.128513,-0.0871481,0.00724792,0.0240707,0.018692,-0.000686646,0.0230026,0.00946045,0.0268936,0.0169754,-9.97986,0.0179672,-0.00480652,0.0141144,0.0100327,0.0154495,-0.00175476,0.0189209,0.00495911
28,5,10.0097,0.000610352,-0.000152588,-2.42837,0.0541551,-0.0753682,0.0526021,0.0682238,-0.0937568,0.143792,-0.125766,-0.0859274,0.0109482,0.0232697,0.0181961,-0.00270844,0.0197983,0.00694275,0.0210571,0.0141144,-9.97986,0.0157166,-0.000190735,0.00881195,0.00350952,0.0132751,-0.00495911,0.0139618,0.00507355
28,6,10.0097,0.0012207,0.000457764,-2.42776,0.0547655,-0.0759786,0.0519917,0.0700548,-0.0931465,0.144708,-0.126072,-0.0844015,0.0128174,0.0223541,0.0201035,-0.00118256,0.0191879,0.0109482,0.0186157,0.019722,-9.97986,0.0126266,-0.000152588,0.0137329,0.00827789,0.0161743,-0.0056076,0.015831,0.0063324
28,7,10.0097,0.00305176,0.000305176,-2.42776,0.0544603,-0.0747579,0.0532125,0.0688341,-0.0931465,0.144708,-0.127292,-0.0847066,0.00812531,0.0251389,0.0199509,0.000648499,0.0222397,0.0113678,0.0223923,0.0101471,-9.97986,0.0128555,-0.00213623,0.0135422,0.00904083,0.018158,0.00038147,0.0161743,0.00835419
28,8,10.0097,0.000915527,0.000152588,-2.42623,0.0562914,-0.0744527,0.0547383,0.0706652,-0.0925361,0.144708,-0.125461,-0.0840963,0.0130844,0.0254822,0.0190735,-0.0018692,0.0213242,0.0128937,0.0210571,0.0144196,-9.97986,0.0123978,-0.000724792,0.0173569,0.00907898,0.0123215,0.00507355,0.0178909,0.00686646
28,9,10.0097,0.00244141,0.000152588,-2.42562,0.0559862,-0.0735371,0.0547383,0.0709703,-0.0900947,0.147149,-0.125156,-0.0813497,0.00534058,0.0284576,0.0161743,-0.00263214,0.0240326,0.010376,0.0221252,0.017395,-9.97986,0.0151825,-0.00114441,0.0164795,0.0100708,0.0196838,0.00663757,0.0169754,0.0063324
29,0,10.0097,-0.000305176,-0.000305176,-2.42501,0.0565965,-0.0741475,0.0547383,0.0709703,-0.0919257,0.145929,-0.123935,-0.0807394,0.0102997,0.0297546,0.0188065,0.00453949,0.0256729,0.00972748,0.0211334,0.0198746,-9.97986,0.0140762,0.00213623,0.010376,0.0062561,0.0169754,0.010376,0.0154495,0.0101089
29,1,10.0097,0,0.000152588,-2.42562,0.0559862,-0.0738423,0.0544332,0.0709703,-0.090705,0.146844,-0.124546,-0.0810445,0.0104904,0.0278473,0.019722,0.00156403,0.02285,0.0115204,0.0172424,0.014534,-9.97986,0.0208282,-0.00148773,0.0144958,0.0082016,0.018158,0.00988007,0.0170898,0.0109482
29,2,10.0097,-0.000305176,0.000152588,-2.42531,0.0575121,-0.0735371,0.0550435,0.0712755,-0.0916206,0.147149,-0.124851,-0.0804342,0.00923157,0.0238037,0.0163651,0.00366211,0.0286865,0.0112152,0.015831,0.0128174,-9.97986,0.0146866,-0.00453949,0.0114059,0.00434875,0.0104904,0.000457764,0.013237,0.00511169
29,3,10.0097,0.000610352,0.000457764,-2.42653,0.0562914,-0.0744527,0.0529073,0.0590685,-0.0934516,0.145318,-0.124546,-0.0816549,0.0117874,0.0270462,0.0180054,0.00247955,0.0195694,0.0117493,0.0168228,0.0205994,-9.97986,0.0149155,-0.00175476,0.0130463,0.00743866,0.0146866,-0.00312805,0.0149536,0.00965118
29,4,9.88973,0.00183105,-0.00152588,-2.42592,0.0562914,-0.0744527,0.0532125,0.0367906,-0.0955879,0.145318,-0.125766,-0.0816549,0.0115967,0.0236893,0.0159454,0.00400543,0.0245285,0.00873566,0.0201797,0.0143051,-9.97986,0.0122452,-0.00156403,0.00659943,0.00606537,0.017128,-0.00988007,0.0147247,0.00537872
29,5,7.53774,0.00152588,-0.000915527,-2.42562,0.0562914,-0.0744527,0.0553487,0.0474718,-0.0943672,0.146539,-0.125766,-0.0819601,0.00839233,0.0246048,0.0166321,0.00118256,0.0242233,0.0102997,0.0137329,0.0155258,-9.97986,0.0119019,-0.00404358,0.0125504,0.00923157,0.0165176,-0.014267,0.0152969,0.00602722
29,6,6.79311,0.0012207,-0.000610352,-2.42531,0.0553758,-0.0738423,0.054128,0.0593737,-0.0910102,0.146539,-0.126682,-0.0822652,0.0122452,0.0268555,0.0175858,0.00553131,0.0254059,0.00907898,0.0186539,0.0168228,-9.97986,0.0125122,-0.00358582,0.0144577,0.0109482,0.0141144,-0.00972748,0.0151443,0.0102615
29,7,6.78578,0.0012207,-0.000152588,-2.42653,0.0562914,-0.0744527,0.0547383,0.067003,-0.0922309,0.145929,-0.124851,-0.0828756,0.00717163,0.0218201,0.017662,0.00343323,0.0255585,0.0107574,0.0240326,0.0173187,-9.97986,0.0164413,-0.000305176,0.00946045,0.00900269,0.0187683,-0.0114441,0.014534,0.00751495
29,8,7.42024,-0.000915527,0.000762939,-2.42745,0.0547655,-0.0735371,0.054128,0.080736,-0.0903999,0.145929,-0.124241,-0.0828756,0.00808716,0.0217819,0.0202942,0.00751495,0.0279617,0.00988007,0.0224304,0.0154495,-9.97986,0.0190735,-0.00209808,0.00846863,0.00999451,0.0194168,-0.0172424,0.0166702,0.00522614
29,9,10.0097,0.00213623,0.00228882,-2.42684,0.0547655,-0.0759786,0.0574849,0.107897,-0.088874,0.144708,-0.123935,-0.0847066,0.00923157,0.0209427,0.0178146,0.00534058,0.0263596,0.0117493,0.0273132,0.0195313,-9.97986,0.0124359,0.00305176,0.0128555,0.00904083,0.0196457,-0.0164032,0.0188446,0.00797272
30,0,10.0097,0.00152588,0.000915527,-2.42928,0.0532396,-0.0765889,0.0522969,0.0889757,-0.0949775,0.144098,-0.130954,-0.0868429,0.0102615,0.0197983,0.0157166,0.00732422,0.0279999,0.0087738,0.0236511,0.0153732,-9.97986,0.0133896,0.00389099,0.00995636,0.0119781,0.0151062,-0.0168991,0.0167465,0.00770569
30,1,10.0097,0,0.000457764,-2.42837,0.0535448,-0.0768941,0.0513814,0.0752428,-0.0968086,0.143792,-0.126682,-0.0871481,0.0119019,0.0185394,0.0133896,0.00591278,0.0268173,0.0139999,0.02285,0.015564,-9.97986,0.0127792,0.000419617,0.0111389,0.0082016,0.0188446,-0.0154114,0.0144958,0.0069046
30,2,10.0097,0,-0.000457764,-2.42928,0.0544603,-0.0759786,0.0544332,0.0724962,-0.0949775,0.143792,-0.127292,-0.0874532,0.0154114,0.0182724,0.0151825,0.00682831,0.0244522,0.0103378,0.023613,0.0167084,-9.97986,0.0107574,-0.000152588,0.00934601,0.0112915,0.0178528,-0.0139999,0.0190735,0.00396729
30,3,10.0097,0.000305176,-0.000152588,-2.42959,0.0538499,-0.0759786,0.0513814,0.0694445,-0.0943672,0.143792,-0.128208,-0.0871481,0.0110626,0.0203323,0.018158,0.00556946,0.0268555,0.00801086,0.0220871,0.0146484,-9.97986,0.0130463,-0.000190735,0.0138092,0.0109482,0.0174713,-0.0128174,0.0164795,0.00652313
30,4,10.0097,0.000610352,-0.000305176,-2.42898,0.0529344,-0.0762837,0.0519917,0.0691393,-0.0955879,0.143182,-0.127903,-0.0868429,0.013504,0.0174713,0.016861,0.00469208,0.0253296,0.0130844,0.0240707,0.0200272,-9.97986,0.0156021,-0.00541687,0.0124359,0.0115967,0.0174332,-0.0146103,0.0118637,0.00514984
30,5,10.0097,-0.000305176,0,-2.42837,0.0544603,-0.0762837,0.0513814,0.07036,-0.0952827,0.143487,-0.127292,-0.085317,0.0119781,0.0203705,0.018959,0.00709534,0.0252151,0.00965118,0.0226974,0.0213623,-9.97986,0.0165558,-0.00183105,0.0150299,0.0100327,0.0167465,-0.0106812,0.0154114,0.00537872
30,6,10.0097,0.000915527,0.000762939,-2.42806,0.0529344,-0.075063,0.054128,0.0694445,-0.0937568,0.145013,-0.125766,-0.085317,0.015831,0.0246429,0.0187302,0.010376,0.0246048,0.00907898,0.0219727,0.0183487,-9.97986,0.017395,-0.00282288,0.0165176,0.0162125,0.0157928,-0.00301361,0.0173187,0.0104141
30,7,10.0097,0.000610352,-0.000457764,-2.42806,0.0550706,-0.0759786,0.0529073,0.0694445,-0.0937568,0.145318,-0.126377,-0.0847066,0.00995636,0.0191498,0.017662,0.00572205,0.0269699,0.00553131,0.0154495,0.0170898,-9.97986,0.0152588,-0.00762939,0.0126648,0.00526428,0.0122452,-0.00297546,0.010376,0.00492096
30,8,10.0097,-0.000305176,0.000152588,-2.42592,0.0559862,-0.0729268,0.0547383,0.0709703,-0.0919257,0.145929,-0.125461,-0.0831808,0.0124741,0.0211334,0.0145721,0.00720978,0.0296021,0.0132751,0.0196075,0.0198746,-9.97986,0.0137711,-0.00259399,0.0147247,0.0120163,0.0188065,0.00286102,0.018158,0.00961304
30,9,10.0097,0.00183105,0.000762939,-2.4244,0.0569017,-0.0756734,0.0550435,0.0709703,-0.0922309,0.147149,-0.127903,-0.0816549,0.0102615,0.0180817,0.0153351,0.00579834,0.02491,0.00850677,0.0138855,0.0148773,-9.97986,0.0131607,-0.00221252,0.0110626,0.0102234,0.0123215,0.00274658,0.0167847,0.00694275
31,0,10.0097,0.000915527,0.000152588,-2.42562,0.0575121,-0.0744527,0.054128,0.0724962,-0.0913154,0.146539,-0.124241,-0.0810445,0.0143814,0.0233459,0.0187683,0.0094223,0.0266647,0.0100327,0.020256,0.0167465,-9.97986,0.0188065,-0.00160217,0.0108719,0.00896454,0.0137329,0.00267029,0.0163269,0.00415802
31,1,10.0097,0.0012207,0.000305176,-2.4244,0.0565965,-0.0747579,0.0526021,0.0706652,-0.0913154,0.147455,-0.124241,-0.0813497,0.0124359,0.0204086,0.0195694,0.0133514,0.0231934,0.00934601,0.016861,0.0181198,-9.97986,0.0171661,-0.0037384,0.01194,0.01091,0.016098,0.00659943,0.0178909,0.00526428
31,2,10.0097,0.00152588,-0.000457764,-2.42531,0.055681,-0.0738423,0.0550435,0.072191,-0.0916206,0.147455,-0.120273,-0.0816549,0.00766754,0.0162888,0.0164032,0.0110245,0.0231552,0.00740051,0.0165176,0.0211334,-9.97986,0.0157166,0.00202179,0.00984192,0.0111389,0.0163269,-0.000305176,0.0170898,0.00526428
31,3,10.0097,0.00152588,0.000305176,-2.42592,0.055681,-0.0747579,0.0547383,0.0612047,-0.094062,0.143487,-0.124851,-0.0810445,0.00980377,0.0223541,0.0190353,0.0130844,0.0242996,0.0103378,0.0181961,0.0212479,-9.97986,0.0174713,0.00289917,0.0109863,0.014267,0.0177765,-0.00278473,0.0115204,0.00919342
31,4,10.0097,-0.000610352,-0.00152588,-2.42653,0.0562914,-0.0744527,0.0474141,0.0364855,-0.0952827,0.144708,-0.126377,-0.0822652,0.00968933,0.0150299,0.018692,0.0119019,0.0250244,0.00923157,0.0217056,0.0178909,-9.97986,0.0158691,-0.000991821,0.0145721,0.0111008,0.0188065,-0.000762939,0.017662,0.00911713
31,5,7.78096,0.000305176,-0.00167847,-2.42501,0.0562914,-0.0756734,0.0547383,0.0465563,-0.0934516,0.146539,-0.127598,-0.0822652,0.0110245,0.016861,0.0162125,0.0123596,0.0229263,0.00923157,0.0216675,0.0178146,-9.97986,0.0188446,-0.000648499,0.013504,0.0107956,0.0209045,0.00713348,0.0157166,0.0069809
31,6,7.02535,0.00366211,-0.000762939,-2.42714,0.0547655,-0.0741475,0.0544332,0.0593737,-0.0925361,0.146234,-0.125156,-0.0825704,0.00976563,0.0183105,0.016098,0.0120926,0.0227737,0.00862122,0.0211716,0.0182343,-9.97986,0.0156021,-0.0044632,0.0120163,0.0111008,0.0141144,0.0113678,0.0182724,0.00572205
31,7,7.03023,0.0012207,-0.000610352,-2.42562,0.055681,-0.0744527,0.0471089,0.0682238,-0.0894843,0.145318,-0.125461,-0.0828756,0.00892639,0.0180817,0.0166702,0.011673,0.0251389,0.00926971,0.0234222,0.0217438,-9.97986,0.0101852,-0.00190735,0.0149918,0.00789642,0.0185394,0.0191116,0.018692,0.00469208
31,8,7.68392,0,0.000305176,-2.42684,0.055681,-0.0726216,0.054128,0.0816515,-0.0913154,0.144403,-0.12241,-0.0828756,0.0129318,0.0199127,0.019722,0.0116348,0.0242615,0.00926971,0.0232697,0.0165176,-9.97986,0.0130081,-0.000724792,0.0151443,0.00995636,0.0239563,0.0185394,0.015564,0.00461578
31,9,10.0097,0,0.00213623,-2.42776,0.0535448,-0.0744527,0.0550435,0.109728,-0.0897895,0.145929,-0.124851,-0.0850118,0.0114059,0.0218964,0.0180817,0.012207,0.0272369,0.00865936,0.0243378,0.0187683,-9.97986,0.014534,-0.00106812,0.0145721,0.00946045,0.0209427,0.0177765,0.0123215,0.00595093
32,0,10.0097,0.000305176,0.000305176,-2.42837,0.0550706,-0.0765889,0.0562642,0.0859239,-0.0946723,0.143182,-0.126377,-0.0859274,0.0104904,0.016861,0.019455,0.0147247,0.0262451,0.00667572,0.0195313,0.0163651,-9.97986,0.0143051,0.000457764,0.0152969,0.00934601,0.0196075,0.0200272,0.0152588,0.00541687
32,1,10.0097,0.000305176,0.000762939,-2.42959,0.0538499,-0.0768941,0.0535176,0.0758531,-0.0952827,0.143792,-0.124851,-0.0874532,0.0118637,0.0182343,0.0215912,0.0120163,0.02285,0.00610352,0.0158691,0.0188065,-9.97986,0.00865936,0.0018692,0.0151825,0.00785828,0.0170135,0.0116348,0.0131989,0.0050354
32,2,10.0097,-0.000610352,0.000305176,-2.42806,0.0535448,-0.0762837,0.0529073,0.0694445,-0.095893,0.142572,-0.126682,-0.0862325,0.011673,0.0206375,0.0198364,0.0120926,0.0236893,0.00793457,0.0126648,0.0228119,-9.97986,0.0134659,0.0012207,0.016098,0.00858307,0.0162888,-0.00198364,0.0152206,0.00743866
32,3,10.0097,-0.0012207,-0.000915527,-2.42989,0.0538499,-0.0756734,0.0513814,0.0697496,-0.0971137,0.145624,-0.127292,-0.0871481,0.00911713,0.0223923,0.0174332,0.0124741,0.0196075,0.0044632,0.0125122,0.0223541,-9.97986,0.0129318,-0.000495911,0.0132751,0.00591278,0.0143051,-0.00541687,0.0119019,0.00709534
32,4,10.0097,-0.000305176,-0.000762939,-2.42867,0.0532396,-0.0778096,0.0529073,0.0700548,-0.0952827,0.143792,-0.123935,-0.0868429,0.0114822,0.0190353,0.0193405,0.0127029,0.0272369,0.01194,0.0138855,0.0200272,-9.97986,0.00831604,0.00133514,0.0150299,0.00747681,0.0171661,-0.00183105,0.0162506,0.00816345
32,5,10.0097,0.000610352,-0.000762939,-2.42837,0.0559862,-0.0756734,0.0516866,0.0691393,-0.094062,0.146234,-0.126377,-0.0862325,0.00938416,0.0169754,0.0205231,0.0143433,0.0266647,0.00637054,0.0136185,0.0142288,-9.97986,0.0115585,-0.00343323,0.018692,0.0107193,0.0143433,-0.00476837,0.0126648,0.00938416
32,6,10.0097,0.0012207,0,-2.42776,0.0544603,-0.0747579,0.04894,0.0697496,-0.0943672,0.144403,-0.126987,-0.085317,0.0107193,0.0204086,0.0202942,0.0116348,0.020752,0.00831604,0.0161362,0.0191116,-9.97986,0.012207,-0.0025177,0.0218964,0.00839233,0.0133896,-0.000495911,0.0135803,0.0107956
32,7,10.0097,-0.0012207,0,-2.42623,0.0550706,-0.069875,0.0535176,0.0706652,-0.0919257,0.144403,-0.129429,-0.0837911,0.00846863,0.017128,0.018425,0.0119781,0.0251007,0.00617981,0.0183868,0.0242615,-9.97986,0.0122833,-0.00244141,0.0159836,0.00473022,0.0111008,-0.00392914,0.015564,0.00957489
32,8,10.0097,0.0012207,0.000305176,-2.42592,0.0550706,-0.0747579,0.054128,0.0697496,-0.094062,0.147455,-0.125156,-0.0834859,0.01194,0.0176239,0.0246048,0.00984192,0.0225067,0.00659943,0.0231552,0.018425,-9.97986,0.016861,-0.00324249,0.014267,0.00473022,0.0107574,-0.00282288,0.0127792,0.00629425
32,9,10.0097,0.000610352,0.000305176,-2.42653,0.0562914,-0.0738423,0.050771,0.0718859,-0.0910102,0.145624,-0.125156,-0.0810445,0.0133514,0.0216293,0.018959,0.0152206,0.0261307,0.00656128,0.0219345,0.0233841,-9.97986,0.0135422,0.000610352,0.0175095,0.00801086,0.0137329,0.00286102,0.0144958,0.00411987
33,0,10.0097,0.000915527,0.000152588,-2.42531,0.0553758,-0.0710957,0.0547383,0.0709703,-0.0910102,0.146234,-0.124851,-0.0813497,0.00831604,0.0238419,0.0162506,0.01297,0.0257492,0.00965118,0.0249481,0.0214386,-9.97986,0.0149536,-0.0019455,0.0157166,0.00164032,0.0146103,0.00663757,0.0141144,0.00198364
33,1,10.0097,0.00305176,0.000457764,-2.42562,0.0562914,-0.0735371,0.0544332,0.0700548,-0.0913154,0.147149,-0.124241,-0.0810445,0.00740051,0.0265121,0.0173569,0.013237,0.0260544,0.00656128,0.0296402,0.0157928,-9.97986,0.0146484,-0.00514984,0.0197983,0.00843048,0.0151062,0.00934601,0.0167465,0.00476837
33,2,10.0097,0.000305176,0.000610352,-2.42348,0.0569017,-0.0741475,0.0516866,0.0715807,-0.0910102,0.146844,-0.124546,-0.0813497,0.0111008,0.0191498,0.0159073,0.0123978,0.0190735,0.00854492,0.0308228,0.0200653,-9.97986,0.0148392,-0.00106812,0.0110245,0.00919342,0.0217438,0.00713348,0.0167084,0.00228882
33,3,10.0097,0.00183105,0,-2.42684,0.0569017,-0.0747579,0.054128,0.0590685,-0.0937568,0.148065,-0.124241,-0.0819601,0.0122452,0.0221634,0.0191879,0.0151825,0.0251007,0.0101471,0.0305176,0.0174713,-9.97986,0.0177383,0.00236511,0.00934601,0.00686646,0.0241089,0.0101089,0.0177383,-0.00087738
33,4,9.96999,0.000305176,-0.00213623,-2.42592,0.055681,-0.0738423,0.0538228,0.0352648,-0.0952827,0.145624,-0.126377,-0.0816549,0.00659943,0.0250244,0.0205231,0.0110626,0.0191116,0.0141525,0.0317383,0.0165176,-9.97986,0.019989,-0.000762939,0.0136566,0.00679016,0.0200272,0.00644684,0.0180817,0.00411987
33,5,7.66225,0.000610352,-0.000915527,-2.42562,0.0569017,-0.0741475,0.0562642,0.049608,-0.0919257,0.146539,-0.126987,-0.0816549,0.0161743,0.0229645,0.0202179,0.0112534,0.0222015,0.00984192,0.0344849,0.0211334,-9.97986,0.0190353,0.00087738,0.0150299,0.00785828,0.0179672,0.00736237,0.015564,0.00118256
33,6,6.96706,0.000610352,-0.000610352,-2.42592,0.0559862,-0.0762837,0.0535176,0.0593737,-0.090705,0.147149,-0.128513,-0.0828756,0.0115204,0.0251389,0.0204468,0.00858307,0.0178146,0.00957489,0.0323486,0.0172806,-9.97986,0.0191498,0.00087738,0.0139618,0.00499725,0.0196457,0.00530243,0.0143814,-0.00255585
33,7,7.00429,0.000610352,0.000152588,-2.42592,0.055681,-0.0753682,0.0538228,0.0663927,-0.0919257,0.145624,-0.125766,-0.0828756,0.0106049,0.0235748,0.0186539,0.0118256,0.0180817,0.00988007,0.0289917,0.0193405,-9.97986,0.0158691,-0.00350952,0.013237,0.00785828,0.0208664,0.00350952,0.018959,-0.00244141
33,8,7.6946,0.000610352,0.000915527,-2.42837,0.0559862,-0.0747579,0.0568746,0.0810411,-0.0910102,0.145624,-0.125156,-0.0825704,0.0102997,0.024147,0.0174332,0.00919342,0.0192261,0.0108719,0.0234222,0.0157547,-9.97986,0.0140381,-0.00480652,0.0133896,0.00648499,0.0199509,0.00621796,0.017395,0.00419617
33,9,10.0097,0,0.00167847,-2.42623,0.0529344,-0.0741475,0.0553487,0.108812,-0.088874,0.144403,-0.125766,-0.0850118,0.00869751,0.0264359,0.0218964,0.0153732,0.0204468,0.0108337,0.0248718,0.0174332,-9.97986,0.0175476,-0.00457764,0.0172424,0.00457764,0.0195694,0.0037384,0.014801,0.0050354
34,0,10.0097,-0.000610352,0.000610352,-2.42989,0.0529344,-0.0765889,0.0516866,0.0850084,-0.0946723,0.143182,-0.126072,-0.0862325,0.0131607,0.0272751,0.019722,0.00946045,0.0172424,0.00904083,0.0241089,0.0178909,-9.97986,0.0211334,0.00209808,0.0160599,0.0082016,0.0214005,0.00682831,0.0163269,0.00358582
34,1,10.0097,0.00213623,0.000152588,-2.42837,0.0535448,-0.0768941,0.0516866,0.075548,-0.0949775,0.143792,-0.126072,-0.0862325,0.0087738,0.0265121,0.0179672,0.00823975,0.0192261,0.014801,0.0221252,0.0214386,-9.97986,0.0125885,0.000152588,0.0165558,0.0069809,0.0190353,0.00930786,0.0161362,0.00480652
34,2,10.0097,-0.000610352,-0.000152588,-2.4302,0.0535448,-0.0771993,0.0522969,0.0715807,-0.0946723,0.143182,-0.124851,-0.0874532,0.00804901,0.0292587,0.0218964,0.00904083,0.0220108,0.0134277,0.0250244,0.0165558,-9.97986,0.0204468,-0.00358582,0.0146866,0.00579834,0.0179291,-0.00167847,0.0164413,0.00263214
34,3,10.0097,0.0012207,-0.000305176,-2.42928,0.0535448,-0.0765889,0.0522969,0.0697496,-0.095893,0.144098,-0.126987,-0.0865377,0.00946045,0.028038,0.0193024,0.00545502,0.0211334,0.0157166,0.0234604,0.0195313,-9.97986,0.0195694,0.00087738,0.0177002,0.0056076,0.0215912,3.8147e-005,0.0174713,0.00774384
34,4,10.0097,0.000915527,0,-2.42837,0.0529344,-0.0759786,0.0538228,0.0688341,-0.094062,0.143792,-0.127903,-0.0874532,0.00770569,0.0289154,0.0157928,0.00724792,0.0183487,0.00736237,0.0204468,0.0119781,-9.97986,0.0178146,-0.00736237,0.0146103,0.00392914,0.0178528,-0.00499725,0.0150681,0.00827789
34,5,10.0097,0.000305176,-0.000305176,-2.42806,0.0535448,-0.0771993,0.0510762,0.0694445,-0.0934516,0.145318,-0.125766,-0.085317,0.00751495,0.0257874,0.0183868,0.00705719,0.0205612,0.0118637,0.0224304,0.0162888,-9.97986,0.016861,-0.00320435,0.015831,0.00621796,0.0156403,-0.0123596,0.014801,0.00717163
34,6,10.0097,0.00274658,-0.000305176,-2.42898,0.0544603,-0.0759786,0.054128,0.0700548,-0.0937568,0.144403,-0.126682,-0.0850118,0.0087738,0.0267792,0.021019,0.00499725,0.0199127,0.0126648,0.0208664,0.0186157,-9.97986,0.0173187,-0.00259399,0.0159836,0.00244141,0.0139618,-0.0111389,0.0127029,0.00713348
34,7,10.0097,0.00213623,0.000457764,-2.42745,0.0541551,-0.0744527,0.0544332,0.0706652,-0.0925361,0.144403,-0.126377,-0.0847066,0.00701904,0.0247574,0.0206375,0.0137329,0.0175858,0.0131607,0.0179672,0.0112915,-9.97986,0.013237,-0.000419617,0.0194931,0.0025177,0.0167847,-0.00816345,0.0183868,0.010376
34,8,10.0097,0.00183105,0.000457764,-2.42623,0.0553758,-0.0717061,0.0547383,0.0700548,-0.0931465,0.145318,-0.125156,-0.0837911,0.0102234,0.0283051,0.0202179,0.0101471,0.0153732,0.0116348,0.0153351,0.0128937,-9.97986,0.0140762,-0.000724792,0.0179291,0.00205994,0.0164032,-0.0114441,0.0166321,0.0075531
34,9,10.0097,0.00274658,0.000762939,-2.4244,0.0575121,-0.0738423,0.0556539,0.0712755,-0.0925361,0.145929,-0.124851,-0.0807394,0.0146866,0.0234985,0.0212479,0.0120926,0.0159073,0.0121307,0.0178146,0.0175476,-9.97986,0.0230789,-0.00518799,0.0170517,0.00156403,0.0127411,-0.019455,0.0178146,0.00770569
35,0,10.0097,0.00244141,-0.000457764,-2.4247,0.0569017,-0.0741475,0.0529073,0.0718859,-0.0922309,0.146234,-0.124546,-0.0816549,0.0100327,0.0210953,0.022316,0.013237,0.0201416,0.0107574,0.0170135,0.0172424,-9.97986,0.0161743,0.00106812,0.0156403,0.000419617,0.0151443,-0.0191879,0.0159073,0.00583649
35,1,10.0097,0.00335693,-0.000152588,-2.4247,0.0562914,-0.073232,0.0556539,0.0709703,-0.0928413,0.14776,-0.128513,-0.0813497,0.0105667,0.0203705,0.0203705,0.0153732,0.0226593,0.0150299,0.0187302,0.0165558,-9.97986,0.0137711,0.0038147,0.0179672,-0.0062561,0.0184631,-0.018959,0.0173569,0.00720978
35,2,10.0097,0.00213623,0.000457764,-2.42531,0.0569017,-0.0738423,0.0553487,0.0709703,-0.0900947,0.147149,-0.12363,-0.0810445,0.0131607,0.0235748,0.0201035,0.0124359,0.0275803,0.0108337,0.0179672,0.0199127,-9.97986,0.0157166,-0.00221252,0.0176239,-0.00259399,0.0162506,-0.0185013,0.0161362,0.00537872
35,3,10.0097,-0.000305176,-0.000305176,-2.42562,0.0553758,-0.0747579,0.0535176,0.0593737,-0.0937568,0.146539,-0.125156,-0.0822652,0.0151062,0.020752,0.0200653,0.0115967,0.0250626,0.0128174,0.0190353,0.0149536,-9.97986,0.0225067,0.000152588,0.014801,-0.00102997,0.0169754,-0.0155258,0.0178146,0.0069809
35,4,10.0097,0.00152588,-0.00198364,-2.42623,0.0569017,-0.0747579,0.0547383,0.0355699,-0.0955879,0.146234,-0.125766,-0.0813497,0.0114822,0.0198746,0.0169754,0.0113678,0.0238419,0.0120544,0.0217438,0.018692,-9.97986,0.0165176,-0.00125885,0.0141525,-0.00247955,0.0162506,-0.0143433,0.0167847,0.00576019
35,5,7.68331,0.000915527,-0.00106812,-2.4244,0.055681,-0.0738423,0.0544332,0.0471666,-0.0913154,0.146539,-0.126072,-0.0816549,0.0174332,0.022583,0.0217438,0.0159454,0.0277328,0.01297,0.0214005,0.0236511,-9.97986,0.0165939,0.000495911,0.01194,-0.00228882,0.0187683,-0.0148392,0.0167084,0.00759125
35,6,6.93746,0.00213623,-0.000610352,-2.42562,0.0553758,-0.0744527,0.0544332,0.0587633,-0.0925361,0.146539,-0.125766,-0.0822652,0.00957489,0.0206375,0.0226974,0.0142288,0.0232697,0.0111389,0.0170135,0.0220108,-9.97986,0.019722,0.000839233,0.0152969,0.00133514,0.0185013,-0.0109482,0.0165558,0.00556946
35,7,6.92891,0.000305176,0.000305176,-2.42623,0.0559862,-0.0756734,0.0556539,0.0660875,-0.0925361,0.145013,-0.125766,-0.0825704,0.0120544,0.0212479,0.0226593,0.0175476,0.021553,0.0147247,0.0195694,0.0193024,-9.97986,0.0205994,-0.00221252,0.0140381,-0.00579834,0.0175858,-0.00793457,0.0177765,0.00488281
35,8,7.56093,-0.000305176,0.000305176,-2.42623,0.0553758,-0.075063,0.0556539,0.0816515,-0.090705,0.145013,-0.125156,-0.0828756,0.0123215,0.019989,0.0236893,0.0157547,0.0224686,0.013237,0.0185394,0.0192642,-9.97986,0.0185013,0.00175476,0.0110626,0.00545502,0.0140762,-0.0107193,0.0187683,0.0056839
35,9,10.0097,-0.00183105,0.00152588,-2.42684,0.0547655,-0.0759786,0.0562642,0.108812,-0.0894843,0.145318,-0.125461,-0.0847066,0.0143814,0.0247574,0.0185013,0.0115204,0.0214767,0.0137329,0.0170135,0.0157166,-9.97986,0.0188065,0.00038147,0.0131989,-0.00102997,0.0147629,-0.00957489,0.0144196,0.00499725
36,0,10.0097,0.0012207,0.00106812,-2.42928,0.0529344,-0.075063,0.0529073,0.0874498,-0.0943672,0.143792,-0.12363,-0.0871481,0.0102615,0.0222778,0.0219727,0.014534,0.0227356,0.0115967,0.0149918,0.0159836,-9.97986,0.0162125,0.00038147,0.00984192,-0.00263214,0.0182724,-0.00713348,0.0174332,0.00457764
36,1,10.0097,0.0012207,0.000152588,-2.42928,0.0538499,-0.0759786,0.0519917,0.0758531,-0.0955879,0.144403,-0.126987,-0.0874532,0.0133133,0.0270844,0.0231552,0.0165939,0.0214005,0.0167465,0.0153732,0.0162888,-9.97986,0.0191879,0.0025177,0.0149536,-0.00312805,0.0124359,-0.00617981,0.0152206,0.00587463
36,2,10.0097,0.000915527,0,-2.42959,0.0532396,-0.0759786,0.0532125,0.0706652,-0.0955879,0.143487,-0.126377,-0.0862325,0.0131989,0.0247574,0.0234604,0.0143051,0.0201035,0.0129318,0.0185776,0.0170898,-9.97986,0.0179291,-0.000686646,0.0145721,0.000495911,0.0157547,-0.00522614,0.0149536,0.0062561
36,3,10.0097,0.0012207,-0.000762939,-2.42898,0.0529344,-0.0756734,0.0519917,0.0697496,-0.0946723,0.144403,-0.128208,-0.0871481,0.0127792,0.0249481,0.0230408,0.0134277,0.0172043,0.0123215,0.0201035,0.0172424,-9.97986,0.0174713,-0.001297,0.0143814,-0.0031662,0.0198364,-0.00667572,0.0160217,0.00358582
36,4,10.0097,0.000610352,-0.000457764,-2.42959,0.0547655,-0.0768941,0.0526021,0.0691393,-0.0949775,0.143487,-0.126987,-0.0877584,0.0120926,0.0247574,0.0185013,0.00999451,0.0228119,0.00892639,0.0165558,0.0171661,-9.97986,0.0141144,0.000114441,0.0122833,-0.00419617,0.0159836,-0.00804901,0.0148392,0.00423431
36,5,10.0097,0.000610352,-0.000762939,-2.42806,0.0541551,-0.075063,0.0526021,0.0691393,-0.0937568,0.144708,-0.126987,-0.0862325,0.0111008,0.0208282,0.02388,0.0127029,0.015564,0.014267,0.0193405,0.0227737,-9.97986,0.0167465,-0.000724792,0.0145721,-0.00164032,0.0143433,-0.00358582,0.0149536,0.00652313
36,6,10.0097,0,-0.000152588,-2.42745,0.0559862,-0.075063,0.0522969,0.0700548,-0.094062,0.144098,-0.126072,-0.0840963,0.0138474,0.0247574,0.0193024,0.01194,0.0121689,0.0123215,0.0170898,0.0188446,-9.97986,0.0143433,-0.00366211,0.00782013,0.001297,0.0120926,-0.00576019,0.015831,0.00358582
36,7,10.0097,0.000915527,0.000762939,-2.42653,0.0559862,-0.0747579,0.0544332,0.0700548,-0.0931465,0.144403,-0.126072,-0.0837911,0.0121689,0.0193024,0.0178528,0.0138092,0.014801,0.0125504,0.0240326,0.0245667,-9.97986,0.0149536,-0.000267029,0.0152206,0.00038147,0.0159836,-0.0043869,0.0150299,0.00591278
36,8,10.0097,0.000610352,0.000457764,-2.42653,0.055681,-0.0747579,0.054128,0.0697496,-0.0928413,0.145624,-0.125766,-0.0834859,0.0100708,0.0204086,0.0211334,0.00904083,0.0123978,0.0138474,0.0257111,0.0192642,-9.97986,0.0129318,-0.000724792,0.0108719,0.000915527,0.0131989,-0.00915527,0.0158691,0.00442505
36,9,10.0097,0.000915527,-0.000305176,-2.4247,0.0565965,-0.0738423,0.0550435,0.0712755,-0.0928413,0.146234,-0.124546,-0.0816549,0.00751495,0.0243378,0.0202179,0.0128937,0.0135803,0.0104904,0.0271225,0.0170517,-9.97986,0.0144577,-0.00202179,0.0115585,-0.00133514,0.017662,-0.00385284,0.0156021,0.00240326
37,0,10.0097,-0.0012207,0.000305176,-2.42531,0.0575121,-0.0744527,0.0544332,0.0718859,-0.0910102,0.146844,-0.124241,-0.0816549,0.00507355,0.0210571,0.0173569,0.0118256,0.0167465,0.0136948,0.0289154,0.0206375,-9.97986,0.0161743,0.00221252,0.0125885,0.000724792,0.0165176,-0.00434875,0.0193787,0.0062561
37,1,10.0097,0.00183105,0,-2.42379,0.055681,-0.0729268,0.0550435,0.0709703,-0.0916206,0.147149,-0.125156,-0.0810445,0.00423431,0.0275803,0.0183868,0.0124741,0.0140762,0.0143433,0.0285339,0.0180435,-9.97986,0.0111771,-0.00404358,0.00946045,0.00267029,0.018959,-0.00164032,0.015831,0.00522614
37,2,10.0097,0.0012207,0.000457764,-2.42501,0.0550706,-0.0741475,0.0556539,0.0718859,-0.0916206,0.147149,-0.125156,-0.080129,0.00415802,0.0203323,0.0172806,0.0101852,0.0152588,0.0136566,0.0265121,0.0197601,-9.97986,0.0165558,0.0012207,0.0139618,0.00522614,0.0188446,0.00221252,0.0144577,0.00511169
37,3,10.0097,0.00152588,0.000305176,-2.42653,0.0553758,-0.0741475,0.0538228,0.0608995,-0.0925361,0.146234,-0.125156,-0.0819601,0.00488281,0.0203323,0.0189972,0.0148392,0.014267,0.014801,0.0262833,0.0120163,-9.97986,0.0167847,-0.000686646,0.0146103,0.00106812,0.0166321,0.00411987,0.0145721,0.00614166
37,4,10.0097,-0.000305176,-0.0012207,-2.42592,0.0559862,-0.0741475,0.0522969,0.0370958,-0.0961982,0.147455,-0.126377,-0.0822652,0.00679016,0.0203705,0.0233459,0.010376,0.0144196,0.0119781,0.027771,0.0182724,-9.97986,0.0151825,0.00335693,0.00915527,0.00320435,0.0138092,-0.00164032,0.0154877,0.0069046
37,5,7.70894,0.000915527,-0.000915527,-2.42592,0.0562914,-0.0747579,0.0547383,0.0483873,-0.0928413,0.145929,-0.12363,-0.0804342,0.00854492,0.022316,0.0163269,0.0117874,0.0180435,0.0125122,0.0273895,0.0185776,-9.97986,0.0136185,-0.00209808,0.0113678,0.00411987,0.0143433,-0.0038147,0.0159454,0.00652313
37,6,6.97591,-0.00152588,-0.000610352,-2.4247,0.0547655,-0.073232,0.054128,0.0593737,-0.0919257,0.146844,-0.126072,-0.0816549,0.0149536,0.0254822,0.0220871,0.0127029,0.0135422,0.0169754,0.0173569,0.018959,-9.97986,0.0166321,0.000610352,0.0163269,0.00362396,0.0169373,-0.00156403,0.0176239,0.00587463
37,7,7.01833,0.00183105,-0.000457764,-2.42776,0.0544603,-0.0741475,0.0550435,0.0666979,-0.0922309,0.145624,-0.125156,-0.0819601,0.0151443,0.0255585,0.0178146,0.0101852,0.0110626,0.00999451,0.0232697,0.017128,-9.97986,0.0164795,-0.000610352,0.0141144,0.00362396,0.0150681,-0.00591278,0.0143051,0.00404358
37,8,7.7007,0.00274658,0.000305176,-2.42592,0.0547655,-0.075063,0.0553487,0.0810411,-0.0913154,0.144098,-0.12363,-0.0831808,0.0158691,0.0212097,0.0214386,0.0151443,0.014534,0.00907898,0.022316,0.0171661,-9.97986,0.0153351,0.00038147,0.0127411,0.00286102,0.0152206,-0.00427246,0.0162506,0.00396729
37,9,10.0097,0.0012207,0.00152588,-2.42745,0.0538499,-0.0744527,0.054128,0.109422,-0.0885688,0.144708,-0.123935,-0.0831808,0.0191116,0.021286,0.0178146,0.0138855,0.0124741,0.00995636,0.0239182,0.017662,-9.97986,0.0164413,-0.000915527,0.0152969,0.00389099,0.0172424,-0.0113297,0.0200653,0.00469208
38,0,10.0097,-0.000305176,0.000305176,-2.42989,0.0535448,-0.0765889,0.0513814,0.0859239,-0.0937568,0.142572,-0.125766,-0.0862325,0.0154495,0.0205612,0.0164795,0.0125504,0.0111771,0.0128937,0.0251007,0.0198364,-9.97986,0.01297,-0.00411987,0.0149536,0.00125885,0.0111771,-0.0125504,0.0164032,0.00507355
38,1,10.0097,0.000610352,0.000305176,-2.42928,0.0544603,-0.0753682,0.0519917,0.075548,-0.0965034,0.144403,-0.126987,-0.0874532,0.0178146,0.0242996,0.0188828,0.0140762,0.0126266,0.0124359,0.0254822,0.0185013,-9.97986,0.0119019,-0.00164032,0.0107956,0.00488281,0.0117493,-0.00968933,0.0165558,0.00854492
38,2,10.0097,0,-0.000305176,-2.42989,0.0538499,-0.0756734,0.0522969,0.0706652,-0.0955879,0.143487,-0.125461,-0.0865377,0.0150299,0.0263977,0.0216293,0.0139999,0.011673,0.00656128,0.0189209,0.0183487,-9.97986,0.0132751,-0.00537872,0.0172424,0.000686646,0.0125885,-0.00297546,0.0192642,0.00511169
38,3,10.0097,0.000305176,-0.000305176,-2.42989,0.0535448,-0.0759786,0.0513814,0.0694445,-0.0949775,0.143487,-0.127598,-0.0868429,0.0128174,0.0200653,0.018959,0.0141525,0.0140381,0.0145721,0.0226593,0.0190353,-9.97986,0.0117111,-0.00488281,0.0152206,-0.000305176,0.0175476,0.00137329,0.0180817,0.00648499
38,4,10.0097,0,-0.000610352,-2.42959,0.0544603,-0.0756734,0.0516866,0.0694445,-0.0952827,0.143792,-0.128818,-0.0874532,0.00583649,0.0211716,0.0165939,0.0125885,0.0113297,0.0130463,0.0215912,0.0218964,-9.97986,0.00621796,-0.000762939,0.0138474,0.00278473,0.0156403,0.00301361,0.0174713,0.00701904
38,5,10.0097,0.000915527,-0.000305176,-2.42867,0.0547655,-0.0756734,0.0529073,0.0697496,-0.0952827,0.145013,-0.127598,-0.085317,0.0088501,0.0225067,0.0166321,0.0128937,0.0136185,0.014801,0.0177765,0.0188065,-9.97986,0.00694275,0.00110626,0.0144577,0.00320435,0.0170898,0.00629425,0.0175476,0.00587463
38,6,10.0097,0.0012207,0.000305176,-2.42776,0.0532396,-0.0747579,0.0529073,0.0691393,-0.0937568,0.144098,-0.126377,-0.085317,0.0114822,0.019989,0.0212479,0.0164032,0.0133133,0.0167465,0.0217438,0.0198746,-9.97986,0.00934601,0.00297546,0.0165558,0.00774384,0.0169373,0.0082016,0.0186157,0.00938416
38,7,10.0097,0.00183105,-0.000305176,-2.42653,0.0550706,-0.0738423,0.0529073,0.07036,-0.094062,0.145013,-0.127292,-0.0847066,0.01297,0.0224686,0.0214767,0.0151825,0.0156021,0.01297,0.0221252,0.0158691,-9.97986,0.00762939,0.00236511,0.0139999,0.00434875,0.0155258,0.00488281,0.0189972,0.00766754
38,8,10.0097,0.000915527,0.000610352,-2.42592,0.0547655,-0.075063,0.054128,0.0694445,-0.0919257,0.146539,-0.126682,-0.0837911,0.014267,0.02491,0.0201035,0.0144196,0.014267,0.0157166,0.0210571,0.0191879,-9.97986,0.0138092,0.000343323,0.0165176,0.0056076,0.0130081,0.00232697,0.0162125,0.00740051
38,9,10.0097,0.000610352,-0.000305176,-2.4244,0.0565965,-0.0735371,0.0535176,0.0712755,-0.0922309,0.146844,-0.123935,-0.0819601,0.00793457,0.0212097,0.0172424,0.0131607,0.00778198,0.0117111,0.0162506,0.0113678,-9.97986,0.0133133,0.00110626,0.0101471,0.00213623,0.0152588,-0.0037384,0.0157547,0.00747681
39,0,10.0097,-0.000915527,-0.000305176,-2.42501,0.0559862,-0.0744527,0.0544332,0.0718859,-0.0922309,0.147149,-0.125156,-0.0807394,0.0087738,0.0246048,0.0204849,0.0103378,0.0143433,0.0112152,0.0219727,0.0153732,-9.97986,0.0123978,-0.000953674,0.0106812,0.00190735,0.0151062,-0.00785828,0.0172424,0.0050354
39,1,10.0097,0,0.000457764,-2.4247,0.0565965,-0.073232,0.0547383,0.0712755,-0.0919257,0.146844,-0.121189,-0.0813497,0.0104904,0.0257492,0.0172424,0.0130463,0.0134659,0.00804901,0.0204849,0.0168228,-9.97986,0.0161743,0.00312805,0.0125885,0.00720978,0.014534,-0.00957489,0.0185013,0.00999451
39,2,10.0097,0.00152588,-0.000457764,-2.42653,0.0569017,-0.0747579,0.0556539,0.072191,-0.0922309,0.145624,-0.12363,-0.0810445,0.0094223,0.0221252,0.0165176,0.0138474,0.014267,0.0139618,0.0198746,0.0131607,-9.97986,0.0239563,-0.000495911,0.0107574,0.00686646,0.0178146,-0.0102997,0.0167465,0.00595093
39,3,10.0097,0,0.000610352,-2.42684,0.055681,-0.0741475,0.0538228,0.0590685,-0.0931465,0.145624,-0.124851,-0.080129,0.00827789,0.0227356,0.0201797,0.013504,0.0115204,0.0121689,0.0208282,0.0171661,-9.97986,0.0188065,0.00484467,0.0148392,0.00366211,0.0172424,-0.0107574,0.0159073,0.00522614
39,4,9.99349,0.00213623,-0.00213623,-2.42592,0.0565965,-0.0729268,0.0535176,0.0358751,-0.0955879,0.146539,-0.130649,-0.0828756,0.0050354,0.0210571,0.0194168,0.0141907,0.0138474,0.0111008,0.0183487,0.0191498,-9.97986,0.0193024,-0.00541687,0.0146866,0.00736237,0.013504,-0.00640869,0.0184631,0.00743866
39,5,7.63845,0,-0.00137329,-2.42562,0.0547655,-0.0744527,0.0550435,0.0483873,-0.0931465,0.147149,-0.126072,-0.0819601,0.0153351,0.0265121,0.0184631,0.0122452,0.0152969,0.0119781,0.0207138,0.0160217,-9.97986,0.0138855,-0.00156403,0.0110245,0.00278473,0.0167847,-0.00576019,0.0181198,0.00873566
39,6,6.8636,0.000915527,-0.000457764,-2.42653,0.0559862,-0.0744527,0.0526021,0.0587633,-0.0919257,0.145624,-0.126072,-0.0822652,0.00923157,0.0253677,0.0213623,0.00900269,0.0133133,0.0127792,0.0139618,0.0147247,-9.97986,0.0165939,0.00213623,0.0139236,0.00473022,0.0166702,0.000419617,0.0205231,0.0044632
39,7,6.87551,0.0012207,0.000152588,-2.42653,0.0559862,-0.0735371,0.0547383,0.0663927,-0.0922309,0.145624,-0.124546,-0.0831808,0.00907898,0.0231934,0.0159836,0.00743866,0.0104904,0.0114441,0.0188065,0.0186157,-9.97986,0.0204468,0.00385284,0.0117874,0.00717163,0.0151062,0.00228882,0.0144958,0.00415802
39,8,7.5298,-0.000610352,0.000305176,-2.42592,0.055681,-0.0759786,0.0562642,0.080736,-0.0916206,0.145624,-0.123935,-0.0834859,0.00946045,0.0254822,0.0183105,0.00831604,0.0133514,0.0146103,0.0225067,0.0174332,-9.97986,0.0183868,0.00213623,0.0119781,0.00457764,0.0124359,-0.00247955,0.018158,0.00415802
39,9,10.0097,0.00152588,0.00228882,-2.42806,0.0541551,-0.075063,0.0556539,0.109422,-0.088874,0.145013,-0.124546,-0.0840963,0.0144958,0.0230026,0.0200272,0.00946045,0.016098,0.0127411,0.0151062,0.0187302,-9.97986,0.014267,-0.00110626,0.0145721,0.00778198,0.0143433,-0.000572205,0.0188446,0.00598907
40,0,10.0097,0.000610352,0.00106812,-2.42867,0.0547655,-0.0768941,0.0519917,0.0874498,-0.0952827,0.144098,-0.128513,-0.0865377,0.0156021,0.0223541,0.017128,0.00995636,0.0152969,0.0131989,0.0214005,0.018692,-9.97986,0.0167465,0.000495911,0.0117874,0.00469208,0.018692,0.00125885,0.0216675,0.00728607
40,1,10.0097,-0.000915527,0.000305176,-2.43081,0.0550706,-0.0768941,0.0526021,0.0758531,-0.0952827,0.143792,-0.126072,-0.0874532,0.0106049,0.0245667,0.0132751,0.0113678,0.014801,0.010643,0.0210953,0.0160599,-9.97986,0.0212479,0.000457764,0.0101471,0.00110626,0.017662,-0.00488281,0.018425,0.0038147
40,2,10.0097,0.00152588,-0.000152588,-2.42867,0.0535448,-0.075063,0.0498555,0.072191,-0.0961982,0.141656,-0.127903,-0.0874532,0.0121307,0.0231934,0.0221634,0.00400543,0.00984192,0.0106812,0.0173187,0.0175858,-9.97986,0.0149155,-0.00118256,0.0121307,0.00991821,0.0151825,-0.00682831,0.0175858,0.00480652
40,3,10.0097,-0.000610352,0,-2.42928,0.0526292,-0.0765889,0.0519917,0.07036,-0.0955879,0.144098,-0.128208,-0.0874532,0.0130463,0.0258636,0.0176239,0.00995636,0.0114822,0.0108337,0.0175095,0.0205612,-9.97986,0.0150299,-0.00328064,0.0130081,0.00728607,0.0157928,-0.00324249,0.0246048,0.0050354
40,4,10.0097,0.000915527,0,-2.42959,0.0535448,-0.0762837,0.0519917,0.0697496,-0.0949775,0.144098,-0.126682,-0.0871481,0.0102234,0.0270462,0.0128937,0.010643,0.0127411,0.00904083,0.0144577,0.0193787,-9.97986,0.0130463,-0.00133514,0.0111008,0.0110626,0.0133514,-0.00747681,0.0154877,0.00556946
40,5,10.0097,-0.000610352,-0.000915527,-2.42714,0.0535448,-0.0756734,0.0526021,0.0688341,-0.0934516,0.144403,-0.126682,-0.0856222,0.0094986,0.0250244,0.0151062,0.012207,0.0120544,0.00988007,0.0185013,0.0175858,-9.97986,0.0139236,-0.00114441,0.0109863,0.0114441,0.0144196,-0.0087738,0.0164032,0.00602722
