
Devices
1200
,,BP Load cell - Voltage,String Length - Voltage,Clutch Active - Voltage,#7 iPecs - Voltage,,,,,,,,,EMG 1-8 Left - Voltage,,,,,,,,Pylon Force - Voltage,EMG 9-16 Right - Voltage,,,,,,,,
Frame,Sub Frame,BP Load Cell,String Length,From Arduino Logic,A45,A135,A225,A315,S0,S90,S180,S270,ZSum,EMG 1 Glut Max,EMG 2 Glut Med,EMG 3 Biceps Femoris Long,EMG 4 Rectus Femoris,EMG 5 Vastus Medialis,EMG 6 Tib Ant,EMG 7 Med Gas,EMG 8 Soleus,Pylon volts,EMG 9 Glut Max,EMG 10 Glut Med,EMG 11 Biceps Femoris Long,EMG 12 Rectus Femoris,EMG 13 Vastus Medialis,EMG 14 Tib Ant,EMG 15 Med Gas,EMG 16 Soleus
,,V,V,V,V,V,V,V,V,V,V,V,V,V,V,V,V,V,V,V,V,V,V,V,V,V,V,V,V,V
1,0,9.27724,0.0012207,0.00152588,-2.42684,0.0541551,-0.0747579,0.0544332,0.100878,-0.0897895,0.14837,-0.125156,-0.0837911,0.012207,0.0205231,0.018425,0.00682831,0.0119019,0.0198364,0.0127029,0.0225449,-9.97986,0.0154495,0.000114441,0.0152206,0.00144958,0.015831,-0.0109482,0.015831,0.00644684
1,1,10.0097,-0.000610352,0.00152588,-2.42959,0.0550706,-0.0753682,0.0526021,0.0932482,-0.0937568,0.141961,-0.126072,-0.0865377,0.00869751,0.0228882,0.0154495,0.00995636,0.0151443,0.0194168,0.0165939,0.0218964,-9.97986,0.0156021,-0.00495911,0.0167084,0.000762939,0.0143433,-0.00579834,0.0141144,0.00976563
1,2,10.0097,-0.000305176,0,-2.42806,0.0547655,-0.0765889,0.050771,0.0776842,-0.0971137,0.142572,-0.126987,-0.0874532,0.0105286,0.0240326,0.0198746,0.014534,0.0149918,0.0191498,0.01297,0.0185776,-9.97986,0.0160217,-0.00320435,0.0157166,0.000534058,0.0130844,-0.00988007,0.0182724,0.00549316
1,3,10.0097,-0.000305176,0,-2.42928,0.0535448,-0.0756734,0.0522969,0.0731066,-0.0946723,0.144708,-0.127292,-0.0868429,0.0128555,0.0269318,0.0168991,0.00965118,0.0146103,0.0252533,0.0123978,0.0190735,-9.97986,0.0146103,0.000305176,0.0171661,-0.00492096,0.0172424,-0.0115585,0.0204468,0.00724792
1,4,10.0097,0.000305176,-0.000457764,-2.42928,0.0544603,-0.075063,0.0529073,0.0697496,-0.0943672,0.143792,-0.128208,-0.0908102,0.0116348,0.0234985,0.019989,0.0108719,0.0162888,0.0233078,0.016861,0.0224686,-9.97986,0.0169373,-0.00179291,0.0164795,-0.0108337,0.0141525,-0.0116348,0.0201416,0.00900269
1,5,10.0097,0.000610352,-0.000915527,-2.42837,0.0532396,-0.0775044,0.0519917,0.0691393,-0.094062,0.142877,-0.127903,-0.0874532,0.0133514,0.0252914,0.017662,0.00900269,0.0130081,0.0221252,0.0125885,0.0189972,-9.97986,0.0134659,0.00415802,0.0122452,-0.00907898,0.0152588,-0.00740051,0.0211716,0.00881195
1,6,10.0097,-0.00335693,0.000152588,-2.42806,0.0535448,-0.0765889,0.0529073,0.0676134,-0.0937568,0.147149,-0.126987,-0.0859274,0.0125122,0.0248718,0.0159454,0.0133896,0.0118256,0.0259018,0.0174332,0.0209045,-9.97986,0.017128,-0.000495911,0.0197601,-0.00617981,0.0116348,-0.00587463,0.0208664,0.00675201
1,7,10.0097,0,0.000457764,-2.42776,0.0544603,-0.0756734,0.0529073,0.0706652,-0.0949775,0.144403,-0.126987,-0.0859274,0.00507355,0.0236511,0.0159836,0.00850677,0.0143051,0.018959,0.0133133,0.021553,-9.97986,0.0165939,-0.000953674,0.0112915,-0.00469208,0.0109482,-0.00267029,0.0177383,0.00511169
1,8,10.0097,0.000915527,0.000915527,-2.42684,0.0541551,-0.0771993,0.0532125,0.0694445,-0.0943672,0.143792,-0.126377,-0.0840963,0.00839233,0.0242615,0.0156403,0.00980377,0.0118256,0.0183105,0.0193024,0.017128,-9.97986,0.0146484,0.00278473,0.0149536,-0.00415802,0.0107193,0.00221252,0.0152969,0.00328064
1,9,10.0097,-0.000305176,0.000305176,-2.42684,0.0541551,-0.0759786,0.0547383,0.0697496,-0.0928413,0.14837,-0.125766,-0.0840963,0.0130844,0.0238037,0.0151825,0.00965118,0.0111008,0.0224686,0.0191879,0.0201416,-9.97986,0.0183868,-0.000534058,0.0133133,-0.0018692,0.0117874,0.00865936,0.018692,0.0044632
2,0,10.0097,0,0.00106812,-2.42531,0.0562914,-0.0744527,0.054128,0.0715807,-0.0922309,0.146844,-0.125156,-0.0831808,0.0109482,0.02285,0.0144958,0.011673,0.0169754,0.0189972,0.0148392,0.0171661,-9.97986,0.0170135,-0.00247955,0.0119019,0.000648499,0.0115967,0.00911713,0.0175095,0.00823975
2,1,10.0097,0.000305176,0,-2.42928,0.055681,-0.0714009,0.0550435,0.0697496,-0.0916206,0.146234,-0.124546,-0.0813497,0.00995636,0.0251389,0.0162506,0.0148773,0.0139236,0.0205231,0.0124741,0.016861,-9.97986,0.0149918,0.00267029,0.0113678,-0.000495911,0.0102234,0.0115967,0.0165939,0.00793457
2,2,10.0097,0.00244141,-0.000152588,-2.42501,0.0572069,-0.0744527,0.0556539,0.0697496,-0.0919257,0.149896,-0.124851,-0.0816549,0.0128174,0.0192261,0.0161743,0.0153351,0.0148773,0.0156021,0.0133133,0.0157547,-9.97986,0.0144196,-3.8147e-005,0.0156021,-0.0037384,0.0126266,0.0154877,0.0157166,0.00545502
2,3,10.0097,-0.0012207,0.00183105,-2.42562,0.0562914,-0.0744527,0.0547383,0.0709703,-0.0922309,0.145929,-0.124851,-0.0819601,0.013504,0.0237274,0.0178528,0.0133896,0.0153732,0.0177765,0.0198746,0.0232697,-9.97986,0.0119019,0.00312805,0.0104904,-0.00137329,0.0152206,0.0184631,0.0205231,0.0094223
2,4,10.0097,0.000915527,0.000457764,-2.42592,0.0559862,-0.0707906,0.0547383,0.0709703,-0.0913154,0.147455,-0.12363,-0.0813497,0.0126266,0.0279999,0.0203705,0.0131226,0.0127411,0.0262451,0.0200653,0.0214767,-9.97986,0.0181198,-0.00343323,0.017128,0.0037384,0.0153732,0.0239563,0.0255966,0.00823975
2,5,10.0097,0.000915527,-0.00244141,-2.42684,0.0569017,-0.073232,0.0526021,0.0413683,-0.095893,0.153558,-0.125156,-0.0822652,0.00896454,0.0230026,0.0126648,0.00591278,0.00972748,0.012207,0.00869751,0.0128937,-9.97986,0.00965118,-0.010643,0.01091,-0.00305176,0.00965118,0.0110245,0.0172043,0.00495911
2,6,8.38979,0.00274658,-0.00228882,-2.42562,0.0553758,-0.0738423,0.0544332,0.0462511,-0.0931465,0.14776,-0.126682,-0.0810445,0.0146866,0.0242996,0.0185394,0.0166321,0.0130081,0.022316,0.0180435,0.0160217,-9.97986,0.0187683,0.0031662,0.0170898,0.00522614,0.0120544,0.0125122,0.0223541,0.00782013
2,7,7.28322,-0.000305176,-0.0012207,-2.42501,0.055681,-0.0707906,0.0544332,0.0566271,-0.0910102,0.146539,-0.125156,-0.0813497,0.00980377,0.021553,0.0127792,0.00823975,0.0141907,0.0148392,0.0133896,0.0144577,-9.97986,0.0094223,0.000953674,0.0143433,0.00171661,0.0110626,-0.000343323,0.019722,0.00770569
2,8,7.19594,0.00152588,-0.000762939,-2.42653,0.0559862,-0.0753682,0.0547383,0.0663927,-0.0934516,0.143792,-0.126072,-0.0834859,0.00904083,0.0233078,0.0193787,0.0104141,0.0114059,0.0169373,0.0144196,0.0140381,-9.97986,0.0152588,0.00221252,0.00988007,0.00797272,0.0137711,-0.00984192,0.0188828,0.00526428
2,9,7.45748,-0.000610352,-0.000457764,-2.42592,0.0559862,-0.0738423,0.054128,0.0737169,-0.0922309,0.145013,-0.125156,-0.0822652,0.0107574,0.0205231,0.0185013,0.010376,0.0132751,0.0146484,0.0167847,0.0186539,-9.97986,0.0149918,-0.000839233,0.0166702,0.00728607,0.0141907,-0.016861,0.0215912,0.0056839
3,0,9.28792,0.0012207,0.000762939,-2.42837,0.055681,-0.0735371,0.0547383,0.0984362,-0.0913154,0.143792,-0.124851,-0.0840963,0.0104141,0.0192642,0.0172043,0.00778198,0.013237,0.01297,0.0126266,0.0147629,-9.97986,0.0175476,-0.00038147,0.0157928,0.00980377,0.0116348,-0.0127411,0.020256,0.00667572
3,1,10.0097,0.000610352,0.00152588,-2.42928,0.0535448,-0.0768941,0.0529073,0.0938585,-0.0937568,0.144098,-0.126987,-0.0856222,0.0148773,0.0233078,0.0197601,0.00984192,0.0157547,0.0108337,0.0205231,0.0183105,-9.97986,0.0111008,-0.00209808,0.0147247,0.00766754,0.0144958,-0.000457764,0.0186539,0.00888824
3,2,10.0097,-0.0012207,0.000152588,-2.43081,0.0541551,-0.0762837,0.0519917,0.077379,-0.0946723,0.144403,-0.126987,-0.0847066,0.0154877,0.0215149,0.0209045,0.0127792,0.0159073,0.0157166,0.0184631,0.0195694,-9.97986,0.0135422,0.000572205,0.0146866,0.0138855,0.0148773,0.00476837,0.0186157,0.00537872
3,3,10.0097,0.00183105,0.000305176,-2.42806,0.0541551,-0.0729268,0.0526021,0.0715807,-0.0974189,0.144098,-0.127598,-0.0865377,0.01091,0.0242233,0.0192642,0.0120926,0.0130844,0.0101852,0.0154495,0.0115585,-9.97986,0.010643,-0.00221252,0.0135803,0.0104523,0.0152969,0.00514984,0.0130081,0.00473022
3,4,10.0097,-0.000305176,0.000762939,-2.42867,0.0532396,-0.0753682,0.0519917,0.0691393,-0.0943672,0.143792,-0.127292,-0.0880636,0.0114822,0.0223923,0.0184631,0.0149536,0.0150681,0.0151062,0.0183105,0.0189209,-9.97986,0.0146103,-0.000762939,0.0148392,0.0173569,0.0121307,0.0138855,0.0147247,0.0082016
3,5,10.0097,0.00152588,-0.000610352,-2.42989,0.0535448,-0.0753682,0.0522969,0.0697496,-0.0955879,0.145013,-0.127598,-0.0877584,0.0124741,0.0223923,0.0242615,0.00843048,0.0130844,0.0131989,0.0142288,0.0178146,-9.97986,0.0160599,-0.00419617,0.016098,0.0203323,0.0123215,0.0156784,0.0151443,0.00640869
3,6,10.0097,-0.000915527,-0.000305176,-2.42837,0.0550706,-0.0729268,0.0526021,0.0688341,-0.0937568,0.143487,-0.127903,-0.0871481,0.0122833,0.0216293,0.016861,0.0122452,0.0107574,0.0157166,0.017395,0.0202942,-9.97986,0.0141144,-0.00366211,0.0149918,0.0171661,0.0107193,0.0183487,0.01297,0.0043869
3,7,10.0097,0,0,-2.42684,0.055681,-0.0753682,0.0522969,0.0688341,-0.0934516,0.138299,-0.126072,-0.0856222,0.00720978,0.0204086,0.0167465,0.0106049,0.0136948,0.011673,0.0152969,0.0196838,-9.97986,0.0152588,-0.00125885,0.0144577,0.0180054,0.0145721,0.0157166,0.0154114,0.00785828
3,8,10.0097,0.00152588,-0.0012207,-2.42745,0.0547655,-0.0753682,0.0538228,0.0697496,-0.0931465,0.145929,-0.126377,-0.0856222,0.0044632,0.018692,0.0173569,0.00953674,0.0149536,0.0137329,0.0139236,0.0159836,-9.97986,0.01194,-0.00087738,0.0162506,0.021286,0.00915527,0.0113297,0.0106049,0.00816345
3,9,10.0097,0.00183105,0.000610352,-2.42806,0.0541551,-0.0793355,0.0535176,0.0688341,-0.0931465,0.145624,-0.126377,-0.0844015,0.00694275,0.0221634,0.0165558,0.0102234,0.01091,0.0135803,0.0157547,0.0183868,-9.97986,0.018158,0.00114441,0.0118256,0.0214767,0.0127029,0.00549316,0.0122452,0.0069809
4,0,10.0097,0.00152588,0,-2.42684,0.0559862,-0.073232,0.0547383,0.0715807,-0.0931465,0.145929,-0.123935,-0.0819601,0.00808716,0.0207901,0.0193787,0.0137711,0.0142288,0.0174713,0.0180054,0.0201035,-9.97986,0.0168228,-0.00190735,0.0162506,0.021553,0.0123596,0.00385284,0.0146866,0.00812531
4,1,10.0097,0.00183105,0.000457764,-2.42592,0.055681,-0.0744527,0.0544332,0.0709703,-0.0910102,0.145318,-0.124851,-0.0813497,0.00480652,0.0168228,0.0187302,0.00930786,0.0127029,0.0134277,0.0133514,0.0195313,-9.97986,0.0172806,-0.00198364,0.0162506,0.0221634,0.0130081,-0.00228882,0.0118256,0.00530243
4,2,10.0097,0.000610352,0,-2.42562,0.0553758,-0.0692647,0.0550435,0.0694445,-0.0916206,0.145929,-0.12363,-0.0807394,0.00858307,0.0187302,0.0209808,0.0112915,0.0167847,0.0157547,0.0182724,0.021019,-9.97986,0.0136566,-0.000152588,0.014801,0.0198364,0.0122833,0.00507355,0.0130844,0.00793457
4,3,10.0097,0.000610352,-0.000305176,-2.42501,0.0562914,-0.0738423,0.0553487,0.0706652,-0.0913154,0.144403,-0.124241,-0.0810445,0.0108719,0.0205994,0.0213623,0.0156403,0.0175858,0.0169373,0.0163269,0.0189972,-9.97986,0.0157166,-0.00190735,0.0147629,0.0187683,0.0125504,0.00385284,0.013504,0.00720978
4,4,10.0097,-0.000915527,0.000762939,-2.42501,0.0562914,-0.0744527,0.0550435,0.0709703,-0.0900947,0.146844,-0.124241,-0.0804342,0.00900269,0.0235748,0.018425,0.0122452,0.0183105,0.0191498,0.0130844,0.0185013,-9.97986,0.0187683,-0.00408173,0.0177002,0.0183487,0.0142288,0.00160217,0.0139999,0.00705719
4,5,10.0097,0.00183105,-0.00137329,-2.4244,0.0559862,-0.0741475,0.0532125,0.0431993,-0.0949775,0.145929,-0.126377,-0.0816549,0.00946045,0.0234222,0.0187683,0.0110245,0.0161362,0.0149155,0.0156021,0.0184631,-9.97986,0.0151443,-0.000839233,0.0152206,0.0147247,0.0114441,-0.00209808,0.014534,0.00816345
4,6,8.42458,0.000610352,-0.00152588,-2.42684,0.0550706,-0.073232,0.0535176,0.0450304,-0.0937568,0.144098,-0.126377,-0.0825704,0.0102997,0.0243378,0.018959,0.0130463,0.0163269,0.0152206,0.0157547,0.016861,-9.97986,0.0192261,0.000534058,0.0151825,0.021019,0.0138855,-0.00648499,0.0121307,0.00995636
4,7,7.23592,0.000915527,-0.000610352,-2.42592,0.0559862,-0.0747579,0.0532125,0.0554064,-0.0931465,0.146539,-0.125156,-0.0822652,0.00991821,0.0269318,0.0180435,0.0120926,0.0160599,0.0162125,0.0144196,0.0189209,-9.97986,0.0168991,0.00102997,0.0199127,0.0226974,0.0153351,-0.00453949,0.0131989,0.00740051
4,8,7.11385,0.000915527,-0.0012207,-2.42776,0.0547655,-0.0738423,0.0547383,0.065172,-0.0925361,0.145929,-0.126377,-0.0834859,0.00831604,0.0256729,0.0182343,0.012207,0.0186157,0.0127792,0.0205231,0.0136566,-9.97986,0.0149536,-0.00198364,0.0188828,0.0242996,0.0141525,-0.00862122,0.0135803,0.00736237
4,9,7.37783,0.000915527,0.000305176,-2.42592,0.0553758,-0.075063,0.0550435,0.0734117,-0.090705,0.146844,-0.125156,-0.0831808,0.00991821,0.0263596,0.0165558,0.0126266,0.0136185,0.0132751,0.0185013,0.0178528,-9.97986,0.0161362,-0.00102997,0.017662,0.0173187,0.0112534,-0.0152588,0.0123596,0.0075531
5,0,9.21285,0.0012207,0.0012207,-2.42684,0.0541551,-0.075063,0.0550435,0.0975206,-0.090705,0.145318,-0.125156,-0.0850118,0.0123215,0.030098,0.0192642,0.0167084,0.0211716,0.0147247,0.0170517,0.0185394,-9.97986,0.0136948,3.8147e-005,0.0148773,0.020752,0.0135803,-0.0131226,0.0118637,0.0111771
5,1,10.0097,0.000610352,0.00213623,-2.42989,0.0538499,-0.0744527,0.0526021,0.0941637,-0.0931465,0.143182,-0.126072,-0.0868429,0.0123978,0.0250626,0.0166321,0.0124359,0.0180817,0.0162125,0.0209427,0.0195313,-9.97986,0.0168991,0.000419617,0.0174332,0.0206757,0.0145721,-0.0120163,0.011673,0.0120544
5,2,10.0097,0.00152588,0.000457764,-2.42867,0.0523241,-0.075063,0.0513814,0.0764635,-0.0952827,0.13891,-0.126682,-0.0874532,0.00995636,0.0235367,0.0139999,0.00968933,0.014801,0.0153732,0.0147247,0.0159454,-9.97986,0.0109482,-0.00320435,0.0173187,0.0193405,0.0129318,-0.011673,0.00995636,0.00934601
5,3,10.0097,0.00183105,-0.000915527,-2.42867,0.0529344,-0.0771993,0.0532125,0.0724962,-0.094062,0.143487,-0.126682,-0.0868429,0.00846863,0.0286865,0.0183105,0.0141144,0.0188065,0.0130081,0.0177002,0.0122833,-9.97986,0.017395,0.000686646,0.0155258,0.0185394,0.0108337,-0.0148392,0.00804901,0.00717163
5,4,10.0097,-0.000610352,-0.00106812,-2.42928,0.0547655,-0.0747579,0.0526021,0.0697496,-0.0949775,0.144098,-0.127598,-0.0871481,0.00743866,0.0231171,0.0148392,0.0156784,0.0153732,0.0138474,0.0168228,0.018158,-9.97986,0.0143814,-0.000686646,0.0194168,0.0152588,0.0139999,-0.0178146,0.00644684,0.00808716
5,5,10.0097,0.00152588,-0.000152588,-2.42989,0.0532396,-0.0759786,0.0516866,0.0688341,-0.0946723,0.147149,-0.127903,-0.0871481,0.01091,0.0236893,0.0148392,0.0138474,0.0232315,0.0126266,0.0185394,0.0182343,-9.97986,0.0192642,0.00198364,0.0187683,0.0173187,0.0160599,-0.0149918,0.0069046,0.00995636
5,6,10.0097,0.000610352,-0.000915527,-2.42806,0.0544603,-0.0756734,0.0529073,0.0697496,-0.0955879,0.144403,-0.127598,-0.0865377,0.0107574,0.0267792,0.0164032,0.00644684,0.0148392,0.0150681,0.0194168,0.0156021,-9.97986,0.0149536,-0.000152588,0.0170135,0.0127411,0.0163269,-0.0126266,0.00171661,0.00728607
5,7,10.0097,0.00305176,-0.000610352,-2.42837,0.0553758,-0.0775044,0.0526021,0.0694445,-0.0946723,0.145013,-0.126987,-0.0850118,0.0144577,0.0279236,0.0137711,0.0119781,0.0149155,0.0192261,0.0195694,0.0186157,-9.97986,0.0151443,-0.00255585,0.0155258,0.00709534,0.0145721,-0.0149536,0.0037384,0.0069809
5,8,10.0097,0.000915527,0.000152588,-2.42745,0.0550706,-0.0759786,0.0535176,0.0709703,-0.094062,0.143792,-0.125766,-0.0850118,0.0141907,0.0267792,0.0152588,0.00816345,0.0164413,0.013504,0.018692,0.0160599,-9.97986,0.0149536,-0.00141144,0.0143433,0.0104141,0.0171661,-0.00988007,0.00522614,0.00713348
5,9,10.0097,-0.000305176,0.000457764,-2.42623,0.0550706,-0.075063,0.0532125,0.0694445,-0.0934516,0.146539,-0.124546,-0.0837911,0.0106812,0.0252533,0.0116348,0.0103378,0.0151825,0.0166321,0.0212479,0.0104141,-9.97986,0.0193024,0.000114441,0.0175095,0.00793457,0.0159073,-0.00617981,0.00541687,0.00328064
6,0,10.0097,0.00183105,0.000457764,-2.42531,0.0559862,-0.0723164,0.0556539,0.0718859,-0.0925361,0.145624,-0.124241,-0.0822652,0.0112152,0.0248718,0.0138474,0.00854492,0.0115967,0.014801,0.0206375,0.0140381,-9.97986,0.0143051,-0.00179291,0.0185394,0.00774384,0.0174332,0.00320435,0.00480652,0.00976563
6,1,10.0097,0.000610352,0.000305176,-2.42653,0.0565965,-0.0738423,0.0550435,0.0712755,-0.0913154,0.143182,-0.124546,-0.0819601,0.0100327,0.0269318,0.0146484,0.0109482,0.0185394,0.0200272,0.0183868,0.0149155,-9.97986,0.0188446,-0.000534058,0.01297,0.0030899,0.0163651,0.00331879,0.00816345,0.0117111
6,2,10.0097,-0.000610352,-0.000152588,-2.42592,0.0562914,-0.0741475,0.0553487,0.0712755,-0.0916206,0.14776,-0.124241,-0.0810445,0.00892639,0.0274658,0.0149155,0.0115204,0.0205231,0.0172806,0.0196838,0.0152969,-9.97986,0.0159454,-0.000686646,0.0167847,0.00232697,0.0157166,-0.00225067,0.00736237,0.00934601
6,3,10.0097,0.00152588,-0.000305176,-2.42562,0.0559862,-0.073232,0.0547383,0.0712755,-0.090705,0.145624,-0.124546,-0.0816549,0.014534,0.0252533,0.0186539,0.0125504,0.0147247,0.0129318,0.0193405,0.00991821,-9.97986,0.0164032,-0.00526428,0.0198746,0.00137329,0.0171661,0.0025177,0.00499725,0.00900269
6,4,10.0097,0.000610352,-0.000305176,-2.42562,0.0562914,-0.0729268,0.0547383,0.0709703,-0.0922309,0.146539,-0.123935,-0.080129,0.0110245,0.0296783,0.0152588,0.0109863,0.0162506,0.0200272,0.0198746,0.0165939,-9.97986,0.0167084,-0.00217438,0.0197601,0.000419617,0.0170898,0.00465393,0.00839233,0.00587463
6,5,10.0097,0.000305176,-0.0012207,-2.42592,0.0559862,-0.0744527,0.0529073,0.0413683,-0.0943672,0.147149,-0.125156,-0.0825704,0.0107193,0.0268555,0.0159454,0.00968933,0.0201416,0.0178909,0.0218201,0.0157166,-9.97986,0.0141144,-0.00125885,0.013237,0.000495911,0.0182343,0.00274658,0.00930786,0.0111771
6,6,8.18776,0.00152588,-0.00167847,-2.42531,0.0562914,-0.0747579,0.0538228,0.0456407,-0.0931465,0.146234,-0.125461,-0.0816549,0.00808716,0.0247192,0.019455,0.0159836,0.0191879,0.0196838,0.0187302,0.0141144,-9.97986,0.0121307,-0.00492096,0.0167465,-0.00209808,0.0181198,0.000267029,0.00904083,0.00919342
6,7,7.00551,-0.000610352,-0.000457764,-2.42531,0.0559862,-0.0741475,0.0544332,0.0557115,-0.0919257,0.148675,-0.125461,-0.0813497,0.0122833,0.0265884,0.0175095,0.0150299,0.0135422,0.0165939,0.0231552,0.0147247,-9.97986,0.0109482,0.00267029,0.0188828,-0.00415802,0.0183105,-0.00705719,0.00907898,0.00278473
6,8,6.84743,-0.000610352,-0.000610352,-2.42623,0.055681,-0.0762837,0.0547383,0.0645616,-0.0931465,0.145013,-0.125766,-0.0831808,0.01297,0.0251007,0.0191879,0.0159454,0.0157928,0.0129318,0.0188065,0.0175858,-9.97986,0.0144577,-0.00171661,0.0152588,-0.00209808,0.0204086,-0.0111389,0.00823975,0.00896454
6,9,7.12056,0.000305176,0.000762939,-2.42653,0.055681,-0.075063,0.0538228,0.0731066,-0.0916206,0.145318,-0.125766,-0.0837911,0.0112915,0.0242233,0.0182343,0.012207,0.0202179,0.0155258,0.0196075,0.0140381,-9.97986,0.0143051,-0.00244141,0.016861,0.000762939,0.018959,-0.00720978,0.00278473,0.00869751
7,0,8.97756,0.000610352,0.00137329,-2.42714,0.0547655,-0.0759786,0.0544332,0.0978258,-0.0897895,0.143792,-0.12302,-0.0831808,0.0165558,0.0257874,0.0197601,0.00850677,0.0150299,0.0167465,0.0235748,0.0165939,-9.97986,0.0162888,0.00198364,0.0143051,0.000114441,0.0170135,-0.0082016,0.00972748,0.00907898
7,1,10.0097,0.000305176,0.00259399,-2.42928,0.0541551,-0.0756734,0.0526021,0.0956896,-0.0937568,0.143792,-0.126682,-0.0856222,0.0117874,0.0239944,0.0165558,0.00736237,0.0179672,0.0168228,0.0209808,0.0181198,-9.97986,0.0144958,0.00217438,0.0147629,-0.0012207,0.0219345,-0.00415802,0.0031662,0.00614166
7,2,10.0097,0.000610352,0.000610352,-2.42928,0.0544603,-0.0756734,0.0516866,0.0789049,-0.0949775,0.143182,-0.125461,-0.0862325,0.0131607,0.025444,0.0222778,0.010376,0.0183868,0.0217438,0.022049,0.0177765,-9.97986,0.0127029,0.00400543,0.0172806,0.00709534,0.0205231,0.00175476,0.00457764,0.00839233
7,3,10.0097,-0.0012207,-0.000457764,-2.42959,0.0541551,-0.0762837,0.0516866,0.0731066,-0.0961982,0.144098,-0.127292,-0.0871481,0.0117874,0.0233841,0.0190353,0.00926971,0.0130844,0.0131607,0.0226212,0.0160217,-9.97986,0.0138092,0.00473022,0.0180054,0.00572205,0.0175095,0.00614166,0.00453949,0.00774384
7,4,10.0097,0,-0.000152588,-2.4302,0.0538499,-0.0756734,0.0516866,0.0700548,-0.095893,0.143182,-0.127598,-0.0871481,0.0109863,0.0267792,0.0248337,0.0110626,0.0174713,0.0196457,0.0172806,0.013504,-9.97986,0.014534,0.00312805,0.0203705,0.00778198,0.0208282,0.00587463,0.00827789,0.00801086
7,5,10.0097,0.000305176,-0.000305176,-2.42959,0.0532396,-0.0762837,0.0519917,0.0694445,-0.0952827,0.144098,-0.127292,-0.0871481,0.0101852,0.0237656,0.0204849,0.0127411,0.0150299,0.0163651,0.0221634,0.0133896,-9.97986,0.015564,0.000152588,0.0226212,0.00728607,0.0215912,0.00530243,0.00743866,0.0101471
7,6,10.0097,0.000915527,-0.000610352,-2.42714,0.0547655,-0.0768941,0.0519917,0.0697496,-0.0949775,0.142572,-0.126377,-0.0862325,0.0106812,0.0255966,0.0204468,0.0155258,0.0135422,0.00843048,0.0223541,0.0178528,-9.97986,0.0147629,0.000190735,0.0185013,0.00343323,0.0227737,0.0012207,0.00843048,0.00648499
7,7,10.0097,-0.000915527,0.000152588,-2.42776,0.0544603,-0.0747579,0.0529073,0.0688341,-0.0934516,0.145318,-0.126072,-0.085317,0.0100708,0.0317383,0.0175858,0.0127792,0.0127792,0.0112915,0.0204849,0.0166321,-9.97986,0.0134659,0.000572205,0.0189972,0.00392914,0.019722,-0.00427246,0.0115204,0.00576019
7,8,10.0097,0.000915527,0.000152588,-2.42684,0.0553758,-0.0762837,0.054128,0.0697496,-0.0925361,0.145318,-0.126377,-0.0844015,0.00789642,0.0266266,0.0180817,0.0148392,0.0148392,0.018158,0.021019,0.0146484,-9.97986,0.0117874,-0.000572205,0.0235748,0.00305176,0.0185776,0.000686646,0.00785828,0.0100327
7,9,10.0097,0,0.000152588,-2.42806,0.0550706,-0.0741475,0.054128,0.07036,-0.0943672,0.146539,-0.126377,-0.0834859,0.0131226,0.0284958,0.0193787,0.014534,0.0115204,0.0143814,0.0228882,0.0192642,-9.97986,0.0103378,-0.00110626,0.0191879,0.00152588,0.0193024,-0.000534058,0.0087738,0.00923157
8,0,10.0097,0.000915527,0,-2.42409,0.0562914,-0.073232,0.054128,0.0709703,-0.0922309,0.145624,-0.124851,-0.0813497,0.00862122,0.0281906,0.0205231,0.0125122,0.0178528,0.0114822,0.0185776,0.0187302,-9.97986,0.0170517,-0.000114441,0.0188446,0.00865936,0.0143051,0.000534058,0.0109863,0.00934601
8,1,10.0097,-0.000305176,0.000610352,-2.42531,0.0550706,-0.075063,0.0550435,0.0709703,-0.0916206,0.146844,-0.123935,-0.0810445,0.0132751,0.0255203,0.0212479,0.0127792,0.0163651,0.0104904,0.0185013,0.0162125,-9.97986,0.0160217,-0.000190735,0.022049,0.0063324,0.0210571,0.00873566,0.0107574,0.00709534
8,2,10.0097,0.000610352,0.000305176,-2.42592,0.0572069,-0.0738423,0.0547383,0.0715807,-0.0922309,0.146539,-0.123325,-0.0807394,0.00904083,0.0255203,0.0187683,0.0128174,0.0181961,0.0125122,0.0209045,0.0178528,-9.97986,0.014801,-0.00267029,0.0183487,0.00724792,0.0217056,0.0115585,0.00667572,0.00541687
8,3,10.0097,0.000610352,0.000610352,-2.42409,0.0572069,-0.0735371,0.0553487,0.0700548,-0.0919257,0.146234,-0.124546,-0.0810445,0.00938416,0.0233078,0.0149536,0.0148392,0.0152969,0.0123596,0.0182343,0.0181198,-9.97986,0.0180817,0.000915527,0.0227356,0.0149918,0.0211716,0.010643,0.00434875,0.00682831
8,4,10.0097,-0.000915527,0,-2.42653,0.0578172,-0.073232,0.0553487,0.0706652,-0.0922309,0.145624,-0.124851,-0.0804342,0.0152206,0.0266266,0.0172424,0.0147629,0.0142288,0.0134277,0.0219727,0.0194931,-9.97986,0.0138474,-7.62939e-005,0.0222778,0.0140381,0.0206375,0.00766754,0.00358582,0.00854492
8,5,10.0097,-0.000305176,-0.00183105,-2.42653,0.0575121,-0.0738423,0.0522969,0.0438097,-0.0989448,0.146844,-0.126682,-0.0819601,0.00953674,0.0242615,0.0181198,0.0144196,0.0110626,0.00980377,0.0186157,0.0192261,-9.97986,0.014801,0.00358582,0.0217056,0.013504,0.0217056,0.00190735,0.00602722,0.00835419
8,6,8.49599,0.00396729,-0.00167847,-2.42562,0.055681,-0.0735371,0.054128,0.0459459,-0.0928413,0.146844,-0.126682,-0.0816549,0.0115585,0.0197983,0.0163651,0.0127792,0.0133514,0.00953674,0.0177765,0.017662,-9.97986,0.0128555,0.00232697,0.0165558,0.00808716,0.0212479,-0.00267029,0.00442505,0.00999451
8,7,7.32595,0.000305176,-0.000915527,-2.42562,0.0559862,-0.0720113,0.054128,0.0566271,-0.0922309,0.146234,-0.126072,-0.0825704,0.0116348,0.0187683,0.0178146,0.013504,0.0175858,0.0133514,0.0228882,0.0215912,-9.97986,0.0152969,0.0019455,0.0225449,0.00682831,0.0210953,-0.00213623,0.0044632,0.00862122
8,8,7.21181,-0.022583,0.000152588,-2.42714,0.0538499,-0.0747579,0.0544332,0.0642565,-0.0891792,0.133111,-0.125156,-0.0825704,0.00873566,0.0214386,0.0157547,0.010643,0.0183487,0.00984192,0.021553,0.0242233,-9.97986,0.0191879,-0.000572205,0.0203323,0.00823975,0.0181198,-0.00656128,0.00495911,0.00644684
8,9,7.48738,-0.00183105,0.000915527,-2.42623,0.0553758,-0.0759786,0.0532125,0.0743273,-0.090705,0.14013,-0.126072,-0.0834859,0.00915527,0.0223923,0.0153351,0.0143433,0.015564,0.0133133,0.0200653,0.0256729,-9.97986,0.0179291,0.00087738,0.022049,0.00789642,0.0180817,-0.00644684,0.00312805,0.0063324
9,0,9.33736,-0.0012207,0.00152588,-2.42745,0.0507982,-0.0756734,0.0556539,0.0990465,-0.0910102,0.144403,-0.124241,-0.0828756,0.00892639,0.0188828,0.0163269,0.0125885,0.0193787,0.011673,0.0244522,0.0208282,-9.97986,0.0196075,-0.00213623,0.0214005,0.00579834,0.014267,-0.01091,0.00267029,0.00747681
9,1,10.0097,-0.000305176,0.00152588,-2.42806,0.0538499,-0.0756734,0.0532125,0.0935533,-0.0946723,0.141046,-0.125156,-0.0862325,0.0143051,0.0230789,0.018692,0.0120544,0.0195694,0.0113297,0.0175858,0.019989,-9.97986,0.0169373,-0.00301361,0.0210571,0.00404358,0.0213623,-0.01091,0.00434875,0.00953674
9,2,10.0097,0,0.000152588,-2.42928,0.0535448,-0.0759786,0.0519917,0.077379,-0.0955879,0.142877,-0.126377,-0.0868429,0.0123978,0.0221634,0.0173569,0.0122452,0.0173569,0.0100708,0.0187683,0.0222778,-9.97986,0.0149918,0.0018692,0.0206375,0.0120163,0.0219345,-0.0107574,0.0056839,0.0044632
9,3,10.0097,0.000305176,0,-2.42928,0.0535448,-0.0741475,0.0516866,0.0728014,-0.0943672,0.141656,-0.127292,-0.0868429,0.0115585,0.022316,0.0213242,0.0123215,0.0194168,0.0094986,0.0197601,0.0196457,-9.97986,0.0170898,-0.000114441,0.0206375,0.00789642,0.0180054,-0.0151825,0.00347137,0.00831604
9,4,10.0097,0.000610352,-0.000152588,-2.42776,0.0538499,-0.0756734,0.0516866,0.0700548,-0.0949775,0.141961,-0.127292,-0.0868429,0.00717163,0.0244141,0.0175095,0.0116348,0.0167084,0.00968933,0.0214386,0.0225449,-9.97986,0.0157166,-0.00297546,0.0203323,0.00656128,0.0195694,-0.0161362,0.00617981,0.00911713
9,5,10.0097,0,-0.000152588,-2.42928,0.0547655,-0.0768941,0.0529073,0.0694445,-0.095893,0.144403,-0.126682,-0.0868429,0.00217438,0.0260925,0.016098,0.0117493,0.0166702,0.0125885,0.021286,0.0213242,-9.97986,0.0226212,-0.00450134,0.0119781,0.00961304,0.0210953,-0.0125885,0.00610352,0.00694275
9,6,10.0097,0.000915527,-0.000457764,-2.42959,0.0581224,-0.0759786,0.0519917,0.07036,-0.0937568,0.142572,-0.126987,-0.0856222,0.00209808,0.0282669,0.018692,0.0102997,0.0147247,0.00926971,0.018158,0.0221252,-9.97986,0.0165558,0.000305176,0.0208664,0.0100708,0.0243759,-0.0216675,0.00743866,0.00896454
9,7,10.0097,0.000610352,-0.000610352,-2.42745,0.0547655,-0.0756734,0.0532125,0.0700548,-0.0931465,0.144708,-0.126987,-0.0856222,-0.000724792,0.0276566,0.0180435,0.0131607,0.0193787,0.00953674,0.0207138,0.0179291,-9.97986,0.0128555,-0.00133514,0.0188446,0.0088501,0.016861,-0.032196,0.00740051,0.00652313
9,8,10.0097,0,0.000305176,-2.42776,0.0544603,-0.075063,0.0532125,0.0691393,-0.0931465,0.145013,-0.125766,-0.0837911,0.0050354,0.0244141,0.0215149,0.0128174,0.0223923,0.0113297,0.0222397,0.0246048,-9.97986,0.0162888,-0.00179291,0.0169754,0.0112915,0.0177383,-0.032196,0.0106812,0.00804901
9,9,10.0097,0.000305176,0.000305176,-2.42714,0.0581224,-0.0756734,0.0532125,0.0712755,-0.0928413,0.145318,-0.124851,-0.0834859,0.0131226,0.0275421,0.0193787,0.0169754,0.018158,0.0125885,0.0186539,0.0212479,-9.97986,0.0138092,0.00263214,0.0182724,0.015831,0.0218582,-0.0242233,0.0142288,0.00907898
10,0,10.0097,-0.000610352,0.000305176,-2.42653,0.0550706,-0.0744527,0.0538228,0.07036,-0.0919257,0.147455,-0.12363,-0.0825704,0.0165558,0.0269699,0.0166321,0.00823975,0.0174332,0.00911713,0.0170517,0.0159073,-9.97986,0.0162888,-0.00358582,0.0178909,0.01091,0.0167465,-0.022049,0.0115967,0.00812531
10,1,10.0097,-0.000610352,0.000457764,-2.42531,0.055681,-0.0735371,0.0550435,0.0706652,-0.090705,0.145624,-0.124851,-0.0816549,0.015564,0.0282669,0.020256,0.0136566,0.0249863,0.00900269,0.0222397,0.0185394,-9.97986,0.0148773,0.000152588,0.0179291,0.0160599,0.0214386,-0.0151443,0.0144196,0.00896454
10,2,10.0097,0.00152588,0.000152588,-2.42531,0.0559862,-0.073232,0.0538228,0.0718859,-0.090705,0.147149,-0.123935,-0.0816549,0.013237,0.0265503,0.0146484,0.0105667,0.0198364,0.00473022,0.0234985,0.0130463,-9.97986,0.00900269,-0.00114441,0.00923157,0.0166702,0.0188828,-0.01091,0.0106049,0.00831604
10,3,10.0097,0.000610352,0.000610352,-2.42592,0.0559862,-0.0744527,0.0544332,0.0718859,-0.0919257,0.147149,-0.124851,-0.0807394,0.0209045,0.0248718,0.0207138,0.0100327,0.0217056,0.00797272,0.0250244,0.0131989,-9.97986,0.0151062,-0.00160217,0.0166321,0.0169754,0.0187302,-0.00339508,0.0111389,0.00858307
10,4,10.0097,-0.000305176,0.000152588,-2.42592,0.0569017,-0.0726216,0.0544332,0.0712755,-0.090705,0.147149,-0.124546,-0.0813497,0.0246048,0.0234985,0.0222397,0.00762939,0.0219727,0.00961304,0.0218964,0.014801,-9.97986,0.0104141,-0.00137329,0.0175476,0.0244904,0.0178146,0.00679016,0.0160217,0.0105286
10,5,10.0097,0.0012207,-0.00152588,-2.4244,0.0547655,-0.0741475,0.0538228,0.04442,-0.0955879,0.146844,-0.126072,-0.0828756,0.0165558,0.0214386,0.018692,0.0106812,0.0241852,0.0114441,0.0209808,0.0141525,-9.97986,0.00724792,0.000457764,0.0164413,0.0186157,0.019722,0.00637054,0.00930786,0.0094986
10,6,8.54146,-0.000915527,-0.00106812,-2.42623,0.0559862,-0.0747579,0.0544332,0.0474718,-0.0931465,0.147455,-0.125766,-0.0819601,0.00675201,0.0233841,0.0204468,0.00968933,0.0204086,0.00862122,0.0235748,0.0185394,-9.97986,0.00522614,-0.000762939,0.0151825,0.0229263,0.0227737,0.0012207,0.0127792,0.0123978
10,7,7.41597,0.00152588,-0.000457764,-2.42592,0.0562914,-0.0738423,0.0544332,0.0563219,-0.0919257,0.145929,-0.126072,-0.0825704,-0.00862122,0.0191116,0.0182724,0.00720978,0.0175858,0.0117493,0.0227737,0.0146484,-9.97986,0.00450134,-0.0038147,0.0144196,0.0212479,0.0181961,-3.8147e-005,0.0123215,0.00610352
10,8,7.34883,0.00213623,-0.000152588,-2.42684,0.0523241,-0.0738423,0.0556539,0.0648668,-0.0922309,0.146539,-0.125766,-0.0825704,-0.00572205,0.0201035,0.0147247,0.00976563,0.0230789,0.0112152,0.0231171,0.0189972,-9.97986,0.00606537,-0.00221252,0.0154495,0.0207901,0.02285,-0.00370026,0.012207,0.0118637
10,9,7.68148,0.000915527,0.000915527,-2.42501,0.0541551,-0.0753682,0.0547383,0.0737169,-0.0913154,0.143792,-0.125766,-0.0828756,-0.00617981,0.0190353,0.0161362,0.00980377,0.0205994,0.0131607,0.0216293,0.0178909,-9.97986,0.0038147,7.62939e-005,0.0144196,0.0246048,0.0218201,-0.00328064,0.0133133,0.00873566
11,0,9.53938,0.00152588,0.000915527,-2.42684,0.0535448,-0.0756734,0.0547383,0.0987413,-0.0897895,0.146234,-0.124546,-0.0831808,-0.00236511,0.0188065,0.0201416,0.0104904,0.0214767,0.0123978,0.0212479,0.0164795,-9.97986,0.00808716,-0.00190735,0.0146103,0.0228882,0.0217438,-0.00457764,0.015564,0.00709534
11,1,10.0097,0.00244141,0.00152588,-2.42837,0.0544603,-0.0756734,0.0522969,0.0911119,-0.094062,0.144403,-0.126072,-0.0859274,0.00240326,0.0176239,0.0130463,0.0128174,0.0182343,0.00926971,0.021553,0.0171661,-9.97986,0.0165558,-0.00293732,0.0172043,0.0285339,0.023613,-0.00797272,0.0196457,0.0082016
11,2,10.0097,0.0012207,0.000762939,-2.42989,0.0538499,-0.075063,0.0516866,0.0776842,-0.0943672,0.143792,-0.127292,-0.0859274,0.00240326,0.0217438,0.0127029,0.00888824,0.0239944,0.00789642,0.0236511,0.020256,-9.97986,0.0193024,0.000228882,0.0196457,0.0279617,0.018959,-0.00545502,0.0165558,0.00614166
11,3,10.0097,0.000610352,-0.000152588,-2.42928,0.0544603,-0.0759786,0.0526021,0.0724962,-0.0946723,0.143792,-0.127292,-0.0862325,0.0114059,0.0122833,0.0188446,0.0108337,0.0212097,0.00614166,0.0304413,0.0224686,-9.97986,0.0196075,-0.00343323,0.0136948,0.0267029,0.022583,-0.00377655,0.013504,0.00926971
11,4,10.0097,-0.000610352,-0.000152588,-2.42898,0.0535448,-0.0756734,0.0526021,0.07036,-0.0946723,0.143182,-0.126682,-0.0871481,0.0168991,0.0161743,0.0178146,0.013504,0.0202942,0.00911713,0.0202179,0.018692,-9.97986,0.0256729,-0.00274658,0.0168228,0.028038,0.0244522,-0.00747681,0.0134659,0.00816345
11,5,10.0097,0,-0.000762939,-2.42928,0.0550706,-0.0759786,0.0526021,0.0691393,-0.094062,0.143182,-0.127903,-0.0868429,0.0205612,0.013237,0.015831,0.0141144,0.0231171,0.0114441,0.0253677,0.0193787,-9.97986,0.0284958,-0.00289917,0.0158691,0.0274277,0.0209808,-0.00247955,0.0154495,0.00431061
11,6,10.0097,0.000305176,0.000152588,-2.42806,0.0547655,-0.0759786,0.0529073,0.0700548,-0.0943672,0.143182,-0.126987,-0.0862325,0.0239944,0.0180054,0.0141525,0.0127029,0.0205612,0.00999451,0.0228882,0.0182343,-9.97986,0.0355148,0.00370026,0.0172806,0.0342178,0.0251007,-0.000686646,0.0173569,0.00637054
11,7,10.0097,0.000610352,0.000305176,-2.42745,0.0526292,-0.0759786,0.0532125,0.0688341,-0.094062,0.146234,-0.126072,-0.0844015,0.0209427,0.0199509,0.0165939,0.00991821,0.0197601,0.00728607,0.0260925,0.0187302,-9.97986,0.0338364,-0.000953674,0.0156784,0.0350189,0.0185013,-0.00102997,0.013504,0.00679016
11,8,10.0097,0,0,-2.42776,0.0553758,-0.075063,0.0538228,0.0700548,-0.0952827,0.145318,-0.126682,-0.0831808,0.0192642,0.0176239,0.0180817,0.00846863,0.019455,0.0112152,0.0245285,0.0171661,-9.97986,0.0322342,-0.00598907,0.0131989,0.0364685,0.0143051,0.00190735,0.0170898,0.00675201
11,9,10.0097,-0.000610352,0,-2.42653,0.0550706,-0.0744527,0.0547383,0.0700548,-0.0937568,0.144098,-0.125156,-0.0834859,0.0176239,0.0193787,0.022049,0.00705719,0.0195694,0.0105286,0.0250626,0.021019,-9.97986,0.0260544,0.00110626,0.0165176,0.0382233,0.0219345,-0.00167847,0.0159836,0.00835419
12,0,10.0097,-0.000305176,0.000457764,-2.42562,0.0559862,-0.0729268,0.054128,0.0709703,-0.0913154,0.145929,-0.125766,-0.0822652,0.0141525,0.0136185,0.0182343,0.01297,0.017395,0.00926971,0.0224686,0.0206757,-9.97986,0.0242615,-0.00293732,0.0128174,0.0359726,0.0165939,-0.00385284,0.0162506,0.00583649
12,1,10.0097,0.000915527,-0.000915527,-2.42592,0.0565965,-0.0747579,0.054128,0.0712755,-0.0919257,0.145318,-0.124546,-0.0813497,0.016861,0.0174713,0.0229645,0.00789642,0.0205994,0.0113297,0.0247192,0.0191498,-9.97986,0.0195313,-0.00457764,0.014534,0.0338364,0.0163269,-0.0110245,0.0140762,0.00617981
12,2,10.0097,-0.000305176,0,-2.42531,0.0559862,-0.0735371,0.0547383,0.0712755,-0.0925361,0.146234,-0.124851,-0.0813497,0.0135422,0.0185394,0.022049,0.0128937,0.0218964,0.0172806,0.026474,0.0230408,-9.97986,0.0213242,-0.00297546,0.0135803,0.036087,0.0147247,-0.0122833,0.0170898,0.00713348
12,3,10.0097,-0.000610352,0.000152588,-2.4247,0.0550706,-0.0720113,0.0547383,0.0718859,-0.0922309,0.146539,-0.124851,-0.0819601,0.017395,0.0160599,0.0190353,0.0141907,0.0191498,0.0145721,0.0273132,0.0218582,-9.97986,0.0182724,-0.00637054,0.0181961,0.038414,0.0119781,-0.0130463,0.0164413,0.00663757
12,4,10.0097,0.00213623,0.000610352,-2.4247,0.055681,-0.0735371,0.0553487,0.0706652,-0.0910102,0.146234,-0.124241,-0.0804342,0.00518799,0.0151443,0.0174332,0.00858307,0.018425,0.0112152,0.0278854,0.0224304,-9.97986,0.0166702,-0.00492096,0.0149918,0.0340652,0.0148773,-0.0177765,0.0151062,0.00652313
12,5,10.0097,0.0012207,-0.00152588,-2.42592,0.0572069,-0.0738423,0.0529073,0.0422838,-0.0965034,0.146234,-0.126377,-0.0825704,0.00442505,0.0161743,0.0187683,0.0122452,0.022316,0.0146484,0.0258636,0.0234985,-9.97986,0.0204086,0.000152588,0.016098,0.03479,0.0163269,-0.0201416,0.0133514,0.00762939
12,6,8.39528,0.00183105,-0.00183105,-2.42592,0.0565965,-0.0744527,0.0544332,0.0456407,-0.0931465,0.146844,-0.125766,-0.0813497,0.00461578,0.0160217,0.0199509,0.00957489,0.0249863,0.0127411,0.0252151,0.0266266,-9.97986,0.0149155,-0.00125885,0.0180817,0.0364685,0.014534,-0.0204468,0.0170898,0.0063324
12,7,7.22402,0.000915527,-0.000610352,-2.42623,0.0541551,-0.0753682,0.0547383,0.0551012,-0.0922309,0.145013,-0.125156,-0.0825704,-0.00709534,0.0193024,0.0167847,0.0123596,0.0239182,0.0117874,0.0259781,0.0228882,-9.97986,0.017128,-0.00209808,0.0131607,0.0333786,0.0162506,-0.0223923,0.0151443,0.00640869
12,8,7.10164,-0.00213623,-0.000152588,-2.42684,0.0544603,-0.0747579,0.0547383,0.0639513,-0.0922309,0.146234,-0.126072,-0.0834859,-0.0206375,0.0199509,0.0229645,0.0101089,0.0187302,0.014534,0.0257111,0.0212479,-9.97986,0.0178528,-0.00324249,0.0125122,0.0313568,0.0136948,-0.0218201,0.014801,0.00499725
12,9,7.39003,-0.00183105,0.000305176,-2.42714,0.0559862,-0.0753682,0.0550435,0.0737169,-0.0919257,0.146539,-0.124546,-0.0837911,-0.021553,0.0222015,0.0228119,0.00976563,0.0202179,0.0140381,0.026741,0.02491,-9.97986,0.0103378,0.000343323,0.0148773,0.0360107,0.0148773,-0.0182724,0.018692,0.00202179
13,0,9.25618,0.0012207,0.000762939,-2.42531,0.0544603,-0.0753682,0.0547383,0.0990465,-0.0903999,0.144708,-0.124241,-0.0837911,-0.00827789,0.0253296,0.0254059,0.0126648,0.0198364,0.0122833,0.0248718,0.0220108,-9.97986,0.00694275,0.000495911,0.0102615,0.0336838,0.0186157,-0.0199509,0.0146103,0.0038147
13,1,10.0097,0,0.00152588,-2.42867,0.0523241,-0.0756734,0.0526021,0.0917223,-0.094062,0.144708,-0.125766,-0.0862325,0.01091,0.0235367,0.0244904,0.01194,0.0198364,0.0148773,0.0283813,0.0281525,-9.97986,0.00644684,-0.00144958,0.0102997,0.0304031,0.0155258,-0.0177765,0.0131607,0.00606537
13,2,10.0097,-0.000305176,0.000305176,-2.42867,0.0538499,-0.0753682,0.0519917,0.0770738,-0.0949775,0.142572,-0.126987,-0.0862325,0.0292587,0.0270462,0.0211334,0.00606537,0.0216675,0.0156403,0.0237656,0.0225449,-9.97986,0.00545502,-0.00171661,0.0154114,0.0299072,0.0139236,-0.0136566,0.0164413,0.00602722
13,3,10.0097,0,-0.000305176,-2.42898,0.0535448,-0.0759786,0.050771,0.0718859,-0.0943672,0.143487,-0.126377,-0.0871481,0.0275803,0.0281525,0.025444,0.0105286,0.0173569,0.0119019,0.026474,0.0214386,-9.97986,0.0069046,-0.00423431,0.0141907,0.0301743,0.01091,-0.00892639,0.0136566,0.00522614
13,4,10.0097,0.00152588,-0.000305176,-2.42867,0.0535448,-0.0756734,0.0513814,0.0685289,-0.0949775,0.143487,-0.127598,-0.0871481,0.00419617,0.0255585,0.0254822,0.0113297,0.016098,0.0112534,0.0276947,0.0111771,-9.97986,0.00289917,0.000648499,0.0145721,0.027504,0.0125885,-0.0106812,0.0152969,0.00106812
13,5,10.0097,0.000305176,-0.000915527,-2.42928,0.0538499,-0.0753682,0.0516866,0.0694445,-0.0943672,0.141656,-0.127903,-0.0871481,0.00427246,0.0279236,0.0300598,0.0104523,0.0175476,0.01194,0.0255585,0.00465393,-9.97986,0.00354767,0.000991821,0.0163269,0.0279617,0.013504,-0.0104523,0.0179291,0.00255585
13,6,10.0097,0.0012207,0,-2.42837,0.0541551,-0.0762837,0.0522969,0.0685289,-0.094062,0.143792,-0.126987,-0.0868429,0.0202942,0.0297546,0.0291824,0.0117874,0.0172424,0.0140381,0.0270462,0.0082016,-9.97986,0.00350952,0.00164032,0.0172043,0.0283051,0.0152206,-0.0101852,0.0156403,0.00106812
13,7,10.0097,0.000915527,-0.000152588,-2.42653,0.0541551,-0.0756734,0.0535176,0.0694445,-0.0934516,0.143487,-0.126682,-0.085317,0.0179672,0.0307846,0.0270844,0.01297,0.0156021,0.0120926,0.0252914,0.00656128,-9.97986,-0.00907898,-7.62939e-005,0.0143051,0.0226974,0.0162125,-0.00244141,0.0206757,-0.00164032
13,8,10.0097,0.00366211,-0.000305176,-2.42745,0.0532396,-0.0741475,0.0529073,0.0688341,-0.0946723,0.145013,-0.126987,-0.0844015,0.0102234,0.0263596,0.0284195,0.0114441,0.0138092,0.0117493,0.0260162,0.00759125,-9.97986,-0.0161743,-0.00209808,0.0162888,0.0246048,0.0140762,0.00762939,0.0180435,0.00278473
13,9,10.0097,0.00213623,0.000152588,-2.42714,0.0550706,-0.0753682,0.0544332,0.0694445,-0.0919257,0.145624,-0.126072,-0.0834859,0.0182343,0.0252151,0.0301743,0.0110626,0.0207901,0.0107574,0.0192642,0.0115585,-9.97986,-0.0267792,-0.000495911,0.0162125,0.019989,0.0112152,0.00331879,0.0172806,0.00125885
14,0,10.0097,0.00183105,0.000152588,-2.42623,0.0569017,-0.0738423,0.0547383,0.0709703,-0.0913154,0.145318,-0.124851,-0.0825704,0.0357819,0.0221252,0.0246811,0.00766754,0.0169373,0.0108337,0.026207,0.0138474,-9.97986,-0.0448608,-0.00709534,0.018425,0.0212479,0.0102997,-0.00202179,0.018158,0.00213623
14,1,10.0097,0.000305176,0,-2.42592,0.0575121,-0.0735371,0.054128,0.0712755,-0.0916206,0.145929,-0.123935,-0.0813497,0.0399399,0.0217438,0.0218201,0.00907898,0.0151443,0.0101089,0.0254059,0.00778198,-9.97986,-0.0430298,-0.0056839,0.018158,0.018692,0.0108337,0.00274658,0.0204468,0.00408173
14,2,10.0097,0.00183105,0.000305176,-2.4247,0.0559862,-0.0744527,0.054128,0.0706652,-0.0919257,0.147455,-0.124851,-0.0816549,0.0310898,0.0209808,0.0240326,0.00797272,0.0172043,0.0103378,0.0245667,0.00694275,-9.97986,-0.0372314,-0.000991821,0.015564,0.0186157,0.0119781,-0.00366211,0.0217819,-0.000228882
14,3,10.0097,0.00152588,-0.000305176,-2.4244,0.0572069,-0.0723164,0.0556539,0.0709703,-0.0913154,0.145318,-0.123935,-0.0810445,0.017128,0.0146484,0.0209808,0.00740051,0.0156403,0.0101471,0.0248337,0.0094223,-9.97986,-0.0230026,-0.00431061,0.0147629,0.0164413,0.0112152,-0.0012207,0.02491,0.00038147
14,4,10.0097,0,0.000152588,-2.42531,0.0562914,-0.0747579,0.0550435,0.072191,-0.0916206,0.146234,-0.124241,-0.0798238,0.010376,0.0143433,0.0197601,0.00923157,0.0165558,0.0105286,0.0257492,0.0105667,-9.97986,-0.00926971,-0.000762939,0.0108337,0.0147247,0.0125504,-0.00488281,0.0236511,0.00339508
14,5,10.0097,0.0012207,-0.00167847,-2.42562,0.0562914,-0.0744527,0.0538228,0.0410631,-0.0946723,0.145318,-0.126987,-0.0825704,0.00972748,0.0123596,0.0135803,0.0094223,0.0122833,0.00988007,0.0254059,0.00896454,-9.97986,0.00202179,-0.0038147,0.011673,0.0158691,0.0112152,-0.00202179,0.0163269,0.00396729
14,6,8.23812,0,-0.0012207,-2.42501,0.0562914,-0.0738423,0.0547383,0.0468614,-0.0931465,0.146539,-0.126377,-0.0819601,0.00606537,0.014801,0.0154114,0.0108719,0.0144958,0.0107574,0.0288391,0.0117493,-9.97986,0.00377655,0.000267029,0.0126266,0.0192642,0.0149918,-0.00366211,0.0199509,0.00339508
14,7,7.09615,0.00274658,-0.000152588,-2.42501,0.0553758,-0.0744527,0.0538228,0.0557115,-0.0913154,0.146234,-0.126987,-0.0825704,0.0133896,0.0159454,0.0117874,0.0117874,0.0169373,0.012207,0.0286484,0.0148392,-9.97986,0.0147247,0.00232697,0.0190735,0.0156021,0.019989,0.000457764,0.0251389,0.00648499
14,8,7.00276,-0.000305176,-0.000915527,-2.42653,0.0562914,-0.0744527,0.054128,0.0645616,-0.0913154,0.145624,-0.125766,-0.0837911,0.00679016,0.01091,0.00377655,0.00522614,0.0137711,0.00988007,0.0217056,0.00610352,-9.97986,0.010376,-0.00324249,0.010643,0.00812531,0.00865936,-0.0112152,0.0120163,-0.00217438
14,9,7.32045,0.00152588,0.000457764,-2.42684,0.0535448,-0.0747579,0.0547383,0.0746324,-0.0922309,0.145624,-0.124546,-0.0825704,0.00995636,0.0154495,0.00705719,0.0114441,0.017662,0.0105667,0.02491,0.0110626,-9.97986,0.0216675,0.00228882,0.0195313,0.0130844,0.0170898,0.0037384,0.0198746,0.00499725
15,0,9.48354,0.000915527,0.00137329,-2.42684,0.0547655,-0.0753682,0.054128,0.0972155,-0.0885688,0.145013,-0.124241,-0.0831808,0.0107193,0.0140762,0.00911713,0.0088501,0.0136948,0.00904083,0.0283051,0.0101471,-9.97986,0.0344086,-0.00038147,0.0172806,0.012207,0.0144577,0.00198364,0.0192261,0.00537872
15,1,10.0097,-0.0012207,0.00152588,-2.42928,0.0529344,-0.0775044,0.0513814,0.0935533,-0.0931465,0.144098,-0.126072,-0.0868429,0.0171661,0.0182724,0.0139236,0.0119781,0.0159073,0.0118637,0.0262451,0.0119019,-9.97986,0.0397873,0.00164032,0.0144958,0.00938416,0.0146866,0.00297546,0.0229645,0.00286102
15,2,10.0097,0.000305176,0.000762939,-2.42898,0.0529344,-0.075063,0.0522969,0.0779894,-0.0946723,0.144098,-0.126987,-0.0871481,0.0159836,0.0183487,0.0144196,0.00782013,0.0186157,0.0114059,0.0230408,0.0167084,-9.97986,0.0634384,0.00419617,0.0167084,0.00988007,0.0157547,0.0030899,0.0217056,0.00354767
15,3,10.0097,0.000610352,-0.00106812,-2.42959,0.0541551,-0.0762837,0.0516866,0.0728014,-0.095893,0.143792,-0.126072,-0.0874532,0.017128,0.0151443,0.0111389,0.0121689,0.0164413,0.0069809,0.0247574,0.0134277,-9.97986,0.0724411,-0.00263214,0.0115204,0.0104904,0.012207,0.00736237,0.018692,0.00415802
15,4,10.0097,-0.0012207,-0.000610352,-2.42898,0.0541551,-0.0753682,0.0513814,0.0706652,-0.0952827,0.144403,-0.127598,-0.0865377,0.0122833,0.0190353,0.0133514,0.0133133,0.0183868,0.0113678,0.0286102,0.0113297,-9.97986,0.0776291,-0.00270844,0.01194,0.00679016,0.0157547,-0.00358582,0.023613,0.00324249
15,5,10.0097,0.00305176,-0.000457764,-2.42867,0.0550706,-0.0768941,0.0519917,0.0691393,-0.0949775,0.143487,-0.126987,-0.0874532,0.00202179,0.0191116,0.0141907,0.00846863,0.0155258,0.00793457,0.0250244,0.0139618,-9.97986,0.0786972,0.000648499,0.0148773,0.0044632,0.0178909,-0.00225067,0.0227737,0.00610352
15,6,10.0097,0.000305176,-0.000915527,-2.42898,0.0547655,-0.075063,0.0519917,0.0682238,-0.0955879,0.142877,-0.126682,-0.0862325,0.00808716,0.021553,0.0144196,0.0128555,0.0193024,0.00640869,0.0245285,0.0143814,-9.97986,0.0649261,-0.00144958,0.0142288,0.00408173,0.0173187,-0.00614166,0.0215912,0.00114441
15,7,10.0097,0.0012207,-0.000305176,-2.42837,0.0553758,-0.0744527,0.0526021,0.0697496,-0.0931465,0.141656,-0.126682,-0.0844015,0.0192261,0.0282669,0.0177002,0.00663757,0.0133896,0.0075531,0.0245285,0.0108719,-9.97986,0.0546265,-0.00183105,0.01297,0.00385284,0.017662,-0.00854492,0.0226212,0.00400543
15,8,10.0097,0,0.000457764,-2.42714,0.0541551,-0.0747579,0.0535176,0.0685289,-0.0931465,0.145624,-0.125461,-0.0834859,0.0136948,0.0268173,0.0185013,0.011673,0.0159073,0.00728607,0.0262451,0.0164795,-9.97986,0.0392532,-0.000343323,0.0121307,0.00343323,0.0159836,-0.0123596,0.0181198,0.00377655
15,9,10.0097,0.00183105,0.000152588,-2.42745,0.0541551,-0.0741475,0.0535176,0.0697496,-0.0946723,0.145624,-0.126072,-0.0837911,-0.00293732,0.0263214,0.0176239,0.0107193,0.0194931,0.0104523,0.0227737,0.0248718,-9.97986,0.0293732,-0.00324249,0.0150681,0.00549316,0.0164032,-0.0191879,0.0185394,0.00244141
16,0,10.0097,0.00244141,-0.000152588,-2.42592,0.0565965,-0.0744527,0.0544332,0.0694445,-0.0922309,0.145624,-0.126377,-0.0819601,-0.0141144,0.0229645,0.0150681,0.00923157,0.0172043,0.00465393,0.0260544,0.0282288,-9.97986,0.0196838,-0.00343323,0.0104523,0.0018692,0.0164413,-0.0151443,0.0157928,0.00247955
16,1,10.0097,0.00183105,-0.000457764,-2.42531,0.0559862,-0.0735371,0.054128,0.0715807,-0.0916206,0.145624,-0.12363,-0.0813497,-0.0234222,0.0200272,0.0144196,0.0108719,0.0164032,0.00457764,0.0276947,0.0284195,-9.97986,0.0205612,0.00202179,0.0139236,0.00473022,0.0187302,-0.0167465,0.0149536,0.00370026
16,2,10.0097,0.000305176,0.000152588,-2.42562,0.0565965,-0.0738423,0.0553487,0.0709703,-0.0913154,0.146539,-0.125461,-0.0804342,-0.0432205,0.0255585,0.0194931,0.0117111,0.0138092,0.00480652,0.0245285,0.0305176,-9.97986,0.0162888,-0.000457764,0.011673,-0.000953674,0.0159454,-0.0169373,0.012207,0.00610352
16,3,10.0097,0.000610352,0.000152588,-2.4244,0.0559862,-0.0759786,0.0556539,0.07036,-0.0913154,0.146234,-0.123935,-0.0816549,-0.0462723,0.0253296,0.0177002,0.00984192,0.0161743,0.00759125,0.0242615,0.0291443,-9.97986,0.0206757,0.00106812,0.014267,0.000839233,0.013237,-0.0173187,0.0148773,0.00328064
16,4,10.0097,0.000305176,-0.000152588,-2.42501,0.0565965,-0.0744527,0.0556539,0.072191,-0.0903999,0.146234,-0.123325,-0.080129,-0.0370026,0.0275421,0.016861,0.0117874,0.0166702,0.000801086,0.02388,0.0284958,-9.97986,0.0197983,0.00366211,0.0125122,0.00400543,0.0120544,-0.0184631,0.00988007,0.0050354
16,5,10.0097,-0.000610352,-0.00137329,-2.42562,0.0565965,-0.0741475,0.0529073,0.0431993,-0.0946723,0.14837,-0.125766,-0.0816549,-0.028038,0.0275803,0.018692,0.0156403,0.0167465,-0.000686646,0.0270844,0.0295639,-9.97986,0.0223541,-0.00221252,0.0140762,0.00431061,0.0111389,-0.0191498,0.0121689,0.00450134
16,6,8.29488,0.000610352,-0.00167847,-2.42501,0.0550706,-0.0741475,0.0550435,0.0465563,-0.0925361,0.14776,-0.125766,-0.0813497,-0.0210571,0.0291061,0.0177002,0.0146103,0.0161362,0.00400543,0.0255203,0.0147629,-9.97986,0.0330734,7.62939e-005,0.013504,0.00396729,0.0165176,-0.0112534,0.0163651,0.00350952
16,7,7.1404,0.00152588,0.000457764,-2.42562,0.0575121,-0.0753682,0.0547383,0.0578478,-0.0925361,0.147149,-0.126072,-0.0822652,0.0205231,0.0286484,0.0162125,0.0152206,0.0204468,0.00572205,0.0255966,0.0204086,-9.97986,0.0480652,-0.000762939,0.0113297,0.0044632,0.0155258,-0.00434875,0.0127029,0.00339508
16,8,7.03755,0,0,-2.42592,0.0550706,-0.0753682,0.0553487,0.0654772,-0.090705,0.145318,-0.126072,-0.0822652,0.0723648,0.030632,0.0227737,0.0139999,0.017662,0.00553131,0.0252533,0.0170517,-9.97986,0.0536346,-0.0019455,0.00911713,-0.00198364,0.0153732,-0.00492096,0.0152588,0.00419617
16,9,7.3647,0.0012207,-0.000305176,-2.42592,0.0562914,-0.0747579,0.0535176,0.0746324,-0.090705,0.144708,-0.125461,-0.0825704,0.123405,0.0312424,0.0242996,0.0153732,0.0166321,-0.0012207,0.0239563,0.0171661,-9.97986,0.0547028,0.00183105,0.00961304,0.0025177,0.0112152,-0.00534058,0.0134277,0.00205994
17,0,9.55739,-0.000610352,0.00198364,-2.42653,0.0547655,-0.0759786,0.0547383,0.0987413,-0.0913154,0.145929,-0.123935,-0.0840963,0.120697,0.0292587,0.0239182,0.0169754,0.019989,-0.00324249,0.02285,0.0205612,-9.97986,0.0476074,0.000152588,0.010376,-0.00171661,0.0157547,-0.0031662,0.017395,0.00480652
17,1,10.0097,-0.000305176,0.00152588,-2.42806,0.0532396,-0.075063,0.0519917,0.0923326,-0.0949775,0.143792,-0.125766,-0.0868429,0.0707245,0.0297546,0.0240326,0.0178528,0.0164795,0.000991821,0.0191498,0.0189209,-9.97986,0.0354385,-0.000724792,0.0118637,7.62939e-005,0.0185013,-0.00297546,0.0208664,0.00465393
17,2,10.0097,0.0012207,0.000152588,-2.4302,0.0535448,-0.0759786,0.0522969,0.0785997,-0.0949775,0.144403,-0.126987,-0.0859274,0.026207,0.0279999,0.0232315,0.0137711,0.0195694,0.00370026,0.0237656,0.014267,-9.97986,0.0325775,0.000114441,0.00839233,0.000801086,0.0163651,-0.00415802,0.0203705,0.00221252
17,3,10.0097,-0.000305176,-0.000152588,-2.42837,0.0541551,-0.0759786,0.0516866,0.0709703,-0.0955879,0.143792,-0.126682,-0.0874532,0.00175476,0.0233078,0.0230789,0.0154495,0.0158691,0.000572205,0.0245285,0.0166702,-9.97986,0.0263977,0.00148773,0.00900269,-0.00347137,0.0188065,-0.00720978,0.0252914,0.00793457
17,4,10.0097,0,-0.000915527,-2.42898,0.0535448,-0.0726216,0.0526021,0.07036,-0.0955879,0.142877,-0.128208,-0.0877584,-0.00530243,0.028038,0.0215912,0.0160599,0.0185013,0.00427246,0.0259018,0.0226593,-9.97986,0.0274277,-0.000419617,0.0127029,-0.00110626,0.0178909,-0.0100708,0.0260162,0.0107574
17,5,10.0097,-0.000610352,-0.000762939,-2.42989,0.0538499,-0.0756734,0.0522969,0.0682238,-0.095893,0.146539,-0.127903,-0.0868429,-0.00858307,0.0216293,0.0172043,0.0110245,0.016098,0.00202179,0.0247192,0.0295639,-9.97986,0.0108337,-0.00415802,0.00926971,-0.00576019,0.0123596,-0.0123215,0.0183868,0.00343323
17,6,10.0097,0.00152588,-0.000305176,-2.42898,0.0544603,-0.0759786,0.0522969,0.0679186,-0.0949775,0.143487,-0.126072,-0.0862325,-0.0130081,0.0218582,0.0169373,0.0125122,0.0186157,-0.000953674,0.0245285,0.0309372,-9.97986,0.00354767,0.00217438,0.0153732,-0.0012207,0.0123596,-0.00518799,0.0224304,0.00835419
17,7,10.0097,-0.000305176,-0.000305176,-2.42745,0.0547655,-0.0771993,0.0535176,0.0706652,-0.094062,0.143792,-0.126682,-0.0840963,0.00411987,0.017128,0.0149155,0.00900269,0.0189972,0.000572205,0.0252151,0.0288773,-9.97986,-0.00968933,0.0012207,0.0062561,-0.00801086,0.013504,-0.00469208,0.0239944,0.00617981
17,8,10.0097,0.000305176,-0.000152588,-2.42837,0.0559862,-0.075063,0.054128,0.0697496,-0.0949775,0.145013,-0.127292,-0.0847066,0.0178528,0.0178909,0.0161743,0.0112534,0.0189972,-7.62939e-005,0.0234604,0.0225067,-9.97986,-0.0102234,0.00305176,0.0132751,-0.00598907,0.0117111,-0.000572205,0.0250626,0.00598907
17,9,10.0097,0.000305176,0.000457764,-2.42684,0.055681,-0.0756734,0.0526021,0.0700548,-0.0925361,0.145624,-0.125156,-0.0844015,0.0262451,0.018692,0.0152969,0.00984192,0.0169754,0.00278473,0.0255203,0.0174332,-9.97986,-0.00854492,-0.000457764,0.0125122,-0.000572205,0.0163651,-0.00488281,0.0244904,0.00717163
18,0,10.0097,0.000305176,-0.000305176,-2.42592,0.0559862,-0.0756734,0.054128,0.0697496,-0.0922309,0.147149,-0.125156,-0.0819601,0.0267792,0.0135803,0.0127029,0.00968933,0.0160217,0.00160217,0.022316,0.0108719,-9.97986,-0.0271606,0.000610352,0.0127029,-0.00213623,0.0122833,0.00335693,0.0203705,0.00835419
18,1,10.0097,0.00213623,-0.000152588,-2.4247,0.0565965,-0.0738423,0.0547383,0.0697496,-0.0919257,0.146844,-0.124851,-0.0813497,0.0236893,0.0209045,0.0177765,0.0120544,0.0195694,0.00511169,0.0263214,0.00537872,-9.97986,-0.0278854,-0.000839233,0.0113678,-0.00217438,0.0157547,0.00267029,0.0178909,0.00480652
18,2,10.0097,0.00152588,0.000305176,-2.4247,0.0562914,-0.0753682,0.0556539,0.0718859,-0.0916206,0.14776,-0.124241,-0.0813497,0.0130081,0.0232697,0.018425,0.0121307,0.0127411,0.00522614,0.0269699,-0.00694275,-9.97986,-0.0359344,-3.8147e-005,0.0130844,-0.00370026,0.0165558,-0.000190735,0.0195313,0.00511169
18,3,10.0097,0,0.000457764,-2.42562,0.0578172,-0.0735371,0.0544332,0.07036,-0.0925361,0.147149,-0.12363,-0.0813497,0.00347137,0.0222015,0.0152206,0.0136948,0.0159836,0.00385284,0.0274658,-0.00785828,-9.97986,-0.0407028,0.00125885,0.00865936,-0.00419617,0.015564,0.00408173,0.0215912,0.00728607
18,4,10.0097,0.000610352,0.000457764,-2.42501,0.0565965,-0.0735371,0.0547383,0.0718859,-0.0916206,0.146539,-0.124851,-0.0819601,0.00869751,0.019722,0.0149536,0.0082016,0.0167465,0.0030899,0.0232315,-0.00476837,-9.97986,-0.0343323,0.000343323,0.0069809,-0.000610352,0.0139999,0.00606537,0.0226974,0.00667572
18,5,10.0097,-0.000305176,-0.0012207,-2.42592,0.0569017,-0.0738423,0.0529073,0.0431993,-0.0955879,0.146539,-0.126072,-0.0819601,0.0122833,0.0187683,0.0139999,0.0126648,0.0180435,0.00232697,0.0270844,0.00263214,-9.97986,-0.0238037,-7.62939e-005,0.0102615,-0.00984192,0.0163269,0.00843048,0.0220108,0.00904083
18,6,8.4612,-0.00274658,-0.00152588,-2.42562,0.0572069,-0.0720113,0.0535176,0.0468614,-0.0934516,0.146844,-0.125461,-0.0819601,0.0149536,0.0186157,0.0151443,0.0151825,0.0139236,0.00137329,0.0226974,0.00267029,-9.97986,-0.0149918,-0.00125885,0.00804901,-0.00659943,0.0136185,-0.000648499,0.0219727,0.00671387
18,7,7.32228,0.000610352,-0.0012207,-2.42623,0.0562914,-0.073232,0.054128,0.0563219,-0.0919257,0.145624,-0.126377,-0.0813497,0.0225449,0.024147,0.0107574,0.00831604,0.0165939,0.00583649,0.0239563,0.00419617,-9.97986,-0.00286102,0.00358582,0.00968933,-0.00564575,0.0162125,-0.000114441,0.0259018,0.00724792
18,8,7.20235,0.000305176,-0.000305176,-2.42623,0.0550706,-0.0735371,0.0556539,0.0645616,-0.0913154,0.146844,-0.126072,-0.0831808,0.0232697,0.0189209,0.0112152,0.00312805,0.0206757,0.00347137,0.0222778,0.00793457,-9.97986,0.00473022,-0.000419617,0.0104141,-0.00728607,0.018158,0.00923157,0.0211334,0.00923157
18,9,7.50844,0.00152588,0,-2.42623,0.0553758,-0.0771993,0.054128,0.0737169,-0.0922309,0.145318,-0.124546,-0.0831808,0.0131607,0.0247192,0.00778198,0.0119019,0.0135803,0.00213623,0.02491,0.0124359,-9.97986,0.0144577,0.00255585,0.0117493,-0.000915527,0.0143814,0.01091,0.0222778,0.00617981
19,0,9.46126,0.000305176,0.0012207,-2.42714,0.0550706,-0.0756734,0.0544332,0.102098,-0.0897895,0.144708,-0.12363,-0.0837911,0.00534058,0.0230789,0.0148773,0.00938416,0.0165939,0.00453949,0.0252533,0.0137329,-9.97986,0.00892639,0.00217438,0.0163651,-0.0031662,0.0139999,0.00701904,0.0251007,0.00705719
19,1,10.0097,0.0012207,0.00183105,-2.42898,0.0535448,-0.0765889,0.0513814,0.0911119,-0.0937568,0.143792,-0.125461,-0.0862325,0.0149918,0.0183105,0.00839233,0.00946045,0.0170517,0.00858307,0.0244141,0.0142288,-9.97986,0.00659943,-0.000152588,0.0126266,-0.00598907,0.0113297,0.00301361,0.0240707,0.0069809
19,2,10.0097,0.000305176,0.000305176,-2.42867,0.0535448,-0.0741475,0.0522969,0.0770738,-0.0946723,0.144098,-0.126682,-0.0868429,0.0165558,0.0199127,0.0094223,0.00617981,0.0211716,0.00675201,0.0261688,0.0152969,-9.97986,0.00785828,0.00114441,0.0163651,-0.0069809,0.0148392,0.00751495,0.0243378,0.00988007
19,3,10.0097,0,-0.000152588,-2.42867,0.0538499,-0.0759786,0.0529073,0.0712755,-0.0943672,0.144708,-0.127292,-0.0862325,0.0120163,0.0178909,0.00793457,0.00850677,0.021553,0.00339508,0.0263977,0.0175095,-9.97986,0.0225067,0.00709534,0.0151062,-0.00209808,0.0162125,0.00823975,0.0236511,0.00564575
19,4,10.0097,0.000305176,-0.000457764,-2.42989,0.0535448,-0.0756734,0.0519917,0.0706652,-0.0946723,0.143182,-0.127292,-0.0874532,0.0162125,0.0197601,0.00919342,0.00652313,0.0206375,0.00442505,0.0219727,0.0213623,-9.97986,0.0434875,0.000419617,0.0144196,-0.00202179,0.0132751,0.00873566,0.0262833,0.0094986
19,5,10.0097,0.0012207,-0.000915527,-2.42928,0.0535448,-0.0759786,0.0519917,0.0694445,-0.0937568,0.143792,-0.127903,-0.0877584,0.015831,0.0192642,0.00934601,0.00919342,0.0207901,0.00736237,0.0235367,0.0162888,-9.97986,0.0542831,-0.00286102,0.00930786,-0.00205994,0.0147629,0.00965118,0.0274658,0.00972748
19,6,10.0097,0.000610352,-0.000152588,-2.42959,0.0538499,-0.0756734,0.0526021,0.0688341,-0.0937568,0.145318,-0.127292,-0.0868429,0.0131989,0.0186539,0.00770569,0.0106049,0.0191498,0.0056839,0.0232315,0.0134659,-9.97986,0.0566483,0.00946045,0.0135422,-0.00339508,0.01297,0.0121689,0.0223541,0.00404358
19,7,10.0097,0.000610352,0.000610352,-2.42684,0.0541551,-0.0747579,0.0526021,0.0688341,-0.0946723,0.144098,-0.126682,-0.085317,0.0159073,0.0214767,0.0102997,0.00862122,0.0204849,0.00720978,0.0233841,0.0211334,-9.97986,0.077095,0.0030899,0.0138855,-0.00205994,0.0138092,0.0122452,0.022583,0.00656128
19,8,10.0097,0.0012207,0.000152588,-2.42592,0.0553758,-0.0747579,0.054128,0.0694445,-0.0937568,0.145318,-0.126072,-0.0840963,0.011673,0.0192642,0.0178528,0.00720978,0.0214767,0.00701904,0.0222015,0.0231934,-9.97986,0.0700378,0.000953674,0.017395,-0.00652313,0.0161743,0.0124741,0.0276184,0.00808716
19,9,10.0097,0,-0.000152588,-2.42623,0.0541551,-0.0744527,0.0538228,0.0700548,-0.0931465,0.145318,-0.125766,-0.0840963,0.00827789,0.0213242,0.0121689,0.00709534,0.0237274,0.00537872,0.0224686,0.0242233,-9.97986,0.0542831,-0.00202179,0.0159454,-0.00278473,0.0136948,0.0112152,0.0276184,0.00675201
20,0,10.0097,0.000305176,0.000762939,-2.42562,0.0559862,-0.0738423,0.0544332,0.0697496,-0.0913154,0.145318,-0.124851,-0.0819601,0.0125122,0.0218964,0.0162506,0.0120163,0.0229645,0.00976563,0.0188065,0.0205994,-9.97986,0.0496674,0.000114441,0.0154877,-0.0031662,0.012207,0.0101089,0.02491,0.00953674
20,1,10.0097,0.000610352,0,-2.42531,0.0562914,-0.0747579,0.0556539,0.0706652,-0.0919257,0.147149,-0.124241,-0.0816549,0.00610352,0.0175476,0.0185013,0.0103378,0.0213242,0.00556946,0.0244522,0.022049,-9.97986,0.0392914,-0.00587463,0.0139999,-0.00236511,0.0119019,0.00629425,0.024147,0.0063324
20,2,10.0097,-0.000915527,0.000305176,-2.4247,0.0559862,-0.073232,0.0544332,0.0712755,-0.0913154,0.145929,-0.123325,-0.0807394,0.00400543,0.0206375,0.0205994,0.0113297,0.014267,0.00862122,0.0190735,0.0283051,-9.97986,0.0316238,-0.00343323,0.0177383,-0.00492096,0.0128937,0.00564575,0.0243759,0.00831604
20,3,10.0097,0.000610352,0.000305176,-2.42592,0.0575121,-0.0738423,0.0553487,0.0715807,-0.0910102,0.147455,-0.124851,-0.0810445,-0.00328064,0.0229645,0.020256,0.0152969,0.0222397,0.00701904,0.017395,0.0274658,-9.97986,0.0222015,0.000267029,0.0136185,-0.00556946,0.0111008,0.00221252,0.021019,0.0037384
20,4,10.0097,0.000915527,0.000457764,-2.4247,0.0572069,-0.0735371,0.0553487,0.0709703,-0.0919257,0.146234,-0.123935,-0.0804342,0.00102997,0.0252914,0.0194931,0.0130844,0.0193787,0.0109482,0.018425,0.0282669,-9.97986,0.0204468,7.62939e-005,0.0163651,0.00328064,0.010376,0.00343323,0.0252151,0.00583649
20,5,10.0097,0.000610352,-0.00137329,-2.42623,0.0562914,-0.0747579,0.0519917,0.0416735,-0.0949775,0.145013,-0.125156,-0.0816549,0.00328064,0.0256729,0.021019,0.0107193,0.022316,0.00816345,0.0163269,0.0350571,-9.97986,0.015831,0.00179291,0.0114059,-0.00038147,0.0146866,-0.00228882,0.0244522,0.0056839
20,6,8.36904,0.00244141,-0.00167847,-2.42562,0.0559862,-0.0747579,0.054128,0.0462511,-0.090705,0.146234,-0.125461,-0.0819601,0.00873566,0.0274277,0.021553,0.0102997,0.0232315,0.00648499,0.0131607,0.0374222,-9.97986,0.0131607,-0.00102997,0.0183868,-0.00434875,0.00785828,0.00133514,0.0263214,0.00831604
20,7,7.26125,-0.000305176,-0.000457764,-2.42592,0.0559862,-0.0753682,0.0544332,0.0551012,-0.0919257,0.145624,-0.125766,-0.0822652,0.00766754,0.0202179,0.024147,0.00911713,0.0246811,0.00598907,0.0192261,0.0404358,-9.97986,0.00846863,-0.00362396,0.0125122,-0.00301361,0.0140762,-0.00202179,0.0219727,0.00980377
20,8,7.22096,0.0012207,0,-2.42684,0.055681,-0.0744527,0.0556539,0.0663927,-0.0922309,0.146539,-0.129734,-0.0825704,0.00583649,0.0257492,0.0242996,0.0116348,0.0185013,0.00778198,0.0172424,0.0480652,-9.97986,0.00572205,0.000801086,0.010376,-0.0019455,0.0139618,-0.00404358,0.0222397,0.00770569
20,9,7.4767,0.000610352,0.000305176,-2.42684,0.0547655,-0.0759786,0.0544332,0.0737169,-0.090705,0.145624,-0.125766,-0.0831808,0.0056076,0.0293732,0.0236893,0.0128555,0.0239182,0.00953674,0.0273514,0.0424194,-9.97986,-0.00427246,-0.000839233,0.0171661,-0.00350952,0.0128174,-0.00900269,0.0239563,0.00610352
21,0,9.38741,0.000610352,0.00106812,-2.42623,0.055681,-0.075063,0.0556539,0.099962,-0.0910102,0.144708,-0.124546,-0.0844015,-0.0176239,0.0305939,0.0237274,0.00923157,0.0179291,0.00862122,0.021286,0.0382233,-9.97986,0.00164032,-0.00156403,0.0165939,0.00312805,0.0113297,-0.00865936,0.0172806,0.00827789
21,1,10.0097,0.000915527,0.00198364,-2.42867,0.0544603,-0.075063,0.0522969,0.0911119,-0.094062,0.143182,-0.125156,-0.0862325,-0.0401688,0.0296783,0.0242996,0.0110626,0.0228119,0.00854492,0.0232697,0.0412369,-9.97986,0.00324249,-0.00331879,0.0130081,0.0043869,0.00988007,-0.00823975,0.0199509,0.00507355
21,2,10.0097,0,0.000305176,-2.42898,0.0529344,-0.075063,0.0513814,0.077379,-0.0961982,0.143487,-0.126682,-0.0868429,-0.0346375,0.0297928,0.0255966,0.0114059,0.0185013,0.00839233,0.0255203,0.0379562,-9.97986,0.00152588,-0.00862122,0.0156403,0.00583649,0.0110245,-0.010376,0.018959,0.00743866
21,3,10.0097,0.000610352,0,-2.42928,0.0529344,-0.075063,0.0498555,0.0734117,-0.0952827,0.145013,-0.127903,-0.0871481,-0.00663757,0.0385284,0.0273132,0.00846863,0.0200653,0.00675201,0.0250626,0.0350571,-9.97986,-0.000610352,0.00389099,0.0153351,0.0056839,0.0109863,-0.00869751,0.0168991,0.00724792
21,4,10.0097,0.000305176,-0.000610352,-2.42989,0.0535448,-0.0759786,0.0513814,0.0697496,-0.0949775,0.144098,-0.125461,-0.0871481,0.0154877,0.0358963,0.0264359,0.0130463,0.0188446,0.00762939,0.0208664,0.0387573,-9.97986,-0.00404358,0.000801086,0.0147247,0.00553131,0.0101852,-0.0128937,0.0210571,0.00457764
21,5,10.0097,0,-0.000152588,-2.42989,0.0541551,-0.0759786,0.0522969,0.0694445,-0.0946723,0.143182,-0.126987,-0.0877584,0.00392914,0.0371552,0.0300217,0.00995636,0.0200653,0.00743866,0.0251389,0.0405121,-9.97986,-0.00904083,0.00144958,0.0163269,0.00770569,0.0156403,-0.0159454,0.0208664,0.00534058
21,6,10.0097,0.000915527,0,-2.42928,0.0538499,-0.0753682,0.0547383,0.0694445,-0.0952827,0.143792,-0.127598,-0.0856222,-0.00865936,0.0460434,0.0346756,0.0102997,0.0162125,0.00804901,0.0269318,0.0350189,-9.97986,-0.00270844,-3.8147e-005,0.0166321,0.0125885,0.0111771,-0.0104141,0.0124359,0.00694275
21,7,10.0097,-0.00213623,0.000305176,-2.42745,0.0550706,-0.0753682,0.054128,0.0706652,-0.0943672,0.144098,-0.127598,-0.0850118,-0.0166321,0.0436401,0.03582,0.015564,0.0167084,0.00919342,0.0292206,0.0304031,-9.97986,-0.00972748,0.00137329,0.0188065,0.0133896,0.0149918,-0.0112152,0.0191498,0.00377655
21,8,10.0097,0.0012207,0.000610352,-2.42714,0.0547655,-0.0759786,0.0529073,0.0700548,-0.094062,0.144403,-0.126072,-0.0837911,-0.0418854,0.0430679,0.0370026,0.0169373,0.0200653,0.00583649,0.0266266,0.0317764,-9.97986,-0.0304794,0.00247955,0.0169754,0.014801,0.0140381,-0.0104523,0.0170517,0.00583649
21,9,10.0097,0.000305176,0.000305176,-2.42684,0.0541551,-0.0753682,0.0477193,0.0697496,-0.094062,0.145318,-0.126072,-0.0831808,-0.045929,0.0420761,0.042572,0.018959,0.0204086,0.0082016,0.0222397,0.0265503,-9.97986,-0.0417709,-0.00102997,0.0136566,0.0192261,0.0134659,-0.00789642,0.017662,0.00793457
22,0,10.0097,-0.000305176,0.000305176,-2.42562,0.0550706,-0.0735371,0.0550435,0.0718859,-0.0913154,0.146539,-0.126682,-0.0816549,-0.0467682,0.0408936,0.0418854,0.0186539,0.0160599,0.00770569,0.0187302,0.0255203,-9.97986,-0.0485229,0.000839233,0.0154495,0.016098,0.0125885,-0.000839233,0.0158691,0.00457764
22,1,10.0097,0.00152588,-0.000305176,-2.42592,0.0569017,-0.0744527,0.0556539,0.0718859,-0.0922309,0.147455,-0.125156,-0.0819601,-0.0373077,0.0417709,0.038414,0.0151062,0.0172424,0.00293732,0.0222015,0.0125885,-9.97986,-0.0382233,-0.00217438,0.0102234,0.0157928,0.0157928,0.00453949,0.0226593,0.00293732
22,2,10.0097,0.000305176,0.000305176,-2.42501,0.0559862,-0.0741475,0.055959,0.0718859,-0.0900947,0.146539,-0.124546,-0.0810445,-0.00404358,0.035553,0.0335312,0.0161362,0.0141525,0.00610352,0.0207901,0.00282288,-9.97986,-0.0245667,-0.00289917,0.0147247,0.0153732,0.0187683,0.00415802,0.0233078,0.00484467
22,3,10.0097,-0.000305176,0.000152588,-2.42592,0.0569017,-0.0729268,0.0553487,0.0724962,-0.0916206,0.147149,-0.127598,-0.0816549,0.0589371,0.0375366,0.0334167,0.0180435,0.018692,0.00717163,0.021553,-0.00526428,-9.97986,-0.0116348,0.000267029,0.0133896,0.0146866,0.015564,-0.000152588,0.0230026,0.00652313
22,4,10.0097,0.00183105,0,-2.42562,0.0565965,-0.0744527,0.0553487,0.0715807,-0.0897895,0.146539,-0.124546,-0.0810445,0.100403,0.0367737,0.0334549,0.0140381,0.018158,0.00782013,0.0205994,-0.0215149,-9.97986,0.00663757,-0.00297546,0.0139999,0.0176239,0.0189209,0.00576019,0.0247574,0.00732422
22,5,10.0097,-0.000610352,-0.00152588,-2.42653,0.0562914,-0.0741475,0.04894,0.0422838,-0.0946723,0.146539,-0.126987,-0.0819601,0.0760651,0.0317001,0.0352478,0.0203705,0.0191116,0.00274658,0.0216293,-0.0365448,-9.97986,0.00389099,-0.00301361,0.0136185,0.0131226,0.0163651,0.00488281,0.0211716,0.00419617
22,6,8.36293,0,-0.00106812,-2.42531,0.0572069,-0.0741475,0.0550435,0.0465563,-0.0937568,0.146539,-0.128208,-0.0816549,0.0453186,0.038147,0.0332642,0.0159836,0.0177383,0.00873566,0.0248718,-0.0301361,-9.97986,-0.0138855,-0.00213623,0.0151062,0.0172806,0.0218964,0.00583649,0.0238419,0.00576019
22,7,7.25698,0.00274658,-0.000610352,-2.42623,0.0553758,-0.0744527,0.054128,0.0532701,-0.0931465,0.145929,-0.125766,-0.0825704,0.0124359,0.0320435,0.0242233,0.0170517,0.0173187,0.00873566,0.0230026,-0.0249863,-9.97986,-0.0463104,0.00141144,0.0167084,0.0163269,0.0218582,0.0104141,0.0255203,0.00682831
22,8,7.10378,-0.000305176,-0.000457764,-2.42623,0.0547655,-0.0744527,0.0513814,0.0642565,-0.0928413,0.145624,-0.125156,-0.0828756,-0.00785828,0.0230408,0.0211716,0.0157547,0.017395,0.00804901,0.0223541,-0.0151825,-9.97986,-0.0933075,7.62939e-005,0.00961304,0.0117111,0.0189972,0.00190735,0.0254059,0.00911713
22,9,7.46633,0.000305176,0,-2.42714,0.0550706,-0.075063,0.054128,0.0731066,-0.0928413,0.145929,-0.125766,-0.0822652,0.00854492,0.0188446,0.0142288,0.0153351,0.0165939,0.00141144,0.0192642,-0.0120163,-9.97986,-0.124626,-0.00339508,0.013504,0.01194,0.0215149,0.00679016,0.0273132,0.00526428
23,0,9.42677,0.000305176,0.00137329,-2.42592,0.0553758,-0.0738423,0.0553487,0.102403,-0.0882636,0.144403,-0.123935,-0.0834859,0.0159454,0.0148773,0.010643,0.0138855,0.017395,0.00774384,0.0174713,-0.0172043,-9.97986,-0.102959,0.000534058,0.0189972,0.01297,0.0193787,0.00839233,0.0252914,0.00511169
23,1,10.0097,-0.000915527,0.00106812,-2.42928,0.0535448,-0.0765889,0.0486348,0.0935533,-0.0946723,0.143487,-0.126072,-0.0865377,0.0259018,0.00740051,0.00602722,0.0120544,0.016861,0.00526428,0.017662,-0.0151062,-9.97986,-0.0563812,-0.0025177,0.0147629,0.016861,0.0191498,0.00759125,0.02491,0.00671387
23,2,10.0097,0,0.000305176,-2.42806,0.0535448,-0.0759786,0.0513814,0.0776842,-0.0955879,0.143792,-0.124546,-0.0868429,0.0422668,0.00659943,-0.00362396,0.0119781,0.0163651,0.0063324,0.0128174,-0.00236511,-9.97986,-0.033493,-0.00270844,0.0157547,0.0143814,0.0207901,0.00141144,0.0247192,0.00823975
23,3,10.0097,0,-0.000152588,-2.42959,0.0541551,-0.0756734,0.0519917,0.0737169,-0.0952827,0.143487,-0.126987,-0.0871481,0.0482941,-0.00125885,-0.0082016,0.0102997,0.0184631,0.00354767,0.0131989,0.0037384,-9.97986,-0.00823975,-0.00171661,0.0161362,0.0138855,0.0186157,-0.00347137,0.0248337,0.0056839
23,4,10.0097,0.00213623,-0.000610352,-2.42928,0.0541551,-0.075063,0.0510762,0.0709703,-0.0949775,0.142877,-0.126682,-0.0871481,0.0471497,-0.00408173,-0.00846863,0.00663757,0.0124741,0.00671387,0.0194931,0.00457764,-9.97986,0.0432587,-0.00160217,0.0193024,0.0130081,0.0214767,-0.00587463,0.0231552,0.0069809
23,5,10.0097,0.000305176,-0.000305176,-2.42776,0.0538499,-0.0753682,0.0516866,0.0700548,-0.0937568,0.142877,-0.129123,-0.0862325,0.0366974,-0.00205994,-0.00896454,0.0107574,0.0151825,0.00312805,0.0185013,0.00850677,-9.97986,0.0875092,-0.000686646,0.0147247,0.0117493,0.0180435,-0.00476837,0.0216675,0.00827789
23,6,10.0097,0.000610352,-0.000610352,-2.42898,0.0529344,-0.0762837,0.0526021,0.07036,-0.095893,0.143182,-0.126072,-0.0862325,0.0183105,-0.00247955,-0.00682831,0.00740051,0.0208282,0.00606537,0.0136948,0.00862122,-9.97986,0.108147,-0.000419617,0.0173187,0.0131989,0.0172806,0.00190735,0.0231934,0.00740051
23,7,10.0097,-0.000915527,0.000305176,-2.42684,0.0544603,-0.0753682,0.0516866,0.0697496,-0.0937568,0.143792,-0.126377,-0.0844015,0.0102234,-0.00274658,-0.00659943,0.00709534,0.020752,0.00743866,0.0200272,0.0115585,-9.97986,0.131989,-0.000991821,0.0138474,0.0100708,0.0188828,0.00492096,0.0197601,0.0088501
23,8,10.0097,0,0.000152588,-2.42684,0.055681,-0.0759786,0.0529073,0.07036,-0.0922309,0.143182,-0.128513,-0.0834859,0.00999451,-0.00267029,-0.00968933,0.0122833,0.0177383,0.00637054,0.0172043,0.0145721,-9.97986,0.159111,0.00392914,0.0143051,0.0131607,0.0186539,0.00713348,0.0206375,0.00606537
23,9,10.0097,0.000305176,0.000152588,-2.42714,0.0550706,-0.075063,0.0535176,0.0697496,-0.0937568,0.145013,-0.125766,-0.0837911,0.00980377,-0.00679016,-0.00770569,0.00537872,0.0152969,0.00564575,0.0200653,0.0157166,-9.97986,0.16922,-0.00160217,0.0137711,0.0123978,0.0172043,0.00999451,0.0223923,0.00747681
24,0,10.0097,0.000305176,0.000305176,-2.4244,0.0559862,-0.0738423,0.0526021,0.0706652,-0.0928413,0.146234,-0.124241,-0.0831808,0.0156784,-0.000915527,-0.00133514,0.00583649,0.0196457,0.00431061,0.018425,0.0141525,-9.97986,0.160294,-0.00125885,0.014534,0.0104904,0.0225449,0.00457764,0.0234604,0.00839233
24,1,10.0097,0.00152588,-0.000152588,-2.42592,0.0569017,-0.0744527,0.0532125,0.07036,-0.0916206,0.147149,-0.127292,-0.0807394,0.0175095,0.00637054,-0.0025177,0.00782013,0.0185394,0.00869751,0.0195694,0.0160217,-9.97986,0.141258,0.00164032,0.0111389,0.00938416,0.0220108,0.00469208,0.0198746,0.00835419
24,2,10.0097,0.0012207,-0.000152588,-2.4244,0.0562914,-0.0738423,0.0556539,0.0706652,-0.0910102,0.147149,-0.124241,-0.0807394,0.0159454,0.00640869,-0.00106812,0.00778198,0.0131989,0.00602722,0.0166321,0.0199127,-9.97986,0.121002,-0.000534058,0.013504,0.00667572,0.0234222,0.00202179,0.0185776,0.00427246
24,3,10.0097,-0.000305176,-0.000457764,-2.42531,0.0559862,-0.0741475,0.0571797,0.0712755,-0.0919257,0.146844,-0.12363,-0.0816549,0.0176239,0.010376,0.00564575,0.0108719,0.017128,0.00785828,0.0170898,0.0184631,-9.97986,0.0984192,-0.00354767,0.0144958,0.00938416,0.0222397,0.00457764,0.0189209,0.00614166
24,4,10.0097,0.000610352,-0.000305176,-2.42531,0.0572069,-0.0735371,0.054128,0.0709703,-0.0916206,0.147149,-0.126377,-0.0810445,0.0112915,0.0163651,0.00743866,0.0114059,0.0167465,0.00579834,0.0193024,0.0205994,-9.97986,0.0823212,0.0037384,0.013237,0.0132751,0.0170898,0.00232697,0.0187683,0.00709534
24,5,10.0097,0.0012207,-0.00167847,-2.42684,0.0559862,-0.075063,0.0535176,0.0431993,-0.0952827,0.145929,-0.126682,-0.0816549,0.0152206,0.0172806,0.00377655,0.0135422,0.0180435,0.00835419,0.0226593,0.0198364,-9.97986,0.0754166,0.00125885,0.0143051,0.00835419,0.0186157,0.00137329,0.0164413,0.00637054
24,6,8.5143,0.000305176,-0.00106812,-2.42501,0.0553758,-0.0747579,0.0614522,0.0459459,-0.0919257,0.146844,-0.126072,-0.0816549,0.00869751,0.0214386,0.0143433,0.0110245,0.0165939,0.00728607,0.0174713,0.0259399,-9.97986,0.0634384,-0.000991821,0.0112915,0.00614166,0.0181961,-0.00518799,0.0147247,0.00572205
24,7,7.37355,0.000915527,-0.000915527,-2.42623,0.055681,-0.075063,0.0556539,0.0575426,-0.0931465,0.146234,-0.127292,-0.0819601,0.0136185,0.0238037,0.0118256,0.0121307,0.0170135,0.0111771,0.018959,0.0256348,-9.97986,0.0564575,0.00137329,0.0149155,0.00999451,0.0210953,-0.00724792,0.0141907,0.00850677
24,8,7.27437,0.000610352,0,-2.42592,0.0550706,-0.0738423,0.0544332,0.0645616,-0.0922309,0.145318,-0.126072,-0.0828756,0.0181961,0.0211334,0.00995636,0.0105667,0.0215149,0.0133133,0.0184631,0.0294495,-9.97986,0.0457001,0.00389099,0.0164795,0.00804901,0.019722,-0.00911713,0.0105286,0.00602722
24,9,7.58596,0.000610352,0.000152588,-2.42684,0.0569017,-0.0744527,0.0516866,0.0743273,-0.0922309,0.146234,-0.125156,-0.0834859,0.0197983,0.026474,0.0154114,0.0116348,0.0180435,0.0102234,0.0185776,0.0304031,-9.97986,0.0393295,0.00190735,0.0141144,0.0056076,0.0190353,-0.0135803,0.0133896,0.00530243
25,0,9.58516,0.00152588,0.000762939,-2.42714,0.0532396,-0.0756734,0.0553487,0.100878,-0.0897895,0.145013,-0.121494,-0.0825704,0.0218964,0.0213623,0.014801,0.00629425,0.0160217,0.00602722,0.0185013,0.0278854,-9.97986,0.0308609,-0.00106812,0.0137711,0.00679016,0.0171661,-0.0138855,0.00881195,0.00759125
25,1,10.0097,-0.000915527,0.00152588,-2.42867,0.0523241,-0.0768941,0.0516866,0.0901964,-0.0931465,0.144098,-0.125156,-0.0865377,0.0164032,0.0249863,0.0170898,0.00854492,0.0174713,0.00926971,0.0174713,0.0346375,-9.97986,0.028801,0.00213623,0.00694275,0.00495911,0.0188446,-0.0138092,0.00862122,0.0088501
25,2,10.0097,0.0012207,0.000152588,-2.42989,0.0526292,-0.0759786,0.0577901,0.077379,-0.0949775,0.144403,-0.126072,-0.0859274,0.0169373,0.0283051,0.015564,0.0094986,0.0204849,0.00972748,0.0191116,0.0412369,-9.97986,0.0251389,0.00125885,0.0116348,0.0069046,0.0200653,-0.0125504,0.0130081,0.00656128
25,3,10.0097,0.000915527,0.000305176,-2.42989,0.0538499,-0.0756734,0.0510762,0.072191,-0.0946723,0.144098,-0.125156,-0.0874532,0.0194931,0.026207,0.0180435,0.00862122,0.0162125,0.0135803,0.0196838,0.0344086,-9.97986,0.0215912,0.000724792,0.014534,0.00595093,0.0182343,-0.00549316,0.00823975,0.00328064
25,4,10.0097,0.0012207,-0.000305176,-2.42989,0.0538499,-0.0756734,0.0532125,0.07036,-0.0955879,0.142877,-0.127292,-0.0874532,0.0195313,0.0283432,0.018959,0.0141907,0.0165176,0.0153351,0.0204849,0.042038,-9.97986,0.0148392,0.00675201,0.01297,0.00434875,0.0181961,0.00038147,0.0094223,0.00293732
25,5,10.0097,0.000915527,-0.00106812,-2.42959,0.0532396,-0.0759786,0.0513814,0.0691393,-0.094062,0.143792,-0.127903,-0.0871481,0.0190735,0.0255203,0.0235748,0.00495911,0.0152206,0.0104904,0.019989,0.0378418,-9.97986,0.0144196,-0.000114441,0.0136566,0.00385284,0.0177765,-0.00225067,0.0113297,0.00320435
25,6,10.0097,-0.00183105,-0.000305176,-2.42867,0.0523241,-0.0753682,0.0522969,0.0688341,-0.0946723,0.143487,-0.126987,-0.0862325,0.0145721,0.028038,0.02388,0.0127792,0.0161362,0.0108337,0.0238037,0.0411606,-9.97986,0.0105286,0.000686646,0.0114059,0.00747681,0.0203705,-0.00198364,0.0118256,0.00526428
25,7,10.0097,0.00152588,0,-2.42745,0.0544603,-0.075063,0.0532125,0.0706652,-0.094062,0.144403,-0.126987,-0.085317,0.0273132,0.0322342,0.0233459,0.0110245,0.0187683,0.0118637,0.0213623,0.0388336,-9.97986,0.00682831,0.000267029,0.0122833,0.00358582,0.0179672,-0.00637054,0.0107956,0.00434875
25,8,10.0097,0.000305176,-0.000305176,-2.42745,0.0550706,-0.0762837,0.0580953,0.0688341,-0.0925361,0.145318,-0.126377,-0.0840963,0.0354385,0.033493,0.0281906,0.0101852,0.017662,0.0115967,0.0222015,0.0360107,-9.97986,-0.00106812,0.00164032,0.0175858,0.00717163,0.0179672,-0.00720978,0.0100708,0.00720978
25,9,10.0097,0.000610352,0.000305176,-2.42653,0.0550706,-0.0753682,0.0532125,0.0709703,-0.0928413,0.145318,-0.123935,-0.0840963,0.0279617,0.0320435,0.0277328,0.0131989,0.0230408,0.0103378,0.020752,0.0307465,-9.97986,0.00389099,-0.00267029,0.0124359,0.00457764,0.0191116,-0.0119781,0.00743866,0.00549316
26,0,10.0097,0.000305176,0.000610352,-2.4247,0.0559862,-0.0753682,0.0550435,0.0694445,-0.0934516,0.14776,-0.124851,-0.0822652,0.0143051,0.0320435,0.0265503,0.015831,0.0136948,0.0133514,0.0177002,0.0268936,-9.97986,0.00297546,-0.00259399,0.0183487,0.0069809,0.0230408,-0.00869751,0.00938416,0.00526428
26,1,10.0097,0.000610352,0.000152588,-2.42592,0.0559862,-0.0738423,0.0513814,0.0697496,-0.0928413,0.146234,-0.124546,-0.0816549,0.00659943,0.0353241,0.0259399,0.0115967,0.0136566,0.0101471,0.016098,0.0162125,-9.97986,-0.000534058,-0.00255585,0.0145721,0.00534058,0.0167465,-0.0111389,0.00846863,0.00827789
26,2,10.0097,-0.000915527,-0.000152588,-2.42501,0.0575121,-0.0741475,0.054128,0.0712755,-0.0919257,0.146234,-0.127903,-0.0816549,-0.0082016,0.0354004,0.0261688,0.0131607,0.0163269,0.011673,0.0162125,0.0150299,-9.97986,-0.010643,-0.00411987,0.0168228,0.00785828,0.0184631,-0.00717163,0.00606537,0.00759125
26,3,10.0097,0.000610352,0.000305176,-2.42562,0.0559862,-0.073232,0.0544332,0.0700548,-0.0922309,0.146539,-0.124546,-0.0807394,-0.0378418,0.0367737,0.0252533,0.0100708,0.0136566,0.0111771,0.0142288,0.011673,-9.97986,-0.0131607,-0.00545502,0.00961304,0.00553131,0.0151062,-0.00473022,0.00389099,0.00812531
26,4,10.0097,-0.000610352,0.000457764,-2.4247,0.0559862,-0.073232,0.0544332,0.0715807,-0.0919257,0.147455,-0.12363,-0.0810445,-0.0428391,0.0333405,0.0268173,0.013237,0.0193787,0.00999451,0.0183487,0.00473022,-9.97986,-0.0156021,-0.00370026,0.0130081,0.011673,0.0165176,-3.8147e-005,0.00301361,0.00476837
26,5,10.0097,-0.000915527,-0.000915527,-2.42623,0.0562914,-0.0741475,0.0526021,0.0416735,-0.0943672,0.146234,-0.126682,-0.0819601,-0.0417709,0.0337601,0.0246429,0.0128174,0.0179291,0.0118256,0.00930786,0.0037384,-9.97986,-0.0222397,-0.0044632,0.0137329,0.00896454,0.0164413,-0.00259399,0.0031662,0.0105667
26,6,8.355,-0.000610352,-0.00137329,-2.42623,0.0562914,-0.0729268,0.0544332,0.0456407,-0.0922309,0.145929,-0.126072,-0.0819601,-0.0337219,0.0329971,0.0241852,0.0141144,0.016861,0.0152969,0.00255585,0.00804901,-9.97986,-0.0256729,-0.00255585,0.0131607,0.0101471,0.0182724,-0.00778198,0.00106812,0.00808716
26,7,7.22096,0.00213623,-0.000610352,-2.42623,0.0559862,-0.0747579,0.0522969,0.0572374,-0.0928413,0.145929,-0.126682,-0.0825704,-0.0158691,0.0285339,0.0250626,0.0157547,0.0198746,0.0120544,0.00198364,0.0147629,-9.97986,-0.0301743,0.000495911,0.0123596,0.0116348,0.0138474,-0.00869751,0,0.00675201
26,8,7.09493,0.000305176,0,-2.42684,0.055681,-0.0747579,0.0532125,0.065172,-0.090705,0.144403,-0.126377,-0.0825704,-0.00530243,0.0284958,0.0265121,0.0119781,0.0209427,0.0143051,0.00106812,0.018692,-9.97986,-0.0394821,-0.00679016,0.0146866,0.0101089,0.0141144,-0.0018692,-0.00392914,0.00858307
26,9,7.41017,0.000610352,0.000152588,-2.42562,0.055681,-0.0741475,0.0544332,0.0734117,-0.0916206,0.144403,-0.124546,-0.0831808,0.00831604,0.0292206,0.025177,0.00659943,0.0244522,0.0127029,0.00686646,0.0214767,-9.97986,-0.0485992,-0.00190735,0.0118256,0.0104904,0.0130081,-0.00335693,-0.00312805,0.0115585
27,0,9.32546,0,0.000915527,-2.42623,0.0541551,-0.0759786,0.055959,0.100878,-0.0900947,0.145318,-0.123935,-0.0831808,0.0069046,0.0255585,0.025444,0.00518799,0.0213242,0.0123596,0.00457764,0.0205994,-9.97986,-0.0489426,-0.00465393,0.0151443,0.00686646,0.0108337,-0.00167847,-0.00183105,0.00919342
27,1,10.0097,-0.000610352,0.00137329,-2.42867,0.0532396,-0.0765889,0.0522969,0.0923326,-0.0934516,0.143792,-0.124851,-0.0865377,0.00427246,0.0233459,0.0167465,0.00953674,0.0226212,0.0138092,0.0131226,0.015831,-9.97986,-0.0474167,-0.00106812,0.00915527,0.00701904,0.00495911,0.00926971,-0.00896454,0.00679016
27,2,10.0097,0.000915527,0,-2.42867,0.0544603,-0.0768941,0.0513814,0.0779894,-0.0955879,0.143792,-0.126987,-0.0868429,0.0153351,0.0222015,0.0187683,0.0103378,0.0210953,0.0144577,0.0137711,0.0131607,-9.97986,-0.0248337,-0.000114441,0.014267,0.00850677,0.0111771,0.00564575,-0.00671387,0.00736237
27,3,10.0097,0.00244141,0.000152588,-2.42898,0.0547655,-0.0753682,0.050771,0.072191,-0.0949775,0.143487,-0.126987,-0.0865377,0.00621796,0.0196838,0.0115204,0.0115204,0.0210953,0.0124359,0.00873566,0.0151062,-9.97986,-0.0124741,-0.000305176,0.0117493,0.00205994,0.0100327,-0.000610352,-0.00724792,0.00671387
27,4,10.0097,0.0012207,0.000305176,-2.42959,0.0535448,-0.0756734,0.0529073,0.0709703,-0.0946723,0.143182,-0.127292,-0.0871481,0.00293732,0.0195694,0.0144577,0.0101089,0.018692,0.0154877,0.0154877,0.0130463,-9.97986,-0.0205994,0.00549316,0.0111771,0.00106812,0.0120926,-0.00610352,-0.00617981,0.00362396
27,5,10.0097,0.00244141,-0.000915527,-2.42928,0.0544603,-0.0759786,0.0535176,0.0685289,-0.0955879,0.144708,-0.127292,-0.0862325,0.00350952,0.014534,0.0131989,0.00957489,0.0181198,0.0160217,0.0196075,0.0127029,-9.97986,-0.0234604,0.00411987,0.0109482,0.00282288,0.0108337,-0.0130844,-0.00267029,0.00247955
27,6,10.0097,-0.000915527,-0.000610352,-2.42898,0.0544603,-0.0765889,0.0532125,0.0697496,-0.0931465,0.144708,-0.126682,-0.0862325,0.00854492,0.0169754,0.0127792,0.00961304,0.0186157,0.0181198,0.0244141,0.0198364,-9.97986,-0.0177002,0.00545502,0.00854492,0.00175476,0.014534,-0.0087738,-0.00331879,0.00328064
27,7,10.0097,0.0012207,-0.000457764,-2.42837,0.0544603,-0.075063,0.0522969,0.0709703,-0.0934516,0.143792,-0.129123,-0.0844015,0.0110626,0.0145721,0.0166702,0.0126266,0.0178146,0.0181198,0.0279617,0.0235748,-9.97986,0.000610352,0.00564575,0.0136185,0.00217438,0.0185013,-0.00995636,0.00228882,0.00370026
27,8,10.0097,-0.000610352,-0.000152588,-2.42714,0.0550706,-0.0756734,0.0529073,0.0691393,-0.0934516,0.146539,-0.126072,-0.0840963,0.00915527,0.0136185,0.00930786,0.0118637,0.0154877,0.0117111,0.0322723,0.022316,-9.97986,0.00911713,-0.000839233,0.0112915,0.0018692,0.0184631,-0.00778198,0.00324249,-0.00286102
27,9,10.0097,0.000305176,0.000457764,-2.42745,0.0547655,-0.0744527,0.0550435,0.0712755,-0.0922309,0.145929,-0.125461,-0.0840963,-0.00110626,0.0160599,0.0163651,0.0122452,0.0161743,0.0167465,0.0407028,0.0283813,-9.97986,0.0276947,0.00267029,0.0108337,0.00339508,0.0193405,-0.00236511,0.00209808,-0.00450134
28,0,10.0097,-0.0012207,0.000305176,-2.4247,0.0559862,-0.0735371,0.0535176,0.0715807,-0.0925361,0.147149,-0.124241,-0.0825704,0.000190735,0.0125504,0.016861,0.00709534,0.0094223,0.0170135,0.0402069,0.0379181,-9.97986,0.0392532,-0.000991821,0.0101089,0.00282288,0.0202179,0.00213623,0.00526428,-0.00450134
28,1,10.0097,0.000305176,0.000457764,-2.42501,0.0565965,-0.0738423,0.0550435,0.07036,-0.0919257,0.145318,-0.124851,-0.0810445,0.00133514,0.0172043,0.017662,0.00789642,0.0171661,0.0194931,0.0325775,0.0497818,-9.97986,0.042572,-0.00202179,0.00972748,0.00812531,0.0185776,0.00282288,0.00717163,-0.0031662
28,2,10.0097,0.000610352,0.000305176,-2.4247,0.0572069,-0.0738423,0.0532125,0.0718859,-0.0919257,0.145318,-0.124241,-0.0816549,-0.0104141,0.0241852,0.0207138,0.00831604,0.0162125,0.0142288,0.0285721,0.0664139,-9.97986,0.0477982,0.00038147,0.0115967,0.00530243,0.0162506,0.00682831,0.0118637,-0.00473022
28,3,10.0097,-0.000915527,0.000152588,-2.42684,0.0569017,-0.0738423,0.0556539,0.07036,-0.0913154,0.146539,-0.124241,-0.0804342,-0.0150681,0.0263977,0.0239944,0.00934601,0.0104904,0.0159454,0.0253677,0.0759125,-9.97986,0.0508881,0.000991821,0.0146103,0.0104523,0.0188065,0.00671387,0.0162125,0.00152588
28,4,10.0097,0.0012207,0.000152588,-2.42531,0.0569017,-0.0726216,0.0553487,0.0712755,-0.0913154,0.146844,-0.12363,-0.0819601,-0.0196457,0.0302887,0.0221252,0.0094223,0.018158,0.0111008,0.0258636,0.0840759,-9.97986,0.0525665,0.00259399,0.0146484,0.00759125,0.0162888,0.00637054,0.0133896,0.00232697
28,5,10.0097,0,-0.000915527,-2.42623,0.0559862,-0.0741475,0.0522969,0.0410631,-0.0937568,0.146234,-0.126987,-0.0810445,-0.0192642,0.0335693,0.0314331,0.0101471,0.0183868,0.0142288,0.026474,0.0942612,-9.97986,0.0494385,0.00106812,0.0141525,0.00659943,0.0162125,0.00343323,0.00999451,-0.00118256
28,6,8.2491,-0.000915527,-0.00152588,-2.42592,0.0547655,-0.0747579,0.0547383,0.04442,-0.0928413,0.147455,-0.125156,-0.0810445,-0.0439072,0.0364685,0.0302124,0.0121307,0.01194,0.0128555,0.0207901,0.100441,-9.97986,0.044136,-0.000228882,0.0168991,0.00812531,0.0190353,0.00892639,0.0107956,0.00293732
28,7,7.11843,0.000305176,-0.00106812,-2.42653,0.0553758,-0.0735371,0.0550435,0.0569322,-0.0925361,0.146539,-0.126072,-0.0831808,-0.079422,0.0417328,0.0412369,0.0111389,0.0157547,0.0117111,0.0191879,0.0976563,-9.97986,0.0450134,0.00213623,0.0164413,0.00995636,0.0174713,0.0131989,0.0171661,0.00171661
28,8,7.03298,0.000915527,-0.000457764,-2.42592,0.0553758,-0.0756734,0.0550435,0.0663927,-0.0919257,0.145929,-0.125766,-0.0825704,-0.0517654,0.049324,0.0417328,0.0147629,0.0158691,0.0115204,0.0150299,0.0908279,-9.97986,0.051384,-0.00770569,0.0135803,0.0063324,0.0185394,0.0130844,0.0146866,0.00473022
28,9,7.36898,0.000305176,0.000915527,-2.42592,0.0550706,-0.0741475,0.054128,0.075548,-0.0916206,0.144708,-0.124851,-0.0831808,-0.0111008,0.052681,0.0487518,0.0140762,0.0141144,0.0157928,0.0141907,0.075264,-9.97986,0.0537109,-0.00225067,0.0177765,0.00335693,0.0228882,0.000457764,0.0108719,0.00347137
29,0,9.35719,0.000305176,0.00152588,-2.42714,0.0550706,-0.0759786,0.0535176,0.101183,-0.0894843,0.145318,-0.123935,-0.0837911,-0.026741,0.0548553,0.0505066,0.0138855,0.0156784,0.0112534,0.0164795,0.0561142,-9.97986,0.0482178,-0.00236511,0.0189972,0.00961304,0.0180054,-0.000610352,0.0153351,0.00717163
29,1,10.0097,0,0.00198364,-2.42959,0.0535448,-0.0762837,0.0532125,0.0914171,-0.0955879,0.143792,-0.125766,-0.0868429,-0.0271606,0.0577164,0.0548553,0.0175476,0.0148773,0.0110245,0.0270462,0.0259399,-9.97986,0.0373459,-0.00743866,0.0179291,0.0185013,0.0213623,0.00301361,0.0185394,0.00694275
29,2,10.0097,0.000610352,-0.000152588,-2.42928,0.0541551,-0.0759786,0.0516866,0.0779894,-0.095893,0.141961,-0.127598,-0.0868429,-0.0341797,0.0622177,0.0623703,0.0209427,0.0149918,0.0110626,0.0267792,0.00205994,-9.97986,0.0133133,-0.00274658,0.0214005,0.0209808,0.0248718,-0.00492096,0.0193024,0.00804901
29,3,10.0097,-0.000610352,-0.000152588,-2.42959,0.0550706,-0.0753682,0.0516866,0.0712755,-0.0943672,0.142877,-0.126987,-0.0868429,-0.0209808,0.0669479,0.0640869,0.0244522,0.0148392,0.012207,0.0237274,-0.0304413,-9.97986,-0.0339127,-0.00431061,0.0218582,0.0198364,0.030365,-0.00862122,0.0240707,0.0063324
29,4,10.0097,-0.000305176,-0.0012207,-2.42867,0.0538499,-0.0756734,0.0513814,0.07036,-0.0943672,0.142877,-0.126987,-0.0871481,0.0387955,0.064621,0.0644684,0.0283051,0.0110626,0.0131989,0.00732422,-0.0650406,-9.97986,-0.0734711,-0.00297546,0.0245285,0.0196075,0.0306702,-0.00606537,0.0227356,0.00961304
29,5,10.0097,-0.000610352,-0.000610352,-2.42928,0.0550706,-0.075063,0.0513814,0.07036,-0.0931465,0.145013,-0.127598,-0.0874532,0.129776,0.0615311,0.0582886,0.0317383,0.014534,0.0100327,0.00831604,-0.0787354,-9.97986,-0.117378,-0.00484467,0.0157547,0.0180054,0.0296021,-0.00640869,0.0221634,0.00919342
29,6,10.0097,0.000915527,-0.000152588,-2.42898,0.0538499,-0.075063,0.0526021,0.0688341,-0.094062,0.143182,-0.126682,-0.0862325,0.196037,0.0537491,0.0584793,0.0271225,0.0137329,0.0140381,0.00736237,-0.0953674,-9.97986,-0.171127,-0.00190735,0.0214767,0.0205231,0.0246048,-0.00167847,0.0192261,0.0141525
29,7,10.0097,0.00152588,-0.000610352,-2.42684,0.0547655,-0.0747579,0.0519917,0.0663927,-0.0937568,0.141961,-0.126377,-0.0850118,0.177383,0.044632,0.0445557,0.0285339,0.0166321,0.00659943,0.0159836,-0.0807571,-9.97986,-0.266571,-0.00492096,0.0204468,0.0207138,0.0212097,-0.000190735,0.0162888,0.0151825
29,8,10.0097,0.000915527,0.000915527,-2.42806,0.0550706,-0.0756734,0.0538228,0.0688341,-0.094062,0.144708,-0.124851,-0.085317,0.14492,0.038681,0.0298691,0.0221634,0.019989,0.0114441,0.0119019,-0.053215,-9.97986,-0.358734,-0.00423431,0.02285,0.0201035,0.023613,-0.00038147,0.0195313,0.0157928
29,9,10.0097,-0.00274658,0.000305176,-2.42745,0.0538499,-0.0756734,0.0538228,0.0682238,-0.0937568,0.143487,-0.125156,-0.0837911,0.11776,0.0213623,0.0237274,0.0161362,0.0193405,0.00934601,-0.0115585,-0.0363159,-9.97986,-0.382347,-0.00854492,0.0231552,0.0171661,0.0201035,0.0104904,0.0229645,0.0177383
30,0,10.0097,0.000305176,0.000305176,-2.42684,0.055681,-0.073232,0.0532125,0.0694445,-0.0922309,0.145318,-0.124546,-0.0825704,0.0118256,0.0106049,0.00595093,0.0175476,0.0204849,0.00873566,-0.0258255,-0.0146103,-9.97986,-0.362167,-0.00782013,0.0225449,0.0175476,0.0146866,0.0122452,0.0262833,0.0202179
30,1,10.0097,-0.000305176,0.000305176,-2.42531,0.0559862,-0.0747579,0.0550435,0.0700548,-0.0922309,0.144403,-0.124546,-0.0813497,-0.0676346,0.00106812,-0.00411987,0.00747681,0.0238037,0.00793457,-0.0286102,-0.0158691,-9.97986,-0.298882,-0.0063324,0.0223541,0.0143433,0.00900269,0.00541687,0.0230026,0.0183105
30,2,10.0097,-0.0012207,0,-2.42257,0.0559862,-0.0741475,0.0562642,0.0728014,-0.0919257,0.145013,-0.12363,-0.0810445,-0.0548553,-0.0062561,-0.0133896,0.00259399,0.0261307,0.0094223,-0.0227356,-0.0103378,-9.97986,-0.201683,-0.00602722,0.0242996,0.0167465,0.0133514,0.00343323,0.0250626,0.02285
30,3,10.0097,-0.000305176,-0.000305176,-2.42562,0.0569017,-0.0747579,0.0538228,0.0740221,-0.0913154,0.145624,-0.124546,-0.0813497,-0.0237656,-0.0154877,-0.0231934,0.0031662,0.025444,0.0117111,-0.0114441,-0.0141907,-9.97986,-0.100594,-0.00461578,0.022049,0.0125504,0.00980377,-0.00511169,0.0244522,0.0214767
30,4,10.0097,0.0012207,0.000152588,-2.42409,0.0569017,-0.0744527,0.0550435,0.0752428,-0.0913154,0.146539,-0.124851,-0.0810445,-0.0366974,-0.0226212,-0.0252533,0.00389099,0.0206757,0.0149918,0.00526428,-0.0211716,-9.97986,0.0549698,-0.00202179,0.0206375,0.0124359,0.010376,-0.0056076,0.0279617,0.0154877
30,5,10.0097,0.000305176,-0.00137329,-2.42623,0.0565965,-0.0729268,0.0526021,0.0453356,-0.0946723,0.146539,-0.126072,-0.0819601,-0.0411224,-0.0191879,-0.0259018,0.00663757,0.0167847,0.0105667,0.0186157,-0.0234222,-9.97986,0.187607,0.00289917,0.0178146,0.0154877,0.0127792,-0.00457764,0.0245285,0.0129318
30,6,8.19142,0.000915527,-0.000610352,-2.42562,0.0572069,-0.0747579,0.0550435,0.0508287,-0.094062,0.146234,-0.125766,-0.0819601,-0.0295258,-0.0144958,-0.0257111,0.00862122,0.0150681,0.0133133,0.043602,-0.0305176,-9.97986,0.297012,-0.000152588,0.01297,0.0125122,0.0164795,-0.00442505,0.0242996,0.00514984
30,7,7.06258,0.00152588,-0.000610352,-2.42562,0.0562914,-0.0738423,0.0544332,0.0593737,-0.0913154,0.146234,-0.124851,-0.0819601,-0.0141525,-0.0226593,-0.0224304,0.00286102,0.0125885,0.0113297,0.0550079,-0.0307846,-9.97986,0.376892,0.000457764,0.0157547,0.017128,0.0230408,0.00370026,0.0269318,0.00198364
30,8,6.99483,0,-0.000610352,-2.42592,0.0553758,-0.0747579,0.054128,0.0657823,-0.0919257,0.146844,-0.126072,-0.0825704,0.025444,-0.0101852,-0.0192261,0.00545502,0.0153351,0.0129318,0.062027,-0.0192642,-9.97986,0.370674,-0.00114441,0.0117111,0.0102615,0.0228119,0.01091,0.0273132,0.00377655
30,9,7.27162,0.000915527,0.000762939,-2.42684,0.0562914,-0.0747579,0.0553487,0.0746324,-0.090705,0.145624,-0.125461,-0.0837911,0.0666046,-0.00957489,-0.0173569,0.000534058,0.0157928,0.0156403,0.0549316,-0.011673,-9.97986,0.34996,-0.0037384,0.00858307,0.0145721,0.0253296,0.0320053,0.0317001,0.00236511
31,0,9.22383,0.000305176,0.000762939,-2.42562,0.0535448,-0.0759786,0.0544332,0.100267,-0.0897895,0.143487,-0.124546,-0.0840963,0.0925064,-0.00640869,-0.0094986,0.00167847,0.0133133,0.0178528,0.0550842,0.000724792,-9.97986,0.298538,-0.00175476,0.00911713,0.0133133,0.026741,0.0337219,0.0274658,-0.00602722
31,1,10.0097,0.000305176,0.00137329,-2.42867,0.0535448,-0.0775044,0.0516866,0.0923326,-0.0934516,0.143792,-0.125461,-0.0865377,0.0708389,-0.00961304,-0.0117493,0.00087738,0.00938416,0.0129318,0.0579453,0.00869751,-9.97986,0.267143,0.000152588,0.00900269,0.0111008,0.0285721,0.0162506,0.0325775,-0.00671387
31,2,10.0097,-0.000915527,0.000305176,-2.42837,0.0544603,-0.0756734,0.0529073,0.0767687,-0.0949775,0.144098,-0.127292,-0.0871481,0.063324,-0.0122833,-0.00644684,0.00415802,0.0100327,0.0143814,0.0593567,0.0112534,-9.97986,0.248413,-0.00141144,0.00812531,0.0115585,0.027771,0.00995636,0.0278473,-0.00457764
31,3,10.0097,0.00183105,0.000305176,-2.42837,0.0547655,-0.0771993,0.0526021,0.0709703,-0.0965034,0.142877,-0.127598,-0.0865377,0.0740814,-0.00534058,-0.00846863,0.00358582,0.010643,0.0149155,0.0509262,0.0175095,-9.97986,0.213089,0.000534058,0.00686646,0.0137711,0.0265884,0.0106049,0.0248718,-0.00694275
31,4,10.0097,0.00213623,-0.000610352,-2.42837,0.0541551,-0.0759786,0.0532125,0.0679186,-0.0937568,0.143792,-0.127598,-0.0868429,0.0522614,-0.00366211,-0.00335693,0.00312805,0.00991821,0.0160599,0.0499344,0.0105667,-9.97986,0.186615,-0.00125885,0.00709534,0.014534,0.0258636,0.00644684,0.0209427,-0.00305176
31,5,10.0097,0.000305176,-0.000305176,-2.42898,0.0538499,-0.0762837,0.0529073,0.0682238,-0.0937568,0.142572,-0.126072,-0.0868429,0.0284958,0.000152588,0.000953674,0.00728607,0.0151825,0.0151443,0.0461578,0.0152969,-9.97986,0.159988,-0.00102997,0.00843048,0.0166702,0.0252914,0.0150299,0.0223541,-0.000572205
31,6,10.0097,0,-0.000915527,-2.42776,0.0550706,-0.075063,0.0519917,0.0688341,-0.0952827,0.144098,-0.126682,-0.0859274,0.0274277,0.00526428,0.00156403,0.00228882,0.0128555,0.0163651,0.0430679,0.0195313,-9.97986,0.139198,-0.00331879,0.00659943,0.0163269,0.0184631,0.00694275,0.0249863,0.00141144
31,7,10.0097,-0.000610352,0.000457764,-2.42531,0.0550706,-0.0744527,0.0526021,0.0679186,-0.0949775,0.144708,-0.126987,-0.0847066,0.0227737,0.00339508,0.0102615,0.00579834,0.0191879,0.0121689,0.0377655,0.0257874,-9.97986,0.119743,-0.00640869,0.00873566,0.0149918,0.0221634,0.00190735,0.0174713,0.00404358
31,8,10.0097,-0.0012207,0,-2.42684,0.0544603,-0.0747579,0.0538228,0.0694445,-0.094062,0.144403,-0.126072,-0.0850118,0.0302124,0.00705719,0.0102997,0.00675201,0.020256,0.0153351,0.0328064,0.0262833,-9.97986,0.0864792,-0.00602722,0.00675201,0.0130081,0.0192261,-0.000686646,0.0140762,0.00335693
31,9,10.0097,-0.000610352,0.000152588,-2.42714,0.0550706,-0.0753682,0.054128,0.0697496,-0.0928413,0.146844,-0.126072,-0.0816549,0.042038,0.0151825,0.0106049,0.00507355,0.0169754,0.0153351,0.0329208,0.035553,-9.97986,0.0694275,-0.00400543,0.0082016,0.0128937,0.0232697,-0.00629425,0.0162888,-0.000953674
32,0,10.0097,0.000915527,-0.000152588,-2.42745,0.0565965,-0.0735371,0.0547383,0.0694445,-0.0913154,0.145318,-0.125156,-0.0825704,0.0165939,0.0179672,0.0177765,0.00419617,0.0139236,0.00957489,0.0319672,0.0363541,-9.97986,0.0666428,-0.00545502,0.00823975,0.00995636,0.0178909,-0.0178528,0.0131226,0.000419617
32,1,10.0097,0.00213623,0.000152588,-2.42623,0.0562914,-0.0747579,0.0544332,0.0718859,-0.0922309,0.147149,-0.125156,-0.0813497,-0.00637054,0.0193024,0.0191498,0.0043869,0.0168228,0.0114822,0.0289536,0.0557709,-9.97986,0.0598907,-0.00614166,0.00602722,0.0114059,0.0205612,-0.0160599,0.0135803,-0.0025177
32,2,10.0097,0.00152588,0.000457764,-2.42501,0.0575121,-0.0747579,0.0553487,0.0712755,-0.0922309,0.14776,-0.123935,-0.0798238,7.62939e-005,0.0217056,0.018425,0.00965118,0.0180817,0.0147247,0.0312424,0.0659561,-9.97986,0.0564575,-0.00118256,0.0101471,0.0111389,0.0223923,-0.0157928,0.018158,0.00301361
32,3,10.0097,0.000610352,0,-2.42135,0.0572069,-0.0735371,0.0550435,0.0715807,-0.0925361,0.145929,-0.124851,-0.0816549,-0.0289154,0.0222397,0.0202942,0.00434875,0.0149536,0.00873566,0.0281525,0.0725174,-9.97986,0.0459671,0.00221252,0.00957489,0.0108337,0.017662,-0.0120544,0.0175476,-0.000267029
32,4,10.0097,0,0.000457764,-2.4247,0.0559862,-0.0741475,0.0553487,0.0685289,-0.0910102,0.147455,-0.12363,-0.0810445,-0.0613403,0.0278091,0.0279617,0.00686646,0.0165939,0.0117493,0.0260925,0.0734711,-9.97986,0.0371552,0.00320435,0.00431061,0.00679016,0.0159836,0.00518799,0.0150299,-0.00297546
32,5,10.0097,-0.000915527,-0.000915527,-2.42562,0.0553758,-0.0738423,0.0535176,0.0419786,-0.0965034,0.146844,-0.125766,-0.0828756,-0.0699234,0.0273514,0.0257874,0.0119781,0.0159454,0.0125504,0.0251007,0.0696945,-9.97986,0.024147,0.00518799,0.00797272,0.0107574,0.0141907,0.0130844,0.0166702,0.00602722
32,6,8.42122,-0.000610352,-0.0012207,-2.42592,0.0565965,-0.0744527,0.054128,0.0459459,-0.0928413,0.146844,-0.126072,-0.0822652,-0.0431824,0.0298309,0.0348282,0.00907898,0.0219727,0.0112915,0.0218582,0.0764465,-9.97986,0.0163651,0.00221252,0.0112152,0.00652313,0.0130844,0.0165176,0.0205994,0.00511169
32,7,7.26796,0.000305176,-0.000457764,-2.42562,0.0562914,-0.0735371,0.054128,0.0526598,-0.0928413,0.145929,-0.126682,-0.0825704,-0.0165176,0.0357437,0.0340652,0.0111008,0.0133514,0.00827789,0.0207901,0.075798,-9.97986,0.00770569,-0.000839233,0.00705719,0.00881195,0.0106049,0.0199127,0.0177002,0.00476837
32,8,7.15962,-0.000915527,-0.000305176,-2.42714,0.0550706,-0.0747579,0.0532125,0.0645616,-0.0922309,0.145929,-0.125766,-0.0828756,-0.0318527,0.0424957,0.0401306,0.0149536,0.0203705,0.0119019,0.0179672,0.0728607,-9.97986,0.00770569,0.00183105,0.0113678,0.00801086,0.00789642,0.022583,0.0193024,0.0100708
32,9,7.47365,-0.00183105,0.000610352,-2.42684,0.055681,-0.0747579,0.0547383,0.0740221,-0.0928413,0.145624,-0.124241,-0.0834859,-0.0786972,0.0428009,0.0416946,0.0142288,0.019989,0.00637054,0.00385284,0.0499725,-9.97986,-0.00579834,0.0031662,0.0111008,0.0043869,0.0111008,0.00934601,0.0118637,0.0135803
33,0,9.51741,-0.000610352,0.0012207,-2.42623,0.0553758,-0.075063,0.054128,0.103319,-0.090705,0.144708,-0.123935,-0.0831808,-0.0944901,0.0443649,0.0448227,0.0174713,0.0163269,0.010376,-0.0050354,0.037117,-9.97986,-0.0344849,-0.00205994,0.0100327,0.00602722,0.0108719,0.00389099,0.000648499,0.011673
33,1,10.0097,-0.000305176,0.00137329,-2.42959,0.0535448,-0.0765889,0.0519917,0.0917223,-0.0934516,0.143792,-0.125766,-0.0865377,-0.0774765,0.0482941,0.0477982,0.0175095,0.0201035,0.0110626,-0.0157166,0.0256348,-9.97986,-0.0601578,-0.00289917,0.0125504,0.00366211,0.0142288,-0.00476837,0.00312805,0.0174332
33,2,10.0097,0.000610352,0,-2.42867,0.0544603,-0.0768941,0.0522969,0.0752428,-0.0955879,0.144098,-0.126987,-0.0871481,-0.0754929,0.04879,0.0477219,0.0167465,0.0199127,0.00846863,-0.0255203,0.0075531,-9.97986,-0.0802231,-0.00286102,0.0138474,0.00125885,0.00862122,-0.0150681,0.0019455,0.0201035
33,3,10.0097,-0.000610352,0.000305176,-2.42928,0.0535448,-0.0768941,0.0526021,0.0767687,-0.0937568,0.143792,-0.126377,-0.0868429,-0.0374222,0.0456238,0.0480652,0.0177383,0.0221634,0.0104523,-0.0284195,-0.00900269,-9.97986,-0.0952148,-0.00442505,0.0172424,3.8147e-005,0.000457764,-0.016098,-0.000724792,0.0236511
33,4,10.0097,0.000915527,-0.000305176,-2.42837,0.0529344,-0.0753682,0.0532125,0.0715807,-0.0931465,0.143792,-0.126987,-0.085317,0.0662231,0.0427628,0.0449753,0.0227356,0.0199509,0.00926971,-0.0259018,-0.00946045,-9.97986,-0.125732,-0.000762939,0.0153351,0.0019455,0.00396729,-0.0146103,-0.00141144,0.0257874
33,5,10.0097,0.000915527,-0.000457764,-2.42837,0.0523241,-0.0765889,0.0538228,0.0685289,-0.0946723,0.143182,-0.127598,-0.0868429,0.0931168,0.0432587,0.0426865,0.0208282,0.0172043,0.00694275,-0.0217438,-0.0120926,-9.97986,-0.161781,-0.00225067,0.0131989,-0.00133514,0.00537872,-0.00953674,-0.00164032,0.0249863
33,6,10.0097,0.00183105,-0.0012207,-2.42867,0.0547655,-0.0747579,0.0522969,0.0679186,-0.0931465,0.144403,-0.126987,-0.0856222,0.111046,0.0369263,0.0382233,0.0180435,0.0202942,0.00900269,-0.00572205,-0.0236511,-9.97986,-0.193672,-0.00667572,0.0149155,-0.00835419,0.00789642,-0.0136948,-0.00328064,0.0204468
33,7,10.0097,0.00366211,0,-2.42776,0.0553758,-0.075063,0.0535176,0.0691393,-0.0928413,0.145013,-0.126987,-0.0856222,0.162811,0.0330353,0.0371933,0.0198746,0.0175858,0.00915527,0.0161362,-0.0305176,-9.97986,-0.200958,-0.00190735,0.00907898,-0.00278473,0.0126648,-0.0183105,-0.00511169,0.0191879
33,8,10.0097,0.00183105,0.000305176,-2.42684,0.0538499,-0.0747579,0.0538228,0.0706652,-0.0931465,0.144708,-0.126072,-0.0840963,0.145988,0.0315094,0.0354385,0.0206375,0.0205994,0.00808716,0.037384,-0.0245667,-9.97986,-0.149879,0.00404358,0.01194,0.00152588,0.0157547,-0.0186539,-0.00270844,0.0208282
33,9,10.0097,0.000915527,0.000152588,-2.42714,0.0544603,-0.0747579,0.0535176,0.0712755,-0.0937568,0.146234,-0.125766,-0.0834859,0.102654,0.0251389,0.0235367,0.0146103,0.026207,0.00686646,0.0315094,-0.00850677,-9.97986,-0.0879669,-0.0018692,0.0133514,0.000610352,0.0186539,-0.0136566,-0.00106812,0.0219345
34,0,10.0097,0.000610352,0.000305176,-2.42501,0.0559862,-0.0738423,0.0544332,0.072191,-0.0922309,0.146234,-0.124546,-0.0816549,0.0924683,0.0166702,0.0177383,0.00858307,0.0149918,0.0062561,0.0238419,0.00205994,-9.97986,-0.0469589,-0.00396729,0.0141907,0.00278473,0.00953674,-0.00450134,-0.00286102,0.0188828
34,1,10.0097,0.0012207,-0.000152588,-2.42623,0.0565965,-0.0738423,0.0538228,0.0712755,-0.0925361,0.145929,-0.124241,-0.0819601,0.0450516,0.0131607,0.016861,0.00965118,0.0199127,0.00637054,0.0328064,0.00862122,-9.97986,-0.0268936,-0.00358582,0.00934601,-0.000610352,0.0141907,-0.00286102,-0.00526428,0.013504
34,2,10.0097,-0.000305176,0.000305176,-2.42501,0.0553758,-0.0735371,0.055959,0.0728014,-0.0928413,0.147455,-0.124241,-0.0813497,0.00980377,0.0134659,0.00782013,0.00915527,0.017128,0.0106049,0.0414276,0.0125885,-9.97986,0.00488281,-0.00747681,0.00160217,-0.00175476,0.0278473,0.00873566,-7.62939e-005,0.0100708
34,3,10.0097,0.000305176,0.000152588,-2.4247,0.0562914,-0.075063,0.0544332,0.0715807,-0.0919257,0.146539,-0.12363,-0.0810445,-0.00480652,0.0124741,0.00202179,0.00358582,0.0105286,0.00419617,0.046463,0.010643,-9.97986,0.028038,-0.0121307,0.00183105,-0.00366211,0.0304794,0.00606537,0.00457764,-0.00324249
34,4,10.0097,0.000610352,0.000762939,-2.42592,0.0575121,-0.0738423,0.0529073,0.0718859,-0.0910102,0.147149,-0.12302,-0.0813497,-0.00270844,0.00892639,0.00434875,0.00701904,0.00858307,0.0056076,0.0424194,0.0130081,-9.97986,0.0265884,-0.00789642,0.00900269,0.00488281,0.0355911,-0.0031662,0.00762939,0.00106812
34,5,10.0097,0,-0.00106812,-2.42684,0.0565965,-0.0741475,0.0538228,0.0401476,-0.0949775,0.145624,-0.126987,-0.0828756,0.0232315,0.0115585,0.00782013,0.0069046,0.00869751,0.00232697,0.0411224,0.01091,-9.97986,0.0144958,-0.0043869,0.0111008,-0.000572205,0.0357056,-0.0103378,0.00862122,0.0062561
34,6,8.24574,0.000305176,-0.00106812,-2.42562,0.0559862,-0.0735371,0.0544332,0.0474718,-0.0928413,0.145929,-0.126377,-0.0810445,0.0364685,0.0124359,0.00652313,0.00778198,0.0159836,0.00579834,0.0376892,0.0118256,-9.97986,0.0435257,-0.00198364,0.0107193,0.00221252,0.027504,-0.0112152,0.00709534,0.00644684
34,7,7.14986,0.000305176,-0.00137329,-2.42592,0.055681,-0.0744527,0.054128,0.0575426,-0.0922309,0.146234,-0.125766,-0.0819601,0.0286865,0.0117493,0.00572205,0.00598907,0.0174713,0.00621796,0.0363541,0.00862122,-9.97986,0.0933075,0.00297546,0.01297,0.00598907,0.021286,-0.00965118,0.00301361,0.00896454
34,8,7.04091,-0.000305176,0,-2.42623,0.0559862,-0.0747579,0.0544332,0.0648668,-0.0919257,0.145013,-0.125766,-0.0831808,0.0318146,0.0125122,0.00801086,0.0069809,0.018425,0.00179291,0.0463867,-0.000762939,-9.97986,0.125694,0.00679016,0.0144196,-0.000534058,0.0226974,-0.0111389,0.00816345,0.00434875
34,9,7.3525,0.0012207,0.000610352,-2.42684,0.0559862,-0.075063,0.054128,0.0761583,-0.0919257,0.146234,-0.124851,-0.0837911,0.0484085,0.0207901,0.00972748,0.00595093,0.0161743,0.00255585,0.0460052,0.00404358,-9.97986,0.119896,0.00812531,0.0142288,0.00431061,0.0246429,-0.0159454,0.00522614,0.00331879
35,0,9.36025,0.00183105,0.000762939,-2.42714,0.0541551,-0.075063,0.0553487,0.100572,-0.0900947,0.144708,-0.125156,-0.0837911,0.0477219,0.0201797,0.0115967,0.00873566,0.0194931,0.000648499,0.0501251,0.0118256,-9.97986,0.076828,0.00762939,0.0130463,0.0069809,0.0247192,-0.027504,0.0063324,0.00434875
35,1,10.0097,0.0012207,0.00137329,-2.42684,0.0535448,-0.0768941,0.0529073,0.0926378,-0.0952827,0.142572,-0.125766,-0.0862325,0.014801,0.0235748,0.0206757,0.00736237,0.0160599,-0.00167847,0.0598145,0.0278091,-9.97986,0.0184631,0.00415802,0.0157928,0.00812531,0.0252914,-0.0175095,0.00965118,0.00843048
35,2,10.0097,0.00152588,0.000915527,-2.4305,0.0538499,-0.0753682,0.0522969,0.0764635,-0.0955879,0.144098,-0.126072,-0.0865377,-0.0115585,0.0256729,0.0201797,0.00488281,0.0175858,0.000343323,0.0628281,0.0473785,-9.97986,-0.000762939,0.00335693,0.0101089,0.0102997,0.0172043,-0.0158691,0.00762939,0.00125885
35,3,10.0097,0.00335693,0.000152588,-2.42959,0.0538499,-0.0765889,0.0522969,0.07036,-0.0952827,0.142877,-0.127598,-0.0871481,-0.0556946,0.0259018,0.0205994,0.00740051,0.0230026,-0.00213623,0.0690842,0.0691605,-9.97986,0.0140762,-0.00110626,0.0141525,0.0114441,0.0136566,-0.0168228,0.00999451,0.00728607
35,4,10.0097,0.000610352,-0.000610352,-2.42806,0.0532396,-0.0765889,0.0516866,0.0697496,-0.0955879,0.144098,-0.127598,-0.0871481,-0.121002,0.0240326,0.0283051,0.00637054,0.022583,-0.00396729,0.0625992,0.0759888,-9.97986,0.0288773,-0.00247955,0.01297,0.00980377,0.0069809,-0.00999451,0.0108337,0.00297546
35,5,10.0097,0.000610352,-0.000152588,-2.42989,0.0535448,-0.0762837,0.0513814,0.0694445,-0.0946723,0.144098,-0.126682,-0.0871481,-0.151634,0.0287247,0.0296021,0.00652313,0.0249863,0.001297,0.0593567,0.0788498,-9.97986,0.063324,0.000114441,0.0161362,0.00717163,0.010643,-0.00663757,0.0162506,0.00404358
35,6,10.0097,-0.000610352,0,-2.42806,0.0535448,-0.0759786,0.0526021,0.0691393,-0.0943672,0.144403,-0.126987,-0.0862325,-0.161552,0.0270462,0.0263596,0.00850677,0.0210953,0.0025177,0.050621,0.0810242,-9.97986,0.0801468,-0.00350952,0.0165176,0.00881195,0.00648499,-0.00717163,0.0193024,0.00629425
35,7,10.0097,0.000305176,0,-2.42745,0.0550706,-0.075063,0.0529073,0.0688341,-0.0943672,0.145624,-0.126377,-0.0859274,-0.125427,0.0322342,0.0284576,0.00514984,0.0262833,-0.00156403,0.0433731,0.0803375,-9.97986,0.0965881,-0.00366211,0.0136185,0.00988007,0.0113297,-0.00663757,0.0238419,0.00545502
35,8,10.0097,0,-0.000305176,-2.42714,0.0553758,-0.075063,0.0538228,0.0718859,-0.0925361,0.144403,-0.126072,-0.0844015,-0.0603104,0.0331116,0.0230408,0.00827789,0.0237274,-0.000228882,0.0351715,0.0569153,-9.97986,0.110931,-0.00350952,0.0179672,0.00629425,0.00118256,-0.00793457,0.0261688,0.00797272
35,9,10.0097,0,-0.000305176,-2.42684,0.055681,-0.0753682,0.0529073,0.07036,-0.0928413,0.145318,-0.126377,-0.0834859,-0.0117874,0.0378418,0.026474,0.0130844,0.0214386,0.001297,0.0246048,0.0146484,-9.97986,0.0785828,-0.00976563,0.0156021,0.0037384,0.00289917,-0.00999451,0.0229645,0.0043869
36,0,10.0097,0.00183105,0.000762939,-2.42653,0.0578172,-0.075063,0.054128,0.0712755,-0.0919257,0.146539,-0.124851,-0.0822652,0.0375748,0.0431824,0.0315475,0.0188828,0.0219345,0.00240326,0.0205994,-0.00980377,-9.97986,0.0381851,-0.00694275,0.016098,0.00160217,0.00518799,-0.0019455,0.0215149,0.00247955
36,1,10.0097,0.00244141,-0.000305176,-2.42501,0.0562914,-0.0744527,0.055959,0.07036,-0.0910102,0.147455,-0.124851,-0.0807394,0.0655365,0.0402832,0.0327301,0.0183868,0.0232697,0.0025177,0.0152969,-0.0127792,-9.97986,-0.00389099,-0.00747681,0.0177002,-0.00236511,0.0056076,0.0050354,0.0161743,-0.00144958
36,2,10.0097,0.000610352,0,-2.4247,0.0569017,-0.0735371,0.0544332,0.0700548,-0.0922309,0.146539,-0.124546,-0.0804342,0.0577545,0.0400543,0.0286102,0.0188446,0.0250244,0.00598907,0.0140381,-0.00106812,-9.97986,-0.0355911,-0.00499725,0.0123215,-0.00125885,0.0062561,0.00591278,0.0150299,-0.00198364
36,3,10.0097,0.000610352,0.000610352,-2.4247,0.0578172,-0.073232,0.0538228,0.0715807,-0.0922309,0.147455,-0.124546,-0.0807394,0.0273895,0.0378799,0.0274658,0.0191498,0.0223541,0.00339508,0.00984192,-0.00190735,-9.97986,-0.0262833,0.0012207,0.0130081,-0.00389099,0.00541687,0.00648499,0.00789642,-0.0043869
36,4,10.0097,0.00183105,-0.000305176,-2.42501,0.0559862,-0.0738423,0.0535176,0.07036,-0.0897895,0.146539,-0.123935,-0.0810445,0.0328827,0.0312805,0.0226593,0.0186539,0.0280762,0.00579834,0.00484467,0.0025177,-9.97986,-0.01091,-0.00259399,0.0117493,-0.00926971,0.0116348,-0.000648499,0.00919342,-0.00293732
36,5,10.0097,0,-0.00167847,-2.42653,0.0565965,-0.0753682,0.0535176,0.0416735,-0.095893,0.146844,-0.125766,-0.0831808,0.0322723,0.0347137,0.0344086,0.0182724,0.0219727,0.00656128,0.0031662,0.00564575,-9.97986,-0.0443268,-0.00766754,0.0112915,-0.0115585,0.0107574,-0.00766754,0.00400543,-0.000686646
36,6,8.25368,-0.0012207,-0.000610352,-2.42592,0.0559862,-0.0741475,0.0550435,0.0431993,-0.0943672,0.146539,-0.126072,-0.0822652,-0.0210571,0.0380707,0.0304031,0.02491,0.0245285,0.0044632,0.00701904,-0.00839233,-9.97986,-0.0774384,-0.00946045,0.0126648,-0.00728607,0.0126648,0.000419617,0.00671387,0.00179291
36,7,7.13185,0.000305176,-0.000610352,-2.42653,0.0562914,-0.0744527,0.0529073,0.0563219,-0.0928413,0.147149,-0.125461,-0.0819601,-0.0675583,0.0376511,0.0387192,0.0181198,0.0206375,0.00724792,0.0031662,-0.00747681,-9.97986,-0.10479,-0.010643,0.0130463,-0.0144196,0.0114822,0.000610352,0.0043869,-0.00087738
36,8,7.09035,0.0012207,-0.000457764,-2.42684,0.0562914,-0.0741475,0.0538228,0.0642565,-0.0919257,0.145624,-0.125766,-0.0819601,-0.0505829,0.0448227,0.0369644,0.0226593,0.0195313,0.00831604,-0.0044632,-0.00751495,-9.97986,-0.114746,-0.012207,0.013237,-0.0134277,0.0187683,-0.00675201,0.00125885,0.00102997
36,9,7.43917,0.00152588,0.00106812,-2.42653,0.0547655,-0.0738423,0.0547383,0.0746324,-0.0891792,0.145318,-0.124851,-0.0825704,-0.0312805,0.0424957,0.0397873,0.0220108,0.0157547,0.00823975,-0.0114441,-0.00537872,-9.97986,-0.0963974,-0.0183868,0.0135422,-0.00488281,0.0193405,-0.0182724,-0.00217438,0.0043869
37,0,9.45363,0.000610352,0.00198364,-2.42592,0.055681,-0.0753682,0.0547383,0.102709,-0.0897895,0.145318,-0.12363,-0.0837911,-0.0313568,0.0403976,0.0320053,0.0181198,0.0174713,0.00465393,-0.00347137,-0.00926971,-9.97986,-0.0756073,-0.0137711,0.0182724,-3.8147e-005,0.0228119,-0.0281143,0.001297,0.00831604
37,1,10.0097,0.000610352,0.00198364,-2.42989,0.0529344,-0.0762837,0.0529073,0.092943,-0.094062,0.143792,-0.126377,-0.0862325,-0.00209808,0.0387955,0.0301743,0.0165939,0.0154877,0.000610352,0.0123978,-0.0104904,-9.97986,-0.0486755,-0.0102997,0.0208664,0.00614166,0.0268555,-0.0224686,0.00190735,0.00988007
37,2,10.0097,-0.000305176,0.000305176,-2.42837,0.0544603,-0.0756734,0.0516866,0.0795153,-0.094062,0.142267,-0.126072,-0.0874532,0.0350189,0.0270462,0.0257492,0.0159836,0.0182343,0.00320435,0.0135422,-0.0171661,-9.97986,0.00530243,-0.01297,0.0186539,0.00263214,0.0270462,-0.00988007,-0.00282288,0.0111008
37,3,10.0097,0.000610352,0.000152588,-2.42959,0.0538499,-0.075063,0.0516866,0.0728014,-0.0955879,0.143487,-0.127903,-0.0865377,0.0546646,0.0278091,0.0230408,0.0168228,0.0153351,0.00354767,0.0185394,-0.0428391,-9.97986,0.0321579,-0.00728607,0.023613,-0.000991821,0.0278091,-0.0062561,0.000801086,0.0147247
37,4,10.0097,0.000610352,-0.000305176,-2.42959,0.0532396,-0.075063,0.0522969,0.07036,-0.0952827,0.144403,-0.127292,-0.0865377,0.0522995,0.0270081,0.0236511,0.0174332,0.0134659,-0.00255585,0.0105286,-0.0728607,-9.97986,0.0259781,-0.00881195,0.0238037,-0.00114441,0.0286102,-0.00789642,0.00366211,0.0183105
37,5,10.0097,0.000915527,-0.000610352,-2.42745,0.0547655,-0.0756734,0.0516866,0.0691393,-0.0952827,0.143182,-0.126987,-0.0868429,0.0479889,0.0236893,0.0141525,0.016861,0.0159073,0.00125885,-0.00801086,-0.0696182,-9.97986,0.00263214,-0.00343323,0.0210953,-0.00591278,0.0306702,-0.010643,0.00957489,0.0126648
37,6,10.0097,0.00152588,-0.000152588,-2.42776,0.0541551,-0.0759786,0.0532125,0.0685289,-0.0934516,0.143487,-0.126072,-0.0868429,0.0764084,0.0156784,0.00598907,0.0146866,0.0157166,0.00461578,-0.0162888,-0.0624847,-9.97986,-0.0434113,-0.000839233,0.0231552,-0.00431061,0.0275421,-0.00701904,0.0146484,0.015831
37,7,10.0097,0.00244141,-0.000152588,-2.42714,0.0544603,-0.0753682,0.0529073,0.0694445,-0.0946723,0.144708,-0.126987,-0.085317,0.122986,0.00164032,-0.00442505,0.0114822,0.0149536,-0.00133514,-0.0143433,-0.0341415,-9.97986,-0.0922394,-0.00148773,0.0244904,-0.0105286,0.0293732,-0.00282288,0.0222778,0.017662
37,8,10.0097,0.000610352,-0.000305176,-2.42592,0.0565965,-0.0741475,0.0532125,0.0700548,-0.0928413,0.145318,-0.125766,-0.0844015,0.171127,-0.00492096,-0.0122833,0.00434875,0.0157547,-0.00144958,-0.00816345,-0.0118637,-9.97986,-0.123672,0.00614166,0.0298691,-0.00923157,0.0297165,0.00385284,0.0272751,0.0164413
37,9,10.0097,0.000305176,0.000152588,-2.42653,0.0550706,-0.0741475,0.0535176,0.0691393,-0.0934516,0.144708,-0.126377,-0.0844015,0.133896,-0.0128174,-0.0231552,0.00198364,0.0162506,0.000991821,0.00957489,0.00453949,-9.97986,-0.147514,0.00434875,0.0252151,-0.00926971,0.0287628,0.00148773,0.0336075,0.0159073
38,0,10.0097,0.00152588,0.000610352,-2.42562,0.0565965,-0.0735371,0.0535176,0.0685289,-0.0922309,0.146234,-0.12363,-0.0816549,0.0660324,-0.012207,-0.0263214,0.0019455,0.0200272,0.00137329,0.03582,0.00759125,-9.97986,-0.154533,-0.00205994,0.0268173,-0.0025177,0.038147,-0.000534058,0.0394821,0.0193405
38,1,10.0097,0.000305176,0.000610352,-2.42531,0.0565965,-0.0729268,0.0553487,0.0718859,-0.0922309,0.146539,-0.123935,-0.0816549,0.0188446,-0.0146484,-0.0260544,-0.0019455,0.0208282,-0.00282288,0.0507355,0.000762939,-9.97986,-0.126953,-0.00869751,0.0298691,0.0056076,0.0389099,-0.00370026,0.0320053,0.0194168
38,2,10.0097,-0.00152588,0.000610352,-2.42531,0.0559862,-0.0738423,0.0550435,0.0718859,-0.0916206,0.146539,-0.124241,-0.0807394,0.00270844,-0.0159836,-0.0228882,0.00278473,0.0273514,0.00164032,0.0602341,0.000457764,-9.97986,-0.0643921,-0.00911713,0.0311661,0.016098,0.0393295,0.00366211,0.0334167,0.0219345
38,3,10.0097,0.00152588,0.000457764,-2.42562,0.0562914,-0.0735371,0.0556539,0.0734117,-0.0913154,0.146539,-0.124546,-0.0804342,0.0182343,-0.0104904,-0.0272751,0.00526428,0.0260162,0.000419617,0.0639343,0.000648499,-9.97986,0.0334549,-0.00896454,0.0264359,0.021286,0.0393295,0.00743866,0.0254059,0.0204468
38,4,10.0097,0.0012207,0.000152588,-2.42348,0.0569017,-0.0738423,0.0556539,0.0734117,-0.090705,0.145318,-0.124241,-0.0807394,0.0344086,-0.0113678,-0.0245667,0.0025177,0.0271988,0.00591278,0.0651169,0.00720978,-9.97986,0.140839,-0.0100708,0.0283432,0.0187302,0.0341797,-0.00720978,0.00793457,0.0168228
38,5,10.0097,0.0012207,-0.0012207,-2.42562,0.0559862,-0.0741475,0.0529073,0.0422838,-0.0949775,0.146844,-0.126377,-0.0810445,0.0567627,-0.013504,-0.0197601,0.00549316,0.0270462,0.0056839,0.0578308,0.00621796,-9.97986,0.228157,-0.000228882,0.0245285,0.0231552,0.0335693,-0.0173569,-0.0050354,0.0146484
38,6,8.24544,0.000610352,-0.00137329,-2.42501,0.0569017,-0.0735371,0.0547383,0.0459459,-0.0946723,0.145318,-0.126072,-0.0816549,0.0717545,-0.0038147,-0.0168991,0.0063324,0.0266647,0.0109863,0.0587845,0.00267029,-9.97986,0.262413,0.0043869,0.0279617,0.0238419,0.0254059,-0.0132751,-0.0179291,0.0075531
38,7,7.10988,0.000915527,-0.000610352,-2.42623,0.0553758,-0.0741475,0.054128,0.054796,-0.090705,0.146234,-0.125461,-0.0822652,0.0796127,-0.00144958,-0.01194,0.00492096,0.0255585,0.0157928,0.0511551,0.00328064,-9.97986,0.215836,0.00827789,0.0260925,0.0229645,0.0284195,-0.0037384,-0.0255203,0.00469208
38,8,6.99452,0.000915527,0.000305176,-2.42562,0.0559862,-0.0753682,0.0535176,0.0633409,-0.0922309,0.146234,-0.125461,-0.0831808,0.0700378,0.00411987,-0.00518799,0.00587463,0.0252914,0.0206375,0.0452805,0.00175476,-9.97986,0.136909,-0.00564575,0.0186157,0.0304031,0.0233841,0.00133514,-0.0232315,0.0025177
38,9,7.30611,0.000915527,0.00137329,-2.42562,0.055681,-0.0747579,0.0544332,0.0743273,-0.0913154,0.145624,-0.125156,-0.0840963,0.0603104,0.00778198,-0.00461578,0.00499725,0.0256729,0.0235367,0.0418472,0.0147247,-9.97986,0.0914764,-0.0159073,0.0224304,0.0403214,0.0259781,0.00705719,-0.0115585,0.00263214
39,0,9.36818,0,0.00137329,-2.42776,0.0550706,-0.0747579,0.0544332,0.102098,-0.088874,0.145013,-0.124851,-0.0837911,0.0409317,0.0108337,-0.00125885,0.00404358,0.0296021,0.0321579,0.0427628,0.0215912,-9.97986,0.103607,-0.00869751,0.0181961,0.0325012,0.026474,-0.00167847,0.00881195,-0.00205994
39,1,10.0097,0.00183105,0.00198364,-2.42959,0.0529344,-0.0753682,0.0532125,0.0938585,-0.0946723,0.142267,-0.126377,-0.0865377,0.0268936,0.0141525,0.00110626,0.00495911,0.0255203,0.0360489,0.0384903,0.0282669,-9.97986,0.174751,-0.00179291,0.0204468,0.0364685,0.0279999,0.00907898,0.0177765,-0.00598907
39,2,10.0097,0.00183105,0.000457764,-2.42837,0.0547655,-0.0756734,0.0526021,0.0801256,-0.0949775,0.144403,-0.126987,-0.0874532,0.0171661,0.00774384,0.00183105,0.00637054,0.0246048,0.0373459,0.0337601,0.0344467,-9.97986,0.24929,-0.00404358,0.0157166,0.0255203,0.0254822,0.0123596,0.0196075,-0.00514984
39,3,10.0097,-0.000610352,-0.00137329,-2.4302,0.0538499,-0.0762837,0.0516866,0.0734117,-0.0952827,0.142267,-0.127598,-0.0877584,0.00377655,0.0159073,0.00480652,0.00427246,0.0284195,0.044136,0.0318146,0.0406265,-9.97986,0.306511,0.000534058,0.0173569,0.0111389,0.0256348,0.0132751,0.0250626,-0.00350952
39,4,10.0097,0.00183105,-0.00198364,-2.42867,0.0541551,-0.0759786,0.0522969,0.0700548,-0.0961982,0.144098,-0.127598,-0.0865377,-0.033989,0.010643,0.00583649,0.0019455,0.0232315,0.0456619,0.022049,0.0410461,-9.97986,0.326157,0.00312805,0.0120544,0.00152588,0.0188065,0.0121689,0.0247574,-0.0056839
39,5,10.0097,-0.000305176,-0.00106812,-2.42867,0.0514085,-0.0759786,0.050771,0.0679186,-0.095893,0.141351,-0.127292,-0.0874532,-0.0350189,0.0225067,0.0160217,0.00926971,0.0281906,0.0537109,0.0205612,0.0500107,-9.97986,0.262375,0.00869751,0.0109482,-0.00453949,0.00900269,0.00160217,0.0162506,-0.00476837
39,6,10.0097,0.0012207,-0.000610352,-2.42867,0.0541551,-0.0762837,0.0526021,0.0679186,-0.0934516,0.144708,-0.126987,-0.085317,-0.0184631,0.0255966,0.018692,0.0115967,0.0238037,0.0564957,0.0172043,0.0536728,-9.97986,0.161972,0.00404358,0.0160599,-0.0110245,0.0135803,0.00572205,0.00297546,-0.00740051
39,7,10.0097,0.000915527,0.000610352,-2.42714,0.0538499,-0.0753682,0.0538228,0.0676134,-0.094062,0.144708,-0.126987,-0.085317,0.00984192,0.0281906,0.022049,0.0075531,0.0265503,0.055809,0.0135422,0.0566101,-9.97986,0.0857544,0.00167847,0.0139999,-0.00991821,0.00923157,0.00087738,-0.0114059,-0.00659943
39,8,10.0097,0,0.000457764,-2.42684,0.0523241,-0.0753682,0.0544332,0.0685289,-0.0934516,0.145318,-0.126682,-0.0844015,0.00507355,0.0351715,0.0244522,0.0109863,0.0209427,0.0540161,0.0203323,0.0474548,-9.97986,0.0513458,0.00293732,0.0163651,-0.00385284,0.0155258,-0.00732422,-0.0260925,7.62939e-005
39,9,10.0097,0,0.000762939,-2.42684,0.055681,-0.0753682,0.0547383,0.0694445,-0.0977241,0.145929,-0.125156,-0.0834859,-0.0342941,0.0410843,0.0297546,0.0126266,0.0250244,0.0557709,0.0154495,0.0289536,-9.97986,0.0465775,-0.0019455,0.0167084,-0.00244141,0.017662,-0.00705719,-0.0488663,0.00244141
40,0,10.0097,0.00213623,0.000762939,-2.42531,0.0569017,-0.0741475,0.0544332,0.0706652,-0.0919257,0.14776,-0.125156,-0.0816549,-0.0379181,0.0469208,0.0406265,0.0214386,0.0276566,0.0550079,0.0144958,0.0153732,-9.97986,0.0382233,-0.00892639,0.0178528,-0.000915527,0.0197601,-0.00888824,-0.0573349,0.00362396
40,1,10.0097,0.0012207,-0.000610352,-2.42562,0.0581224,-0.0738423,0.0550435,0.0718859,-0.090705,0.147455,-0.124851,-0.0816549,0.000572205,0.0529861,0.0424957,0.0172043,0.0236893,0.0524139,0.00816345,0.0118637,-9.97986,0.0232315,-0.0122452,0.0178528,-0.00404358,0.0208664,-0.0191879,-0.0468445,0.00499725
40,2,10.0097,0.00183105,-0.000457764,-2.4244,0.055681,-0.0738423,0.0547383,0.0694445,-0.088874,0.147149,-0.123935,-0.0816549,0.0466537,0.0511932,0.0431442,0.0148773,0.0201035,0.0502396,0.0087738,0.0255585,-9.97986,0.0125122,-0.00930786,0.0163651,-0.0201035,0.0182343,-0.018158,-0.0405121,0.00553131
40,3,10.0097,0.000305176,-0.000457764,-2.42562,0.0562914,-0.0747579,0.0556539,0.0706652,-0.0919257,0.147455,-0.124241,-0.0804342,0.0585175,0.0521851,0.0440216,0.0151443,0.0188446,0.0471878,0.0112152,0.0387573,-9.97986,0.00637054,-0.0173569,0.0179672,-0.0210953,0.0219727,-0.0139999,-0.038414,0.0088501
40,4,10.0097,0.00183105,0,-2.42501,0.0559862,-0.0747579,0.0556539,0.0700548,-0.0931465,0.147149,-0.12363,-0.0807394,0.0292969,0.0481415,0.0437164,0.0105667,0.0151062,0.043869,0.00225067,0.0459671,-9.97986,-0.0129318,-0.00549316,0.0162125,-0.03685,0.0239563,-0.0107574,-0.0513077,0.00965118
