
Devices
1200
,,BP Load cell - Voltage,String Length - Voltage,Clutch Active - Voltage,#7 iPecs - Voltage,,,,,,,,,EMG 1-8 Left - Voltage,,,,,,,,Pylon Force - Voltage,EMG 9-16 Right - Voltage,,,,,,,,
Frame,Sub Frame,BP Load Cell,String Length,From Arduino Logic,A45,A135,A225,A315,S0,S90,S180,S270,ZSum,EMG 1 Glut Max,EMG 2 Glut Med,EMG 3 Biceps Femoris Long,EMG 4 Rectus Femoris,EMG 5 Vastus Medialis,EMG 6 Tib Ant,EMG 7 Med Gas,EMG 8 Soleus,Pylon volts,EMG 9 Glut Max,EMG 10 Glut Med,EMG 11 Biceps Femoris Long,EMG 12 Rectus Femoris,EMG 13 Vastus Medialis,EMG 14 Tib Ant,EMG 15 Med Gas,EMG 16 Soleus
,,V,V,V,V,V,V,V,V,V,V,V,V,V,V,V,V,V,V,V,V,V,V,V,V,V,V,V,V,V
1,0,10.0097,-0.000610352,0.000457764,-2.42776,0.0547655,-0.0756734,0.0556539,0.0682238,-0.0943672,0.145013,-0.126072,-0.085317,0.0127792,0.0240326,0.0275803,-0.0037384,0.0171661,0.0204849,0.0168991,0.00976563,-9.97986,0.0075531,-0.0362778,0.018692,-0.0019455,0.013237,0.000572205,0.0088501,0.0159836
1,1,10.0097,0.000915527,0.000305176,-2.42623,0.0559862,-0.0741475,0.0544332,0.0712755,-0.0928413,0.14776,-0.124241,-0.0819601,0.0157547,0.0271606,0.0278473,-0.000152588,0.0178528,0.0177765,0.0148392,0.0162506,-9.97986,0.0140381,-0.0144958,0.014534,-0.000267029,0.0221634,0.000114441,0.0123596,0.0150681
1,2,10.0097,0,0.000152588,-2.42501,0.0553758,-0.0744527,0.0550435,0.0724962,-0.0922309,0.146234,-0.123935,-0.0819601,0.0102615,0.0307465,0.0223541,-0.000267029,0.0162506,0.0172424,0.0168991,0.0159454,-9.97986,0.00995636,0.0031662,0.0155258,0.00556946,0.0202179,-0.00579834,0.0130081,0.00873566
1,3,10.0097,0.00244141,0,-2.4244,0.0575121,-0.0747579,0.0565694,0.0712755,-0.0910102,0.146234,-0.125156,-0.0813497,0.0111771,0.0297546,0.0205231,0.00495911,0.0166321,0.0194168,0.0201797,0.0174332,-9.97986,0.0135422,0.0180054,0.0165176,0.00671387,0.0185013,-0.00713348,0.0124741,0.00808716
1,4,10.0097,0.000305176,-0.000305176,-2.4247,0.0565965,-0.0741475,0.0535176,0.0706652,-0.0922309,0.147149,-0.124546,-0.0807394,0.0102234,0.0267029,0.02388,0.00362396,0.0154495,0.0207138,0.0225449,0.017662,-9.97986,0.0155258,0.0331116,0.0165939,0.00343323,0.0238419,-0.00957489,0.0118256,0.00522614
1,5,10.0097,0.00213623,0.000152588,-2.42531,0.0569017,-0.0741475,0.0547383,0.0712755,-0.0873481,0.147149,-0.124241,-0.080129,0.0117874,0.0297165,0.0234222,0.00469208,0.0204468,0.0179672,0.0265121,0.0175476,-9.97986,0.0127029,0.0536728,0.0165176,0.00629425,0.0236511,-0.00556946,0.00930786,0.00621796
1,6,10.0097,-0.000915527,-0.00106812,-2.42592,0.0553758,-0.0741475,0.0538228,0.0456407,-0.0943672,0.146234,-0.126072,-0.0816549,0.00839233,0.0321198,0.0246429,0.0043869,0.0133133,0.0207138,0.0279236,0.0201797,-9.97986,0.0126266,0.0673676,0.0151825,0.00679016,0.0193787,-0.00679016,0.0136566,0.00816345
1,7,8.86403,0.0012207,-0.0012207,-2.4247,0.0547655,-0.073232,0.054128,0.0447252,-0.0934516,0.146234,-0.126072,-0.0822652,0.00728607,0.0302887,0.0224304,0.00537872,0.0141907,0.0197601,0.0219727,0.0217438,-9.97986,0.0116348,0.0786591,0.0165939,0.00545502,0.0181198,-0.00972748,0.012207,0.00324249
1,8,7.63143,0.00244141,-0.00152588,-2.42714,0.0572069,-0.0747579,0.0556539,0.0557115,-0.0910102,0.147149,-0.125766,-0.0822652,0.0107574,0.0309372,0.0283051,0.0056076,0.0160217,0.0159836,0.0126648,0.0217819,-9.97986,0.0136948,0.0901031,0.0167465,0.0094223,0.0130081,-0.0110626,0.0128937,0.00881195
1,9,7.44954,0.000610352,-0.000152588,-2.42684,0.0553758,-0.0744527,0.0556539,0.0636461,-0.0934516,0.146539,-0.126682,-0.0831808,0.0120926,0.0263596,0.026474,0.00488281,0.0172806,0.0129318,0.01194,0.0199127,-9.97986,0.0158691,0.0978851,0.0180435,0.0025177,0.00804901,-0.0124359,0.00762939,0.00743866
2,0,7.6946,-0.000915527,0.000305176,-2.42653,0.0535448,-0.0747579,0.0553487,0.07036,-0.0925361,0.145929,-0.126072,-0.0834859,0.0128174,0.0270081,0.0229645,0.0056839,0.0179291,0.0150681,0.0151062,0.018692,-9.97986,0.0117874,0.106888,0.0168991,-0.00289917,0.0108337,-0.00999451,0.0063324,0.00782013
2,1,9.43105,0.0012207,0.000457764,-2.42684,0.0544603,-0.075063,0.055959,0.0950792,-0.0876533,0.145013,-0.125156,-0.0847066,0.0149918,0.0297546,0.026741,0.00259399,0.0151825,0.01297,0.0161362,0.0183487,-9.97986,0.0101089,0.117264,0.0215149,0.000114441,0.0155258,-0.01194,0.0111389,0.00896454
2,2,10.0097,-0.000610352,0.00137329,-2.4305,0.0559862,-0.0756734,0.0532125,0.0935533,-0.0937568,0.143487,-0.126072,-0.0862325,0.00968933,0.0277328,0.0251389,0.00492096,0.0159073,0.017662,0.0162888,0.0173569,-9.97986,0.0127029,0.124588,0.0156784,-0.000724792,0.0181961,-0.0139236,0.0130844,0.00434875
2,3,10.0097,0.000610352,0.000305176,-2.42959,0.0507982,-0.0768941,0.0522969,0.0776842,-0.0943672,0.144708,-0.126987,-0.0862325,0.00972748,0.0213242,0.0275421,0.00312805,0.0148773,0.0156403,0.00896454,0.0178909,-9.97986,0.0130081,0.132904,0.0200653,-0.00114441,0.0164032,-0.0106049,0.0120926,0.00717163
2,4,10.0097,-0.000610352,0.000305176,-2.42867,0.0526292,-0.0762837,0.0513814,0.0715807,-0.0955879,0.143182,-0.126377,-0.0862325,0.0118637,0.0291824,0.02388,0.00598907,0.0151443,0.0113678,0.00995636,0.0224304,-9.97986,0.0142288,0.140343,0.0187302,0.000762939,0.0163269,-0.0160217,0.00999451,0.0050354
2,5,10.0097,-0.000915527,-0.000610352,-2.42928,0.0547655,-0.0759786,0.0522969,0.0706652,-0.0955879,0.143792,-0.127598,-0.0871481,0.00793457,0.0313568,0.0236511,0.00507355,0.0144577,0.0143051,0.0114441,0.0241852,-9.97986,0.0118637,0.145645,0.0164413,0.00213623,0.0128937,-0.0112152,0.00976563,0.00732422
2,6,10.0097,0.000610352,-0.000305176,-2.42928,0.0492723,-0.0762837,0.0526021,0.07036,-0.0955879,0.143487,-0.126682,-0.0874532,0.0117493,0.0254059,0.0213623,0.00652313,0.0156021,0.0128174,0.0167465,0.021553,-9.97986,0.0144958,0.149422,0.0196457,0.00339508,0.0130463,-0.0117493,0.0094223,0.00988007
2,7,10.0097,0.000610352,0,-2.42837,0.0538499,-0.0756734,0.0522969,0.0691393,-0.0937568,0.143792,-0.127292,-0.0862325,0.0130081,0.028038,0.0151062,0.00167847,0.0175858,0.0120163,0.0188065,0.019989,-9.97986,0.0134659,0.156288,0.0146103,0.00656128,0.00930786,-0.0141144,0.0123596,0.0106812
2,8,10.0097,0.000610352,0,-2.42714,0.0550706,-0.0759786,0.0535176,0.0694445,-0.0943672,0.144098,-0.126987,-0.0847066,0.0101852,0.0244522,0.0204468,0.00728607,0.0139236,0.0121307,0.0206757,0.0164032,-9.97986,0.00907898,0.154915,0.0147247,0.00328064,0.0116348,-0.0165558,0.0115967,0.00602722
2,9,10.0097,0,0.000305176,-2.42837,0.0596483,-0.0756734,0.0544332,0.0706652,-0.0934516,0.145013,-0.125461,-0.0844015,0.0107956,0.0255966,0.0168228,0.00556946,0.0171661,0.00751495,0.0195694,0.0138855,-9.97986,0.0122452,0.159492,0.0203323,0.00175476,0.0128174,-0.00785828,0.0109482,0.00255585
3,0,10.0097,-0.000305176,-0.000305176,-2.42714,0.0553758,-0.0753682,0.0532125,0.0700548,-0.0946723,0.144403,-0.125461,-0.0837911,0.0128174,0.0234604,0.0190735,0.00587463,0.0139618,0.00720978,0.0150681,0.0154495,-9.97986,0.0126648,0.162277,0.0117111,0.00244141,0.0131226,-0.00843048,0.0130844,0.00621796
3,1,10.0097,0.000610352,0.000610352,-2.42592,0.0565965,-0.0735371,0.055959,0.0709703,-0.0928413,0.145318,-0.125766,-0.0822652,0.00865936,0.0225449,0.018959,0.00598907,0.0157547,0.00888824,0.02285,0.0154495,-9.97986,0.0118256,0.166893,0.0167084,0.00648499,0.0105286,-0.00495911,0.00827789,0.0043869
3,2,10.0097,0.000305176,0.000457764,-2.42562,0.0605638,-0.0738423,0.0544332,0.0706652,-0.0928413,0.147149,-0.124851,-0.0813497,0.0111008,0.0239944,0.0239182,0.00480652,0.0117111,0.0105286,0.0234604,0.015831,-9.97986,0.0128937,0.165672,0.0161362,0.0075531,0.0130081,-0.00549316,0.0136566,0.00896454
3,3,10.0097,0.000610352,0.000152588,-2.42501,0.0569017,-0.0741475,0.055959,0.0724962,-0.0922309,0.146539,-0.124241,-0.0807394,0.0102234,0.0260925,0.0204849,0.00534058,0.0124359,0.00888824,0.0328445,0.0200272,-9.97986,0.0123596,0.165329,0.0173187,0.00938416,0.0130463,-0.00522614,0.0139999,0.00675201
3,4,10.0097,-0.00183105,0.000305176,-2.42501,0.0565965,-0.0744527,0.0556539,0.0709703,-0.0916206,0.146539,-0.123935,-0.0816549,0.0111771,0.0212479,0.0149918,-0.00804901,0.0088501,0.00682831,0.0402069,0.0172424,-9.97986,0.00953674,0.165901,0.0152206,0.0115585,0.0102234,-0.00831604,0.0102615,0.00576019
3,5,10.0097,0.000610352,0.000152588,-2.4247,0.0562914,-0.0735371,0.0550435,0.0709703,-0.0913154,0.146539,-0.124241,-0.0804342,0.0127792,0.0197601,0.0233078,-0.0141907,0.0114059,0.00968933,0.0416565,0.0193405,-9.97986,0.0136185,0.165901,0.0181961,0.0177765,0.0140762,-0.0050354,0.0146103,0.00732422
3,6,10.0097,0.00152588,-0.000762939,-2.42653,0.0553758,-0.0753682,0.054128,0.0438097,-0.0943672,0.145624,-0.125766,-0.0822652,0.0107193,0.0184631,0.0213242,-0.0223541,0.0117111,0.00965118,0.0373077,0.0212479,-9.97986,0.0112915,0.158653,0.0206757,0.0126648,0.011673,-0.00926971,0.0135803,0.0069809
3,7,8.6913,0.00183105,-0.0012207,-2.42501,0.055681,-0.0729268,0.0547383,0.0453356,-0.0934516,0.146234,-0.126377,-0.0819601,0.00823975,0.0181961,0.0182724,-0.0272751,0.0115967,0.012207,0.0289917,0.0276566,-9.97986,0.0140762,0.161743,0.0204468,0.0112915,0.0151062,-0.0119781,0.0121689,0.0056076
3,8,7.48555,0.000915527,-0.000762939,-2.42592,0.0547655,-0.0738423,0.0553487,0.0544908,-0.0937568,0.145624,-0.125766,-0.0828756,0.0131226,0.0251389,0.02285,-0.0228882,0.0115585,0.0082016,0.0275421,0.0204086,-9.97986,0.00843048,0.15873,0.019722,0.0129318,0.0189209,-0.00812531,0.014801,0.00423431
3,9,7.2997,0.000610352,-0.000305176,-2.42592,0.0547655,-0.0744527,0.0535176,0.0636461,-0.0900947,0.144403,-0.126072,-0.0825704,0.00579834,0.0215912,0.025444,-0.0275803,0.01091,0.0069809,0.026207,0.0198746,-9.97986,0.0154495,0.159492,0.016098,0.0122833,0.0131226,-0.0139618,0.0151443,0.00648499
4,0,7.5887,-0.000610352,0.000305176,-2.42684,0.0550706,-0.075063,0.054128,0.0724962,-0.0916206,0.145013,-0.125461,-0.0834859,0.0100708,0.0179672,0.0241852,-0.0482941,0.015564,0.0069046,0.0244522,0.0191498,-9.97986,0.0134277,0.158043,0.0177765,0.0127411,0.0160599,-0.0187683,0.0143051,0.00682831
4,1,9.34773,0.000610352,0.000762939,-2.42623,0.0569017,-0.075063,0.054128,0.094774,-0.0897895,0.143792,-0.123935,-0.0840963,0.00900269,0.0223923,0.0297928,-0.0683594,0.0130463,0.0094223,0.0257111,0.0228119,-9.97986,0.0137329,0.15625,0.0174713,0.0102615,0.0186539,-0.0208282,0.0153351,0.00926971
4,2,10.0097,-0.000305176,0.00213623,-2.42837,0.0529344,-0.0756734,0.0516866,0.0938585,-0.0931465,0.143792,-0.125156,-0.0868429,0.0128937,0.0220871,0.0289917,-0.0550842,0.0165558,0.00644684,0.0254822,0.0192261,-9.97986,0.0128174,0.153275,0.0216293,0.0152588,0.018692,-0.023613,0.0120544,0.00358582
4,3,10.0097,0.0012207,0.0012207,-2.42928,0.0541551,-0.0756734,0.050771,0.0776842,-0.0949775,0.145013,-0.127598,-0.0871481,0.010376,0.0224686,0.0260925,-0.046463,0.0100327,0.00610352,0.0247574,0.0189972,-9.97986,0.0118637,0.145264,0.0138092,0.0188828,0.0188065,-0.0178909,0.0148392,0.00518799
4,4,10.0097,-0.00213623,-0.000152588,-2.42837,0.0569017,-0.0753682,0.0526021,0.0712755,-0.0946723,0.144708,-0.128513,-0.0874532,0.0101089,0.0321198,0.0242996,-0.0359344,0.0130081,0.0100708,0.0186539,0.0136185,-9.97986,0.0137711,0.148506,0.0176239,0.0175858,0.0144958,-0.0144196,0.0139618,0.00610352
4,5,10.0097,-0.000305176,-0.000457764,-2.42898,0.0538499,-0.0771993,0.0513814,0.0700548,-0.0946723,0.144098,-0.127598,-0.0877584,0.0146484,0.0167465,0.0279999,-0.00789642,0.0127029,0.00804901,0.0139236,0.0146484,-9.97986,0.0131226,0.145988,0.0199509,0.0205612,0.016861,-0.00377655,0.0116348,0.00652313
4,6,10.0097,0.00183105,-0.000457764,-2.42928,0.0529344,-0.0762837,0.0495503,0.0709703,-0.0949775,0.144098,-0.128208,-0.0871481,0.00999451,0.00392914,0.0250626,0.0307083,0.0174713,0.00587463,0.0104904,0.0163651,-9.97986,0.015564,0.141602,0.0173187,0.0172043,0.0172043,-0.00167847,0.0150299,0.00923157
4,7,10.0097,0.0012207,-0.000305176,-2.42806,0.0532396,-0.0756734,0.0526021,0.0715807,-0.0937568,0.144098,-0.126377,-0.0856222,0.01297,0.0142288,0.0279999,0.077858,0.0148392,0.00629425,0.00831604,0.0171661,-9.97986,0.0143814,0.132446,0.0174332,0.0187302,0.0175858,0.0063324,0.0169373,0.00965118
4,8,10.0097,0.0012207,-0.000457764,-2.42806,0.0550706,-0.075063,0.0538228,0.0694445,-0.0937568,0.144708,-0.126377,-0.0856222,0.0117111,0.022049,0.0283813,0.0825119,0.0123596,0.00389099,0.0113678,0.0215149,-9.97986,0.0100327,0.131111,0.0214005,0.0113678,0.0101852,0.00598907,0.0148392,0.00389099
4,9,10.0097,0.000610352,0.000305176,-2.42745,0.0547655,-0.0759786,0.0587056,0.0706652,-0.094062,0.144708,-0.126377,-0.0844015,0.0125504,0.0252151,0.0338745,0.0696564,0.0157928,0.00328064,0.0193024,0.0215912,-9.97986,0.0185013,0.12764,0.0169754,0.0144958,0.0164032,0.00637054,0.0133514,0.00591278
5,0,10.0097,0.00152588,-0.000305176,-2.42623,0.055681,-0.0756734,0.0535176,0.0700548,-0.0937568,0.144403,-0.126987,-0.0837911,0.00934601,0.0305939,0.0284195,0.0575638,0.0154114,-0.00114441,0.017128,0.0214386,-9.97986,0.0183868,0.125961,0.0211716,0.0183487,0.01194,0.00679016,0.0141144,0.00675201
5,1,10.0097,0.000305176,0.000457764,-2.42684,0.0565965,-0.0735371,0.054128,0.0709703,-0.0916206,0.145624,-0.124851,-0.0816549,0.00919342,0.0286102,0.0193024,0.0533676,0.0133896,0.00217438,0.0209427,0.0188065,-9.97986,0.0185776,0.115204,0.0175095,0.0148392,0.015564,0.00312805,0.0148773,0.00591278
5,2,10.0097,-0.000610352,0.000305176,-2.42501,0.0565965,-0.0738423,0.054128,0.0715807,-0.0913154,0.146539,-0.124241,-0.0816549,0.00770569,0.0259781,0.0130081,0.057373,0.0128174,0.00659943,0.0248718,0.0203323,-9.97986,0.0177383,0.114746,0.0202942,0.0161362,0.0153732,0.00259399,0.0136185,0.00419617
5,3,10.0097,0.00244141,0.000457764,-2.42562,0.0559862,-0.0738423,0.0547383,0.0712755,-0.0900947,0.146844,-0.125766,-0.0813497,0.00919342,0.0254822,0.0105286,0.0502777,0.0154495,0.00427246,0.0176239,0.0167847,-9.97986,0.0182724,0.109062,0.0143814,0.0164795,0.0135803,-0.000419617,0.0134277,0.00434875
5,4,10.0097,0.000610352,0.000152588,-2.42592,0.0562914,-0.0747579,0.0547383,0.0712755,-0.0916206,0.145929,-0.123325,-0.0813497,0.00984192,0.02388,0.0018692,0.0435257,0.0119781,0.0038147,0.0102997,0.0155258,-9.97986,0.0182724,0.108986,0.0195313,0.0167847,0.00751495,-0.000724792,0.0150681,0.00534058
5,5,10.0097,-0.000610352,-0.000305176,-2.42562,0.0565965,-0.0738423,0.0486348,0.0706652,-0.0919257,0.147455,-0.124241,-0.0804342,0.00774384,0.0242233,-0.00354767,0.0513458,0.0141525,0.00488281,0.01297,0.0194931,-9.97986,0.0214386,0.106392,0.0162506,0.0136566,0.0129318,0.0050354,0.0136185,0.00534058
5,6,10.0097,-0.000305176,-0.00137329,-2.42684,0.0572069,-0.0744527,0.0529073,0.0453356,-0.0952827,0.146539,-0.124241,-0.0819601,0.00812531,0.0240707,-0.00797272,0.0628662,0.0116348,-0.000724792,0.0159073,0.0134659,-9.97986,0.0166321,0.103226,0.0146103,0.014267,0.0105286,0.00415802,0.0113297,0.00679016
5,7,8.83473,0.000305176,-0.00152588,-2.42531,0.0575121,-0.0741475,0.0538228,0.0453356,-0.0925361,0.145013,-0.126072,-0.0825704,0.0102997,0.0216675,-0.00797272,0.0623703,0.0192261,0.000915527,0.0158691,0.0217438,-9.97986,0.0189209,0.097847,0.0181961,0.0152588,0.0114822,0.0030899,0.0128937,0.00846863
5,8,7.55452,0.000305176,-0.000610352,-2.42562,0.0565965,-0.0738423,0.0565694,0.0532701,-0.0910102,0.146234,-0.125461,-0.0819601,0.0120544,0.0183487,-0.00408173,0.0563431,0.0180435,0.00587463,0.0167465,0.0217438,-9.97986,0.0217056,0.0962067,0.0193024,0.0157928,0.0140762,0.00484467,0.0132751,0.00675201
5,9,7.38118,0.000915527,-0.00106812,-2.42562,0.0538499,-0.0744527,0.0556539,0.0648668,-0.0928413,0.146234,-0.124851,-0.0828756,0.00865936,0.018158,0.00160217,0.0512314,0.0165558,0.00213623,0.016861,0.0166702,-9.97986,0.0142288,0.0891113,0.0192642,0.0153732,0.0146484,-0.00144958,0.0133514,0.00595093
6,0,7.63082,0.000610352,0.000305176,-2.42653,0.0547655,-0.075063,0.0544332,0.072191,-0.0900947,0.144403,-0.125766,-0.0834859,0.00946045,0.015564,0.00640869,0.0447083,0.0180435,0.00583649,0.0124359,0.0221252,-9.97986,0.0206757,0.0831223,0.0150681,0.0177765,0.00862122,-0.000762939,0.0148773,0.00701904
6,1,9.39687,0.00152588,0.000915527,-2.42837,0.055681,-0.0756734,0.0580953,0.0941637,-0.0910102,0.144403,-0.125156,-0.0834859,0.01194,0.0153351,0.0119781,0.0389099,0.0133514,0.00244141,0.0144958,0.019722,-9.97986,0.0144196,0.0795364,0.0119019,0.015564,0.0119781,-0.00221252,0.017662,0.00591278
6,2,10.0097,0.00152588,0.00198364,-2.42959,0.0541551,-0.0762837,0.0519917,0.0920275,-0.0937568,0.144708,-0.119663,-0.0862325,0.00534058,0.0199127,0.0104904,0.0328064,0.0113297,0.00267029,0.0254822,0.0199127,-9.97986,0.0185394,0.0755692,0.0149536,0.0165558,0.0138474,-0.00434875,0.0168228,0.00106812
6,3,10.0097,0.0012207,0,-2.42959,0.0529344,-0.075063,0.0519917,0.0764635,-0.0931465,0.144403,-0.126377,-0.0859274,0.00984192,0.0164413,0.00873566,0.029068,0.00785828,0.00614166,0.0351715,0.0277328,-9.97986,0.0167847,0.0709534,0.0152969,0.0137711,0.0144196,-0.00793457,0.0178909,-0.000495911
6,4,10.0097,-0.000610352,-0.000305176,-2.42928,0.0544603,-0.0753682,0.0513814,0.0728014,-0.0946723,0.145013,-0.127292,-0.0868429,0.00808716,0.0150299,0.0131226,0.0305939,0.00576019,0.00545502,0.0398636,0.0347137,-9.97986,0.0187302,0.0624084,0.0150299,0.0148392,0.0216675,-0.0101471,0.017662,0.00225067
6,5,10.0097,-0.000305176,-0.000457764,-2.42959,0.0529344,-0.0747579,0.0522969,0.07036,-0.0946723,0.143792,-0.126072,-0.0874532,0.00961304,0.0202179,0.014534,0.0315857,0.0153351,0.00522614,0.0315857,0.0393677,-9.97986,0.0205612,0.0647354,0.017662,0.0157547,0.0157928,-0.00988007,0.0139236,0.0044632
6,6,10.0097,0.000610352,-0.00106812,-2.42928,0.0529344,-0.0756734,0.0526021,0.0688341,-0.0955879,0.142877,-0.128208,-0.0868429,0.00572205,0.0148392,0.0118256,0.0235748,0.0131607,0.00469208,0.0223541,0.043602,-9.97986,0.014534,0.0611877,0.0153351,0.014267,0.016098,-0.00602722,0.0157928,0.00476837
6,7,10.0097,0.00152588,-0.000152588,-2.42684,0.0547655,-0.0762837,0.0513814,0.0688341,-0.0946723,0.145013,-0.127292,-0.0862325,0.00846863,0.0148392,0.017662,0.017395,0.0131989,0.0063324,0.0223541,0.0391769,-9.97986,0.0146866,0.0555038,0.0117874,0.0141525,0.019455,-0.00576019,0.0138855,0.0044632
6,8,10.0097,0,-0.000457764,-2.42653,0.0544603,-0.0753682,0.0535176,0.07036,-0.0934516,0.142877,-0.121189,-0.0847066,0.0125504,0.0193405,0.0152588,-0.00179291,0.0115204,0.00144958,0.0203705,0.0454712,-9.97986,0.015831,0.0479126,0.0165558,0.0113297,0.0236893,-0.00896454,0.0139236,0.0030899
6,9,10.0097,0.000915527,0,-2.42776,0.0553758,-0.0756734,0.0529073,0.0673082,-0.0931465,0.145013,-0.126072,-0.0840963,0.0143051,0.0183105,0.0204086,-0.022049,0.00953674,0.00244141,0.020256,0.0671387,-9.97986,0.00831604,0.0430298,0.0138474,0.014267,0.0180435,-0.00419617,0.0149918,0.00377655
7,0,10.0097,0.00152588,0.000762939,-2.42684,0.0550706,-0.0756734,0.0538228,0.0712755,-0.0934516,0.145013,-0.126377,-0.0847066,0.0157547,0.0222015,0.0291061,-0.0408936,0.00778198,0.00541687,0.0191116,0.0761414,-9.97986,0.00785828,0.0463104,0.0107193,0.0152969,0.0205994,-0.00282288,0.0147247,0.00537872
7,1,10.0097,0.000915527,0.000305176,-2.42562,0.0562914,-0.0738423,0.0547383,0.0712755,-0.0916206,0.145624,-0.129429,-0.0825704,0.0151443,0.026474,0.0337219,-0.0522995,0.0157547,0.0031662,0.0246429,0.0600815,-9.97986,0.00595093,0.049324,0.0139618,0.0136185,0.0178909,0.000915527,0.0148392,0.00644684
7,2,10.0097,-0.000915527,0.000457764,-2.42623,0.0569017,-0.0747579,0.0556539,0.07036,-0.0897895,0.147149,-0.126072,-0.0819601,0.0170898,0.0280762,0.0362396,-0.0568771,0.0159836,0.011673,0.0206757,0.0137711,-9.97986,0.00476837,0.0468826,0.0176239,0.0120926,0.0150299,-0.00183105,0.0158691,0.00907898
7,3,10.0097,0.000610352,-0.000457764,-2.42592,0.0565965,-0.0735371,0.0580953,0.0700548,-0.0910102,0.14776,-0.124546,-0.0822652,0.0130844,0.0338364,0.0398636,-0.0687408,0.0179291,0.00747681,0.0214767,-0.0037384,-9.97986,0.00205994,0.0370026,0.0136185,0.0101089,0.0110626,-0.00530243,0.01194,0.00740051
7,4,10.0097,0.000610352,-0.000152588,-2.42562,0.0575121,-0.0747579,0.0562642,0.0718859,-0.0916206,0.146844,-0.120884,-0.0822652,0.0157547,0.0403214,0.0490952,-0.0719452,0.0188828,0.00354767,0.0208664,-0.0225067,-9.97986,0.00461578,0.0360489,0.0209427,0.0131226,0.0146103,-0.00385284,0.0164795,0.0123596
7,5,10.0097,0.00244141,0.000305176,-2.4244,0.0569017,-0.0747579,0.0562642,0.0715807,-0.0919257,0.14837,-0.124241,-0.0804342,0.011673,0.0450516,0.0510788,-0.0555038,0.0153732,0.00839233,0.0292969,-0.0420761,-9.97986,0.00366211,0.031395,0.0179291,0.0141907,0.0127411,-0.00331879,0.0143433,0.00988007
7,6,10.0097,0.000610352,-0.000762939,-2.42592,0.055681,-0.0735371,0.050771,0.0459459,-0.0952827,0.14776,-0.126377,-0.0816549,0.00976563,0.0627136,0.0495148,-0.028038,0.0169373,0.000801086,0.0333023,-0.0240326,-9.97986,0.00400543,0.0265121,0.0133514,0.00919342,0.0147247,-0.00236511,0.0138092,0.00701904
7,7,8.87471,0.000610352,-0.0012207,-2.42653,0.0572069,-0.0753682,0.054128,0.0459459,-0.0934516,0.145624,-0.12363,-0.0819601,0.0147247,0.0803757,0.0574493,-0.0165558,0.0154877,0.00247955,0.0307083,-0.0268555,-9.97986,0.00415802,0.0270844,0.0107193,0.00709534,0.0140762,-0.00461578,0.0123596,0.00602722
7,8,7.64485,0.000610352,-0.00152588,-2.42653,0.055681,-0.0738423,0.0535176,0.0557115,-0.0922309,0.146234,-0.125766,-0.0819601,0.0123596,0.0737381,0.0535583,-0.0476456,0.0143814,0.0069809,0.0352478,-0.0395203,-9.97986,0.00747681,0.021286,0.015831,0.00785828,0.0196457,-0.0101852,0.0140381,0.00518799
7,9,7.45992,0.0012207,-0.000610352,-2.42653,0.0547655,-0.0747579,0.0574849,0.0645616,-0.0928413,0.144708,-0.125461,-0.0825704,0.013237,0.044632,0.045929,-0.0440598,0.0149918,0.00480652,0.0353241,-0.0378418,-9.97986,0.0122452,0.0152969,0.0182724,0.00888824,0.0171661,-0.00862122,0.0120926,0.00259399
8,0,7.68819,0.000305176,0.000305176,-2.42714,0.0550706,-0.0756734,0.054128,0.07036,-0.0916206,0.145013,-0.127598,-0.0834859,0.00747681,0.0218582,0.0341034,-0.00869751,0.0196457,0.0056076,0.0314713,-0.0192642,-9.97986,0.0151443,0.0167465,0.0135803,0.0114441,0.0194931,-0.00701904,0.0128937,0.000648499
8,1,9.39351,0.000610352,0.000610352,-2.42684,0.0550706,-0.0741475,0.054128,0.0950792,-0.0900947,0.143792,-0.124241,-0.0850118,0.0102234,0.0118637,0.0251007,0.018959,0.0140762,0.0062561,0.0196075,0.000648499,-9.97986,0.0180054,0.00671387,0.0183105,0.0131989,0.0175095,-0.00595093,0.015564,0.00545502
8,2,10.0097,0.000915527,0.00106812,-2.42928,0.0541551,-0.0759786,0.04894,0.0938585,-0.0943672,0.143182,-0.126072,-0.0856222,0.00812531,-0.00160217,0.0205231,0.0666809,0.0157547,0.00587463,0.0175476,0,-9.97986,0.0198746,0.0104523,0.014534,0.0115585,0.0164413,-0.00244141,0.0144196,0.00907898
8,3,10.0097,0.000610352,0.000610352,-2.42837,0.0538499,-0.0753682,0.0516866,0.077379,-0.0949775,0.143182,-0.126682,-0.0874532,0.00694275,-0.00675201,0.023613,0.110435,0.0112152,0.00663757,0.0162506,0.0146103,-9.97986,0.029335,0.0138092,0.0151825,0.0117493,0.0200272,-0.00225067,0.0104523,0.00904083
8,4,10.0097,0.000305176,-0.000305176,-2.42959,0.0541551,-0.0771993,0.0519917,0.0724962,-0.0955879,0.142877,-0.127292,-0.0871481,0.0128555,-0.00324249,0.0300217,0.101395,0.00953674,0.00751495,0.0179291,0.0144577,-9.97986,0.0327301,0.00709534,0.0155258,0.00968933,0.0180435,-0.00179291,0.0149918,0.00835419
8,5,10.0097,0,-0.00106812,-2.42867,0.0541551,-0.0756734,0.0498555,0.0697496,-0.0946723,0.142877,-0.127598,-0.0874532,0.00453949,-0.00762939,0.0318146,0.0832748,0.00644684,0.00522614,0.0153351,-0.00114441,-9.97986,0.029068,-0.00541687,0.0154495,0.00514984,0.0148392,-0.00545502,0.0133133,0.0056839
8,6,10.0097,0.000610352,-0.000305176,-2.42867,0.0535448,-0.0765889,0.0513814,0.0694445,-0.0943672,0.144403,-0.130649,-0.0865377,0.00724792,-0.00411987,0.0241852,0.0921631,0.0111389,0.00450134,0.0178909,0.0111008,-9.97986,0.0258636,-0.00679016,0.0181198,0.00801086,0.0175858,0.00320435,0.0139618,0.00873566
8,7,10.0097,-0.000915527,-0.000152588,-2.42867,0.0538499,-0.0768941,0.0516866,0.0694445,-0.0931465,0.143487,-0.127292,-0.0856222,0.00621796,0.00991821,0.0104523,0.0976181,0.00984192,0.0038147,0.0190353,0.0180054,-9.97986,0.0202179,-0.00225067,0.0165939,0.0136566,0.0169754,0.00667572,0.0138092,0.0088501
8,8,10.0097,0.000610352,0,-2.42745,0.0532396,-0.0756734,0.0516866,0.0691393,-0.0934516,0.144098,-0.126377,-0.0850118,0.00724792,0.0172424,-0.0149918,0.0842667,0.00366211,0.000991821,0.026474,0.0163269,-9.97986,0.0300598,-0.00461578,0.0152206,0.0094223,0.0173569,0.00202179,0.0123215,0.00621796
8,9,10.0097,-0.000915527,0,-2.42806,0.0550706,-0.0747579,0.054128,0.0697496,-0.094062,0.143792,-0.127903,-0.0850118,0.0112915,0.0233841,-0.0276184,0.0690079,0.00858307,-0.000457764,0.0321198,0.0215149,-9.97986,0.0300598,0.00144958,0.0161362,0.012207,0.0168991,0.00202179,0.0152969,0.00717163
9,0,10.0097,0.0012207,0.000305176,-2.42653,0.055681,-0.0735371,0.0538228,0.0694445,-0.0931465,0.145013,-0.126072,-0.0834859,0.00907898,0.022316,-0.038147,0.0624084,0.00991821,-0.00125885,0.0285721,0.0206757,-9.97986,0.0257874,-0.0019455,0.0164032,0.0118256,0.0209427,-0.000228882,0.0140381,0.00785828
9,1,10.0097,0,-0.000152588,-2.42562,0.0559862,-0.0744527,0.0571797,0.0706652,-0.0943672,0.145624,-0.124546,-0.0816549,0.00926971,0.0229263,-0.0357056,0.0542068,0.0115967,-0.000114441,0.0281143,0.0230408,-9.97986,0.0265121,-0.00656128,0.0136566,0.0102615,0.0192642,-0.00190735,0.0110626,0.00370026
9,2,10.0097,-0.000305176,0.000152588,-2.42531,0.0562914,-0.0729268,0.0535176,0.0712755,-0.0928413,0.145624,-0.12363,-0.0810445,0.0108719,0.0238419,-0.0346375,0.0465012,0.00850677,0.00217438,0.0270081,0.0225449,-9.97986,0.0251007,-0.00686646,0.0161743,0.0119781,0.0130844,0.000343323,0.0150681,0.00514984
9,3,10.0097,0,0,-2.42562,0.0575121,-0.0735371,0.0550435,0.0709703,-0.0913154,0.149591,-0.124851,-0.0810445,0.00576019,0.0207138,-0.0364304,0.0391769,0.00873566,0.00247955,0.0320053,0.0267792,-9.97986,0.0239944,-0.00896454,0.0132751,0.0100327,0.0140381,-0.000839233,0.0172806,0.00293732
9,4,10.0097,0.000305176,0,-2.42592,0.0553758,-0.0729268,0.0568746,0.0712755,-0.0919257,0.145624,-0.124851,-0.0813497,0.0136948,0.0120544,-0.0365067,0.0395966,0.00640869,0.00267029,0.0302887,0.0342178,-9.97986,0.0241852,-0.0114059,0.0203323,0.0103378,0.0211716,-0.0030899,0.0191116,0.000915527
9,5,10.0097,0.00213623,0.000762939,-2.42409,0.0562914,-0.0729268,0.055959,0.0715807,-0.0916206,0.145624,-0.127292,-0.080129,0.0082016,0.00705719,-0.0309753,0.0328064,0.00492096,0.00175476,0.0240707,0.0348663,-9.97986,0.0230789,-0.0159073,0.0163651,0.00968933,0.0188828,-0.00366211,0.0138092,0.00125885
9,6,10.0097,0.000305176,-0.0012207,-2.42684,0.0565965,-0.075063,0.0538228,0.04442,-0.0955879,0.149286,-0.126682,-0.0831808,0.0107193,0.00770569,-0.0231934,0.0234604,0.00694275,0.00179291,0.0239944,0.0337601,-9.97986,0.0228882,-0.0149536,0.0117874,0.00770569,0.0188065,-0.00679016,0.0123596,0.00152588
9,7,8.6144,0.000610352,-0.00137329,-2.42562,0.055681,-0.0729268,0.0519917,0.04442,-0.0931465,0.14776,-0.125461,-0.0819601,0.00762939,0.00911713,-0.0152206,0.0235367,0.0109482,0.00637054,0.02491,0.0344467,-9.97986,0.0201797,-0.0226593,0.0139236,0.0137711,0.0158691,-0.00209808,0.0193405,0.0069809
9,8,7.32228,0.00213623,-0.00106812,-2.42623,0.0562914,-0.0775044,0.0550435,0.0544908,-0.0922309,0.146844,-0.126987,-0.0819601,0.00980377,0.00831604,-0.0101089,0.0200653,0.0104141,0.00602722,0.0268555,0.0336838,-9.97986,0.022583,-0.0156021,0.0193405,0.014534,0.018692,-0.000572205,0.0159836,0.00549316
9,9,7.13857,0.0012207,-0.000305176,-2.42684,0.055681,-0.0747579,0.0538228,0.0645616,-0.0919257,0.145013,-0.126377,-0.0825704,0.0125122,0.0106049,0.000267029,0.0172806,0.0138855,0.0075531,0.0253677,0.0366974,-9.97986,0.0214767,-0.0152969,0.0153732,0.00762939,0.0169754,-0.00106812,0.0136948,0.00537872
10,0,7.36989,0.000915527,0.000305176,-2.42653,0.0553758,-0.0747579,0.0565694,0.0709703,-0.0919257,0.144403,-0.124851,-0.0834859,0.0104904,0.0153351,0.00209808,0.00995636,0.0119781,0.00476837,0.0191498,0.0230408,-9.97986,0.0170898,-0.014267,0.0172424,0.00953674,0.0154495,-0.00240326,0.0152588,0.00572205
10,1,9.08742,0.000915527,0.00106812,-2.42684,0.0541551,-0.0771993,0.0556539,0.0950792,-0.0897895,0.144708,-0.12241,-0.0840963,0.0121307,0.0175858,0.00785828,0.0151062,0.0131607,0.00640869,0.0256348,-0.00148773,-9.97986,0.0182343,-0.016098,0.0157166,0.0130844,0.015564,-0.00137329,0.0143051,0.00190735
10,2,10.0097,0.00152588,0.00198364,-2.4302,0.0529344,-0.0747579,0.0522969,0.0962999,-0.0934516,0.140741,-0.124851,-0.0859274,0.00827789,0.0144196,0.00938416,0.00923157,0.0138092,0.00675201,0.0255585,0.00232697,-9.97986,0.0149536,-0.0231934,0.0148773,0.0107574,0.0188446,-0.00419617,0.015831,0.000953674
10,3,10.0097,0.000305176,0.000762939,-2.42898,0.0535448,-0.0753682,0.0501607,0.0789049,-0.0949775,0.144708,-0.126377,-0.0874532,0.0107956,0.0196838,0.013237,0.00900269,0.0191879,0.0056076,0.0242615,0.0214386,-9.97986,0.0167465,-0.0259781,0.0161362,0.00621796,0.0221252,-0.00526428,0.0135422,0.00537872
10,4,10.0097,0.000305176,-0.000305176,-2.42959,0.0538499,-0.0717061,0.0529073,0.0718859,-0.0965034,0.143792,-0.126072,-0.0862325,0.00583649,0.0228882,0.0154877,0.00648499,0.0174332,0.000915527,0.0220108,0.0117874,-9.97986,0.0151825,-0.0187683,0.014534,0.00553131,0.0195694,-0.00377655,0.0162125,0.00450134
10,5,10.0097,0.000305176,0,-2.42989,0.0541551,-0.0753682,0.0501607,0.0700548,-0.0952827,0.144708,-0.127903,-0.0877584,0.01297,0.0222015,0.0226593,0.0056839,0.0191498,0.00457764,0.0145721,0.0217438,-9.97986,0.0114822,-0.0220108,0.0154877,0.00808716,0.0163269,-0.00263214,0.0146103,0.00457764
10,6,10.0097,-0.0012207,-0.000610352,-2.42806,0.0526292,-0.0756734,0.0519917,0.0688341,-0.0955879,0.144098,-0.128513,-0.0871481,0.0134659,0.0213623,0.02388,0.00263214,0.0153351,0.00293732,0.0170517,0.0262451,-9.97986,0.0159073,-0.019455,0.0144958,0.00358582,0.017662,-0.00305176,0.0137329,0.00743866
10,7,10.0097,0.000610352,-0.0012207,-2.42867,0.0538499,-0.0759786,0.0532125,0.0694445,-0.0937568,0.143487,-0.126682,-0.0859274,0.00610352,0.0273132,0.0279617,-0.000190735,0.0161743,0.00370026,0.0179291,0.0268936,-9.97986,0.0141144,-0.0230026,0.0173569,0.00747681,0.0175095,0.00160217,0.0139999,0.00328064
10,8,10.0097,0.0012207,0,-2.42745,0.0541551,-0.075063,0.0535176,0.0685289,-0.094062,0.143792,-0.127903,-0.0859274,0.0123978,0.0238419,0.0318146,0.00293732,0.0180817,0.00328064,0.018959,0.0322342,-9.97986,0.0151825,-0.0177383,0.01194,0.00686646,0.0161743,-0.00148773,0.0162506,0.00667572
10,9,10.0097,-0.000305176,0.000610352,-2.42837,0.0547655,-0.0744527,0.054128,0.0709703,-0.0946723,0.143182,-0.126377,-0.0840963,0.00762939,0.028801,0.0322723,0.00255585,0.0210953,0.00656128,0.0231552,0.0298691,-9.97986,0.0120544,-0.0229645,0.0161743,0.00743866,0.0127411,-3.8147e-005,0.0143814,0.00812531
11,0,10.0097,0.00152588,0,-2.42653,0.0559862,-0.0781148,0.0535176,0.0706652,-0.0937568,0.146234,-0.126377,-0.0834859,0.0101471,0.0307846,0.0375366,-0.00244141,0.0182724,0.00453949,0.015831,0.0302124,-9.97986,0.0113678,-0.02388,0.0143433,0.0082016,0.0117493,-0.00167847,0.0136185,0.00419617
11,1,10.0097,0.0012207,0.000305176,-2.42501,0.0541551,-0.0741475,0.0550435,0.0706652,-0.0910102,0.144403,-0.125461,-0.0828756,0.0141144,0.0308228,0.0415421,-0.00358582,0.0218201,0.00656128,0.0191116,0.0317383,-9.97986,0.0134659,-0.0226593,0.0147247,0.00652313,0.0152206,-0.00488281,0.0125885,0.00545502
11,2,10.0097,-0.000610352,-0.000610352,-2.42501,0.0553758,-0.0744527,0.0556539,0.0706652,-0.0925361,0.146539,-0.125156,-0.0822652,0.0136566,0.0328064,0.040741,-0.0043869,0.019989,0.00659943,0.0104904,0.0313568,-9.97986,0.0094986,-0.0224686,0.0166702,0.00492096,0.0143051,-7.62939e-005,0.0144196,0.0056839
11,3,10.0097,0.0012207,-0.000152588,-2.4247,0.0575121,-0.0762837,0.0547383,0.0706652,-0.0916206,0.147149,-0.124546,-0.0807394,0.0107193,0.019989,0.0368118,-0.00984192,0.0205612,0.00682831,0.0149918,0.0310135,-9.97986,0.0105286,-0.0217819,0.0144577,0.0050354,0.012207,-0.00350952,0.0146103,0.00774384
11,4,10.0097,0.000610352,-0.000152588,-2.42592,0.0565965,-0.0741475,0.0553487,0.0712755,-0.0919257,0.145624,-0.123325,-0.0813497,0.0117874,0.0271606,0.0330353,-0.015831,0.0226212,0.00732422,0.0209808,0.0297546,-9.97986,0.0101471,-0.0237274,0.0172043,0.00244141,0.0131989,-0.0050354,0.0163651,0.00862122
11,5,10.0097,0.000305176,0.000152588,-2.42592,0.0569017,-0.0735371,0.0550435,0.0718859,-0.0919257,0.146539,-0.12363,-0.0810445,0.016098,0.0423431,0.0319672,-0.0127411,0.0244904,0.0062561,0.0237656,0.0301743,-9.97986,0.0134659,-0.0257492,0.0163651,0.00156403,0.0151825,-0.00335693,0.017128,0.00789642
11,6,10.0097,0.000915527,-0.00152588,-2.42592,0.0559862,-0.0756734,0.0532125,0.0453356,-0.0946723,0.145624,-0.126377,-0.0819601,0.0168991,0.0384521,0.0222397,-0.0063324,0.0259018,0.0102997,0.0278854,0.0269699,-9.97986,0.0121307,-0.0230408,0.0183868,0.00228882,0.0143433,-0.00328064,0.013237,0.0118637
11,7,8.85518,0.0012207,-0.00137329,-2.42531,0.0538499,-0.0738423,0.0547383,0.0459459,-0.094062,0.146539,-0.125156,-0.0816549,0.0151062,0.0357437,0.0133133,-0.0131989,0.0229645,0.00286102,0.0271606,0.000343323,-9.97986,0.0131226,-0.0223541,0.0138092,0.00244141,0.0101089,-0.00648499,0.0130463,0.0105286
11,8,7.58473,0,-0.0012207,-2.42501,0.0547655,-0.0738423,0.0535176,0.0532701,-0.0928413,0.145624,-0.126377,-0.0825704,0.015564,0.0346756,0.00717163,-0.0106049,0.0252914,0.00801086,0.0289154,-0.00778198,-9.97986,0.0122833,-0.0227737,0.0149536,0.00278473,0.0106049,-0.00526428,0.0143433,0.00736237
11,9,7.36074,0.000915527,-0.000305176,-2.42623,0.0562914,-0.0738423,0.0544332,0.0618151,-0.0913154,0.146234,-0.126682,-0.0825704,0.0162125,0.0408173,0.00858307,-0.0187302,0.0248718,0.00995636,0.0232697,-0.00343323,-9.97986,0.0161743,-0.0209427,0.018959,0.00205994,0.00965118,-0.00434875,0.0172043,0.0088501
12,0,7.6003,0,0.000305176,-2.42653,0.055681,-0.0759786,0.054128,0.0734117,-0.0922309,0.145318,-0.126072,-0.0828756,0.0123596,0.0368881,0.0112152,-0.0285721,0.0210953,0.00610352,0.0183868,-0.00423431,-9.97986,0.0192642,-0.0115204,0.0138474,0.00461578,0.0141525,-0.00198364,0.0134277,0.0104904
12,1,9.33003,-0.000610352,0.000610352,-2.42714,0.0553758,-0.0747579,0.054128,0.0926378,-0.0900947,0.145013,-0.124546,-0.0834859,0.0062561,0.0164795,0.0108337,-0.0281525,0.0200272,0.0105286,0.0200272,-0.00102997,-9.97986,0.0193405,-0.00835419,0.0135422,-7.62939e-005,0.0145721,-0.00141144,0.0162506,0.0104523
12,2,10.0097,0.000610352,0.000762939,-2.42806,0.0535448,-0.0771993,0.0532125,0.0944689,-0.0928413,0.142572,-0.124546,-0.0862325,0.00785828,-0.000610352,0.00991821,-0.0157547,0.0244522,0.00995636,0.0210953,3.8147e-005,-9.97986,0.0157166,-0.0217819,0.0133514,-0.00328064,0.00747681,0.000686646,0.0148392,0.00770569
12,3,10.0097,-0.000610352,0.000152588,-2.42898,0.0532396,-0.0759786,0.0513814,0.0789049,-0.0949775,0.144098,-0.126682,-0.0868429,0.01091,0.00507355,0.01091,0.0101471,0.0206757,0.00762939,0.0217056,-0.00274658,-9.97986,0.0186539,-0.0373077,0.0174713,0.000991821,0.00732422,0.00183105,0.017128,0.00644684
12,4,10.0097,-0.0012207,0.000305176,-2.42837,0.0541551,-0.0756734,0.0544332,0.0718859,-0.0946723,0.144098,-0.126682,-0.0862325,0.00713348,0.00846863,0.0139999,0.0170135,0.0214767,0.0100708,0.0220108,0.00972748,-9.97986,0.0160217,-0.0269699,0.0152969,0.000152588,0.0101471,-0.00137329,0.0172806,0.00732422
12,5,10.0097,-0.000305176,-0.000915527,-2.42837,0.0547655,-0.0747579,0.0519917,0.0712755,-0.0955879,0.145013,-0.125461,-0.0874532,0.00858307,0.0188446,0.0165939,0.0111008,0.0272751,0.0105667,0.0191879,0.011673,-9.97986,0.0161362,-0.0163651,0.0163651,0.000152588,0.00976563,-0.00175476,0.0166321,0.0106049
12,6,10.0097,0.000305176,0.000152588,-2.42898,0.0541551,-0.0753682,0.0519917,0.0700548,-0.094062,0.143487,-0.127292,-0.0874532,0.0104904,0.0209808,0.0173187,0.00705719,0.0270462,0.0116348,0.0204849,0.0138092,-9.97986,0.0169754,-0.0195694,0.0138855,-0.0037384,0.0139236,0.00370026,0.0166702,0.0118256
12,7,10.0097,-0.0012207,-0.000915527,-2.42776,0.0535448,-0.0756734,0.0529073,0.0697496,-0.0943672,0.143792,-0.126377,-0.0859274,0.00926971,0.0205612,0.0175858,0.00125885,0.0239944,0.00358582,0.0186539,0.0151825,-9.97986,0.0145721,-0.0214386,0.014267,-0.00263214,0.00778198,0.00141144,0.0175858,0.0075531
12,8,10.0097,0.00213623,-0.000152588,-2.42837,0.0544603,-0.0768941,0.0532125,0.07036,-0.0934516,0.145318,-0.126682,-0.0862325,0.0108337,0.0272369,0.0157928,0.000953674,0.0225449,0.0113678,0.0136566,0.0178528,-9.97986,0.0155258,-0.0175095,0.0145721,-0.00106812,0.00907898,-0.00205994,0.0212479,0.00686646
12,9,10.0097,0.000305176,0.000305176,-2.42623,0.0553758,-0.0747579,0.0532125,0.0694445,-0.094062,0.144098,-0.126072,-0.0850118,0.011673,0.0178528,0.0229645,0.000419617,0.022583,0.00946045,0.0237274,0.0151443,-9.97986,0.0168228,-0.0175095,0.0109482,0.000991821,0.0119781,-0.000343323,0.0183105,0.00564575
13,0,10.0097,0.000610352,-0.000457764,-2.42684,0.0562914,-0.0744527,0.0526021,0.0709703,-0.0934516,0.145013,-0.126682,-0.0844015,0.00865936,0.018959,0.022049,-0.00164032,0.0191116,0.00823975,0.027504,0.0185013,-9.97986,0.0160599,-0.0130463,0.0139999,-0.00144958,0.0161743,-0.00141144,0.0183868,0.00362396
13,1,10.0097,0,0.000305176,-2.42501,0.055681,-0.073232,0.0550435,0.0718859,-0.0928413,0.146539,-0.124851,-0.0819601,0.0130463,0.0241852,0.0230789,-0.00408173,0.0220108,0.0100327,0.0225067,0.0211334,-9.97986,0.0166702,-0.0104523,0.0118256,-0.00434875,0.0140762,0.00133514,0.0191498,0.0030899
13,2,10.0097,-0.000305176,-0.000457764,-2.42379,0.0569017,-0.0741475,0.0556539,0.0709703,-0.0922309,0.147455,-0.124546,-0.0816549,0.0131989,0.026207,0.0264359,-0.000152588,0.0214386,0.00549316,0.0217056,0.0177765,-9.97986,0.0164032,-0.0159454,0.0131989,-0.00213623,0.0193405,-0.00366211,0.0209045,0.00999451
13,3,10.0097,-0.000915527,0,-2.42531,0.0562914,-0.0738423,0.0547383,0.0715807,-0.0925361,0.144403,-0.123935,-0.0813497,0.013504,0.0259399,0.0251389,0.00495911,0.0179672,0.00595093,0.0281525,0.0205612,-9.97986,0.0128937,-0.0244904,0.0109482,-0.000419617,0.0165558,0.000228882,0.019455,0.00774384
13,4,10.0097,0.000305176,-0.000457764,-2.42531,0.0572069,-0.075063,0.0553487,0.07036,-0.0913154,0.146539,-0.124241,-0.0810445,0.0139618,0.0310135,0.0282288,-0.00160217,0.0201416,0.0111771,0.0319672,0.0177765,-9.97986,0.0125885,-0.0215912,0.00953674,-3.8147e-005,0.0161362,0.00377655,0.0207901,0.00267029
13,5,10.0097,0.0012207,0.000305176,-2.4244,0.0572069,-0.0747579,0.0538228,0.0712755,-0.0891792,0.147455,-0.123325,-0.0795187,0.0107574,0.022316,0.0281525,0.00255585,0.0199509,0.00778198,0.0284576,0.022316,-9.97986,0.0141907,-0.0172424,0.0114822,0.00110626,0.0167084,0.0043869,0.0187302,0.000991821
13,6,10.0097,-0.000610352,-0.0012207,-2.42714,0.0565965,-0.0744527,0.0532125,0.0441149,-0.095893,0.147149,-0.126377,-0.0816549,0.0134659,0.0276184,0.0227356,0.00190735,0.0201797,0.011673,0.0297165,0.0188446,-9.97986,0.0156021,-0.0154495,0.0127792,-0.000801086,0.0151825,0.00511169,0.0191498,0.0044632
13,7,8.76027,-0.000305176,-0.00183105,-2.42501,0.0565965,-0.0738423,0.0553487,0.0447252,-0.0934516,0.145929,-0.126377,-0.0825704,0.0104523,0.0259018,0.0258636,0.00389099,0.0175476,0.00411987,0.0241852,0.0180435,-9.97986,0.01194,-0.0226593,0.0105286,-0.00190735,0.0130463,0.0104523,0.0205612,0.0069046
13,8,7.51271,0.00183105,-0.0012207,-2.4244,0.0559862,-0.0729268,0.0538228,0.0566271,-0.0910102,0.145929,-0.126682,-0.0825704,0.0112915,0.0244141,0.0239563,0.001297,0.0157166,0.0109482,0.0202179,0.0205231,-9.97986,0.0191116,-0.0192261,0.0115204,-0.00480652,0.0182724,0.00892639,0.022049,0.00705719
13,9,7.3528,-0.000915527,-0.000457764,-2.42592,0.0550706,-0.0753682,0.054128,0.0639513,-0.0919257,0.146539,-0.126377,-0.0825704,0.0170898,0.0291443,0.0243378,0.00553131,0.0180435,0.00839233,0.0142288,0.0224304,-9.97986,0.0170517,-0.015564,0.0159454,-0.00587463,0.019989,0.00701904,0.0204468,0.00720978
14,0,7.58504,0,-0.000152588,-2.42684,0.055681,-0.0744527,0.0544332,0.0706652,-0.0934516,0.145318,-0.125156,-0.0834859,0.0121307,0.0296402,0.0240707,0.00541687,0.022316,0.00995636,0.00793457,0.0215149,-9.97986,0.0151443,-0.0143433,0.0149536,-0.0069046,0.0164032,0.00556946,0.0207138,0.00823975
14,1,9.287,0.000305176,0.00106812,-2.42684,0.055681,-0.0747579,0.0526021,0.0935533,-0.090705,0.144403,-0.12302,-0.0831808,0.0107574,0.0292206,0.0262833,-0.000152588,0.0164032,0.00923157,0.00637054,0.0328827,-9.97986,0.0116348,-0.0159836,0.0136185,-0.00732422,0.0141525,0.000915527,0.0180435,0.00457764
14,2,10.0097,0.00183105,0.00183105,-2.42898,0.0526292,-0.0765889,0.054128,0.0941637,-0.0931465,0.143182,-0.125461,-0.085317,0.0137711,0.0270462,0.0287247,0.0044632,0.0174713,0.00610352,0.00785828,0.0474548,-9.97986,0.0154114,-0.0141144,0.0175095,-0.00450134,0.0141525,0.00499725,0.0157547,0.00804901
14,3,10.0097,0.000915527,0.000152588,-2.42989,0.0535448,-0.0762837,0.050771,0.0782946,-0.0961982,0.142877,-0.126072,-0.0877584,0.00774384,0.0331879,0.0269318,0.00831604,0.017662,0.0113678,0.0157166,0.0495529,-9.97986,0.0149155,-0.015831,0.0130081,-0.00133514,0.0191879,0.00110626,0.021286,0.00518799
14,4,10.0097,0.00213623,0.000305176,-2.42898,0.0541551,-0.0759786,0.0532125,0.0724962,-0.0946723,0.143487,-0.126072,-0.0865377,0.00492096,0.028801,0.02491,0.0043869,0.0170898,0.0101089,0.0201797,0.0466919,-9.97986,0.0112152,-0.0234604,0.0124741,-0.00621796,0.0177383,0.0031662,0.0187683,0.00244141
14,5,10.0097,-0.000305176,-0.000610352,-2.42898,0.0532396,-0.0759786,0.0526021,0.07036,-0.0943672,0.142877,-0.127903,-0.0874532,0.0135803,0.0291061,0.0301361,0.00553131,0.0185013,0.00770569,0.0195313,0.050087,-9.97986,0.0157166,-0.0144196,0.0130081,-0.00389099,0.0218964,0.00835419,0.0157928,0.00659943
14,6,10.0097,0.000305176,-0.000610352,-2.42989,0.0553758,-0.0756734,0.0526021,0.0691393,-0.0952827,0.144403,-0.127598,-0.0868429,0.0141525,0.0350571,0.0243378,0.00659943,0.019722,0.0107956,0.0241089,0.0507355,-9.97986,0.0154114,-0.0127792,0.0122833,-0.00476837,0.0191879,0.0107574,0.0216293,0.00785828
14,7,10.0097,0,-0.000457764,-2.42837,0.0547655,-0.0759786,0.0532125,0.0697496,-0.0949775,0.143792,-0.126987,-0.0862325,0.0136185,0.0252151,0.0268173,0.0112534,0.0142288,0.00640869,0.0257874,0.0475693,-9.97986,0.0127411,-0.0173569,0.0143433,-0.00862122,0.022316,0.00930786,0.0191498,0.00701904
14,8,10.0097,0.000610352,-0.000152588,-2.42806,0.0544603,-0.0753682,0.0519917,0.0691393,-0.0931465,0.145624,-0.126987,-0.085317,0.0121689,0.029068,0.02491,0.00701904,0.0180817,0.00785828,0.026474,0.0338364,-9.97986,0.0112534,-0.00957489,0.0156403,-0.0101852,0.0202942,0.0123596,0.0177002,0.00797272
14,9,10.0097,-0.000610352,0,-2.42684,0.0544603,-0.0738423,0.0535176,0.0694445,-0.0925361,0.145624,-0.125766,-0.0840963,0.0119781,0.0266647,0.0234985,0.0056839,0.0178146,0.00957489,0.0196838,0.000305176,-9.97986,0.0134277,-0.0110626,0.012207,-0.00896454,0.0151443,0.00831604,0.0165939,0.00770569
15,0,10.0097,-0.0012207,0.000305176,-2.42653,0.0544603,-0.0744527,0.0538228,0.0697496,-0.0931465,0.145013,-0.124851,-0.0837911,0.0115585,0.0317383,0.0276184,0.00804901,0.0188446,0.0115204,0.0117111,-0.0438309,-9.97986,0.0123978,-0.0133514,0.0141525,-0.00534058,0.0161743,0.00591278,0.0147247,0.0087738
15,1,10.0097,0.000915527,0.000152588,-2.42592,0.0565965,-0.0753682,0.0526021,0.07036,-0.0928413,0.146539,-0.124241,-0.0828756,0.0107574,0.0286865,0.0273895,0.0101471,0.0204849,0.00602722,0.0182724,-0.0406265,-9.97986,0.00858307,-0.00926971,0.014801,-0.00659943,0.0172424,-7.62939e-005,0.0209427,0.0101089
15,2,10.0097,0.000305176,0.000305176,-2.42592,0.0559862,-0.0738423,0.055959,0.0709703,-0.090705,0.146844,-0.124851,-0.0816549,0.00988007,0.0299072,0.0234222,0.00984192,0.0217819,0.00720978,0.0177765,-0.0119781,-9.97986,0.00873566,-0.00766754,0.015831,-0.00598907,0.0208664,0.00038147,0.0148773,0.0113297
15,3,10.0097,0,0,-2.42562,0.0578172,-0.0729268,0.0550435,0.0724962,-0.0913154,0.146844,-0.124546,-0.0816549,0.00789642,0.0274277,0.02491,0.0122452,0.0237656,0.0069046,0.0251389,-0.0144196,-9.97986,0.0111008,-0.00732422,0.0147629,-0.00450134,0.0246048,-0.00637054,0.0171661,0.00896454
15,4,10.0097,0.000610352,-0.000305176,-2.42501,0.0575121,-0.0744527,0.0556539,0.0709703,-0.0928413,0.146844,-0.124241,-0.0819601,0.00537872,0.0272369,0.0267792,0.0123978,0.0195313,0.00396729,0.021553,-0.00480652,-9.97986,0.0127792,-0.00976563,0.0125122,-0.00511169,0.022316,-0.00442505,0.0160599,0.00640869
15,5,10.0097,0.0012207,0,-2.4247,0.0559862,-0.0741475,0.0556539,0.0718859,-0.0913154,0.147455,-0.12302,-0.0807394,0.00984192,0.0209045,0.0250626,0.00862122,0.0175858,0.0114441,0.025177,0.0182724,-9.97986,0.0112915,-0.00499725,0.0138092,-0.000114441,0.0200272,0.000801086,0.0167465,0.00858307
15,6,10.0097,-0.000610352,-0.000915527,-2.42623,0.0562914,-0.0735371,0.0532125,0.0453356,-0.095893,0.146539,-0.127292,-0.0819601,0.0115204,0.0237274,0.0209808,0.00682831,0.018158,0.00759125,0.0235748,0.035553,-9.97986,0.0111008,-0.00823975,0.0116348,0.00328064,0.0211716,-0.00488281,0.0185776,0.0106049
15,7,8.80422,0.000305176,-0.00152588,-2.42501,0.0565965,-0.0735371,0.055959,0.0462511,-0.0943672,0.146234,-0.125766,-0.0816549,0.00911713,0.0255966,0.018425,0.0123215,0.019722,0.00770569,0.0283813,0.0338364,-9.97986,0.01297,-0.00968933,0.00938416,0.000495911,0.0169373,-0.012207,0.0165176,0.00923157
15,8,7.52217,-0.000915527,-0.00106812,-2.42531,0.0550706,-0.0741475,0.0544332,0.0535753,-0.0916206,0.146234,-0.126682,-0.0828756,0.0141907,0.0276184,0.0233078,0.0094223,0.0152206,0.0088501,0.028038,0.0266266,-9.97986,0.019989,-0.0112534,0.00705719,-0.00297546,0.0208282,-0.0156021,0.0198746,0.00267029
15,9,7.2994,-0.0012207,-0.000305176,-2.42684,0.0562914,-0.075063,0.0547383,0.0627306,-0.0919257,0.145624,-0.126377,-0.0822652,0.00946045,0.0265884,0.0191498,0.0142288,0.0144577,0.0117874,0.0317001,0.00923157,-9.97986,0.0218201,-0.00957489,0.00667572,0.00358582,0.0232697,-0.0144958,0.0193787,0.00324249
16,0,7.56978,-0.000610352,0.000915527,-2.42714,0.0550706,-0.0747579,0.0547383,0.072191,-0.0922309,0.144708,-0.125156,-0.0825704,0.0123978,0.026474,0.0210953,0.0109863,0.0149536,0.00976563,0.0245667,-0.01091,-9.97986,0.0175476,-0.00785828,0.00724792,0.00637054,0.0186157,-0.0102615,0.0154877,0.00370026
16,1,9.2629,0.00183105,0.00106812,-2.42592,0.0553758,-0.0747579,0.055959,0.0953844,-0.0916206,0.145013,-0.125156,-0.0834859,0.00682831,0.0247192,0.0187302,0.00621796,0.0182343,0.0113297,0.0223541,-0.00679016,-9.97986,0.0156784,-0.00701904,0.0069046,0.00991821,0.0128937,-0.00270844,0.017128,0.00396729
16,2,10.0097,0.000305176,0.00183105,-2.42898,0.0529344,-0.0762837,0.0522969,0.0950792,-0.0937568,0.143487,-0.124241,-0.085317,0.0111389,0.0245667,0.0165176,0.0125504,0.021019,0.00965118,0.0222015,0.00518799,-9.97986,0.0186539,-0.00919342,0.00579834,0.00404358,0.0141525,0.00362396,0.0152969,0.00606537
16,3,10.0097,0,0.00106812,-2.42928,0.0544603,-0.0762837,0.0532125,0.0782946,-0.0955879,0.141961,-0.126682,-0.0868429,0.0140381,0.0226212,0.0165939,0.0101089,0.018425,0.0127411,0.0233459,0.023613,-9.97986,0.0169373,-0.00812531,0.0075531,0.0056076,0.0174332,0.00434875,0.016861,0.00637054
16,4,10.0097,0.000305176,-0.000610352,-2.42898,0.0538499,-0.0747579,0.0516866,0.0731066,-0.094062,0.143792,-0.128208,-0.0874532,0.0094986,0.0278854,0.0143814,0.0117493,0.0173569,0.0141907,0.0202942,0.0239563,-9.97986,0.0158691,-0.00984192,0.00736237,0.00453949,0.0201416,0.00156403,0.0159073,0.00423431
16,5,10.0097,0,0.000457764,-2.42959,0.0529344,-0.0747579,0.0513814,0.0706652,-0.0952827,0.143792,-0.128513,-0.0871481,0.00671387,0.0244141,0.0175858,0.0113678,0.0170898,0.0175095,0.0212097,0.0124741,-9.97986,0.017662,-0.00896454,0.00640869,0.00629425,0.020256,-0.00247955,0.0136566,0.00495911
16,6,10.0097,-0.000610352,0,-2.42898,0.0538499,-0.0753682,0.0532125,0.07036,-0.0943672,0.143792,-0.126987,-0.0874532,0.00793457,0.0194168,0.0149918,0.00930786,0.0194931,0.0136185,0.0196075,0.0164413,-9.97986,0.016098,-0.00843048,0.00556946,0.00087738,0.0207901,-0.00469208,0.0156403,0.00980377
16,7,10.0097,0.000915527,-0.00152588,-2.42928,0.0541551,-0.0759786,0.0519917,0.0688341,-0.0931465,0.144708,-0.126682,-0.0859274,0.0104904,0.0180817,0.0178528,0.0128937,0.0123978,0.0156784,0.019455,0.0139999,-9.97986,0.0111389,-0.0138092,0.00762939,0.00518799,0.0168991,-0.00385284,0.0200653,0.00797272
16,8,10.0097,0.000610352,0.000152588,-2.42714,0.0550706,-0.0765889,0.0544332,0.0697496,-0.0937568,0.143182,-0.126072,-0.085317,0.0138474,0.0212097,0.0201416,0.0159073,0.0192261,0.014267,0.0267029,0.0146103,-9.97986,0.0135422,-0.00576019,0.00907898,0.00614166,0.0225449,-0.00270844,0.0167084,0.00782013
16,9,10.0097,0,0.000457764,-2.42898,0.055681,-0.0747579,0.0538228,0.0706652,-0.0946723,0.144708,-0.126072,-0.0847066,0.0102234,0.0214386,0.0199127,0.0108719,0.0185394,0.013504,0.0215149,0.0208282,-9.97986,0.00972748,-0.00938416,0.00789642,0.00305176,0.0241852,0.00286102,0.0159836,0.0113678
17,0,10.0097,0.000610352,-0.000152588,-2.42806,0.0553758,-0.0738423,0.0532125,0.0700548,-0.0937568,0.145624,-0.126072,-0.0840963,0.0104141,0.0180435,0.0138092,0.012207,0.0201035,0.0108337,0.0189972,0.0201416,-9.97986,0.0149536,-0.0102997,0.0112152,0.00476837,0.0200653,0.0094223,0.0203705,0.00965118
17,1,10.0097,-0.000610352,0.000305176,-2.42501,0.0550706,-0.0735371,0.0544332,0.0697496,-0.0925361,0.145318,-0.128208,-0.0825704,0.0138092,0.0190735,0.0165939,0.0120926,0.013504,0.0196075,0.0217056,0.0226212,-9.97986,0.0151062,-0.00667572,0.00984192,0.00846863,0.0208664,0.00404358,0.0210571,0.0104904
17,2,10.0097,0,0.000610352,-2.42684,0.055681,-0.0738423,0.054128,0.072191,-0.0910102,0.147455,-0.124546,-0.0816549,0.00919342,0.0178528,0.0180054,0.0125504,0.0130463,0.0140762,0.0196838,0.0174713,-9.97986,0.0118256,-0.00946045,0.00804901,0.00717163,0.0230408,0.0062561,0.0170135,0.00843048
17,3,10.0097,0,0.000152588,-2.42409,0.0565965,-0.0726216,0.054128,0.0709703,-0.0925361,0.147455,-0.125156,-0.0816549,0.00900269,0.0185013,0.0146103,0.00881195,0.0172806,0.0154877,0.0187302,0.0187683,-9.97986,0.0156784,-0.0075531,0.00892639,0.00919342,0.0204086,0.00179291,0.0193787,0.00778198
17,4,10.0097,-0.000305176,0.000152588,-2.4247,0.0559862,-0.073232,0.0562642,0.0709703,-0.0919257,0.147149,-0.122715,-0.0819601,0.0110245,0.0198746,0.0149918,0.00911713,0.0174713,0.0152969,0.0231934,0.021019,-9.97986,0.0117874,-0.0126648,0.00953674,0.00221252,0.0166321,-0.00545502,0.0174713,0.00778198
17,5,10.0097,0.00152588,0.000457764,-2.4244,0.0572069,-0.0735371,0.0562642,0.072191,-0.0922309,0.146539,-0.123935,-0.0807394,0.0125885,0.0189209,0.0175476,0.0122833,0.0177002,0.0117493,0.0192642,0.018158,-9.97986,0.0164795,-0.0115204,0.0125504,0.00358582,0.0199127,-0.00812531,0.0189209,0.00865936
17,6,10.0097,-0.000610352,-0.00106812,-2.42623,0.0559862,-0.0738423,0.0532125,0.0447252,-0.094062,0.146539,-0.126072,-0.0819601,0.0115204,0.0174713,0.0141907,0.0107193,0.017395,0.0168228,0.0228882,0.0210953,-9.97986,0.0172806,-0.00614166,0.0137329,0.00648499,0.0194168,-0.00423431,0.0160599,0.0082016
17,7,8.79109,-0.000305176,-0.00213623,-2.42501,0.0575121,-0.0735371,0.0550435,0.0465563,-0.094062,0.147149,-0.125766,-0.0825704,0.0127029,0.0221634,0.0197983,0.0120544,0.017395,0.0139236,0.0184631,0.0202179,-9.97986,0.00980377,-0.0104904,0.0112534,0.00534058,0.0179672,-0.00488281,0.0146866,0.0062561
17,8,7.51699,0.000915527,-0.000915527,-2.42745,0.055681,-0.0741475,0.0550435,0.0538805,-0.0922309,0.145929,-0.125461,-0.0834859,0.0113297,0.0231934,0.0177765,0.0125504,0.0188446,0.0159073,0.0197601,0.0188446,-9.97986,0.0186157,-0.0130463,0.0104904,0.00694275,0.017128,-0.00614166,0.0196457,0.00579834
17,9,7.33846,0.000610352,0.000152588,-2.42592,0.0559862,-0.0744527,0.0590108,0.0648668,-0.0910102,0.146844,-0.125766,-0.0822652,0.0164413,0.0222015,0.0194168,0.0119781,0.0154877,0.0158691,0.0192261,0.0214386,-9.97986,0.0206375,-0.0104904,0.0169754,0.00988007,0.0223541,-0.00102997,0.0178528,0.00694275
18,0,7.5768,-0.000610352,0.000305176,-2.42745,0.0553758,-0.0756734,0.0544332,0.0715807,-0.0919257,0.145929,-0.127292,-0.0831808,0.0140762,0.0212479,0.0135422,0.0143814,0.0141144,0.0137329,0.0238419,0.0195313,-9.97986,0.0167465,-0.0111008,0.0164413,0.0069046,0.0190353,0.000457764,0.0189209,0.00652313
18,1,9.27144,0,0.000457764,-2.42653,0.0535448,-0.0753682,0.0544332,0.0926378,-0.0900947,0.143792,-0.125156,-0.0837911,0.0133896,0.0209427,0.0190735,0.0106812,0.022049,0.0180817,0.0220108,0.0175476,-9.97986,0.012207,-0.0123596,0.0138855,0.00385284,0.0168991,-0.00343323,0.0145721,0.00377655
18,2,10.0097,-0.000305176,0.00198364,-2.42898,0.0535448,-0.0765889,0.0553487,0.094774,-0.0925361,0.144098,-0.125461,-0.0859274,0.0160217,0.0246429,0.0179672,0.0143051,0.0213623,0.0141144,0.0235367,0.0203705,-9.97986,0.0173569,-0.00988007,0.0125885,0.00740051,0.0205612,-0.00354767,0.0156784,0.00686646
18,3,10.0097,0.0012207,0.000305176,-2.42959,0.0535448,-0.0765889,0.0526021,0.077379,-0.0946723,0.145318,-0.127292,-0.0865377,0.0162506,0.0232315,0.0141525,0.0104523,0.0136948,0.0123978,0.0211334,0.0208664,-9.97986,0.016098,-0.011673,0.0152588,0.0088501,0.0214386,-0.00595093,0.0160599,0.00873566
18,4,10.0097,0,-0.000305176,-2.42959,0.0541551,-0.0762837,0.0522969,0.0728014,-0.0943672,0.143487,-0.127292,-0.0862325,0.0149536,0.0234604,0.016861,0.0131989,0.0200653,0.0138092,0.0241089,0.0241852,-9.97986,0.0165939,-0.0143433,0.0153351,0.00499725,0.0184631,-0.00404358,0.0149155,0.0056839
18,5,10.0097,-0.000915527,-0.000610352,-2.42989,0.0544603,-0.0753682,0.0501607,0.0706652,-0.0955879,0.141656,-0.126987,-0.0874532,0.0127029,0.0253296,0.0169373,0.0140762,0.0186157,0.016098,0.019989,0.0276184,-9.97986,0.0143814,-0.0111008,0.0180817,0.012207,0.018158,-0.00263214,0.017662,0.00541687
18,6,10.0097,-0.00183105,0,-2.42898,0.0529344,-0.0771993,0.0519917,0.0688341,-0.0943672,0.143487,-0.126377,-0.0862325,0.015564,0.0223923,0.0209808,0.0134277,0.017662,0.0129318,0.0217056,0.0255203,-9.97986,0.0154114,-0.0119781,0.017395,0.0111008,0.0208664,-0.00465393,0.0156021,0.00537872
18,7,10.0097,0.000915527,-0.000457764,-2.42928,0.0544603,-0.0762837,0.0535176,0.0697496,-0.0946723,0.144708,-0.127292,-0.0862325,0.00999451,0.0241852,0.0195313,0.0135803,0.0181961,0.0155258,0.023613,0.0287247,-9.97986,0.0120544,-0.00595093,0.0136185,0.0063324,0.0169754,-0.00617981,0.0129318,0.00396729
18,8,10.0097,-0.000610352,-0.000305176,-2.42776,0.055681,-0.0756734,0.0516866,0.0685289,-0.0937568,0.144403,-0.126682,-0.0850118,0.0127792,0.0232697,0.0177383,0.0158691,0.0152969,0.0173569,0.0236511,0.0324631,-9.97986,0.0128174,0.00118256,0.0160217,0.0102615,0.021286,-0.0088501,0.0176239,0.00732422
18,9,10.0097,-0.00183105,-0.000457764,-2.42684,0.0541551,-0.0738423,0.0516866,0.0691393,-0.0931465,0.144403,-0.126072,-0.0840963,0.0113297,0.0242233,0.0206757,0.0118637,0.0198746,0.0166702,0.0251389,0.0288773,-9.97986,0.0151825,-0.00339508,0.0163651,0.0136185,0.0177002,-0.00652313,0.0131607,0.00785828
19,0,10.0097,0,0.000457764,-2.42653,0.0547655,-0.0744527,0.054128,0.0700548,-0.0934516,0.145318,-0.126377,-0.0837911,0.0125885,0.0259399,0.022583,0.00988007,0.0221252,0.0136185,0.0187683,0.0291443,-9.97986,0.0141144,-0.000762939,0.0144958,0.0120163,0.0225067,-0.00843048,0.0151443,0.00782013
19,1,10.0097,0.0012207,0.000610352,-2.42623,0.0559862,-0.075063,0.0553487,0.0706652,-0.0913154,0.145013,-0.123935,-0.0828756,0.0164413,0.0244522,0.0177002,0.0164795,0.018425,0.016861,0.0248337,0.019455,-9.97986,0.0143433,-0.00541687,0.0156784,0.0123596,0.018425,-0.0124359,0.0201416,0.00747681
19,2,10.0097,0.000305176,-0.000305176,-2.4244,0.0562914,-0.0747579,0.0538228,0.0715807,-0.0922309,0.145624,-0.125461,-0.0810445,0.0169754,0.018425,0.0228882,0.0126266,0.0156403,0.0170898,0.0210953,0.00816345,-9.97986,0.0161362,-0.0101471,0.0138474,0.0121689,0.0151062,-0.0153351,0.0177002,0.00511169
19,3,10.0097,0.000305176,0.000152588,-2.4247,0.0565965,-0.0735371,0.0538228,0.0706652,-0.0922309,0.146234,-0.124241,-0.0813497,0.0150299,0.0210571,0.018158,0.014267,0.0181198,0.0127792,0.022049,0.00892639,-9.97986,0.0161743,-0.00579834,0.0152588,0.0128555,0.019722,-0.0154877,0.0144196,0.00617981
19,4,10.0097,0.000305176,0,-2.4247,0.0569017,-0.0741475,0.0568746,0.0706652,-0.0903999,0.145624,-0.12302,-0.0813497,0.0124359,0.0168228,0.0204086,0.00980377,0.0255585,0.0123978,0.0204468,0.0132751,-9.97986,0.0147247,-0.00682831,0.0139618,0.0122833,0.0225067,-0.0159454,0.0183105,0.00659943
19,5,10.0097,0.000915527,-0.000305176,-2.42562,0.0565965,-0.0735371,0.055959,0.0712755,-0.0925361,0.147149,-0.124546,-0.0810445,0.0102234,0.0187302,0.0183868,0.0112915,0.0182724,0.0138092,0.019989,0.0110245,-9.97986,0.018425,-0.00350952,0.0152969,0.0139999,0.0230026,-0.0140381,0.0188065,0.00579834
19,6,10.0097,0.00183105,-0.00106812,-2.42653,0.0572069,-0.0744527,0.0538228,0.0453356,-0.0952827,0.145929,-0.126682,-0.0822652,0.0127411,0.0169754,0.0165558,0.0127411,0.0223541,0.018425,0.0202942,0.019722,-9.97986,0.0177765,-0.00484467,0.0169754,0.00804901,0.0174713,-0.0146103,0.0147629,0.00701904
19,7,8.74074,0,-0.00167847,-2.42592,0.0550706,-0.0735371,0.0519917,0.0447252,-0.0934516,0.146234,-0.124851,-0.0819601,0.00961304,0.013504,0.0174332,0.0101852,0.0163269,0.0181961,0.014534,0.014801,-9.97986,0.0142288,-0.00835419,0.0178146,0.0141144,0.0177002,-0.0159454,0.0165176,0.00740051
19,8,7.48982,0.000610352,-0.000610352,-2.42623,0.0562914,-0.0744527,0.0550435,0.0535753,-0.0922309,0.145013,-0.125766,-0.0813497,0.0123215,0.0128937,0.0157547,0.0130081,0.0208664,0.0180054,0.0133896,0.0253677,-9.97986,0.0127029,-0.00923157,0.0157928,0.0147247,0.021019,-0.0115585,0.0196838,0.00499725
19,9,7.30794,0,-0.000610352,-2.42592,0.0553758,-0.0747579,0.054128,0.0636461,-0.0928413,0.144403,-0.126377,-0.0819601,0.0107193,0.0141144,0.0182343,0.0154495,0.0218201,0.0205231,0.0198746,0.0238037,-9.97986,0.0111771,-0.0056076,0.0178146,0.0177002,0.0178528,-0.00938416,0.0185013,0.00850677
20,0,7.54781,0,0.000305176,-2.42653,0.0559862,-0.0744527,0.0562642,0.0718859,-0.0916206,0.146539,-0.126072,-0.0834859,0.0103378,0.015831,0.021286,0.0166321,0.0232697,0.0164032,0.0217056,0.0162125,-9.97986,0.0112534,-0.00682831,0.0156021,0.0148773,0.0169754,-0.00617981,0.019455,0.00537872
20,1,9.28243,0.000610352,0.000762939,-2.42623,0.0547655,-0.075063,0.0547383,0.0938585,-0.0910102,0.145624,-0.124546,-0.0834859,0.0118256,0.0131989,0.0175476,0.0150681,0.0205994,0.0189972,0.0184631,0.0178146,-9.97986,0.0179291,-0.00267029,0.0185776,0.0165176,0.0209808,-0.00453949,0.0136948,0.00312805
20,2,10.0097,-0.000305176,0.00167847,-2.42837,0.0535448,-0.0759786,0.0529073,0.094774,-0.0928413,0.144708,-0.124851,-0.0856222,0.00938416,0.0161743,0.0195694,0.0136566,0.0119781,0.0165558,0.0166321,0.0211334,-9.97986,0.0151825,-0.00469208,0.0157166,0.0134277,0.0167465,-0.00526428,0.018425,0.0069809
20,3,10.0097,0.000305176,0.000152588,-2.4305,0.0529344,-0.0771993,0.0513814,0.0767687,-0.095893,0.142877,-0.126682,-0.0871481,0.0094986,0.0160217,0.0193024,0.0178909,0.0159073,0.0185394,0.0191879,0.0247192,-9.97986,0.0112915,-0.00850677,0.010643,0.0155258,0.0216675,-0.00328064,0.0138474,0.00385284
20,4,10.0097,0.000915527,0.000152588,-2.42898,0.0544603,-0.0759786,0.0535176,0.0728014,-0.0937568,0.145013,-0.126987,-0.0871481,0.00946045,0.0167084,0.0239563,0.0200272,0.0219345,0.019989,0.0186157,0.0278091,-9.97986,0.013504,-0.0056076,0.016861,0.0166702,0.0213242,-0.00350952,0.0180817,0.0019455
20,5,10.0097,0.0012207,-0.000610352,-2.42928,0.0529344,-0.0753682,0.0522969,0.0697496,-0.0955879,0.143792,-0.126987,-0.0865377,0.00854492,0.0182343,0.0288773,0.0212097,0.0275803,0.0142288,0.0227737,0.0317383,-9.97986,0.0104523,-0.00522614,0.0121689,0.0149536,0.0164795,-0.00434875,0.0182343,0.00236511
20,6,10.0097,0.000610352,-0.000152588,-2.42837,0.0535448,-0.0759786,0.0529073,0.0694445,-0.0961982,0.145318,-0.126987,-0.0865377,0.00808716,0.0270462,0.0357819,0.0203323,0.028801,0.0201416,0.0174332,0.030365,-9.97986,0.00991821,-0.00770569,0.0152969,0.0154495,0.0202179,-0.00545502,0.0191879,0.00411987
20,7,10.0097,-0.000305176,0,-2.42928,0.0535448,-0.0747579,0.0516866,0.0688341,-0.0934516,0.143182,-0.127292,-0.0862325,0.0138092,0.0257874,0.0375366,0.0183868,0.0258636,0.0152206,0.0227737,0.0289154,-9.97986,0.00915527,-7.62939e-005,0.0156784,0.0191116,0.0239182,-0.00740051,0.0205994,0.00358582
20,8,10.0097,0.000915527,-0.000152588,-2.42714,0.0544603,-0.0744527,0.0535176,0.0688341,-0.0937568,0.145013,-0.126682,-0.0850118,0.0107574,0.0349045,0.0452042,0.0196838,0.0252914,0.0133514,0.0262451,0.0234985,-9.97986,0.0122833,-0.00461578,0.0136185,0.018692,0.0206375,-0.0130844,0.0205994,0.00637054
20,9,10.0097,0.000915527,-0.000762939,-2.42684,0.0559862,-0.0741475,0.0544332,0.0694445,-0.0928413,0.143792,-0.127292,-0.085317,0.0135803,0.0380707,0.0512695,0.018158,0.0262833,0.0145721,0.0276947,0.0191879,-9.97986,0.00736237,0.000114441,0.00747681,0.0187302,0.0141907,-0.0197601,0.0226974,0.00583649
21,0,10.0097,-0.000610352,0.000305176,-2.42776,0.0553758,-0.0747579,0.0529073,0.0697496,-0.0931465,0.145624,-0.125766,-0.0847066,0.0108337,0.0575638,0.0549316,0.00854492,0.0269318,0.0127792,0.0255585,0.0170135,-9.97986,0.00705719,-0.00144958,0.0157547,0.0178528,0.0198746,-0.0174713,0.0213623,0.00606537
21,1,10.0097,0.000915527,0.000610352,-2.42562,0.0562914,-0.0747579,0.0544332,0.0706652,-0.0919257,0.146844,-0.124241,-0.0819601,0.0120926,0.0736618,0.0547791,0.00492096,0.0211716,0.0120926,0.0226974,0.0122452,-9.97986,0.00934601,0.000152588,0.0183105,0.0188065,0.0204468,-0.0179672,0.0214767,0.00766754
21,2,10.0097,0.00213623,-0.000762939,-2.42531,0.0562914,-0.0738423,0.0547383,0.0700548,-0.0919257,0.146539,-0.124241,-0.0816549,0.00926971,0.080719,0.0487137,0.00495911,0.0197601,0.0172424,0.0244141,0.00774384,-9.97986,0.011673,-0.00423431,0.0167847,0.0183105,0.0174332,-0.0170135,0.0226212,0.0044632
21,3,10.0097,-0.00152588,0.000152588,-2.42501,0.0562914,-0.0735371,0.0556539,0.0706652,-0.0922309,0.146234,-0.125156,-0.0804342,0.0120544,0.0680542,0.0480652,0.00602722,0.0161362,0.0161743,0.0247192,0.00637054,-9.97986,0.0109863,-0.00244141,0.0155258,0.0170898,0.0234222,-0.0144196,0.0180054,0.00736237
21,4,10.0097,-0.000305176,-0.000610352,-2.42653,0.0575121,-0.0741475,0.0556539,0.0712755,-0.0925361,0.146234,-0.125461,-0.0816549,0.00801086,0.0650406,0.035553,0.0018692,0.010643,0.0139999,0.0252151,0.00999451,-9.97986,0.00717163,-0.00236511,0.019455,0.0136948,0.0180435,-0.017128,0.0178909,0.00648499
21,5,10.0097,-0.000610352,-0.000305176,-2.4247,0.0575121,-0.0738423,0.0550435,0.0718859,-0.0925361,0.146539,-0.12302,-0.0810445,0.00968933,0.0769806,0.0322723,0.00679016,0.0122833,0.0170135,0.0259018,0.00431061,-9.97986,0.0087738,-0.0012207,0.0148773,0.01194,0.0205994,-0.0121307,0.0217438,0.00854492
21,6,10.0097,-0.000305176,-0.00137329,-2.42653,0.0559862,-0.0747579,0.0535176,0.0453356,-0.0952827,0.147455,-0.126682,-0.0819601,0.0135803,0.0880051,0.0281906,0.00907898,0.0147247,0.017128,0.0233841,0.00522614,-9.97986,0.0150299,-0.00183105,0.0137329,0.0157166,0.0206757,-0.0038147,0.022583,0.00534058
21,7,8.80147,0.000610352,-0.00152588,-2.42562,0.055681,-0.073232,0.0544332,0.0459459,-0.0928413,0.145624,-0.125766,-0.0810445,0.0129318,0.071907,0.00747681,0.00808716,0.0117874,0.0168991,0.0215149,-0.00205994,-9.97986,0.0170135,-0.000457764,0.0167465,0.0165939,0.0203705,0.00175476,0.018959,0.0044632
21,8,7.571,0.000610352,-0.000610352,-2.42623,0.0559862,-0.0741475,0.0538228,0.054796,-0.0928413,0.145013,-0.126682,-0.0819601,0.0123215,0.00511169,-0.0131607,0.0144577,0.0173187,0.0182343,0.0272369,-0.00354767,-9.97986,0.0211716,-0.00312805,0.0151443,0.0138092,0.0178909,0.0037384,0.0198364,0.00549316
21,9,7.38912,0,-0.000152588,-2.42714,0.0553758,-0.0744527,0.054128,0.0636461,-0.0913154,0.145624,-0.125766,-0.0825704,0.00999451,-0.0443649,-0.0260544,0.0102615,0.0140381,0.0177765,0.0240326,0.0025177,-9.97986,0.0276947,-0.00526428,0.0162888,0.0144196,0.019989,0.00648499,0.0191498,0.00488281
22,0,7.59816,0.000305176,0.000915527,-2.42623,0.0547655,-0.0741475,0.0538228,0.0728014,-0.0928413,0.145624,-0.125156,-0.0837911,0.00904083,-0.0402832,-0.0324631,0.0154495,0.0163651,0.0228119,0.0273132,0.00671387,-9.97986,0.0299835,-0.00320435,0.0175095,0.0128174,0.0140381,0.00545502,0.0186539,0.00782013
22,1,9.32912,0,0.000457764,-2.42714,0.0547655,-0.075063,0.054128,0.0935533,-0.0891792,0.145318,-0.125156,-0.0831808,0.00782013,-0.0374985,-0.0426865,0.0159073,0.0133133,0.0162506,0.0267029,0.0031662,-9.97986,0.0307846,-0.00389099,0.0139999,0.0117111,0.0179672,0.00732422,0.0181198,0.00576019
22,2,10.0097,0.000915527,0.00183105,-2.42989,0.0538499,-0.0756734,0.0526021,0.0932482,-0.0931465,0.143182,-0.126072,-0.0865377,0.00915527,-0.0466919,-0.0350952,0.0212097,0.0178909,0.0173187,0.0266647,0.0111008,-9.97986,0.0309753,-0.00289917,0.0141144,0.0122452,0.0162888,0.000267029,0.0205231,0.00656128
22,3,10.0097,0.00305176,0.000610352,-2.4302,0.0532396,-0.0753682,0.0532125,0.0785997,-0.0955879,0.144098,-0.126377,-0.0868429,0.0141907,-0.0374985,-0.0164413,0.0217819,0.0186539,0.0198746,0.0304413,0.0144577,-9.97986,0.0307465,0.00453949,0.0189972,0.0165176,0.0206757,-0.00480652,0.0182724,0.00953674
22,4,10.0097,0.000610352,-0.000762939,-2.42806,0.0541551,-0.0747579,0.0529073,0.0715807,-0.0955879,0.144098,-0.127292,-0.0868429,0.0075531,-0.0327301,-0.0111008,0.00961304,0.00911713,0.0166702,0.0225067,0.00606537,-9.97986,0.0237656,-0.00614166,0.00892639,0.00629425,0.0112915,-0.0209808,0.0101852,0.00244141
22,5,10.0097,0.000305176,0.000305176,-2.42959,0.0523241,-0.0753682,0.0519917,0.07036,-0.0955879,0.143487,-0.126987,-0.0880636,0.0139618,-0.0141525,0.0012207,0.018425,0.018692,0.0208664,0.0240326,0.0144958,-9.97986,0.0250626,0.00232697,0.0144958,0.0194168,0.0185394,-0.0123596,0.018959,0.0103378
22,6,10.0097,0.00183105,-0.00106812,-2.42837,0.0550706,-0.0765889,0.0522969,0.0694445,-0.0949775,0.142267,-0.128513,-0.0874532,0.00549316,-0.0198746,-0.00354767,0.0140381,0.0188065,0.0176239,0.0244141,0.00915527,-9.97986,0.0196457,-0.000686646,0.016861,0.0196838,0.0137329,-0.016098,0.0172806,0.00904083
22,7,10.0097,-0.000610352,0.000152588,-2.42867,0.0535448,-0.0765889,0.0529073,0.0694445,-0.0934516,0.144708,-0.126072,-0.0859274,0.00762939,-0.0111771,0.00282288,0.0133514,0.0220871,0.0169373,0.0196457,0.016861,-9.97986,0.0229645,-0.0019455,0.0154877,0.017128,0.0153732,-0.0128937,0.0154877,0.00545502
22,8,10.0097,-0.0012207,-0.000305176,-2.42714,0.0550706,-0.075063,0.0538228,0.0688341,-0.0943672,0.144403,-0.126377,-0.0847066,0.0120163,-0.00385284,0.00621796,0.0149536,0.0221252,0.0180435,0.0199127,0.0190735,-9.97986,0.018692,-0.000610352,0.0146484,0.0125504,0.0155258,-0.0172043,0.0136566,0.00919342
22,9,10.0097,-0.0012207,-0.000457764,-2.42623,0.0547655,-0.0753682,0.0535176,0.0688341,-0.094062,0.145013,-0.126987,-0.0840963,0.00484467,0.00400543,0.00679016,0.0163269,0.0201416,0.0196457,0.0209808,0.0159454,-9.97986,0.0205612,0.00232697,0.0177765,0.0125504,0.0138474,-0.0180435,0.0175095,0.00648499
23,0,10.0097,-0.000610352,0.000457764,-2.42745,0.0541551,-0.075063,0.0538228,0.0691393,-0.0937568,0.144708,-0.126072,-0.0844015,0.00812531,0.00118256,0.0117493,0.00862122,0.0221634,0.0181961,0.0234604,0.0244904,-9.97986,0.018959,-0.0037384,0.0157166,0.015564,0.00946045,-0.023613,0.0115967,0.0118256
23,1,10.0097,0,0.000305176,-2.42592,0.055681,-0.0738423,0.0550435,0.0712755,-0.0919257,0.145929,-0.125766,-0.0822652,0.0088501,0.00919342,0.0133514,0.01297,0.0246048,0.0150299,0.0228119,0.0366974,-9.97986,0.0205231,-0.000762939,0.015831,0.0259018,0.0130844,-0.0247955,0.0147247,0.01194
23,2,10.0097,0.000610352,0,-2.42684,0.055681,-0.0756734,0.0547383,0.0688341,-0.0910102,0.146234,-0.124546,-0.0813497,0.00621796,0.0152588,0.0157166,0.0127792,0.0199127,0.0164413,0.0172043,0.0408173,-9.97986,0.0157166,-0.00255585,0.0141525,0.0188828,0.0124359,-0.0250244,0.0147247,0.00850677
23,3,10.0097,-0.000305176,-0.000915527,-2.42379,0.0562914,-0.0744527,0.0532125,0.0706652,-0.0931465,0.146539,-0.123935,-0.0807394,0.00473022,0.0174713,0.0179291,0.00629425,0.0217438,0.0134277,0.0174332,0.0359344,-9.97986,0.0168228,-0.000686646,0.0162506,0.0155258,0.014534,-0.0127029,0.0150681,0.011673
23,4,10.0097,0.00183105,-0.000305176,-2.42592,0.055681,-0.0738423,0.054128,0.0700548,-0.0922309,0.146539,-0.124851,-0.0819601,0.00606537,0.0190353,0.0172806,0.000572205,0.0188446,0.0118256,0.0195313,0.0415421,-9.97986,0.0141907,0.00114441,0.010376,0.0120163,0.0151443,-0.00930786,0.0149536,0.0088501
23,5,10.0097,0.00152588,-0.000457764,-2.4244,0.0562914,-0.0738423,0.0556539,0.07036,-0.0910102,0.149591,-0.123935,-0.0807394,0.00476837,0.0108337,0.0116348,0.0019455,0.0195694,0.00774384,0.0193024,0.0540161,-9.97986,0.00926971,0.00278473,0.0184631,0.00926971,0.0141525,-0.00488281,0.0119781,0.010376
23,6,10.0097,-0.000915527,-0.00106812,-2.42714,0.0562914,-0.0741475,0.0526021,0.0456407,-0.0961982,0.146844,-0.125156,-0.0819601,0.0105286,0.00434875,0.018158,0.00976563,0.0178146,0.0106049,0.0247955,0.0635529,-9.97986,0.0111008,0.00442505,0.0136948,0.00900269,0.0199509,-0.00267029,0.0126648,0.00934601
23,7,8.68337,0.000610352,-0.00228882,-2.42501,0.0562914,-0.0741475,0.0544332,0.0456407,-0.0934516,0.14776,-0.126072,-0.0816549,0.00320435,0.0140381,0.0206375,0.014801,0.0183487,0.00442505,0.032196,0.0743866,-9.97986,0.0104141,0.00205994,0.0106049,0.010376,0.0213623,0.000305176,0.0127411,0.00301361
23,8,7.45839,0.000915527,-0.00137329,-2.42501,0.0559862,-0.0738423,0.0562642,0.0541857,-0.0922309,0.146539,-0.126072,-0.0819601,0.0109863,0.0144196,0.0230026,0.0112534,0.0131989,0.0082016,0.0261688,0.062294,-9.97986,0.0102997,0.00385284,0.00843048,0.00679016,0.0154114,0.00713348,0.0131989,0.00183105
23,9,7.33022,0.000610352,-0.000305176,-2.42623,0.0569017,-0.0747579,0.0538228,0.0642565,-0.0919257,0.145624,-0.126377,-0.0822652,0.00335693,0.0173569,0.0247955,0.000762939,0.0120544,0.00572205,0.0306702,0.0527191,-9.97986,0.00873566,0.00679016,0.00801086,0.00728607,0.0188065,-0.000114441,0.0135803,0.0044632
24,0,7.59633,0.000915527,0,-2.42592,0.0550706,-0.0738423,0.0538228,0.0724962,-0.0919257,0.144403,-0.124546,-0.0828756,0.00583649,0.0201416,0.0265121,-0.0056839,0.0112152,0.00549316,0.0358963,0.0458527,-9.97986,0.00774384,0.00415802,0.0142288,0.00640869,0.0221252,-0.0018692,0.0159454,0.00671387
24,1,9.34621,-0.000305176,0.000610352,-2.42806,0.0541551,-0.0744527,0.0556539,0.0898912,-0.0891792,0.144403,-0.124241,-0.0840963,0.0157547,0.0205231,0.0299072,-0.00728607,0.0144196,0.00797272,0.0312424,0.0455475,-9.97986,0.00965118,0.00167847,0.0153732,-0.00286102,0.0186157,-0.00411987,0.0137329,0.00362396
24,2,10.0097,-0.000610352,0.00106812,-2.42928,0.0538499,-0.0756734,0.0519917,0.0926378,-0.0943672,0.143792,-0.125766,-0.0862325,0.0156403,0.0226212,0.0299072,-0.00564575,0.0106049,0.00579834,0.0265503,0.0385284,-9.97986,0.0115967,0.00228882,0.00968933,-0.00930786,0.0221634,-0.00133514,0.0130844,0.00679016
24,3,10.0097,0.000305176,0,-2.42959,0.0538499,-0.0756734,0.0529073,0.0785997,-0.0949775,0.142877,-0.126682,-0.0868429,0.0199509,0.0307083,0.0371552,-0.00507355,0.0150299,0.00465393,0.0337982,0.0144196,-9.97986,0.00789642,0.000953674,0.0127029,-0.00572205,0.0205612,-0.00827789,0.01297,0.00617981
24,4,10.0097,-0.000305176,-0.000457764,-2.43111,0.0538499,-0.0753682,0.0522969,0.0731066,-0.0937568,0.142572,-0.126377,-0.085317,0.0213623,0.0328064,0.0382233,-0.0217056,0.0146103,0.00263214,0.0294876,-0.0284195,-9.97986,0.00801086,0.00354767,0.0130081,0.0025177,0.0161743,-0.00888824,0.0107574,0.00301361
24,5,10.0097,-0.0012207,-0.000305176,-2.42959,0.0535448,-0.0753682,0.0526021,0.0682238,-0.0949775,0.143487,-0.127903,-0.0874532,0.0167465,0.0357819,0.0395584,-0.0106812,0.0134659,0.00141144,0.0297928,-0.0331116,-9.97986,0.00637054,-0.000610352,0.013237,-0.0043869,0.0192642,-0.0112152,0.0132751,0.00278473
24,6,10.0097,0.000610352,-0.00106812,-2.43081,0.0538499,-0.0759786,0.0526021,0.0694445,-0.0955879,0.143182,-0.127903,-0.0874532,0.0161743,0.040741,0.0386047,0.0119781,0.0145721,0.00255585,0.0246048,-0.0269699,-9.97986,0.00713348,-0.00164032,0.0127792,-0.0104523,0.017128,-0.0146484,0.0144958,0.00400543
24,7,10.0097,0.000305176,-0.000457764,-2.4302,0.0544603,-0.0747579,0.0538228,0.0657823,-0.0946723,0.144098,-0.127292,-0.0859274,0.0156784,0.0443649,0.0380707,0.0261688,0.0178146,0.00190735,0.0285721,-0.0442505,-9.97986,0.0101471,-0.00118256,0.0131226,-0.00911713,0.0149155,-0.0206375,0.0139236,0.00434875
24,8,10.0097,0.000305176,0.000305176,-2.42867,0.0547655,-0.0744527,0.0538228,0.07036,-0.0928413,0.143792,-0.126987,-0.0837911,0.0127029,0.047493,0.0269699,0.0302124,0.0157547,0.00480652,0.0307083,-0.0297546,-9.97986,0.0150299,0.00335693,0.0136185,-0.00576019,0.0170517,-0.019989,0.0124741,0.00492096
24,9,10.0097,0,-0.000152588,-2.42776,0.0538499,-0.0747579,0.0522969,0.0694445,-0.0931465,0.145318,-0.126072,-0.0837911,0.00583649,0.046463,0.0183487,0.0204849,0.012207,0.00392914,0.027504,-0.0390625,-9.97986,0.0104904,-0.00457764,0.0141907,-0.00579834,0.0148773,-0.0181198,0.0133133,0.00637054
25,0,10.0097,-0.000305176,0.000152588,-2.43142,0.0541551,-0.0762837,0.0535176,0.0700548,-0.0931465,0.144403,-0.125766,-0.0844015,0.00362396,0.0404739,0.0094223,0.00160217,0.0123596,0.00400543,0.026207,-0.0640869,-9.97986,0.0139999,-0.000343323,0.0102997,0.00209808,0.0136185,-0.0160599,0.0132751,0.00801086
25,1,10.0097,0.00152588,-0.000152588,-2.42623,0.055681,-0.0735371,0.054128,0.072191,-0.0928413,0.145013,-0.125156,-0.0840963,0.00679016,0.0373077,0.00564575,0.0118256,0.0126648,0.0069046,0.0255585,-0.0627518,-9.97986,0.0145721,-0.00553131,0.0128555,-0.00263214,0.0139236,-0.0133133,0.0155258,0.00717163
25,2,10.0097,0.000305176,-0.000305176,-2.42592,0.0553758,-0.073232,0.054128,0.0712755,-0.0916206,0.145624,-0.124241,-0.0816549,0.0120544,0.0268173,0.00576019,0.0411606,0.010643,0.00911713,0.0260925,-0.0345993,-9.97986,0.0198364,-0.0019455,0.0145721,-0.0063324,0.0111389,-0.00846863,0.0117493,0.00354767
25,3,10.0097,0.000915527,-0.000457764,-2.42989,0.0569017,-0.0729268,0.0553487,0.0679186,-0.0919257,0.145624,-0.124851,-0.0810445,0.0154495,0.0115967,0.00957489,0.0526047,0.0131989,0.0030899,0.0241852,-0.00526428,-9.97986,0.0235748,-0.00362396,0.0149918,-0.00770569,0.01297,0.000419617,0.013504,0.00762939
25,4,10.0097,0.00244141,0,-2.4244,0.0565965,-0.0738423,0.0550435,0.0706652,-0.0919257,0.146539,-0.125156,-0.0792135,0.0146866,0.0152969,0.00785828,0.0527191,0.00984192,0.00907898,0.0252151,0.000686646,-9.97986,0.0191116,-0.00606537,0.0118256,-0.0103378,0.012207,0.00995636,0.013237,0.00709534
25,5,10.0097,0.000915527,0.000610352,-2.42806,0.0575121,-0.073232,0.0550435,0.0706652,-0.090705,0.14776,-0.124241,-0.0822652,0.0135803,0.026741,0.0100327,0.0442886,0.00919342,0.00553131,0.0249481,0.0100708,-9.97986,0.0172806,0.00419617,0.0147247,-0.00995636,0.0120926,0.0102997,0.016861,0.00713348
25,6,10.0097,-0.000305176,-0.00152588,-2.42684,0.0562914,-0.0738423,0.0519917,0.0389269,-0.0946723,0.146234,-0.126682,-0.0831808,0.0110626,0.0290298,0.0056076,0.0382233,0.00850677,0.00793457,0.018425,0.0174713,-9.97986,0.0175476,0.00282288,0.012207,-0.00740051,0.0140381,0.0125885,0.0111771,0.00789642
25,7,8.86678,0,-0.00183105,-2.42592,0.0575121,-0.0738423,0.055959,0.0413683,-0.0919257,0.146844,-0.125156,-0.0825704,0.0136948,0.0332642,0.00125885,0.0352097,0.0140381,0.00999451,0.0177765,0.00892639,-9.97986,0.0244141,0.000228882,0.0164032,-0.013237,0.0189209,0.0114822,0.0148392,0.0069809
25,8,7.6006,0.00183105,-0.00106812,-2.42623,0.0569017,-0.0744527,0.054128,0.0535753,-0.0900947,0.145624,-0.126072,-0.0813497,0.014267,0.0357437,0.000343323,0.0244904,0.01194,0.00782013,0.0112534,0.0131989,-9.97986,0.0226593,-0.00179291,0.0119019,-0.0159073,0.0130844,0.00350952,0.0119019,0.00221252
25,9,7.4001,0.000305176,-0.000915527,-2.42684,0.0569017,-0.0738423,0.0544332,0.0685289,-0.0922309,0.145013,-0.126377,-0.0825704,0.013504,0.0407791,0.00896454,0.02491,0.0144958,0.0120544,0.0123596,0.0163651,-9.97986,0.017395,-0.000762939,0.0128937,-0.0216293,0.0140762,-0.00610352,0.0162125,0.0056076
26,0,7.62807,0.000915527,-0.000915527,-2.42592,0.0544603,-0.0747579,0.0550435,0.07036,-0.0910102,0.145624,-0.125461,-0.0816549,0.0128937,0.045166,0.00816345,0.0243378,0.0151825,0.00816345,0.0115585,0.021553,-9.97986,0.0207138,-0.0063324,0.0154877,-0.0194168,0.0154114,-0.0101089,0.0149536,0.00617981
26,1,9.33125,0.00152588,0.000152588,-2.4244,0.0538499,-0.0741475,0.054128,0.0926378,-0.0900947,0.145013,-0.124241,-0.0825704,0.00980377,0.038681,0.0104141,0.0233841,0.0123978,0.00816345,0.00587463,0.0207138,-9.97986,0.0217056,-0.00637054,0.0136948,-0.028038,0.013237,-0.0112915,0.00907898,0.00530243
26,2,10.0097,-0.000610352,0.00137329,-2.42837,0.0532396,-0.0762837,0.0522969,0.0950792,-0.0928413,0.142877,-0.125461,-0.0868429,0.0146866,0.0444412,0.0140762,0.0241852,0.0175095,0.0126648,0.0143814,0.0254059,-9.97986,0.0172043,-0.00930786,0.0135803,-0.0346756,0.0100708,-0.0101471,0.0114441,0.00663757
26,3,10.0097,0.00183105,-0.00137329,-2.43081,0.0538499,-0.075063,0.0526021,0.0740221,-0.095893,0.141656,-0.126072,-0.0862325,0.00717163,0.0391388,0.0108719,0.0196457,0.0138474,0.00907898,0.00873566,0.0244904,-9.97986,0.0146866,-0.0136566,0.0141907,-0.0488663,0.0129318,-0.00705719,0.0161362,0.00682831
26,4,10.0097,-0.000610352,-0.000457764,-2.43111,0.0541551,-0.075063,0.0516866,0.072191,-0.0943672,0.143182,-0.127292,-0.0886739,0.00843048,0.0364685,0.00991821,0.0206375,0.0138092,0.0062561,0.00461578,0.0276947,-9.97986,0.0165558,-0.00957489,0.0173569,-0.0482941,0.0148392,0.00236511,0.0133896,0.00740051
26,5,10.0097,-0.000610352,-0.000915527,-2.42837,0.0541551,-0.0759786,0.0526021,0.0700548,-0.0949775,0.144098,-0.127903,-0.0871481,0.0104523,0.0320435,0.00740051,0.0185013,0.015831,0.00823975,0.0130844,0.0339127,-9.97986,0.0178146,-0.00156403,0.0180817,-0.0565338,0.0187683,-0.0044632,0.0141144,0.0056839
26,6,10.0097,0.000915527,-0.0012207,-2.42928,0.0538499,-0.0756734,0.0516866,0.0676134,-0.0946723,0.142572,-0.128208,-0.0868429,0.0139618,0.0309372,0.0124359,0.0188065,0.0131989,0.0117493,0.0165939,0.0409698,-9.97986,0.0133133,-0.0030899,0.0175095,-0.0559235,0.013504,-0.00648499,0.0171661,0.00579834
26,7,10.0097,0.000610352,-0.000915527,-2.42867,0.0538499,-0.0756734,0.0516866,0.0694445,-0.095893,0.144403,-0.126682,-0.0865377,0.0104141,0.0357437,0.0105286,0.0125504,0.0152206,0.01194,0.0279236,0.0415421,-9.97986,0.0116348,-0.00457764,0.0186539,-0.0534439,0.0157547,-0.00179291,0.0152206,0.00518799
26,8,10.0097,0.000305176,-0.000762939,-2.42959,0.055681,-0.0753682,0.0532125,0.0685289,-0.094062,0.144708,-0.126377,-0.0859274,0.0118637,0.0246048,0.0194168,0.00724792,0.00850677,0.0100327,0.0351715,0.0478363,-9.97986,0.0101089,-0.00598907,0.021286,-0.0572968,0.0155258,0.00133514,0.017128,0.00602722
26,9,10.0097,0.00152588,0,-2.42776,0.0544603,-0.075063,0.0535176,0.0709703,-0.0928413,0.145013,-0.125766,-0.080129,0.00839233,0.0199509,0.0222778,0.0030899,0.0145721,0.00873566,0.0416946,0.0554657,-9.97986,0.0145721,-0.00659943,0.0157547,-0.0521088,0.0173187,0.00232697,0.0150299,0.00663757
27,0,10.0097,0.0012207,0.000152588,-2.42379,0.055681,-0.075063,0.0532125,0.0700548,-0.0931465,0.145318,-0.125156,-0.0834859,0.0141907,0.0208282,0.0284195,-0.00209808,0.0069046,0.00328064,0.0452805,0.0551987,-9.97986,0.0155258,-0.0062561,0.0200272,-0.0486755,0.0185776,0.00553131,0.0088501,0.00675201
27,1,10.0097,0,0.000152588,-2.42592,0.0562914,-0.0747579,0.0544332,0.0728014,-0.0922309,0.144403,-0.125156,-0.0816549,0.011673,0.0134277,0.0205994,-0.0104904,0.0069809,0.00762939,0.0404358,0.0513458,-9.97986,0.0123596,-0.00530243,0.0189209,-0.0550461,0.0147247,0.00492096,0.0170517,0.0056076
27,2,10.0097,0.000915527,0.000152588,-2.42531,0.0572069,-0.0738423,0.0544332,0.0737169,-0.0910102,0.145624,-0.124851,-0.0810445,0.0138855,0.0203323,0.0225449,-0.0246048,0.00717163,0.0110245,0.0323486,0.0448227,-9.97986,0.0112152,-7.62939e-005,0.0190353,-0.0554276,0.0175858,0.00617981,0.017128,0.0056839
27,3,10.0097,-0.000610352,0.000305176,-2.42379,0.055681,-0.0738423,0.0544332,0.0700548,-0.0919257,0.145624,-0.125156,-0.0816549,0.0141525,0.0138474,0.0216293,-0.0399017,-0.00110626,0.00827789,0.0244141,0.0327682,-9.97986,0.00827789,0.000610352,0.0195694,-0.0537109,0.0213242,0.01297,0.014801,0.0043869
27,4,10.0097,0.000610352,0.000152588,-2.42592,0.0553758,-0.0741475,0.0550435,0.0724962,-0.0919257,0.146234,-0.124241,-0.0813497,0.00915527,0.0121689,0.0222015,-0.0520706,-3.8147e-005,0.0111008,0.0190353,0.0273514,-9.97986,0.0107956,-0.00907898,0.0182343,-0.0561142,0.0206375,-0.000343323,0.0154877,0.00644684
27,5,10.0097,0.000610352,-0.000457764,-2.4247,0.0565965,-0.0738423,0.0547383,0.07036,-0.090705,0.147149,-0.12363,-0.0779928,0.0111008,0.0124359,0.0263977,-0.0474548,-0.00152588,0.0121689,0.0209427,0.0185394,-9.97986,0.00804901,-0.0107956,0.019455,-0.0600815,0.0178528,-0.00358582,0.0150299,0.00823975
27,6,10.0097,0.000305176,-0.000915527,-2.42226,0.0565965,-0.073232,0.0532125,0.0456407,-0.0955879,0.145929,-0.126072,-0.0825704,0.014267,0.00934601,0.0321198,-0.0397873,-0.000648499,0.0114441,0.0204086,0.00816345,-9.97986,0.0043869,-0.00770569,0.0206757,-0.0574875,0.0192642,-0.00991821,0.0121307,0.00984192
27,7,8.83199,0.0012207,-0.00106812,-2.42501,0.0581224,-0.0744527,0.0556539,0.0462511,-0.0937568,0.146844,-0.126987,-0.0819601,0.0174332,0.00835419,0.0308228,-0.0139999,-0.000152588,0.0130463,0.0229645,0.00988007,-9.97986,0.0019455,-0.00835419,0.0182343,-0.0485229,0.0174713,-0.00679016,0.0154114,0.00335693
27,8,7.54903,-0.000305176,-0.000610352,-2.42531,0.0559862,-0.0744527,0.0550435,0.0566271,-0.0919257,0.146539,-0.126987,-0.078298,0.0163269,0.00518799,0.0402832,0.00553131,0.00148773,0.00988007,0.0201416,-0.00114441,-9.97986,0.00198364,-0.0104904,0.0170135,-0.0447083,0.0160599,-0.00854492,0.0148392,0.00526428
27,9,7.32106,0.000305176,0.000152588,-2.42989,0.0559862,-0.0744527,0.0532125,0.0633409,-0.0922309,0.145624,-0.125766,-0.0822652,0.0196457,0.00530243,0.0417709,0.00377655,0.00770569,0.0105286,0.0167465,-0.00495911,-9.97986,0.00370026,-0.011673,0.0159073,-0.0337982,0.0211334,-0.00736237,0.0148773,0.00846863
28,0,7.53957,0.00274658,0.000915527,-2.42714,0.0550706,-0.0738423,0.0550435,0.0764635,-0.0922309,0.144708,-0.125461,-0.0822652,0.0136566,0.00904083,0.0429916,-0.0162125,0.00915527,0.0123215,0.0195313,-0.00225067,-9.97986,0.00839233,-0.00816345,0.0167084,-0.0245285,0.0126266,-0.00671387,0.0173187,0.00999451
28,1,9.21315,0.00366211,0.00152588,-2.42501,0.0541551,-0.0747579,0.054128,0.092943,-0.0900947,0.144403,-0.124851,-0.0840963,0.0115967,0.0148392,0.0461578,-0.0287628,0.0111389,0.0156021,0.0157166,-0.00648499,-9.97986,0.00938416,-0.00190735,0.0135803,-0.0241852,0.0182343,-0.00133514,0.0140762,0.00720978
28,2,10.0097,0.0012207,0.00213623,-2.42898,0.0535448,-0.0759786,0.0529073,0.0959947,-0.0931465,0.144708,-0.124851,-0.0859274,0.0123596,0.0212479,0.0476074,-0.0362015,0.00762939,0.00720978,0.0166702,-0.00488281,-9.97986,0.01091,-0.0107193,0.0144196,-0.0166702,0.0227356,-0.0151443,0.0146103,0.0031662
28,3,10.0097,0.000610352,0.00106812,-2.42867,0.0547655,-0.0753682,0.0519917,0.0743273,-0.0946723,0.143792,-0.127292,-0.0871481,0.01297,0.0261307,0.0536728,0.00263214,0.00289917,0.0101089,0.0210953,-0.000152588,-9.97986,0.0120544,-0.00343323,0.0146484,-0.0102234,0.0215912,-0.0317764,0.0118256,0.00484467
28,4,10.0097,0.0012207,0.000305176,-2.42898,0.0541551,-0.0762837,0.0516866,0.0718859,-0.0955879,0.143182,-0.127598,-0.085317,0.013504,0.0153351,0.0637817,0.0689316,-0.000686646,0.0101089,0.0197601,0.0149918,-9.97986,0.0120544,0.0142288,0.0152206,-0.00896454,0.0201035,-0.0270844,0.0113678,0.00530243
28,5,10.0097,-0.000305176,0.000305176,-2.42562,0.0535448,-0.0762837,0.0526021,0.0709703,-0.0952827,0.143182,-0.128208,-0.0871481,0.00988007,0.0161743,0.0767899,0.0985718,-0.0019455,0.0104141,0.0193787,0.0191116,-9.97986,0.0117493,0.0126266,0.01297,-0.00305176,0.0221252,-0.0266266,0.0111008,0.00663757
28,6,10.0097,0.000915527,0.000305176,-2.4302,0.0532396,-0.0759786,0.0535176,0.0676134,-0.0952827,0.143792,-0.126987,-0.0871481,0.0030899,0.0214386,0.0793076,0.0695801,-0.00244141,0.00591278,0.0186539,0.0196075,-9.97986,0.0216675,0.0210571,0.0172806,0.0094986,0.0196457,-0.0247955,0.0126648,0.00995636
28,7,10.0097,0,0,-2.42837,0.0541551,-0.0753682,0.0522969,0.0688341,-0.094062,0.144403,-0.126987,-0.0862325,0.000419617,0.037117,0.0738525,0.0403214,0.00221252,0.00770569,0.0205994,0.0275421,-9.97986,0.0267792,0.0166702,0.0151825,0.0117874,0.0218201,-0.0124741,0.014801,0.00583649
28,8,10.0097,0.000610352,0,-2.4247,0.0538499,-0.0756734,0.0532125,0.0691393,-0.0946723,0.144708,-0.126377,-0.085317,-0.00244141,0.0517273,0.057373,0.043602,0.00442505,0.00770569,0.0140762,0.0101852,-9.97986,0.0242233,0.00556946,0.00888824,0.0112152,0.0164795,-0.00179291,0.0107956,0.00537872
28,9,10.0097,0,0.000610352,-2.42684,0.0553758,-0.0747579,0.0538228,0.0694445,-0.0931465,0.145318,-0.126682,-0.0844015,-0.00274658,0.0650787,0.0398254,0.0536728,0.00976563,0.00740051,0.0210953,0.00286102,-9.97986,0.0259399,0.00743866,0.0207901,0.0232315,0.0201035,0.00789642,0.0128937,0.00686646
29,0,10.0097,-0.000610352,0.000610352,-2.42837,0.0550706,-0.0747579,0.054128,0.0691393,-0.0928413,0.145624,-0.126072,-0.0834859,7.62939e-005,0.0691223,0.0196838,0.0520706,0.0120163,0.00793457,0.0236511,0.00705719,-9.97986,0.0235748,0.00198364,0.0124741,0.0241852,0.0173569,0.0138855,0.0130081,0.00747681
29,1,10.0097,-0.000305176,0.000457764,-2.42623,0.0544603,-0.0747579,0.0544332,0.07036,-0.0919257,0.14776,-0.124546,-0.0816549,0.00404358,0.0730515,-0.000572205,0.0577927,0.0126648,0.00602722,0.0218201,0.00640869,-9.97986,0.0310135,-0.00125885,0.015564,0.0311279,0.0209808,0.0184631,0.0132751,0.00968933
29,2,10.0097,0.000610352,0.0012207,-2.42501,0.0562914,-0.0738423,0.0544332,0.0737169,-0.0910102,0.146234,-0.125156,-0.0816549,0.00629425,0.0740433,-0.0170898,0.050354,0.0136566,0.00171661,0.026207,0.0175476,-9.97986,0.031662,-0.00648499,0.0138092,0.0411987,0.0170517,0.01297,0.0140381,0.00778198
29,3,10.0097,-0.000610352,0.000152588,-2.42562,0.0569017,-0.0741475,0.0544332,0.0700548,-0.0916206,0.147149,-0.123325,-0.0810445,0.00953674,0.0753403,-0.0309372,0.0500107,0.0185776,0.00495911,0.0181961,0.0255203,-9.97986,0.0284576,-0.0106049,0.0139618,0.0477982,0.0204086,0.00839233,0.0121689,0.00968933
29,4,10.0097,0.000305176,0.000152588,-2.42318,0.0553758,-0.073232,0.0553487,0.0709703,-0.090705,0.147149,-0.122715,-0.0813497,0.0123215,0.0692368,-0.0350189,0.04776,0.0264359,0.00629425,0.0178909,0.0172806,-9.97986,0.0284195,-0.00762939,0.015831,0.045166,0.0161743,0.00797272,0.0135422,0.00976563
29,5,10.0097,0.000915527,-0.000457764,-2.42623,0.0559862,-0.0723164,0.0547383,0.0694445,-0.0910102,0.148065,-0.123935,-0.0798238,0.0159836,0.0678253,-0.0354767,0.0430679,0.0267029,0.000114441,0.0167084,0.0222397,-9.97986,0.0263977,0.000419617,0.0157547,0.0476837,0.0188065,0.00461578,0.0138092,0.00492096
29,6,10.0097,0.000610352,-0.000915527,-2.42592,0.055681,-0.0735371,0.0535176,0.0450304,-0.0946723,0.146234,-0.126682,-0.0813497,0.0082016,0.0569153,-0.0312424,0.0368881,0.0325394,0.00492096,0.0087738,0.0198364,-9.97986,0.0246811,-0.00183105,0.0132751,0.0595474,0.0138092,-0.00926971,0.0124359,0.00461578
29,7,8.72487,0.00152588,-0.000152588,-2.42806,0.0569017,-0.0735371,0.0544332,0.0447252,-0.0925361,0.146234,-0.126987,-0.0822652,0.00846863,0.0509262,-0.0243378,0.0304794,0.0329971,-0.000915527,0.00232697,0.0193024,-9.97986,0.0263596,0.00869751,0.0163651,0.0750732,0.0178909,-0.0125885,0.0159836,0.00659943
29,8,7.4645,0,-0.000610352,-2.42501,0.0559862,-0.0744527,0.054128,0.0517443,-0.0928413,0.144708,-0.126072,-0.0816549,0.00541687,0.0455856,-0.017395,0.0314713,0.027504,0.0012207,0.00400543,0.0208282,-9.97986,0.0202942,0.0267792,0.0173187,0.0774765,0.0167084,-0.014801,0.0155258,0.00328064
29,9,7.27529,0.000305176,0,-2.42684,0.0553758,-0.0738423,0.0547383,0.0633409,-0.0931465,0.144403,-0.125766,-0.0810445,0.00694275,0.0373077,-0.0125885,0.0279617,0.0308228,-0.00106812,0.00644684,0.0162125,-9.97986,0.0228119,0.0292206,0.0141144,0.0819016,0.0157166,-0.0136185,0.019455,0.00610352
30,0,7.49562,0.00183105,0.00137329,-2.42409,0.0559862,-0.0747579,0.0544332,0.0715807,-0.0922309,0.145318,-0.125461,-0.0834859,0.00904083,0.0309753,-0.00663757,0.0227737,0.0294113,-0.0038147,0.00511169,0.0215912,-9.97986,0.0225067,0.020752,0.0165558,0.0883865,0.0136566,-0.0179672,0.0156403,0.00469208
30,1,9.17806,0.000915527,0.00137329,-2.42684,0.0553758,-0.0753682,0.0550435,0.0935533,-0.0900947,0.144403,-0.124851,-0.0837911,0.00980377,0.0276566,-0.00110626,0.0241852,0.0282669,0.00102997,0.00644684,0.0242996,-9.97986,0.0217819,-0.00259399,0.0164413,0.0863266,0.0151443,-0.0143051,0.0148392,0.0038147
30,2,10.0097,0.00183105,0.00198364,-2.42776,0.0535448,-0.0756734,0.0526021,0.0956896,-0.094062,0.143182,-0.125461,-0.0856222,0.00495911,0.0201035,-0.00133514,0.0166702,0.0284576,-0.00232697,0.01297,0.0254059,-9.97986,0.0193787,-0.0107574,0.0141144,0.089035,0.0117874,-0.0111008,0.0185013,-0.00133514
30,3,10.0097,0.000610352,0.000610352,-2.42928,0.0553758,-0.0756734,0.0510762,0.0795153,-0.0955879,0.143792,-0.126682,-0.0868429,0.00858307,0.0223923,-0.00205994,0.0179672,0.0290298,-0.00267029,0.01194,0.022583,-9.97986,0.0205612,-0.0185776,0.0159454,0.0913239,0.014267,-0.0100327,0.0164032,0.00564575
30,4,10.0097,0.00213623,0.000762939,-2.42867,0.0541551,-0.0762837,0.0526021,0.0688341,-0.0949775,0.143792,-0.126987,-0.0862325,0.0102615,0.0228119,0.00473022,0.0136185,0.0289917,-0.00240326,0.0232315,0.0178909,-9.97986,0.0136185,-0.0156403,0.0124359,0.0957108,0.0122833,-0.0151443,0.0140762,0.00415802
30,5,10.0097,0.00152588,0.000305176,-2.42928,0.0538499,-0.0765889,0.0526021,0.0688341,-0.0955879,0.143792,-0.127598,-0.0880636,0.00873566,0.018425,0.00843048,0.0117874,0.0235748,-0.00038147,0.0291824,0.020256,-9.97986,0.0188065,0.0087738,0.0128555,0.105057,0.0127792,-0.0242233,0.0179672,0.00514984
30,6,10.0097,0.00183105,-0.000610352,-2.42928,0.0535448,-0.0759786,0.0526021,0.0694445,-0.0952827,0.144403,-0.128208,-0.0871481,0.00831604,0.018692,0.0105286,0.0104904,0.0235367,-0.00587463,0.0422668,0.0193024,-9.97986,0.0120163,0.013237,0.0124741,0.0989532,0.0112152,-0.0376129,0.014267,0.00358582
30,7,10.0097,0.000915527,-0.000762939,-2.42714,0.0535448,-0.0756734,0.0532125,0.0676134,-0.0931465,0.144098,-0.127292,-0.085317,0.00961304,0.0172424,0.0150299,0.0162506,0.0231934,-0.00209808,0.04879,0.029068,-9.97986,0.0158691,-0.0171661,0.0110626,0.0909042,0.0135803,-0.0341415,0.0188446,0.00450134
30,8,10.0097,0.000915527,-0.000610352,-2.42928,0.0535448,-0.0744527,0.0526021,0.0700548,-0.0934516,0.145013,-0.126377,-0.0856222,0.0107193,0.0146866,0.0144958,0.0135422,0.0276566,-0.00747681,0.0442505,0.0308228,-9.97986,0.0123978,-0.0112152,0.0107574,0.0885391,0.0141907,-0.0278473,0.0150299,0.00770569
30,9,10.0097,0.000610352,-0.000305176,-2.42684,0.0547655,-0.0747579,0.0532125,0.0706652,-0.0928413,0.144708,-0.125766,-0.0850118,0.00873566,0.013504,0.019455,0.00671387,0.0229645,-0.000534058,0.0382614,0.0241089,-9.97986,0.00896454,-0.00553131,0.0143814,0.0812531,0.0111389,-0.0137711,0.0159836,0.0056839
31,0,10.0097,0.000305176,-0.000610352,-2.42776,0.0547655,-0.0744527,0.054128,0.0718859,-0.0922309,0.145929,-0.125766,-0.0837911,0.0123596,0.0109482,0.0209045,0.00736237,0.0207901,-0.00240326,0.0352097,0.0223541,-9.97986,0.0102615,-0.0144577,0.0129318,0.0821686,0.0154495,-0.00808716,0.0229263,0.00480652
31,1,10.0097,0.000305176,-0.000457764,-2.42592,0.0565965,-0.0738423,0.0556539,0.0718859,-0.0916206,0.146844,-0.124241,-0.0810445,0.0112534,0.0135803,0.0183487,-0.00267029,0.02285,-0.00137329,0.0284576,0.0159073,-9.97986,0.0109863,-0.00858307,0.014801,0.0785446,0.0160599,0.00751495,0.020256,0.00457764
31,2,10.0097,0.00305176,0.000152588,-2.4247,0.0553758,-0.0741475,0.0550435,0.0706652,-0.0922309,0.145929,-0.125461,-0.0816549,0.00843048,0.0138092,0.0210953,-0.0102615,0.0241089,-0.00164032,0.0236893,0.0386429,-9.97986,0.00617981,-0.00572205,0.0101089,0.0727844,0.0143814,0.018425,0.0155258,0.00148773
31,3,10.0097,0.0012207,-0.000915527,-2.42501,0.0559862,-0.073232,0.0550435,0.0728014,-0.0919257,0.146844,-0.124546,-0.0816549,0.00774384,0.0101471,0.021286,-0.0147629,0.0216293,-0.00495911,0.0252914,0.0669098,-9.97986,0.00904083,-0.00343323,0.0113678,0.0605774,0.00705719,0.0244904,0.0185776,0.00087738
31,4,10.0097,-0.0012207,-0.000915527,-2.42348,0.0565965,-0.0735371,0.0550435,0.072191,-0.0919257,0.146234,-0.124241,-0.0804342,0.00709534,0.00900269,0.0236893,-0.0143433,0.0265503,-0.00823975,0.0202942,0.074501,-9.97986,0.00694275,-0.00396729,0.0112152,0.0541306,0.0152969,0.0222778,0.0162506,0.00431061
31,5,10.0097,0.000610352,-0.000152588,-2.42501,0.0562914,-0.0735371,0.0547383,0.0706652,-0.0910102,0.145929,-0.124241,-0.0810445,0.00427246,0.00965118,0.0282288,-0.012207,0.0305939,-0.00461578,0.0196457,0.0727463,-9.97986,0.0112534,-0.00835419,0.0112534,0.0513077,0.0102997,0.0215149,0.0170898,0.00419617
31,6,10.0097,0.0012207,-0.00183105,-2.42592,0.0562914,-0.0738423,0.0529073,0.0453356,-0.095893,0.145318,-0.126682,-0.0816549,0.00282288,0.0128937,0.0255585,-0.0165558,0.0257111,-0.00511169,0.0200272,0.117531,-9.97986,0.0087738,-0.00347137,0.011673,0.0469589,0.0118637,0.0226974,0.0197601,0.000457764
31,7,8.77065,0,-0.000915527,-2.42531,0.0553758,-0.0741475,0.0550435,0.0450304,-0.0931465,0.147149,-0.126682,-0.0825704,0.00679016,0.0153351,0.0249481,-0.0235748,0.0311279,-0.00724792,0.0246811,0.15316,-9.97986,0.00400543,-0.00358582,0.00984192,0.0416565,0.00724792,0.0125122,0.0168991,0.000228882
31,8,7.51119,-0.00244141,-0.000762939,-2.42531,0.0553758,-0.0741475,0.0544332,0.054796,-0.0931465,0.147149,-0.124851,-0.0825704,0.0126648,0.0124359,0.0350571,-0.0378036,0.0337982,-0.00457764,0.0262451,0.120201,-9.97986,0.00598907,0.00434875,0.0104141,0.0426865,0.0132751,0.00816345,0.0206375,0.00522614
31,9,7.32717,-0.000610352,-0.00106812,-2.42653,0.0553758,-0.075063,0.0556539,0.0633409,-0.0931465,0.145624,-0.126072,-0.0828756,0.0141525,0.0203323,0.0340271,-0.0267792,0.033226,-0.0123978,0.0223923,0.0511169,-9.97986,0.00183105,-0.00160217,0.0115967,0.0334549,0.0108719,7.62939e-005,0.0198364,0.00156403
32,0,7.58473,0.000305176,0.000305176,-2.42592,0.0550706,-0.0738423,0.0532125,0.0712755,-0.0913154,0.145624,-0.125156,-0.0834859,0.00801086,0.018425,0.0349808,-0.0151825,0.0317764,-0.0101471,0.0233459,0.0102997,-9.97986,0.000801086,-0.00114441,0.0082016,0.0288773,0.0141144,-0.00232697,0.0167084,0.00152588
32,1,9.26106,0.00183105,0.000152588,-2.42562,0.0547655,-0.0744527,0.0553487,0.0917223,-0.0910102,0.145013,-0.123935,-0.0844015,0.0160599,0.0215149,0.0370789,-0.0234222,0.0269699,-0.00434875,0.016861,0.0407791,-9.97986,-0.00278473,-0.00198364,0.00858307,0.0201797,0.0156021,0.00270844,0.020256,0.00202179
32,2,10.0097,0,0.00167847,-2.42867,0.0547655,-0.0768941,0.0544332,0.0944689,-0.0937568,0.144098,-0.125766,-0.085317,0.0112152,0.0265121,0.0370789,-0.0194931,0.0279617,-0.00682831,0.0222397,0.0593948,-9.97986,-0.0125885,-0.00656128,0.0109482,0.0150299,0.0143433,-0.00125885,0.0183105,0.000457764
32,3,10.0097,-0.000305176,-0.000152588,-2.42867,0.0535448,-0.0759786,0.0516866,0.0779894,-0.0961982,0.144708,-0.127598,-0.0859274,0.0157547,0.0279236,0.0434494,0.0247574,0.0291061,-0.00331879,0.0227356,-0.0123596,-9.97986,-0.0146484,-0.00217438,0.00953674,0.00549316,0.0120926,-0.00679016,0.0176239,-0.000114441
32,4,10.0097,-0.000610352,-0.000915527,-2.42592,0.0538499,-0.0768941,0.0526021,0.072191,-0.0943672,0.143487,-0.126682,-0.0868429,0.0132751,0.0252533,0.0434875,0.0491333,0.0247192,-0.00431061,0.0241852,-0.0508118,-9.97986,-0.0145721,0.000343323,0.00995636,-0.00457764,0.0174332,-0.0088501,0.0194931,-0.00175476
32,5,10.0097,-0.0012207,-0.000610352,-2.42959,0.050493,-0.0759786,0.0532125,0.0706652,-0.0955879,0.143487,-0.128208,-0.0868429,0.0069046,0.0253677,0.0428009,0.0299835,0.0270844,-0.00640869,0.0210571,-0.0803757,-9.97986,-0.00980377,-0.00648499,0.013504,-0.0156784,0.0144196,-0.0121307,0.0201416,0.000610352
32,6,10.0097,0.000610352,-0.00152588,-2.42898,0.0541551,-0.075063,0.0529073,0.0679186,-0.0961982,0.143487,-0.127903,-0.0877584,0.00450134,0.0248718,0.0379181,0.0130463,0.0231552,0.000228882,0.0195313,-0.0783539,-9.97986,0.000495911,-0.00602722,0.00389099,-0.0294113,0.0125122,-0.0178146,0.0230408,-0.000953674
32,7,10.0097,0.00213623,-0.0012207,-2.42959,0.0544603,-0.0759786,0.0522969,0.0709703,-0.094062,0.144098,-0.126682,-0.0865377,0.000762939,0.0217056,0.0321579,0.0231171,0.0294876,0.000495911,0.0178909,-0.0284195,-9.97986,0.0101852,-0.00289917,0.0113297,-0.0413132,0.0127029,-0.0151062,0.0181961,-0.00339508
32,8,10.0097,-0.000305176,-0.000915527,-2.42776,0.0498827,-0.0747579,0.0529073,0.0691393,-0.0931465,0.143182,-0.127598,-0.0850118,0.00110626,0.0175476,0.0240326,0.0266266,0.0317764,-0.00202179,0.0250244,-0.0563431,-9.97986,0.0222778,0.00171661,0.00865936,-0.0494385,0.0138855,-0.0140381,0.0178909,-0.00144958
32,9,10.0097,0.000915527,-0.000610352,-2.42745,0.0544603,-0.0744527,0.0538228,0.0700548,-0.0946723,0.145318,-0.126072,-0.0844015,0.00705719,0.0182724,0.0127029,0.0240707,0.0301361,0.00240326,0.0229263,-0.0826645,-9.97986,0.0328827,0.000724792,0.00778198,-0.0557709,0.0144577,-0.0141907,0.0211334,-0.0044632
33,0,10.0097,0.000305176,-0.000915527,-2.42928,0.0550706,-0.075063,0.0529073,0.0706652,-0.0931465,0.145624,-0.125766,-0.0847066,0.0050354,0.0230789,0.0144958,0.0207138,0.0310135,0.00656128,0.0250244,-0.0566101,-9.97986,0.0387955,0.00858307,0.00724792,-0.0638962,0.0177002,-0.0146103,0.0181961,-0.00171661
33,1,10.0097,0.000305176,-0.000610352,-2.42562,0.0569017,-0.0738423,0.0535176,0.0706652,-0.0916206,0.145929,-0.124546,-0.0831808,0.00686646,0.020752,0.00545502,0.015831,0.0283051,0.00774384,0.0186539,-0.0502014,-9.97986,0.0399399,0.000801086,0.0105667,-0.0680923,0.0144958,-0.00587463,0.0195313,-0.000724792
33,2,10.0097,0.0012207,0.000152588,-2.42562,0.0565965,-0.0729268,0.0553487,0.0694445,-0.0931465,0.145624,-0.125156,-0.0813497,0.00984192,0.0257492,0.00328064,0.0165558,0.0313187,0.0101471,0.0154114,-0.0484085,-9.97986,0.0399399,-0.00694275,0.011673,-0.068779,0.0182724,-0.0121689,0.0214386,0.0031662
33,3,10.0097,0.000305176,0.000457764,-2.42531,0.0565965,-0.0738423,0.0550435,0.0706652,-0.0913154,0.146844,-0.124546,-0.0813497,0.0139236,0.0286484,0.0075531,0.0157166,0.0299072,0.0112915,0.0125122,-0.0263977,-9.97986,0.0342178,-0.00720978,0.0112152,-0.0651169,0.0178909,-0.0137711,0.0196457,0.00442505
33,4,10.0097,0.000915527,-0.000152588,-2.42501,0.0565965,-0.0744527,0.0547383,0.0709703,-0.0922309,0.146234,-0.12363,-0.0804342,0.0185394,0.0299454,0.00827789,0.017128,0.0307465,0.0128937,0.00804901,-0.0111008,-9.97986,0.0359726,0.00743866,0.00827789,-0.0606918,0.0170135,-0.0138474,0.0200272,0.00183105
33,5,10.0097,0.000915527,0.000457764,-2.4247,0.0565965,-0.0729268,0.0544332,0.0715807,-0.0903999,0.147455,-0.124241,-0.0813497,0.0231934,0.0320053,0.0113678,0.0128174,0.0288391,0.0153351,0.0113678,-0.00152588,-9.97986,0.0325775,0.0273895,0.0105667,-0.0613785,0.0201797,-0.023613,0.018158,0.00419617
33,6,10.0097,0.000305176,-0.000915527,-2.42501,0.0559862,-0.073232,0.0544332,0.0465563,-0.0952827,0.145624,-0.125766,-0.0819601,0.0222015,0.029068,0.014534,0.014801,0.0284576,0.0164032,0.0135803,-0.00274658,-9.97986,0.034523,0.0292206,0.00854492,-0.0523758,0.0113297,-0.0277328,0.020752,0.00221252
33,7,8.93727,0.000915527,-0.00106812,-2.42623,0.0550706,-0.0723164,0.054128,0.0441149,-0.0934516,0.146539,-0.126377,-0.0816549,0.01194,0.0276566,0.0164032,0.0150681,0.0246048,0.0205231,0.017662,-0.00518799,-9.97986,0.0387192,0.0297928,0.0128937,-0.0525284,0.0218964,-0.0265121,0.017395,0.00312805
33,8,7.69643,0.00152588,-0.000610352,-2.42623,0.0559862,-0.0735371,0.0550435,0.054796,-0.0955879,0.145624,-0.125766,-0.0819601,0.0128555,0.025444,0.0131989,0.0167084,0.0263596,0.0191498,0.0177383,-0.00125885,-9.97986,0.0392532,0.0125122,0.00854492,-0.0477982,0.0175476,-0.0224304,0.0201035,0.00587463
33,9,7.47212,0.000610352,0,-2.42745,0.0547655,-0.075063,0.0550435,0.0639513,-0.090705,0.145624,-0.125461,-0.0819601,0.0127792,0.017128,0.014267,0.00904083,0.0279617,0.0187302,0.017395,0.00305176,-9.97986,0.0252151,-0.00118256,0.00888824,-0.0420761,0.0204086,-0.0177765,0.0180435,0.00400543
34,0,7.72145,-0.000305176,0.00106812,-2.42714,0.0553758,-0.075063,0.0547383,0.0694445,-0.0913154,0.145318,-0.125156,-0.0831808,0.0141907,0.0118256,0.0163651,0.0133133,0.0294495,0.0206375,0.0247192,0.0100327,-9.97986,0.0157547,-0.0109482,0.0143433,-0.0349808,0.0233078,-0.00606537,0.017662,0.0118256
34,1,9.3929,0.00183105,0.0012207,-2.42684,0.0550706,-0.0756734,0.0538228,0.0917223,-0.0955879,0.144098,-0.123935,-0.0831808,0.0149918,0.0182724,0.0114059,0.00789642,0.0268936,0.0184631,0.026741,0.0159836,-9.97986,0.00679016,-0.0139618,0.00934601,-0.0290298,0.0218201,-0.00114441,0.0192642,0.00549316
34,2,10.0097,0.000305176,0.00213623,-2.42959,0.0535448,-0.0771993,0.0526021,0.094774,-0.0943672,0.143792,-0.126072,-0.0859274,0.0114059,0.0151443,0.0165558,0.00930786,0.0291824,0.0251389,0.0378799,0.0193787,-9.97986,0.0088501,-0.0189972,0.0163269,-0.0217056,0.0238419,0.00431061,0.0205994,0.0062561
34,3,10.0097,0.000305176,0.00106812,-2.42898,0.0538499,-0.0756734,0.0522969,0.0798204,-0.0946723,0.144098,-0.125766,-0.0865377,0.00740051,0.00923157,0.0152206,0.00831604,0.030899,0.0203323,0.0418091,0.0183105,-9.97986,0.0144958,-0.0138092,0.012207,-0.0130844,0.0219345,0.0056839,0.0186539,0.0112534
34,4,10.0097,0.000915527,0.000305176,-2.42837,0.0538499,-0.0765889,0.0526021,0.072191,-0.0974189,0.142267,-0.127598,-0.0868429,0.00926971,0.0133896,0.0146103,0.00816345,0.0250244,0.020256,0.0392532,0.0199127,-9.97986,0.0245285,-0.0164032,0.0111008,-0.0193024,0.017395,-0.00831604,0.0152588,0.00228882
34,5,10.0097,0,0.00106812,-2.42745,0.0535448,-0.0765889,0.0516866,0.0718859,-0.0943672,0.144403,-0.126682,-0.0862325,0.00823975,0.0154114,0.014801,0.00492096,0.0237656,0.0238419,0.0340271,0.0209427,-9.97986,0.0336838,-0.00125885,0.0120926,-0.00160217,0.0238037,-0.00957489,0.0215149,0.00995636
34,6,10.0097,-0.00152588,-0.000305176,-2.42898,0.0544603,-0.0756734,0.0522969,0.0709703,-0.095893,0.143487,-0.126987,-0.0871481,0.0119781,0.0100708,0.0153732,0.00617981,0.0246048,0.0177002,0.0337601,0.0184631,-9.97986,0.0201035,-0.0115204,0.00865936,0.00167847,0.0206375,-0.0205231,0.0159454,0.00675201
34,7,10.0097,0.000915527,0.000305176,-2.42745,0.0547655,-0.0753682,0.0529073,0.0700548,-0.0931465,0.144098,-0.126987,-0.0862325,0.0166702,0.0118637,0.0201416,0.00427246,0.0276566,0.0264359,0.041008,0.0224304,-9.97986,0.0117111,-0.0209427,0.0136948,0.0107574,0.0175858,-0.0187302,0.018158,0.00919342
34,8,10.0097,0.000305176,0.000457764,-2.42745,0.0553758,-0.0753682,0.0532125,0.0688341,-0.0934516,0.144403,-0.126682,-0.0850118,0.0132751,0.0122452,0.017662,0.00606537,0.0248718,0.0304794,0.0397873,0.0301743,-9.97986,0.00835419,-0.0156403,0.0143051,0.0153351,0.0164795,-0.0173569,0.0180817,0.00839233
34,9,10.0097,-0.000610352,0.000152588,-2.42623,0.0562914,-0.0753682,0.0535176,0.07036,-0.094062,0.144403,-0.126987,-0.0847066,0.0139236,0.0119781,0.0167847,0.00617981,0.0264359,0.0272369,0.0403214,0.0276184,-9.97986,0.00686646,-0.0166321,0.0157928,0.0215912,0.0221252,-0.0107574,0.0186157,0.00984192
35,0,10.0097,0.00183105,0.000915527,-2.42531,0.0553758,-0.0756734,0.0550435,0.0700548,-0.0891792,0.144708,-0.126682,-0.0840963,0.0139236,0.0133514,0.0182343,0.000839233,0.027504,0.0234985,0.0395584,0.028801,-9.97986,0.00659943,-0.0117874,0.0121307,0.028038,0.0210953,-0.00656128,0.015831,0.0116348
35,1,10.0097,-0.000305176,0.000610352,-2.42531,0.0565965,-0.0744527,0.0538228,0.0715807,-0.0913154,0.145624,-0.125156,-0.0825704,0.0127029,0.00972748,0.018959,-0.0030899,0.0270081,0.0244904,0.0320435,0.0252151,-9.97986,0.0107956,-0.0063324,0.016098,0.0292969,0.0217056,0.00423431,0.0180817,0.0130463
35,2,10.0097,0.0012207,0.000457764,-2.42592,0.0559862,-0.0744527,0.0550435,0.0700548,-0.090705,0.148065,-0.124546,-0.0813497,0.0100708,0.0143814,0.0150299,-0.00419617,0.0259018,0.0207901,0.028038,0.0218964,-9.97986,0.00873566,-0.0104523,0.0146103,0.027771,0.019455,0.00514984,0.0145721,0.00934601
35,3,10.0097,-0.000305176,0.000915527,-2.4244,0.0572069,-0.0744527,0.0550435,0.0700548,-0.0925361,0.146844,-0.124241,-0.080129,0.0154495,0.0179672,0.0191879,-0.000648499,0.0276947,0.0259781,0.029068,0.019722,-9.97986,0.00663757,-0.0087738,0.0152206,0.0393295,0.0210953,0.00526428,0.0165939,0.00926971
35,4,10.0097,0.0012207,0,-2.42501,0.0562914,-0.073232,0.0532125,0.0718859,-0.0919257,0.145929,-0.123935,-0.0819601,0.00640869,0.0159836,0.0214005,-0.00541687,0.0226974,0.0242233,0.0299835,0.0204086,-9.97986,0.0113678,-0.00236511,0.0160217,0.0380325,0.0164413,0.00228882,0.0170898,0.0116348
35,5,10.0097,0.00152588,0.000915527,-2.42501,0.0572069,-0.0744527,0.054128,0.0706652,-0.0919257,0.146234,-0.123325,-0.0798238,0.00793457,0.0194168,0.0205612,-0.00267029,0.028038,0.0189972,0.0293732,0.0220871,-9.97986,0.00610352,-0.000114441,0.0204086,0.0416183,0.0199127,0.0019455,0.0143814,0.0120163
35,6,10.0097,0.000305176,-0.000610352,-2.42623,0.0562914,-0.0744527,0.0529073,0.0450304,-0.0968086,0.146844,-0.126377,-0.0813497,0.00961304,0.0198364,0.0206757,-0.00801086,0.0223923,0.0229263,0.0276566,0.0242996,-9.97986,0.0094223,-0.000801086,0.0169373,0.0474167,0.021019,0.00305176,0.0137329,0.0107956
35,7,8.84328,0.00152588,-0.00167847,-2.4247,0.0553758,-0.0741475,0.0550435,0.0462511,-0.0928413,0.146234,-0.125766,-0.0825704,0.00759125,0.0205994,0.0224686,-0.0168228,0.0208664,0.0218964,0.0275803,0.0254822,-9.97986,0.0109863,-0.00583649,0.0180817,0.0482559,0.0203323,-0.00228882,0.0165558,0.0115967
35,8,7.60701,-0.00213623,-0.00106812,-2.42501,0.0562914,-0.0741475,0.055959,0.0551012,-0.0922309,0.146539,-0.126377,-0.0813497,0.0113678,0.0203323,0.022583,-0.00667572,0.0241089,0.0195313,0.0312805,0.0309753,-9.97986,0.00679016,-0.0102997,0.0180435,0.048027,0.0200653,-0.00205994,0.0147629,0.0154877
35,9,7.42513,0.00183105,-0.000915527,-2.42776,0.0553758,-0.0744527,0.0538228,0.0630358,-0.0903999,0.146234,-0.126072,-0.0822652,0.00488281,0.0244141,0.0241089,0.00144958,0.0182724,0.0232315,0.0263596,0.0341034,-9.97986,0.00980377,-0.00511169,0.0185013,0.0475311,0.0234985,-0.00495911,0.0140762,0.0150299
36,0,7.64028,-0.000305176,0.000305176,-2.42623,0.0553758,-0.0738423,0.0535176,0.0712755,-0.0910102,0.145624,-0.126377,-0.0840963,0.00366211,0.022316,0.0195313,0.0031662,0.0141907,0.020256,0.0260925,0.0287628,-9.97986,0.010643,-0.0109482,0.0209045,0.0449371,0.0205612,-0.00583649,0.0146866,0.0107574
36,1,9.31813,0.000915527,0.00106812,-2.42592,0.0550706,-0.0759786,0.0544332,0.0917223,-0.0903999,0.142877,-0.123935,-0.0831808,0.0121307,0.0255966,0.0212097,0.00389099,0.0187683,0.0247574,0.0229263,0.0312042,-9.97986,0.00907898,-0.00442505,0.0197601,0.0513458,0.0205994,-0.000724792,0.0115204,0.0126648
36,2,10.0097,0.000610352,0.00183105,-2.42898,0.0535448,-0.0762837,0.0516866,0.0959947,-0.0937568,0.143487,-0.125156,-0.0862325,0.00953674,0.0238037,0.0225067,0.0112915,0.0200653,0.0207138,0.0211716,0.032196,-9.97986,0.0108337,-0.00274658,0.0225067,0.0500107,0.0238419,-0.00038147,0.0148392,0.0115204
36,3,10.0097,0.0012207,0.000152588,-2.43111,0.0532396,-0.0759786,0.0513814,0.0776842,-0.0952827,0.144403,-0.126377,-0.0871481,0.00801086,0.0256729,0.0234222,0.0214767,0.0108719,0.0243378,0.0247574,0.0317383,-9.97986,0.00938416,-0.00400543,0.0205231,0.044136,0.0230408,-0.000457764,0.0123978,0.0107574
36,4,10.0097,0.0012207,0.000305176,-2.42867,0.0547655,-0.0768941,0.0526021,0.0718859,-0.0952827,0.143792,-0.127292,-0.0862325,0.0088501,0.0256348,0.0228882,0.0151825,0.0183105,0.0228882,0.0250244,0.0317383,-9.97986,0.00953674,-0.00484467,0.0232315,0.0492477,0.0220108,0.00492096,0.0141525,0.0134277
36,5,10.0097,-0.000305176,-0.000152588,-2.42959,0.0538499,-0.0768941,0.0532125,0.0706652,-0.0961982,0.142877,-0.127292,-0.0871481,0.0069046,0.0278091,0.0185394,0.0160217,0.0133896,0.0242615,0.0225449,0.0296021,-9.97986,0.0094223,-0.00534058,0.0213242,0.0522232,0.0247955,0.00671387,0.0143051,0.0154114
36,6,10.0097,-0.00183105,-0.000457764,-2.42898,0.0535448,-0.0762837,0.0526021,0.0697496,-0.095893,0.143487,-0.126682,-0.0874532,0.00720978,0.0214386,0.0175476,0.00831604,0.0124741,0.0195694,0.0225449,0.0306702,-9.97986,0.0100708,-0.00732422,0.0203705,0.0516891,0.0195694,0.0050354,0.0121307,0.0149536
36,7,10.0097,0.000915527,-0.000305176,-2.42776,0.0538499,-0.0753682,0.0526021,0.0685289,-0.0949775,0.143182,-0.126072,-0.0859274,0.0112534,0.0244904,0.0181198,0.0151825,0.0169373,0.0224304,0.0255966,0.0242996,-9.97986,0.0112915,-0.00774384,0.0177765,0.0511932,0.021286,0.00385284,0.0125122,0.0123978
36,8,10.0097,0.000610352,0.000305176,-2.42684,0.0553758,-0.0762837,0.0526021,0.0691393,-0.0931465,0.143487,-0.126987,-0.0850118,0.0102615,0.0227737,0.0156784,0.0130081,0.0163269,0.0188446,0.0267029,0.0207138,-9.97986,0.00972748,-0.0102997,0.0212097,0.0491333,0.0227356,-0.000572205,0.0118256,0.0134277
36,9,10.0097,0,0.000152588,-2.42776,0.0544603,-0.0741475,0.0526021,0.0694445,-0.0934516,0.145624,-0.126377,-0.0850118,0.00816345,0.0246048,0.0141144,0.00839233,0.0132751,0.0223923,0.0172043,0.0289917,-9.97986,0.0030899,-0.0069809,0.0177765,0.0453568,0.0200272,0.00377655,0.0117111,0.0165939
37,0,10.0097,0.000915527,0.000457764,-2.42653,0.0559862,-0.075063,0.0526021,0.0700548,-0.0928413,0.145318,-0.126072,-0.0834859,0.00663757,0.0228119,0.0154114,0.00835419,0.0181961,0.0193024,0.0212479,0.0348282,-9.97986,0.00656128,-0.000724792,0.0176239,0.0494766,0.0164795,0.00915527,0.0137329,0.0159073
37,1,10.0097,0.00335693,0.000610352,-2.42562,0.0569017,-0.0747579,0.0556539,0.0709703,-0.0925361,0.145929,-0.124851,-0.0825704,0.00595093,0.0251007,0.0143433,0.00938416,0.0170135,0.0185013,0.0215149,0.0465012,-9.97986,0.0062561,-0.0018692,0.0215912,0.0540161,0.0244904,0.00904083,0.0196838,0.0177002
37,2,10.0097,-0.000915527,0.000152588,-2.42501,0.0562914,-0.0735371,0.0556539,0.07036,-0.0922309,0.145624,-0.124851,-0.0813497,0.00534058,0.0200272,0.0165176,0.00988007,0.0131607,0.0195694,0.0195694,0.0569916,-9.97986,0.0038147,-0.0158691,0.0158691,0.0568771,0.0180817,0.00576019,0.017128,0.0163651
37,3,10.0097,0.000610352,0.000610352,-2.42623,0.0569017,-0.0741475,0.0556539,0.0718859,-0.0913154,0.147455,-0.124241,-0.0816549,0.00473022,0.0219727,0.0172424,0.00782013,0.0123978,0.0179291,0.0138474,0.10334,-9.97986,0.00846863,-0.0108337,0.019722,0.0632095,0.0199127,0.00762939,0.0151825,0.0138474
37,4,10.0097,-0.000610352,0.000305176,-2.4244,0.0562914,-0.0741475,0.0553487,0.0706652,-0.0916206,0.14776,-0.124546,-0.0810445,0.00629425,0.0235367,0.018425,0.0146866,0.0152588,0.0201416,0.0178909,0.147705,-9.97986,0.0101471,-0.00724792,0.0153351,0.0703812,0.0161743,0.00896454,0.0170135,0.0141144
37,5,10.0097,0.000305176,0.0012207,-2.42501,0.0559862,-0.0738423,0.0544332,0.0706652,-0.0925361,0.145013,-0.124241,-0.0804342,0.00782013,0.0247955,0.0164795,0.0156784,0.0139618,0.0167465,0.0213623,0.143089,-9.97986,0.0087738,-0.00995636,0.0177002,0.0670242,0.0191498,0.0113297,0.0131607,0.018158
37,6,10.0097,0.000610352,-0.000610352,-2.42592,0.0559862,-0.0744527,0.0535176,0.0465563,-0.095893,0.147455,-0.125461,-0.0816549,0.0150681,0.0230789,0.0228119,0.0128937,0.0175858,0.018425,0.0252151,0.11631,-9.97986,0.0163651,-0.00881195,0.0170898,0.0679398,0.0189972,0.0107193,0.0173569,0.0177765
37,7,8.81673,-0.0012207,-0.00259399,-2.42562,0.0559862,-0.0741475,0.0550435,0.0459459,-0.0934516,0.147149,-0.126377,-0.0816549,0.0121307,0.0198746,0.0218201,0.0102997,0.00892639,0.0160217,0.0260544,0.0525665,-9.97986,0.00919342,-0.00644684,0.0180435,0.0640106,0.0154877,0.00980377,0.0147629,0.0154114
37,8,7.57924,-0.000915527,-0.00167847,-2.42623,0.0550706,-0.0744527,0.0544332,0.0551012,-0.0928413,0.146234,-0.126377,-0.0828756,0.0169754,0.0217438,0.0230789,0.01091,0.0120926,0.0147629,0.0251007,-0.0143814,-9.97986,0.00740051,-0.00694275,0.0136566,0.0501251,0.0151443,0.0106812,0.0157547,0.0141525
37,9,7.41414,0.000610352,-0.00137329,-2.42562,0.0562914,-0.0744527,0.0544332,0.0627306,-0.0910102,0.145624,-0.126072,-0.0831808,0.0118637,0.015564,0.022049,0.00461578,0.014534,0.0120544,0.0252533,-0.0262833,-9.97986,0.00770569,-0.00518799,0.0162125,0.0347137,0.0149155,0.00701904,0.0169754,0.015564
38,0,7.67049,0.00183105,-0.00198364,-2.42745,0.0562914,-0.0744527,0.0529073,0.0712755,-0.0910102,0.144708,-0.126987,-0.0840963,0.00778198,0.0208282,0.0235748,-0.00450134,0.0108719,0.0153351,0.0297165,-0.0175095,-9.97986,0.00396729,-0.00514984,0.0144577,0.0195313,0.0104904,0.00484467,0.0125885,0.013504
38,1,9.33858,-0.000305176,-0.000305176,-2.42653,0.0550706,-0.0756734,0.0547383,0.092943,-0.090705,0.144403,-0.123935,-0.0844015,0.0104141,0.0195313,0.0276566,-0.00850677,0.0129318,0.0127411,0.0284958,0.0384903,-9.97986,0.000572205,-0.00644684,0.0181961,0.00396729,0.00865936,0.00938416,0.0152206,0.0159454
38,2,10.0097,0.000305176,0.000457764,-2.42959,0.0538499,-0.0756734,0.0526021,0.0941637,-0.0946723,0.142572,-0.125461,-0.0868429,0.00865936,0.0196838,0.0281906,-0.0194931,0.0087738,0.0127029,0.0241852,0.0708008,-9.97986,-0.00610352,-0.00354767,0.018425,-0.0154495,0.0115204,0.0102997,0.014534,0.0131989
38,3,10.0097,-0.0012207,-0.00152588,-2.42928,0.0532396,-0.0765889,0.0516866,0.0776842,-0.0946723,0.144098,-0.126682,-0.0877584,-0.00175476,0.017128,0.0285339,-0.0315857,0.0125122,0.0119781,0.0240707,0.0450134,-9.97986,-0.016861,-0.00564575,0.0177002,-0.0395203,0.0134659,0.00133514,0.0151825,0.0165176
38,4,10.0097,-0.000915527,-0.00183105,-2.42806,0.0535448,-0.0747579,0.050771,0.0712755,-0.095893,0.142572,-0.127598,-0.0871481,0.00362396,0.0189209,0.0285721,-0.0378799,0.0122452,0.00858307,0.0165939,0.0260544,-9.97986,-0.0207901,-0.00629425,0.015564,-0.0530243,0.0133133,-0.00614166,0.0124359,0.0146866
38,5,10.0097,0.00152588,-0.00274658,-2.42898,0.0544603,-0.0747579,0.0529073,0.0712755,-0.0949775,0.142877,-0.127903,-0.0865377,0.010643,0.0170517,0.0226593,-0.0484467,0.00900269,0.0125122,0.0218964,0.0363541,-9.97986,-0.0133896,-0.00919342,0.017662,-0.0680161,0.0167465,-0.00160217,0.0196075,0.0106812
38,6,10.0097,-0.000610352,-0.00213623,-2.42989,0.0541551,-0.0759786,0.0513814,0.0688341,-0.0955879,0.142877,-0.127903,-0.0880636,0.0157547,0.0161362,0.0235367,-0.0548553,0.0119781,0.0130463,0.023613,0.049057,-9.97986,-0.0114059,-0.00724792,0.0139999,-0.083847,0.0115585,-0.00564575,0.0128555,0.0119019
38,7,10.0097,-0.00244141,-0.00167847,-2.42806,0.0544603,-0.0741475,0.0529073,0.0682238,-0.0934516,0.143182,-0.127903,-0.0865377,0.0241089,0.0180817,0.030098,-0.0538635,0.0127792,0.0117493,0.0201797,-0.00228882,-9.97986,-0.00915527,-0.0124359,0.00923157,-0.0956345,0.0125122,-0.00339508,0.0156021,0.0124359
38,8,10.0097,0.000610352,-0.000915527,-2.42806,0.0547655,-0.0756734,0.0529073,0.0697496,-0.0934516,0.145013,-0.126987,-0.0847066,0.0206757,0.0285339,0.0333786,-0.0779343,0.0152588,0.013504,0.0203323,-0.083847,-9.97986,-0.01091,-0.00343323,0.0119781,-0.096817,0.0126266,-0.00202179,0.0191498,0.0115585
38,9,10.0097,0.00152588,-0.00106812,-2.42684,0.0547655,-0.0756734,0.0529073,0.07036,-0.0943672,0.145013,-0.126987,-0.0847066,0.020752,0.0291443,0.0350952,-0.0931931,0.014534,0.0153732,0.0219345,-0.102386,-9.97986,-0.00156403,-0.00614166,0.0143051,-0.106773,0.0127029,0.00587463,0.0140762,0.00972748
39,0,10.0097,0.0012207,-0.000457764,-2.42745,0.0547655,-0.0753682,0.0538228,0.0706652,-0.0934516,0.145318,-0.125766,-0.0837911,0.0227356,0.0266647,0.031929,-0.0567627,0.0150681,0.0121689,0.0214767,-0.0802231,-9.97986,0.0189972,-0.00160217,0.0149918,-0.106316,0.0112534,0.00839233,0.0133133,0.0111008
39,1,10.0097,0.000305176,0,-2.42684,0.0559862,-0.0738423,0.054128,0.0697496,-0.0913154,0.146844,-0.125766,-0.0834859,0.0235367,0.0321579,0.0285339,0.0253296,0.0191116,0.012207,0.0269699,-0.0789642,-9.97986,0.0278854,0.0108719,0.0111389,-0.105057,0.0145721,0.0125122,0.0157166,0.0107956
39,2,10.0097,0.000610352,-0.000610352,-2.4247,0.055681,-0.0744527,0.0556539,0.0715807,-0.0928413,0.144403,-0.123935,-0.0804342,0.0180435,0.00553131,0.0256348,0.0618744,0.0195313,0.0135422,0.0231552,-0.0593567,-9.97986,0.0365448,0.0201035,0.0128174,-0.111771,0.00961304,0.0233459,0.0102234,0.00957489
39,3,10.0097,-0.000915527,0.000305176,-2.42562,0.0565965,-0.0744527,0.0550435,0.0712755,-0.0919257,0.146234,-0.124851,-0.0822652,0.00732422,0.00404358,0.0139236,0.074234,0.0149918,0.0136948,0.0177002,-0.042305,-9.97986,0.043335,0.00411987,0.00968933,-0.109596,0.0103378,0.0188828,0.0163269,0.00801086
39,4,10.0097,0.00183105,0.000305176,-2.42623,0.0562914,-0.0744527,0.0547383,0.0712755,-0.0916206,0.147149,-0.124241,-0.0813497,0.00915527,0.0173569,0.0118637,0.103302,0.0217438,0.01297,0.0202179,-0.0462723,-9.97986,0.0471115,0.00839233,0.0128937,-0.102539,0.0130844,0.0172806,0.0183868,0.0114441
39,5,10.0097,0.000915527,0.000457764,-2.42501,0.0565965,-0.0729268,0.0547383,0.0715807,-0.0913154,0.146539,-0.124546,-0.080129,0.0107574,0.0246429,0.0122833,0.111504,0.0208664,0.0117874,0.0214005,-0.00694275,-9.97986,0.0471497,0.0334167,0.0160599,-0.0987625,0.00759125,0.0149536,0.0136566,0.010376
39,6,10.0097,0.000915527,-0.000915527,-2.42623,0.0575121,-0.073232,0.0529073,0.0462511,-0.0949775,0.146234,-0.125766,-0.0816549,0.0112152,0.0356293,0.0185394,0.0965118,0.0151062,0.0115967,0.0130463,0.0338364,-9.97986,0.0436401,0.0288773,0.0116348,-0.0939941,0.00415802,0.0105667,0.0121307,0.00457764
39,7,8.82527,-0.000305176,-0.000610352,-2.4247,0.0572069,-0.0735371,0.0550435,0.0456407,-0.094062,0.145929,-0.127292,-0.0807394,0.0128174,0.0422668,0.017395,0.0849533,0.0216293,0.011673,0.0204086,0.0507736,-9.97986,0.0498199,-0.00888824,0.0131226,-0.0812912,0.011673,0.00953674,0.0196075,0.00873566
39,8,7.58199,0.000610352,-0.000152588,-2.42592,0.0569017,-0.0747579,0.0550435,0.0551012,-0.0928413,0.146234,-0.125156,-0.0813497,0.0100327,0.0445938,0.0123978,0.0757599,0.0207138,0.0152206,0.0235367,0.04879,-9.97986,0.0450897,-0.00953674,0.0094986,-0.0723267,0.00637054,-0.00205994,0.018158,0.0063324
39,9,7.36745,0,0.00183105,-2.42745,0.055681,-0.0735371,0.0538228,0.0633409,-0.0928413,0.145318,-0.126072,-0.0825704,0.0135422,0.0470352,0.0139618,0.0803375,0.016861,0.0118256,0.0178909,0.0209045,-9.97986,0.0440979,0.000152588,0.0125504,-0.0626755,0.0111008,0.00106812,0.0158691,0.00736237
40,0,7.58901,0.000915527,0.00183105,-2.42684,0.0553758,-0.0765889,0.0544332,0.072191,-0.0916206,0.146234,-0.125766,-0.0834859,0.00843048,0.0402069,0.00930786,0.0731659,0.0130081,0.0104523,0.0208664,0.00289917,-9.97986,0.0432205,-0.0112152,0.0114441,-0.0496674,0.00865936,0.000152588,0.0173187,0.00522614
40,1,9.222,-0.0012207,0.00228882,-2.42714,0.0544603,-0.075063,0.0556539,0.0914171,-0.0910102,0.145624,-0.124241,-0.0831808,0.00701904,0.0359344,0.000839233,0.0629807,0.0202179,0.00873566,0.0198364,-0.0265503,-9.97986,0.0387955,0.00312805,0.0120926,-0.0299835,0.00881195,-0.00419617,0.0162506,0.00804901
40,2,10.0097,0.000610352,0.00259399,-2.42867,0.0535448,-0.0747579,0.0532125,0.0959947,-0.0931465,0.143487,-0.124241,-0.0862325,0.00576019,0.0311279,0.00385284,0.0562286,0.0102615,0.0123596,0.0138855,-0.0593185,-9.97986,0.0397491,-0.00106812,0.0125504,-0.0100708,0.00583649,-0.00133514,0.0187683,0.00858307
40,3,10.0097,0.000610352,0.00183105,-2.42989,0.0544603,-0.0787251,0.0516866,0.0782946,-0.0949775,0.143182,-0.127292,-0.0868429,0.00801086,0.0302505,-0.0025177,0.0477219,0.00988007,0.0122452,0.0190735,-0.0522995,-9.97986,0.0334549,-0.0234222,0.00846863,0.00495911,0.00988007,-7.62939e-005,0.0147247,0.00450134
40,4,10.0097,0.00305176,0.0012207,-2.42928,0.0544603,-0.0747579,0.0529073,0.0718859,-0.095893,0.143792,-0.126987,-0.0865377,0.0149536,0.0269699,-0.00419617,0.0436783,0.00923157,0.013504,0.0145721,-0.0309753,-9.97986,0.034256,-0.0374985,0.0122833,0.0224686,0.0106049,0.00656128,0.0168991,0.00804901
40,5,10.0097,0.00183105,0.000762939,-2.42898,0.0535448,-0.0759786,0.0526021,0.0709703,-0.0943672,0.142877,-0.127903,-0.0859274,0.013504,0.0211334,-0.00537872,0.0381851,0.0118256,0.0125885,0.0162125,-0.0134277,-9.97986,0.0278091,-0.0342941,0.00709534,0.0455475,0.00995636,0.00377655,0.0157928,0.00587463
