
Devices
1200
,,BP Load cell - Voltage,String Length - Voltage,Clutch Active - Voltage,#7 iPecs - Voltage,,,,,,,,,EMG 1-8 Left - Voltage,,,,,,,,Pylon Force - Voltage,EMG 9-16 Right - Voltage,,,,,,,,
Frame,Sub Frame,BP Load Cell,String Length,From Arduino Logic,A45,A135,A225,A315,S0,S90,S180,S270,ZSum,EMG 1 Glut Max,EMG 2 Glut Med,EMG 3 Biceps Femoris Long,EMG 4 Rectus Femoris,EMG 5 Vastus Medialis,EMG 6 Tib Ant,EMG 7 Med Gas,EMG 8 Soleus,Pylon volts,EMG 9 Glut Max,EMG 10 Glut Med,EMG 11 Biceps Femoris Long,EMG 12 Rectus Femoris,EMG 13 Vastus Medialis,EMG 14 Tib Ant,EMG 15 Med Gas,EMG 16 Soleus
,,V,V,V,V,V,V,V,V,V,V,V,V,V,V,V,V,V,V,V,V,V,V,V,V,V,V,V,V,V
1,0,10.0097,0.000305176,0.000305176,-2.42653,0.0550706,-0.0771993,0.0535176,0.07036,-0.0931465,0.144098,-0.126682,-0.0850118,0.00858307,0.0197601,0.0202942,0.0131989,0.0159454,0.0273132,0.0213623,0.0142288,-9.97986,0.0157928,-0.309067,0.00900269,0.0388336,0.00118256,-0.0117493,0.0348663,0.0104141
1,1,10.0097,0.00213623,0.000457764,-2.42714,0.0553758,-0.0753682,0.0535176,0.0718859,-0.0934516,0.144098,-0.126072,-0.0828756,0.0094986,0.0204086,0.0214386,0.0126266,0.0124359,0.0242233,0.0170135,0.017662,-9.97986,0.0400925,-0.27607,0.00766754,0.0429535,0.00541687,-0.0119019,0.0309753,0.0104904
1,2,10.0097,0,0.000305176,-2.4247,0.0553758,-0.0744527,0.0538228,0.0700548,-0.0910102,0.145013,-0.125766,-0.0831808,0.0155258,0.0241852,0.0151443,0.0106812,0.018425,0.0259781,0.0228882,0.0172806,-9.97986,0.0540543,-0.24353,0.00976563,0.0410843,0.00274658,-0.0146484,0.0308228,0.00835419
1,3,10.0097,-0.00183105,0.000915527,-2.42653,0.0562914,-0.0747579,0.0538228,0.0663927,-0.0916206,0.146844,-0.124851,-0.0819601,0.0144196,0.0192642,0.0177765,0.0075531,0.0191116,0.0251007,0.0157547,0.00843048,-9.97986,0.0444412,-0.216789,0.0126266,0.0458145,0.00205994,-0.0164795,0.0313568,0.00709534
1,4,10.0097,0.000305176,0.000305176,-2.42684,0.0562914,-0.0738423,0.0544332,0.0706652,-0.0916206,0.148065,-0.123935,-0.080129,0.0260544,0.0233459,0.019722,0.0139236,0.0174332,0.0260925,0.015831,0.00862122,-9.97986,0.0220871,-0.189018,0.0117874,0.0458908,0.00202179,-0.0169373,0.0287247,0.0082016
1,5,10.0097,0.00183105,0.000305176,-2.42592,0.0565965,-0.0744527,0.0544332,0.0709703,-0.090705,0.148065,-0.124241,-0.0807394,0.0219727,0.0172424,0.0175476,0.0122452,0.0175095,0.0247955,0.0156403,0.0136185,-9.97986,0.0125504,-0.170403,0.00926971,0.0451279,0,-0.0216293,0.032196,0.00743866
1,6,10.0097,0,0.000610352,-2.4247,0.0569017,-0.0741475,0.0556539,0.0688341,-0.0910102,0.147455,-0.12302,-0.0804342,0.0212479,0.0195694,0.019989,0.00835419,0.0153732,0.0288391,0.0151443,0.00240326,-9.97986,0.00812531,-0.141754,0.0139999,0.0436783,0.00137329,-0.0227356,0.0317383,0.00907898
1,7,10.0097,0.0012207,-0.000305176,-2.42562,0.055681,-0.0741475,0.054128,0.0505236,-0.0943672,0.147149,-0.126377,-0.0831808,0.0173569,0.0180435,0.0170898,0.01194,0.0157166,0.0278091,0.017662,0.0114441,-9.97986,0.00968933,-0.123634,0.0120163,0.0456238,-0.00228882,-0.0263977,0.0348663,0.00385284
1,8,9.20186,0,-0.00167847,-2.42653,0.0559862,-0.0741475,0.0550435,0.0453356,-0.0949775,0.14837,-0.126377,-0.0804342,0.0131989,0.0211334,0.0212479,0.0114822,0.0145721,0.0287628,0.0165176,0.0108719,-9.97986,0.0117874,-0.103607,0.00858307,0.0463867,0.00110626,-0.0239563,0.0382996,0.00522614
1,9,7.97627,0.0012207,-0.000915527,-2.42653,0.055681,-0.073232,0.054128,0.052965,-0.0931465,0.145929,-0.126987,-0.0825704,0.00843048,0.0194931,0.019722,0.0137711,0.0195694,0.0230408,0.0141525,0.013504,-9.97986,0.00930786,-0.0788498,0.013237,0.0401306,0.00488281,-0.0224686,0.0427246,0.00427246
2,0,7.636,0,0.000305176,-2.42714,0.0562914,-0.0747579,0.0550435,0.0639513,-0.0916206,0.146234,-0.126377,-0.0831808,0.0018692,0.0198364,0.0217819,0.0127411,0.0170517,0.0244522,0.0170898,0.0146103,-9.97986,0.00301361,-0.0656891,0.0111389,0.0413132,-0.00148773,-0.0198364,0.0463104,0.00324249
2,1,7.79897,-0.000305176,0.000152588,-2.42684,0.0544603,-0.0747579,0.0550435,0.0682238,-0.0925361,0.145624,-0.125156,-0.0828756,-0.00587463,0.0188065,0.0157547,0.0149155,0.0196838,0.0207138,0.0157166,0.0146484,-9.97986,-0.000495911,-0.0452423,0.00968933,0.0434494,0.001297,-0.0193024,0.0480652,0.00648499
2,2,9.34651,0,0.0012207,-2.42745,0.0541551,-0.0753682,0.0535176,0.0908068,-0.0913154,0.145013,-0.125156,-0.0834859,-0.0155258,0.0170135,0.0185776,0.0152588,0.0153351,0.0247955,0.0102615,0.0159073,-9.97986,-0.00469208,-0.0315094,0.0069046,0.0435638,0.000839233,-0.0172043,0.0521088,0.00358582
2,3,10.0097,0.00152588,0.00274658,-2.42837,0.0535448,-0.0771993,0.0522969,0.0962999,-0.0922309,0.143792,-0.125766,-0.0859274,-0.0208282,0.0228119,0.0175858,0.0133514,0.0180435,0.0226593,0.0141144,0.0159454,-9.97986,-0.00747681,-0.019455,0.0150299,0.0435257,0.00606537,-0.0164413,0.0552368,0.00278473
2,4,10.0097,0.000610352,0.00137329,-2.42959,0.0538499,-0.0759786,0.0519917,0.0782946,-0.0949775,0.143487,-0.126377,-0.0865377,-0.0143051,0.0175476,0.0160599,0.0117493,0.0160599,0.0217819,0.0132751,0.0146484,-9.97986,0.00110626,-0.00423431,0.0151825,0.0428772,0.00274658,-0.0183868,0.0569916,0.00293732
2,5,10.0097,0.000915527,-0.000305176,-2.42959,0.0553758,-0.0756734,0.0516866,0.0746324,-0.0943672,0.143182,-0.127292,-0.0874532,-0.01194,0.020256,0.0125885,0.0112152,0.0189209,0.0213242,0.0146103,0.0150681,-9.97986,0.0107574,0.0120544,0.0123596,0.0405502,0.000839233,-0.0131989,0.0579834,0.000610352
2,6,10.0097,0.000610352,0.000152588,-2.42867,0.0523241,-0.0768941,0.0526021,0.07036,-0.0946723,0.144098,-0.127598,-0.0877584,0.00572205,0.0234604,0.0228882,0.0101089,0.0179672,0.0259781,0.00968933,0.0214767,-9.97986,0.0192261,0.0252151,0.0149155,0.0416946,0.00457764,-0.0134659,0.0602341,0.00133514
2,7,10.0097,-0.000610352,-0.000305176,-2.4305,0.0544603,-0.0762837,0.0519917,0.0712755,-0.0955879,0.143792,-0.127598,-0.0868429,0.0159073,0.0219345,0.018692,0.0111771,0.0203323,0.0192642,0.0159073,0.0161743,-9.97986,0.0139999,0.0378799,0.0113678,0.0397491,0.0030899,-0.0128555,0.0621033,0.00213623
2,8,10.0097,-0.000305176,0,-2.42867,0.0544603,-0.0753682,0.0535176,0.067003,-0.0937568,0.144098,-0.126682,-0.0859274,0.0243378,0.0199509,0.0185394,0.0132751,0.0178146,0.0242996,0.0152206,0.0173187,-9.97986,0.0104904,0.0530243,0.0141144,0.0419617,0.00476837,-0.00980377,0.0627136,-0.000152588
2,9,10.0097,-0.000915527,0.000305176,-2.42776,0.0538499,-0.0756734,0.0529073,0.0682238,-0.0943672,0.143792,-0.127292,-0.0847066,0.0345612,0.0203323,0.0173187,0.0155258,0.0144196,0.0240707,0.0131607,0.0125885,-9.97986,0.0110626,0.0596237,0.0131607,0.0397491,0.00415802,-0.0141907,0.0637436,0.00190735
3,0,10.0097,0.000610352,0.000457764,-2.42745,0.0565965,-0.0747579,0.0522969,0.0697496,-0.0931465,0.145013,-0.126072,-0.0850118,0.0304794,0.0201035,0.0167465,0.0116348,0.0150681,0.0211334,0.0157166,0.0172424,-9.97986,0.00892639,0.0663757,0.0161743,0.0403595,0.00247955,-0.0164413,0.0642014,-0.00270844
3,1,10.0097,0.0012207,0.000305176,-2.42684,0.0544603,-0.0747579,0.054128,0.0691393,-0.0937568,0.145624,-0.124851,-0.0847066,0.02285,0.0253677,0.016861,0.00965118,0.0162125,0.0230408,0.0146866,0.0131607,-9.97986,0.00350952,0.0758743,0.014267,0.0419235,0.0031662,-0.0150681,0.0668335,-0.000419617
3,2,10.0097,0.00183105,0.000762939,-2.42531,0.0575121,-0.0738423,0.0544332,0.0706652,-0.0922309,0.145624,-0.125461,-0.0822652,0.00576019,0.0231552,0.016861,0.0146484,0.0167465,0.0217438,0.0125885,0.0147629,-9.97986,0.00816345,0.0802994,0.0128555,0.0427246,0.00499725,-0.0120544,0.0651932,0.00106812
3,3,10.0097,0,0,-2.42501,0.055681,-0.0735371,0.0547383,0.0697496,-0.0913154,0.146234,-0.125461,-0.0816549,-0.00179291,0.018425,0.0170135,0.00915527,0.0140381,0.0201035,0.0120163,0.0177383,-9.97986,0.00534058,0.0888443,0.0113678,0.0437927,0.0037384,-0.01091,0.0668335,-0.00236511
3,4,10.0097,0.000305176,0.000915527,-2.42501,0.0562914,-0.0741475,0.0547383,0.0697496,-0.0910102,0.145929,-0.124851,-0.0816549,-0.00152588,0.0188828,0.0223541,0.0157547,0.0140762,0.0209045,0.0165558,0.0189972,-9.97986,0.00602722,0.0951767,0.0118637,0.0418091,0.00556946,-0.0127029,0.0712585,-0.00171661
3,5,10.0097,0.000305176,0.000152588,-2.42592,0.0538499,-0.073232,0.054128,0.0715807,-0.0913154,0.147455,-0.124241,-0.0822652,-0.00766754,0.0188446,0.0173187,0.0123215,0.0157547,0.0237274,0.0143814,0.0205231,-9.97986,7.62939e-005,0.101395,0.0163651,0.0386047,0.00526428,-0.0108337,0.0786209,-0.00114441
3,6,10.0097,-0.000915527,0.000915527,-2.42379,0.0562914,-0.0735371,0.0553487,0.0715807,-0.0955879,0.146844,-0.123935,-0.0804342,-0.00133514,0.0217819,0.0151825,0.0123978,0.014534,0.0166702,0.0130081,0.0111771,-9.97986,0.00167847,0.101585,0.0152206,0.0383759,-0.00198364,-0.00919342,0.0764084,-0.00358582
3,7,10.0097,-0.000610352,0,-2.42531,0.0559862,-0.0741475,0.0535176,0.049608,-0.0955879,0.145013,-0.126987,-0.0828756,0.0157928,0.0207901,0.0215912,0.0125885,0.0181198,0.0189209,0.0147247,0.0134277,-9.97986,0.0144196,0.111771,0.0136948,0.0369263,0.0069809,-0.00747681,0.0777817,0.000724792
3,8,9.29006,0.000610352,-0.000915527,-2.42592,0.0569017,-0.0735371,0.0550435,0.0453356,-0.094062,0.145929,-0.126987,-0.0822652,0.0266647,0.0253677,0.0217056,0.0104523,0.0184631,0.016861,0.0154495,0.0128937,-9.97986,0.0270081,0.117378,0.0150299,0.0354767,0.00907898,-0.0117111,0.0760651,-0.000152588
3,9,8.03731,0.00183105,-0.000762939,-2.4247,0.0544603,-0.0741475,0.0544332,0.052965,-0.0882636,0.144708,-0.124851,-0.0819601,0.026474,0.0268936,0.0181961,0.0123215,0.0177002,0.0196075,0.0152206,0.0235748,-9.97986,0.0279236,0.119667,0.0155258,0.0378036,0.00892639,-0.0149918,0.077858,-0.00133514
4,0,7.80019,-0.000915527,0,-2.42684,0.0562914,-0.075063,0.0538228,0.0627306,-0.0916206,0.146234,-0.125461,-0.0822652,0.0200272,0.0274277,0.0242233,0.0134277,0.0208282,0.0209427,0.0164795,0.0244522,-9.97986,0.0178909,0.122337,0.0161743,0.0377655,0.00473022,-0.0138092,0.0772858,-0.00190735
4,1,8.01808,-0.0012207,0.000915527,-2.42653,0.0544603,-0.075063,0.054128,0.0697496,-0.0916206,0.146234,-0.125156,-0.0828756,0.0185776,0.0252151,0.0196457,0.00850677,0.0146103,0.0178528,0.0166321,0.0247955,-9.97986,0.0153732,0.122261,0.0123215,0.0378036,0.00839233,-0.0173187,0.0810623,0.001297
4,2,9.57936,0.000305176,0.000762939,-2.42623,0.0541551,-0.0747579,0.0550435,0.087755,-0.0894843,0.144403,-0.125156,-0.0847066,0.030098,0.0294495,0.0202179,0.0127411,0.0173569,0.0221634,0.0163269,0.022583,-9.97986,0.00682831,0.123711,0.0146103,0.0354767,0.0114822,-0.018158,0.0805283,-0.00171661
4,3,10.0097,-0.000915527,0.00183105,-2.42806,0.0538499,-0.0759786,0.0535176,0.092943,-0.0937568,0.143487,-0.126072,-0.0871481,0.0312805,0.0304794,0.0259399,0.0135422,0.0212097,0.015831,0.017662,0.0233078,-9.97986,-0.00484467,0.129166,0.0125122,0.0350189,0.00682831,-0.0108719,0.0749588,0.0030899
4,4,10.0097,0,0.000915527,-2.4305,0.0569017,-0.0756734,0.0522969,0.077379,-0.0946723,0.142572,-0.126682,-0.0862325,0.0296783,0.0304031,0.0279236,0.0124359,0.0155258,0.019722,0.0147629,0.0196457,-9.97986,-0.000839233,0.124207,0.0175858,0.0363159,0.00614166,-0.0155258,0.0692749,-0.000762939
4,5,10.0097,0.000915527,0.000152588,-2.42898,0.0529344,-0.075063,0.0526021,0.0718859,-0.09925,0.145013,-0.127292,-0.0871481,0.0248718,0.0372696,0.0297546,0.0133133,0.0163651,0.0191879,0.0152206,0.0112915,-9.97986,0.00766754,0.129013,0.0191116,0.0370789,0.00526428,-0.0133514,0.0697327,0.000724792
4,6,10.0097,-0.000610352,-0.000305176,-2.43081,0.0529344,-0.0759786,0.0513814,0.0700548,-0.0955879,0.143182,-0.127598,-0.0874532,0.0104904,0.038147,0.0322723,0.0183487,0.0207901,0.0149918,0.020752,0.000991821,-9.97986,0.00976563,0.123634,0.020256,0.0328064,0.00675201,-0.0112152,0.0621033,-0.000267029
4,7,10.0097,0.00152588,0.000152588,-2.42928,0.0565965,-0.0756734,0.0519917,0.0697496,-0.0943672,0.142572,-0.127598,-0.0868429,-0.00747681,0.0357819,0.0323868,0.0169754,0.0188446,0.0144196,0.0178146,0.00289917,-9.97986,0.017662,0.128822,0.0242615,0.0337982,0.00743866,-0.01297,0.0580215,0.000457764
4,8,10.0097,-0.000305176,-0.000762939,-2.42867,0.0538499,-0.0747579,0.0535176,0.0685289,-0.0949775,0.143487,-0.127598,-0.0862325,-0.0120163,0.0342178,0.0330734,0.017128,0.0183868,0.0153351,0.0177383,0.00087738,-9.97986,0.00751495,0.128098,0.0228882,0.0262833,0.00614166,-0.00751495,0.0506592,0.00495911
4,9,10.0097,0.000610352,-0.000457764,-2.42684,0.0541551,-0.0756734,0.0529073,0.0688341,-0.0946723,0.143792,-0.126072,-0.0850118,-0.0245285,0.0318146,0.0292587,0.0140762,0.0219727,0.0159073,0.016861,-0.000152588,-9.97986,0.00118256,0.123215,0.0218201,0.0191498,0.00553131,-0.0102997,0.0449371,0.00328064
5,0,10.0097,0.0012207,0,-2.42684,0.0578172,-0.0744527,0.0526021,0.0697496,-0.0934516,0.145013,-0.126072,-0.085317,-0.0311661,0.0272369,0.0250626,0.0101471,0.018425,0.0194168,0.0167084,0.00556946,-9.97986,-0.00484467,0.12207,0.0238419,0.022316,0.00164032,-0.0117874,0.0357056,0.00442505
5,1,10.0097,-0.0012207,0.000610352,-2.42745,0.0541551,-0.0747579,0.0535176,0.0697496,-0.0952827,0.144708,-0.126072,-0.0837911,-0.0107956,0.0263596,0.0243378,0.0168991,0.0211334,0.019722,0.017128,0.00919342,-9.97986,-0.00930786,0.118523,0.0234985,0.0229263,0.0115204,-0.00991821,0.0286865,0.00453949
5,2,10.0097,0.000610352,0.000457764,-2.42531,0.0547655,-0.0747579,0.054128,0.0700548,-0.0919257,0.144403,-0.125156,-0.0828756,-0.00118256,0.0249863,0.0267029,0.0128937,0.0217438,0.0180817,0.0168991,0.0167847,-9.97986,-0.00686646,0.118561,0.0224304,0.0205231,0.00854492,-0.00740051,0.0243378,0.00766754
5,3,10.0097,-0.00183105,0.000610352,-2.42531,0.0553758,-0.0738423,0.054128,0.0712755,-0.0922309,0.146844,-0.124546,-0.0813497,0.00205994,0.0243759,0.0234985,0.0116348,0.0257874,0.0175858,0.0196838,0.014801,-9.97986,0.00370026,0.116463,0.0218582,0.0166702,0.00679016,-0.00408173,0.0203705,0.00556946
5,4,10.0097,0.000610352,0,-2.4244,0.0565965,-0.0744527,0.054128,0.07036,-0.0873481,0.146844,-0.124851,-0.0813497,0.00751495,0.020256,0.0181198,0.00736237,0.0199509,0.0154495,0.0236893,0.0129318,-9.97986,0.0191498,0.113182,0.0260162,0.0120163,0.00259399,-0.00324249,0.0161362,0.00606537
5,5,10.0097,0.000305176,0.000152588,-2.42562,0.055681,-0.075063,0.0544332,0.0718859,-0.0925361,0.146234,-0.12363,-0.0810445,0.0131226,0.0199127,0.0214767,0.01091,0.0233078,0.0167847,0.0236511,0.0185776,-9.97986,0.0106049,0.114594,0.0172806,0.00808716,0.00934601,0.000343323,0.0156403,0.00717163
5,6,10.0097,0.00152588,0.000152588,-2.42501,0.0526292,-0.0738423,0.0550435,0.0706652,-0.0913154,0.14837,-0.124241,-0.0804342,0.00770569,0.0249481,0.0195694,0.0146866,0.0209808,0.01091,0.0247955,0.0115585,-9.97986,-0.000495911,0.11055,0.0140381,0.00747681,0.00865936,-0.000457764,0.00514984,0.00919342
5,7,10.0097,0.000305176,-0.000152588,-2.42531,0.0553758,-0.0744527,0.0532125,0.0493029,-0.0961982,0.146234,-0.125156,-0.0816549,-0.00621796,0.0274277,0.0194168,0.00911713,0.0215149,0.0156021,0.0239182,0.0100327,-9.97986,-0.000686646,0.107384,0.0110626,0.00659943,0.00770569,-0.00343323,0.00694275,0.00759125
5,8,9.3044,-0.000610352,-0.00167847,-2.42592,0.0572069,-0.0738423,0.0535176,0.0459459,-0.0937568,0.147149,-0.126682,-0.0822652,-0.0104904,0.0192642,0.0143433,0.0102997,0.0219345,0.0155258,0.0240326,0.0157166,-9.97986,0.00804901,0.110283,0.00259399,0.00846863,0.00923157,-0.00244141,0.00640869,0.00579834
5,9,8.05715,-0.0012207,-0.000915527,-2.42501,0.0511034,-0.0744527,0.0532125,0.0544908,-0.0931465,0.145929,-0.125156,-0.0822652,-0.00431061,0.0247192,0.0109482,0.00701904,0.0244904,0.0069809,0.021553,0.016861,-9.97986,0.0163269,0.103416,-0.000762939,0.00808716,0.00709534,-0.000572205,0.00564575,0.00522614
6,0,7.76296,0.000610352,0,-2.42623,0.0559862,-0.0738423,0.0538228,0.0642565,-0.0897895,0.145624,-0.125766,-0.0822652,0.00793457,0.0208282,0.016861,0.00595093,0.02388,0.0141144,0.0233841,0.0233841,-9.97986,0.0374222,0.104027,-0.00400543,0.0106049,0.0122833,0.00328064,0.00907898,0.00862122
6,1,7.96559,0,0.00106812,-2.42745,0.0572069,-0.075063,0.0532125,0.07036,-0.0928413,0.146234,-0.124851,-0.0825704,0.0204468,0.0248718,0.014534,0.0112152,0.0229645,0.0125504,0.0220108,0.0115204,-9.97986,0.0536346,0.0962067,-0.0147629,0.00770569,0.00865936,0.0030899,0.00717163,0.00804901
6,2,9.52077,0.00183105,0.00152588,-2.42684,0.0547655,-0.0744527,0.054128,0.0874498,-0.090705,0.145013,-0.125766,-0.0844015,0.0274658,0.0186157,0.0149155,0.00926971,0.022316,0.0152206,0.0252151,0.0165558,-9.97986,0.061264,0.0908279,-0.017128,0.00663757,0.0107193,0.00526428,0.00926971,0.0111008
6,3,10.0097,-0.000915527,0.00198364,-2.42928,0.0526292,-0.0765889,0.0513814,0.0950792,-0.0928413,0.143792,-0.125766,-0.0856222,0.0301361,0.0190735,0.0210953,0.00671387,0.021553,0.00839233,0.0231552,0.0147629,-9.97986,0.0708389,0.0953293,-0.0268173,0.00457764,0.0107193,0.0069809,0.00988007,0.00179291
6,4,10.0097,-0.000305176,0.00152588,-2.42867,0.0532396,-0.0765889,0.0516866,0.0767687,-0.0943672,0.143487,-0.126682,-0.0868429,0.0378036,0.0191498,0.0212479,0.00888824,0.0258255,0.00659943,0.024147,0.0128174,-9.97986,0.0790787,0.087204,-0.0315475,-0.00137329,0.00679016,0.00362396,0.0102615,0.00038147
6,5,10.0097,0.000915527,0.000152588,-2.42928,0.0529344,-0.0765889,0.0513814,0.0724962,-0.0952827,0.144403,-0.127598,-0.0865377,0.0368881,0.0202942,0.0181961,0.00926971,0.0229645,0.00785828,0.0251007,0.0165939,-9.97986,0.0636673,0.0876236,-0.0341034,0.00240326,0.00717163,0.00823975,0.0144196,0.00270844
6,6,10.0097,-0.000305176,-0.000305176,-2.42898,0.0535448,-0.0762837,0.050771,0.0697496,-0.0971137,0.144098,-0.127598,-0.0877584,0.0300217,0.0229263,0.0216293,0.00938416,0.021019,0.00328064,0.0252151,0.00911713,-9.97986,0.0402832,0.0802612,-0.0338364,-0.0037384,0.00694275,0.00205994,0.0196457,-0.0037384
6,7,10.0097,0.000610352,-0.000152588,-2.42867,0.0544603,-0.0759786,0.0522969,0.0682238,-0.0949775,0.143792,-0.127598,-0.0871481,0.0186157,0.0202179,0.0166321,0.0164795,0.0217819,0.00530243,0.0228882,0.0144958,-9.97986,0.0226974,0.0795364,-0.0366592,-0.00743866,0.00705719,0.00263214,0.02388,0.00282288
6,8,10.0097,0.0012207,-0.000152588,-2.42867,0.0547655,-0.0744527,0.0529073,0.0688341,-0.0946723,0.144708,-0.128208,-0.0871481,0.0121689,0.0183487,0.0123978,0.0100708,0.0233459,0.000762939,0.0262451,0.0173569,-9.97986,0.0253296,0.0704575,-0.0417328,-0.00614166,0.00667572,0.00366211,0.0271225,0.00370026
6,9,10.0097,0.00152588,-0.000305176,-2.42776,0.0538499,-0.0756734,0.0532125,0.0694445,-0.095893,0.144403,-0.126682,-0.0859274,0.0214005,0.0231171,0.015831,0.0101852,0.0203705,0.00598907,0.0260544,0.0169373,-9.97986,0.0331879,0.065918,-0.0312805,-0.0127029,0.00679016,0.00770569,0.0347519,0.0075531
7,0,10.0097,0.0012207,-0.000457764,-2.42806,0.0538499,-0.0741475,0.054128,0.0694445,-0.0928413,0.145624,-0.126987,-0.0847066,0.0186157,0.0184631,0.0160599,0.00545502,0.0190735,0.00778198,0.0231934,0.0159454,-9.97986,0.0449753,0.0648117,-0.0243378,-0.0131226,0.0107193,0.00957489,0.0356293,0.00938416
7,1,10.0097,0.000305176,-0.000610352,-2.42653,0.0590379,-0.0741475,0.0547383,0.07036,-0.0937568,0.145013,-0.126682,-0.0837911,0.01297,0.0191879,0.0107193,0.00919342,0.0165176,0.0100708,0.0271988,0.0185013,-9.97986,0.0508881,0.0621414,-0.0248337,-0.0232697,0.00869751,0.00743866,0.0351715,0.00907898
7,2,10.0097,0.00274658,-0.000610352,-2.42592,0.0578172,-0.075063,0.0544332,0.0709703,-0.090705,0.145318,-0.124851,-0.0831808,0.0124359,0.0189972,0.0133514,0.012207,0.0180435,0.0139236,0.0279999,0.0210571,-9.97986,0.0492096,0.0580215,-0.0191498,-0.0301743,0.00331879,0.0082016,0.0349045,0.0128174
7,3,10.0097,-0.000610352,-0.000457764,-2.42501,0.0559862,-0.0726216,0.054128,0.0706652,-0.0922309,0.145318,-0.124851,-0.0813497,0.0138474,0.0218964,0.0169754,0.0149536,0.0202179,0.0139236,0.0304031,0.0228119,-9.97986,0.046196,0.05867,-0.0107574,-0.033226,0.00591278,0.0131607,0.0355148,0.0146484
7,4,10.0097,0.0012207,-0.000457764,-2.4247,0.0559862,-0.073232,0.0550435,0.07036,-0.0922309,0.146539,-0.12363,-0.0807394,0.0134659,0.0182343,0.0165176,0.00736237,0.0136566,0.0106049,0.0276566,0.0196838,-9.97986,0.0288391,0.0527191,-0.0131607,-0.0430298,0.00198364,0.0094986,0.0267792,0.00892639
7,5,10.0097,0.000610352,0.000762939,-2.42562,0.0565965,-0.0738423,0.0550435,0.0706652,-0.0925361,0.146234,-0.125156,-0.0819601,0.0140381,0.0210953,0.0224304,0.0152969,0.0191116,0.0146484,0.0291443,0.018959,-9.97986,0.029335,0.0470734,-0.00679016,-0.0469971,0.00282288,0.0133896,0.0287628,0.0139236
7,6,10.0097,0.000915527,-0.000457764,-2.4244,0.0565965,-0.0723164,0.0556539,0.07036,-0.0910102,0.146844,-0.12302,-0.0813497,0.016098,0.0202942,0.0144958,0.00907898,0.0161743,0.00926971,0.0302505,0.0208664,-9.97986,0.025177,0.0470352,-0.000534058,-0.0546265,0.00164032,0.0164795,0.0224304,0.0114822
7,7,10.0097,0.000915527,-0.0012207,-2.42745,0.0535448,-0.0735371,0.0538228,0.047777,-0.0955879,0.145318,-0.126072,-0.0819601,0.0105286,0.0238419,0.0159454,0.0166321,0.0169754,0.00797272,0.0268555,0.0183868,-9.97986,0.0188065,0.039444,0.0031662,-0.0639725,0.00358582,0.012207,0.0194931,0.0144577
7,8,9.05477,0.000610352,-0.00213623,-2.42562,0.0584276,-0.0744527,0.0547383,0.0459459,-0.0952827,0.146539,-0.125766,-0.0822652,0.0170517,0.0191498,0.0190353,0.0168228,0.0111389,0.00782013,0.0258255,0.0200272,-9.97986,0.0124741,0.0393295,0.00534058,-0.0624084,0.000991821,0.01194,0.0146103,0.0151443
7,9,7.83162,-0.0012207,-0.00152588,-2.42531,0.0553758,-0.0735371,0.054128,0.0538805,-0.0934516,0.145929,-0.126072,-0.0810445,0.0145721,0.0190735,0.0162506,0.0129318,0.0128555,0.00701904,0.0257492,0.0202942,-9.97986,0.0075531,0.0323486,0.0179672,-0.0613022,0.00267029,0.0153351,0.00911713,0.0170898
8,0,7.5594,0.000305176,-0.000152588,-2.42653,0.0538499,-0.0753682,0.0550435,0.0645616,-0.0925361,0.146539,-0.125766,-0.0822652,0.0168228,0.0230026,0.0163269,0.0147629,0.0110245,0.00728607,0.027504,0.0213242,-9.97986,0.00324249,0.0347137,0.0238037,-0.0630188,0.00167847,0.016098,-0.00442505,0.015831
8,1,7.80538,0.00152588,0,-2.42562,0.0569017,-0.0738423,0.054128,0.072191,-0.0910102,0.144708,-0.125156,-0.0834859,0.0140762,0.0196838,0.0156021,0.0100708,0.00572205,-0.00217438,0.0292206,0.0225067,-9.97986,0.00869751,0.029068,0.0300217,-0.0676727,-0.000648499,0.0165176,-0.0110626,0.0130081
8,2,9.37306,0.000610352,0.000915527,-2.42745,0.0547655,-0.0747579,0.0556539,0.0886705,-0.0919257,0.145318,-0.125461,-0.0828756,0.0144958,0.0216293,0.0189209,0.0141144,0.00663757,0.00232697,0.0337601,0.0209045,-9.97986,0.00228882,0.0223541,0.0343323,-0.0672913,0.00484467,0.0167847,-0.0222015,0.0126266
8,3,10.0097,0.0012207,0.00198364,-2.42837,0.0544603,-0.0768941,0.0532125,0.094774,-0.0925361,0.143182,-0.126682,-0.0859274,0.0139618,0.0235367,0.0205231,0.0138092,0.0094223,-0.00514984,0.0317001,0.0215912,-9.97986,0.00228882,0.027771,0.0360107,-0.0686646,0.00602722,0.0209045,-0.0317383,0.00526428
8,4,10.0097,0.00152588,0.000762939,-2.42928,0.0507982,-0.0756734,0.0522969,0.0782946,-0.094062,0.143487,-0.126987,-0.0868429,0.0176239,0.0272369,0.0178528,0.0115585,0.00782013,-0.00480652,0.0331879,0.0255203,-9.97986,-0.00236511,0.0260162,0.038414,-0.0688171,0.00709534,0.0168991,-0.0425339,0.00217438
8,5,10.0097,0.00244141,-0.000305176,-2.42928,0.0541551,-0.0753682,0.0516866,0.0709703,-0.0897895,0.143487,-0.127903,-0.0865377,0.00507355,0.0200272,0.0141525,0.00621796,0.00576019,-0.00644684,0.0279617,0.0257111,-9.97986,0.00152588,0.021019,0.037384,-0.074234,0.00331879,0.0164795,-0.0532532,0.00167847
8,6,10.0097,-0.000915527,-0.000152588,-2.42959,0.0526292,-0.0762837,0.0519917,0.07036,-0.0955879,0.143487,-0.127292,-0.0880636,0.0134659,0.0270462,0.0220871,0.0111008,0.010643,-0.00541687,0.0273514,0.0241852,-9.97986,0.00507355,0.018959,0.0513458,-0.0671768,0.00350952,0.0209427,-0.0602722,-0.000114441
8,7,10.0097,0.000915527,-0.000152588,-2.4305,0.0517137,-0.0762837,0.0522969,0.0694445,-0.0949775,0.141961,-0.127903,-0.0871481,0.01297,0.0248718,0.0181198,0.00881195,0.00610352,-0.00331879,0.0284576,0.0206757,-9.97986,0.00114441,0.018158,0.0535965,-0.0661469,0.00808716,0.019989,-0.0705719,-0.00198364
8,8,10.0097,-0.000915527,-0.000305176,-2.4305,0.0532396,-0.0747579,0.0529073,0.0697496,-0.0894843,0.143487,-0.126987,-0.0859274,0.0117493,0.0252151,0.0191116,0.00869751,0.00816345,-0.00221252,0.0280762,0.0180054,-9.97986,0.00804901,0.0159454,0.0629044,-0.0651169,0.0087738,0.0226212,-0.0840759,0.000534058
8,9,10.0097,0.000915527,0.000457764,-2.42928,0.0526292,-0.0738423,0.0535176,0.0682238,-0.0946723,0.143792,-0.126377,-0.0844015,0.0131607,0.0299454,0.0192261,0.00892639,0.00930786,-0.0019455,0.0266266,0.0227737,-9.97986,0.00911713,0.0139618,0.0706863,-0.0600815,0.00549316,0.0247955,-0.0945663,-0.000953674
9,0,10.0097,0.000610352,0.000915527,-2.42776,0.0544603,-0.0756734,0.0526021,0.0688341,-0.0952827,0.144098,-0.126072,-0.0834859,0.0111771,0.0271225,0.0172806,0.00869751,0.00244141,0.0019455,0.0289536,0.0226974,-9.97986,0.0135422,0.0087738,0.0682068,-0.0548553,0.00736237,0.0229263,-0.10746,-0.0031662
9,1,10.0097,0.000915527,0.000915527,-2.42714,0.0550706,-0.0765889,0.054128,0.0694445,-0.0961982,0.145929,-0.126072,-0.0831808,0.0124741,0.0207138,0.0205231,0.00873566,0.00469208,3.8147e-005,0.0238037,0.0217056,-9.97986,0.00911713,0.00617981,0.0711823,-0.0486755,0.00610352,0.0252533,-0.114136,-0.00133514
9,2,10.0097,0.00244141,0.000762939,-2.42684,0.055681,-0.0744527,0.0544332,0.0706652,-0.0916206,0.145624,-0.124851,-0.0822652,0.0102997,0.0265503,0.0191116,0.0112915,0.00801086,0.00602722,0.0273132,0.0214767,-9.97986,0.00759125,0.00591278,0.0754547,-0.0401688,0.00717163,0.0225067,-0.12249,-0.000228882
9,3,10.0097,0.00274658,0.000305176,-2.42531,0.0559862,-0.0735371,0.0556539,0.0709703,-0.090705,0.146234,-0.124546,-0.0813497,0.0134277,0.0254822,0.0190353,0.00854492,0.0094223,0.00717163,0.0270844,0.0223541,-9.97986,0.00709534,0.00537872,0.0794983,-0.0368118,0.00869751,0.0239563,-0.13134,0.00282288
9,4,10.0097,-0.00213623,0.000915527,-2.42531,0.055681,-0.0729268,0.0553487,0.072191,-0.0894843,0.147149,-0.124241,-0.0813497,0.0117493,0.029335,0.0163651,0.00923157,0.0117874,0.00988007,0.0241852,0.025177,-9.97986,0.00919342,0.00606537,0.085907,-0.0292969,0.00930786,0.0270462,-0.137863,0.00617981
9,5,10.0097,0.0012207,0.00137329,-2.42501,0.0590379,-0.075063,0.0562642,0.0712755,-0.0897895,0.14837,-0.125156,-0.0813497,0.0115204,0.0249863,0.0188065,0.0107193,0.00911713,0.00782013,0.0266266,0.0250244,-9.97986,0.00709534,0.00450134,0.081749,-0.0160217,0.0146484,0.0230789,-0.143585,0.00686646
9,6,10.0097,-0.000610352,0.000457764,-2.4247,0.0572069,-0.0738423,0.0547383,0.0712755,-0.0910102,0.146234,-0.122715,-0.0810445,0.00862122,0.0236893,0.0208664,0.00675201,0.0115204,0.0111008,0.0300598,0.02388,-9.97986,0.00930786,-0.00114441,0.0836945,-0.0102615,0.0138855,0.02285,-0.149612,0.0056839
9,7,10.0097,0.000915527,0.000457764,-2.42531,0.0565965,-0.0735371,0.0532125,0.0493029,-0.0974189,0.145624,-0.126682,-0.0831808,0.0152588,0.0252151,0.0164413,0.0136948,0.0146484,0.0101089,0.0287628,0.0194168,-9.97986,0.0119019,-0.00183105,0.0868607,0.000495911,0.017128,0.0199509,-0.15461,0.00782013
9,8,9.21498,-0.0012207,-0.00152588,-2.4247,0.0562914,-0.0747579,0.0547383,0.0465563,-0.0925361,0.145624,-0.126682,-0.0816549,0.00846863,0.0233841,0.016098,0.00965118,0.0115204,0.0122833,0.0336456,0.0180054,-9.97986,0.00583649,-0.00770569,0.0814056,0.00518799,0.018692,0.0229263,-0.160713,0.0088501
9,9,7.99916,0.000610352,0.000152588,-2.42531,0.055681,-0.0741475,0.0556539,0.0520494,-0.0922309,0.146539,-0.126377,-0.0816549,0.013237,0.0222015,0.0166702,0.00804901,0.0132751,0.0156021,0.0321579,0.0237274,-9.97986,0.00534058,-0.00141144,0.0822449,0.0119019,0.02285,0.0178146,-0.167465,0.012207
10,0,7.68971,0.00213623,0.000457764,-2.42501,0.0553758,-0.0747579,0.0544332,0.0636461,-0.0955879,0.144708,-0.125156,-0.0825704,0.00827789,0.0244522,0.0193024,0.00869751,0.0104141,0.0152969,0.0324249,0.0164032,-9.97986,0.0150299,-0.00247955,0.0759125,0.0189209,0.0219727,0.0156403,-0.169487,0.00862122
10,1,7.86305,0.00152588,0.000762939,-2.42623,0.0553758,-0.0747579,0.0547383,0.0700548,-0.0913154,0.146539,-0.125766,-0.0831808,0.00984192,0.0250626,0.0195694,0.0120544,0.0133133,0.017128,0.0357819,0.0173187,-9.97986,0.0145721,-0.00648499,0.0751114,0.0302505,0.0287628,0.0164032,-0.172691,0.0109863
10,2,9.41823,0.000610352,0.00167847,-2.42714,0.0550706,-0.0744527,0.0547383,0.0883654,-0.0894843,0.143792,-0.125766,-0.0834859,0.00732422,0.0258255,0.0242996,0.0126266,0.00831604,0.0209427,0.0281525,0.0204849,-9.97986,0.0115967,-0.00526428,0.0792694,0.0345993,0.0248718,0.0153732,-0.178375,0.00648499
10,3,10.0097,0.000915527,0.00274658,-2.42989,0.0535448,-0.0759786,0.0529073,0.0941637,-0.0952827,0.143182,-0.124851,-0.085317,0.00858307,0.018959,0.0197601,0.0104141,0.00904083,0.0176239,0.0274277,0.0173569,-9.97986,0.0156784,-0.0109482,0.0802994,0.0410843,0.0262833,0.0147629,-0.183144,0.00911713
10,4,10.0097,-0.000305176,0.00152588,-2.42867,0.0541551,-0.0756734,0.0519917,0.0764635,-0.0949775,0.143487,-0.126682,-0.0868429,0.00823975,0.0218201,0.0213623,0.0151062,0.0118256,0.0151825,0.0318146,0.0160217,-9.97986,0.0140762,-0.00888824,0.0809097,0.0470734,0.0302505,0.0151825,-0.18631,0.0136185
10,5,10.0097,0,0.000762939,-2.42867,0.0544603,-0.0756734,0.0529073,0.0712755,-0.0961982,0.143792,-0.126072,-0.0865377,0.00720978,0.0246811,0.0227737,0.0120163,0.0122833,0.0187683,0.0279617,0.0208282,-9.97986,0.00904083,-0.0115204,0.0760269,0.0550461,0.0324249,0.0128937,-0.191002,0.0149536
10,6,10.0097,0,0.000305176,-2.42867,0.0541551,-0.0759786,0.0513814,0.0679186,-0.0949775,0.144098,-0.127292,-0.0871481,0.00766754,0.0229263,0.0219345,0.0104141,0.00976563,0.0231934,0.0244141,0.0189209,-9.97986,0.0121307,-0.016861,0.0670242,0.0682449,0.0325012,0.0110626,-0.194359,0.0144958
10,7,10.0097,-0.000305176,0.000762939,-2.42867,0.0538499,-0.0765889,0.0522969,0.0691393,-0.0961982,0.144098,-0.126682,-0.0868429,0.00854492,0.0250244,0.0237274,0.0117874,0.014267,0.0283051,0.0219345,0.0213242,-9.97986,0.0101471,-0.00724792,0.0671387,0.0779343,0.0330353,0.0113678,-0.199661,0.0132751
10,8,10.0097,0.000305176,0.000305176,-2.42806,0.0547655,-0.0753682,0.0526021,0.0688341,-0.0934516,0.143792,-0.127903,-0.0862325,0.00488281,0.0276947,0.0190735,0.0105667,0.0154495,0.0262451,0.0168991,0.0191498,-9.97986,0.0131989,-0.0134277,0.0606155,0.0855255,0.0305939,0.0115585,-0.194778,0.01194
10,9,10.0097,0.000305176,0.000457764,-2.42714,0.0547655,-0.0753682,0.0522969,0.0706652,-0.0937568,0.144403,-0.126682,-0.0847066,0.00812531,0.0248718,0.0175476,0.00816345,0.00938416,0.0226593,0.0160217,0.021019,-9.97986,0.0157547,-0.0193024,0.0590134,0.0868607,0.0363541,0.0115967,-0.198288,0.0160217
11,0,10.0097,0,-0.000152588,-2.42776,0.0547655,-0.0753682,0.0544332,0.07036,-0.0937568,0.144708,-0.124851,-0.0844015,0.00789642,0.0281525,0.0230789,0.0138092,0.0100327,0.022049,0.0245285,0.018425,-9.97986,0.0137711,-0.0101471,0.0551987,0.0921249,0.0403214,0.00686646,-0.197983,0.0149536
11,1,10.0097,0.00152588,0.000305176,-2.42745,0.055681,-0.0756734,0.0544332,0.0706652,-0.0925361,0.144708,-0.125766,-0.0840963,0.00659943,0.0234985,0.0226974,0.0138092,0.00850677,0.0187683,0.0300217,0.0233841,-9.97986,0.0123978,-0.0136566,0.0544739,0.0948715,0.044632,0.0127411,-0.192184,0.0144196
11,2,10.0097,0.00244141,0.000457764,-2.42592,0.0559862,-0.0747579,0.0535176,0.0712755,-0.0928413,0.145318,-0.124851,-0.0828756,0.0118256,0.0231552,0.018692,0.0119781,0.00926971,0.0233841,0.0305557,0.0203323,-9.97986,0.00965118,-0.017395,0.0497818,0.101891,0.0434113,0.00682831,-0.191612,0.0128555
11,3,10.0097,0.0012207,0.00106812,-2.4244,0.0538499,-0.0738423,0.0550435,0.0724962,-0.0922309,0.147149,-0.124546,-0.0819601,0.00423431,0.0238037,0.0206375,0.0137711,0.00831604,0.0288773,0.0232697,0.019722,-9.97986,0.0160217,-0.0178528,0.0453949,0.107689,0.0430679,0.00953674,-0.186272,0.0114822
11,4,10.0097,0,0.000610352,-2.4244,0.0559862,-0.0741475,0.0553487,0.0715807,-0.0919257,0.147455,-0.124546,-0.0810445,0.00823975,0.0234222,0.0255966,0.0132751,0.00766754,0.0226593,0.0282669,0.0212479,-9.97986,0.0131989,-0.0193024,0.0432587,0.102997,0.0482941,0.00576019,-0.17849,0.00778198
11,5,10.0097,0.000305176,0.000305176,-2.42653,0.0565965,-0.075063,0.0538228,0.0718859,-0.0919257,0.146539,-0.124241,-0.0810445,0.00965118,0.0255585,0.0238419,0.0135422,0.00770569,0.0253677,0.0298309,0.0185776,-9.97986,0.0143814,-0.014267,0.0310898,0.103798,0.0493622,0.001297,-0.171776,0.00740051
11,6,10.0097,0.000915527,0.000915527,-2.4244,0.0584276,-0.0741475,0.0544332,0.0706652,-0.090705,0.145624,-0.123935,-0.0798238,0.00984192,0.0253296,0.0268173,0.0124359,0.00797272,0.0199509,0.0352859,0.0150299,-9.97986,0.0151443,-0.0176239,0.0337982,0.112762,0.0511551,0.00141144,-0.160942,0.0110626
11,7,10.0097,-0.00213623,-0.000457764,-2.42531,0.0553758,-0.0735371,0.0535176,0.0505236,-0.0937568,0.146844,-0.125766,-0.0816549,0.00743866,0.0242996,0.0189972,0.0105286,0.00904083,0.0130081,0.0354004,0.0174332,-9.97986,0.0172043,-0.0172043,0.0317383,0.117264,0.0489807,0.00102997,-0.153389,0.0116348
11,8,9.24855,0,-0.00152588,-2.42684,0.0562914,-0.0744527,0.054128,0.0459459,-0.094062,0.146539,-0.125766,-0.0825704,0.00652313,0.0274658,0.0239182,0.0150299,0.0127029,0.0164032,0.0450516,0.0173569,-9.97986,0.015564,-0.0183868,0.0280762,0.112534,0.0487137,-0.00164032,-0.148087,0.0152206
11,9,8.03609,-0.000610352,-0.000610352,-2.42653,0.0565965,-0.0747579,0.0547383,0.0532701,-0.0922309,0.145624,-0.126072,-0.0822652,0.00930786,0.0256348,0.0229263,0.01194,0.012207,0.0127792,0.0376892,0.0198364,-9.97986,0.0125504,-0.0175476,0.0263596,0.112038,0.0496292,-0.00377655,-0.133591,0.0116348
12,0,7.79531,-0.000610352,-0.000457764,-2.42592,0.055681,-0.0744527,0.0538228,0.0639513,-0.0916206,0.145929,-0.125461,-0.0816549,0.00988007,0.0222015,0.0181198,0.0153351,0.0126266,0.0138092,0.0310135,0.0151443,-9.97986,0.0150681,-0.0171661,0.0193405,0.102463,0.0484467,-0.00392914,-0.126648,0.0129318
12,1,8.01381,0.00274658,-0.000610352,-2.42745,0.0547655,-0.075063,0.0538228,0.0706652,-0.0919257,0.145929,-0.126072,-0.0825704,0.0134277,0.0246048,0.0171661,0.00511169,0.015564,0.0135803,0.0315857,0.0160217,-9.97986,0.0115585,-0.0165558,0.0177765,0.103111,0.0524521,-0.00911713,-0.111771,0.0137711
12,2,9.55129,0.00152588,0.000915527,-2.42806,0.055681,-0.0747579,0.0550435,0.0883654,-0.0903999,0.144708,-0.124546,-0.0834859,0.0111008,0.0212479,0.0193405,0.0121307,0.0172043,0.0121307,0.0269699,0.0180054,-9.97986,0.0183868,-0.0183487,0.0135803,0.104866,0.04673,-0.00869751,-0.103607,0.013237
12,3,10.0097,0.000610352,0.0012207,-2.4302,0.0544603,-0.0775044,0.0519917,0.094774,-0.0928413,0.144708,-0.125461,-0.0856222,0.0133133,0.0175095,0.0174332,0.0119781,0.0139999,0.0170135,0.0214386,0.0163651,-9.97986,0.0160599,-0.0203705,0.0143433,0.0992203,0.054512,-0.00572205,-0.088768,0.0149536
12,4,10.0097,0,0.000305176,-2.42837,0.0541551,-0.0762837,0.0532125,0.0779894,-0.0952827,0.143182,-0.128208,-0.0868429,0.0124359,0.0206375,0.0244522,0.0105667,0.0126266,0.0150681,0.0202942,0.0174332,-9.97986,0.0159073,-0.0272751,0.00900269,0.0992203,0.0533676,-0.00640869,-0.0722885,0.0157928
12,5,10.0097,-0.000915527,-0.000610352,-2.42776,0.0526292,-0.0765889,0.0522969,0.0731066,-0.0955879,0.144403,-0.126987,-0.0859274,0.012207,0.0222015,0.0191498,0.0113297,0.0165558,0.0125885,0.0131989,0.0147247,-9.97986,0.0180435,-0.0202942,0.0105286,0.0976181,0.0580978,-0.00846863,-0.0597382,0.0141907
12,6,10.0097,0.000305176,-0.000610352,-2.4302,0.0547655,-0.0759786,0.0519917,0.0691393,-0.0946723,0.142267,-0.127292,-0.0880636,0.0094986,0.0200653,0.0162888,0.0103378,0.0188446,0.0136566,0.019722,0.0159073,-9.97986,0.0177002,-0.0159073,0.00293732,0.0930786,0.0553513,-0.0131607,-0.0478363,0.015831
12,7,10.0097,0.0012207,-0.000762939,-2.42898,0.0538499,-0.075063,0.0519917,0.0706652,-0.0949775,0.143487,-0.128513,-0.0883688,0.00938416,0.02388,0.0228119,0.0117874,0.0182724,0.0170898,0.0254822,0.0144196,-9.97986,0.0179672,-0.0158691,0.001297,0.0886536,0.0554657,-0.0135803,-0.0306702,0.0121307
12,8,10.0097,-0.000610352,-0.00106812,-2.42806,0.0538499,-0.0762837,0.0538228,0.0694445,-0.0946723,0.144098,-0.127598,-0.0871481,0.0123978,0.0226593,0.0217056,0.012207,0.0151062,0.0157166,0.0254059,0.0154495,-9.97986,0.014534,-0.0182343,0.00152588,0.0828934,0.0547791,-0.00953674,-0.0199509,0.00961304
12,9,10.0097,0.000915527,0.000152588,-2.42745,0.0547655,-0.0756734,0.0526021,0.07036,-0.0946723,0.143792,-0.126072,-0.0850118,0.00965118,0.019455,0.0205231,0.00915527,0.015831,0.0177002,0.0253677,0.0186157,-9.97986,0.0163651,-0.0196075,-0.00160217,0.0891876,0.0527954,-0.00686646,-0.00541687,0.00907898
13,0,10.0097,0.0012207,-0.000305176,-2.42592,0.0547655,-0.0756734,0.0538228,0.07036,-0.094062,0.144708,-0.126987,-0.0850118,0.0128555,0.0220108,0.0235367,0.0102997,0.0148392,0.0157547,0.0207138,0.0149536,-9.97986,0.0165939,-0.0178146,-0.00209808,0.0836563,0.0517654,-0.00804901,0.0124359,0.00995636
13,1,10.0097,0.000610352,-0.00137329,-2.42806,0.0565965,-0.075063,0.0538228,0.0694445,-0.0931465,0.143792,-0.126072,-0.0844015,0.01091,0.0216675,0.0182343,0.010376,0.0156021,0.0119019,0.0179672,0.0146866,-9.97986,0.0190735,-0.0212097,0.00125885,0.073967,0.0454712,-0.00839233,0.02388,0.00495911
13,2,10.0097,0.000305176,-0.000762939,-2.42592,0.0562914,-0.0735371,0.0529073,0.0700548,-0.0913154,0.146234,-0.124851,-0.0834859,0.01091,0.0207901,0.0183868,0.0170135,0.0194168,0.0117111,0.0243759,0.017395,-9.97986,0.0198746,-0.028038,-0.000724792,0.0626755,0.0423813,-0.0154877,0.0377274,0.00732422
13,3,10.0097,0.000305176,-0.000762939,-2.42562,0.0569017,-0.0741475,0.0550435,0.072191,-0.0919257,0.14776,-0.123935,-0.0819601,0.0108337,0.0191116,0.0172806,0.0117493,0.0206757,0.00858307,0.0231552,0.0138474,-9.97986,0.0194168,-0.0252533,-0.00343323,0.0558853,0.0494766,-0.0166321,0.0556183,0.00801086
13,4,10.0097,0.00152588,-0.000610352,-2.4247,0.055681,-0.0729268,0.0553487,0.0715807,-0.0910102,0.146539,-0.12363,-0.0819601,0.00789642,0.0225067,0.0141144,0.0069046,0.017662,0.00297546,0.0196457,0.0120544,-9.97986,0.0130463,-0.0241852,-0.0115967,0.0457382,0.0439453,-0.0162125,0.0634766,0.00228882
13,5,10.0097,0.000610352,-0.000915527,-2.42531,0.0562914,-0.0744527,0.0529073,0.0706652,-0.0913154,0.145624,-0.124241,-0.0816549,0.0088501,0.0268555,0.0219727,0.0111389,0.0239944,0.00808716,0.0239944,0.0136566,-9.97986,0.0184631,-0.0149536,-0.00411987,0.0395584,0.049057,-0.0130844,0.0771332,0.00202179
13,6,10.0097,0.000610352,-0.000305176,-2.4244,0.055681,-0.0735371,0.0550435,0.0718859,-0.0900947,0.147455,-0.124546,-0.080129,0.0104523,0.0247192,0.0165939,0.01091,0.0188446,0.00282288,0.0243759,0.0115204,-9.97986,0.0185394,-0.00984192,-0.00850677,0.0361252,0.0481415,-0.0125504,0.0934219,-0.000495911
13,7,10.0097,-0.000305176,-0.00106812,-2.42562,0.0559862,-0.0735371,0.0538228,0.049608,-0.095893,0.145318,-0.126377,-0.0819601,0.0118256,0.018959,0.0206375,0.00606537,0.0187683,0.00274658,0.0235367,0.016098,-9.97986,0.0176239,-0.00999451,-0.00587463,0.0300217,0.042038,-0.017395,0.10746,0.000152588
13,8,9.2632,0.00183105,-0.00183105,-2.4244,0.0562914,-0.073232,0.0553487,0.0468614,-0.094062,0.146539,-0.126072,-0.0819601,0.00827789,0.014534,0.014801,0.0126266,0.0201797,0.00202179,0.0224304,0.0106812,-9.97986,0.0178909,-0.00816345,0.000343323,0.0235367,0.0347137,-0.0182343,0.122261,0.00411987
13,9,8.02846,0.000610352,-0.00137329,-2.42714,0.0562914,-0.0738423,0.0547383,0.0551012,-0.0922309,0.146234,-0.125766,-0.0813497,0.0109482,0.0205994,0.0126266,0.0104904,0.0205612,-0.00175476,0.018158,0.0185013,-9.97986,0.0205231,-0.0188828,0.00408173,0.0206375,0.0349426,-0.012207,0.133858,0.00717163
14,0,7.77974,0,-0.0012207,-2.42562,0.0553758,-0.0747579,0.054128,0.0627306,-0.0919257,0.145013,-0.125766,-0.0825704,0.00736237,0.0183487,0.0171661,0.00762939,0.0182343,0.00282288,0.0183105,0.0150681,-9.97986,0.0163651,-0.0217438,0.00148773,0.0209427,0.0339508,-0.00827789,0.149155,0.0103378
14,1,7.98574,0.000915527,0,-2.42684,0.0550706,-0.0747579,0.0547383,0.0706652,-0.0931465,0.146234,-0.125766,-0.0825704,0.00812531,0.0164795,0.0168228,0.00957489,0.0205612,0.00171661,0.0214767,0.0122833,-9.97986,0.017395,-0.0200272,0.00556946,0.0171661,0.0322342,-0.00747681,0.159264,0.00686646
14,2,9.58821,0.000610352,0.000915527,-2.42623,0.0553758,-0.0753682,0.054128,0.0892809,-0.0897895,0.145318,-0.123935,-0.0840963,0.00919342,0.0189209,0.0181961,0.017128,0.0249481,0.00644684,0.0156403,0.0140762,-9.97986,0.018959,-0.0165558,0.00499725,0.0112152,0.0338364,-0.00648499,0.168228,0.00236511
14,3,10.0097,-0.000305176,0.00183105,-2.42837,0.0526292,-0.0759786,0.0529073,0.0935533,-0.0946723,0.144098,-0.124851,-0.085317,0.0133514,0.0197601,0.0163269,0.0151443,0.0195313,0.00812531,0.0156021,0.0135803,-9.97986,0.0178146,-0.0174713,0.00984192,0.00556946,0.0298309,-0.00362396,0.176125,0.00171661
14,4,10.0097,0.00183105,0.000305176,-2.42989,0.0532396,-0.0756734,0.0510762,0.0779894,-0.0937568,0.144708,-0.127598,-0.0865377,0.0135422,0.0146866,0.0192261,0.0101089,0.0200653,0.00667572,0.0136185,0.0157166,-9.97986,0.0194931,-0.0156403,0.00785828,0.00148773,0.0326538,-0.00576019,0.186234,-0.00102997
14,5,10.0097,-0.000305176,-0.000915527,-2.42837,0.0535448,-0.0759786,0.0513814,0.0718859,-0.0952827,0.143792,-0.126987,-0.0871481,0.00907898,0.0205994,0.0197601,0.0115204,0.0200272,0.00896454,0.00835419,0.0206757,-9.97986,0.0185394,-0.0157928,0.0115585,-0.00495911,0.0321579,-0.00167847,0.197029,-0.00331879
14,6,10.0097,0.000305176,-0.000915527,-2.4302,0.0541551,-0.0762837,0.0519917,0.0700548,-0.095893,0.143487,-0.128208,-0.0874532,0.00923157,0.0197983,0.0163269,0.00682831,0.0231934,0.00988007,0.0069809,0.01297,-9.97986,0.0156021,-0.0159836,0.0128937,-0.00747681,0.0195694,-0.00217438,0.206909,-0.00450134
14,7,10.0097,-0.00152588,-0.000915527,-2.4305,0.0544603,-0.0762837,0.0516866,0.0697496,-0.0946723,0.144708,-0.127598,-0.0865377,0.0127029,0.0209808,0.0187683,0.00972748,0.0247955,0.0140762,0.00488281,0.0161362,-9.97986,0.0210953,-0.0188446,0.0123215,-0.0108719,0.0236893,-0.00213623,0.213852,0.00213623
14,8,10.0097,0.000915527,-0.000915527,-2.42837,0.0535448,-0.0747579,0.0529073,0.0694445,-0.0946723,0.144098,-0.126682,-0.0865377,0.00823975,0.0215912,0.0207138,0.0130081,0.0183868,0.0142288,-0.000495911,0.0136566,-9.97986,0.021019,-0.0142288,0.0106049,-0.0170517,0.0223541,-0.0044632,0.220528,-0.000686646
14,9,10.0097,0.000915527,0,-2.42806,0.0550706,-0.0753682,0.0526021,0.0697496,-0.0943672,0.144708,-0.126682,-0.0856222,0.0144577,0.0233841,0.022583,0.0126648,0.022049,0.0165939,0.00411987,0.0202179,-9.97986,0.0188065,-0.0152969,0.000724792,-0.0117493,0.0218582,-0.00389099,0.228424,0.00141144
15,0,10.0097,0.000610352,-0.000305176,-2.42806,0.0544603,-0.0747579,0.0532125,0.0697496,-0.0934516,0.144098,-0.125156,-0.0840963,0.0117493,0.0225449,0.0205612,0.0149918,0.0208664,0.0166321,-0.000228882,0.0183105,-9.97986,0.0172424,-0.0134659,0.000457764,-0.0143814,0.0185776,-0.00190735,0.235558,0.00328064
15,1,10.0097,0.000610352,0.000762939,-2.42745,0.0553758,-0.0756734,0.0550435,0.0709703,-0.0937568,0.145929,-0.125156,-0.0834859,0.0133896,0.0266647,0.0155258,0.0158691,0.0229645,0.00808716,0.00324249,0.018425,-9.97986,0.0191116,-0.0112152,0.00141144,-0.00614166,0.0183105,-0.0012207,0.238571,0.00465393
15,2,10.0097,0.000305176,-0.000457764,-2.42592,0.0575121,-0.0738423,0.0553487,0.0697496,-0.0931465,0.145929,-0.125766,-0.0831808,0.0139236,0.0241852,0.018425,0.01091,0.025444,0.00461578,0.00843048,0.0162125,-9.97986,0.0231171,-0.0183487,0.0056839,-0.0142288,0.02285,-0.00450134,0.240402,0.00480652
15,3,10.0097,0.00183105,0,-2.4247,0.0565965,-0.0738423,0.0553487,0.07036,-0.0916206,0.145929,-0.124851,-0.0825704,0.00808716,0.028801,0.0164032,0.0102615,0.0175858,0.000648499,0.00740051,0.0156784,-9.97986,0.0177002,-0.0193024,0.00576019,-0.0143051,0.0221634,0,0.244293,0.00488281
15,4,10.0097,0.000305176,0.000457764,-2.42531,0.0572069,-0.0729268,0.0553487,0.0709703,-0.0913154,0.145624,-0.124851,-0.0813497,0.0163269,0.0258636,0.0148392,0.0121307,0.0216675,0.00087738,0.00980377,0.0151062,-9.97986,0.0224304,-0.0172043,0.00148773,-0.00850677,0.0187683,-0.000228882,0.246811,0.00865936
15,5,10.0097,0.00213623,-0.000610352,-2.42501,0.0578172,-0.0735371,0.0556539,0.0715807,-0.0922309,0.147149,-0.123935,-0.0822652,0.0142288,0.0217819,0.0192642,0.0134659,0.0191879,0.00232697,0.0132751,0.0180054,-9.97986,0.0216293,-0.0168228,-0.00473022,-0.00862122,0.0207138,-0.000495911,0.242958,0.00720978
15,6,10.0097,0.000610352,0.000305176,-2.42501,0.0562914,-0.0729268,0.054128,0.0718859,-0.0922309,0.147149,-0.124546,-0.0816549,0.013504,0.0251007,0.0206375,0.00965118,0.0210953,-0.00156403,0.0138855,0.0197601,-9.97986,0.0175858,-0.0190353,-0.00801086,-0.00827789,0.0180054,-0.00621796,0.24662,0.00782013
15,7,10.0097,0.000305176,-0.000610352,-2.42623,0.0565965,-0.0747579,0.0526021,0.0474718,-0.0946723,0.145318,-0.126072,-0.0825704,0.0133133,0.0266266,0.0178146,0.01194,0.0228882,-0.000686646,0.017128,0.0248718,-9.97986,0.0186539,-0.0176239,-0.0044632,-0.0124359,0.0157928,-0.00701904,0.241966,0.00114441
15,8,9.16402,0.000610352,-0.00152588,-2.42531,0.0547655,-0.073232,0.0550435,0.0462511,-0.0934516,0.145624,-0.126377,-0.0819601,0.00904083,0.0227737,0.0131989,0.0111389,0.0248718,-0.0037384,0.0136185,0.0215912,-9.97986,0.0177002,-0.0203705,-0.00900269,-0.0112152,0.0118256,-0.00793457,0.238953,-0.0175858
15,9,8.0071,-0.000610352,-0.00167847,-2.42653,0.0562914,-0.073232,0.054128,0.054796,-0.0928413,0.145929,-0.126072,-0.0816549,0.0125885,0.0168991,0.017395,0.0120544,0.0255585,-0.00335693,0.0151443,0.0234222,-9.97986,0.0189209,-0.0194931,-0.00823975,-0.00919342,0.0118637,-0.0114441,0.234642,-0.0154114
16,0,7.72634,0.000915527,-0.000457764,-2.42501,0.0550706,-0.075063,0.0553487,0.0642565,-0.0916206,0.146234,-0.125156,-0.0831808,0.0122833,0.0204849,0.0177002,0.0116348,0.0265884,-0.00576019,0.0138092,0.0194931,-9.97986,0.0163269,-0.0175476,-0.00961304,-0.0141907,0.0107956,-0.0123978,0.2285,-0.00774384
16,1,7.95827,0.000305176,0.000152588,-2.42745,0.0550706,-0.0738423,0.0535176,0.0706652,-0.0913154,0.145624,-0.124546,-0.0828756,0.0112534,0.0222015,0.0185394,0.0138855,0.0255203,-0.00114441,0.0174332,0.0228882,-9.97986,0.0159836,-0.00957489,-0.0075531,-0.0144577,0.0105286,-0.0075531,0.218124,-0.00427246
16,2,9.54488,0,0.000762939,-2.42714,0.0553758,-0.0738423,0.055959,0.0883654,-0.0910102,0.145013,-0.12302,-0.0828756,0.0135803,0.025177,0.018158,0.0133896,0.027504,-0.00671387,0.0151443,0.0218964,-9.97986,0.0149918,-0.0116348,-0.00545502,-0.0185394,0.00679016,-0.00938416,0.211296,0.00640869
16,3,10.0097,-0.000915527,0.0012207,-2.42867,0.0532396,-0.0759786,0.0538228,0.0923326,-0.0934516,0.144098,-0.125461,-0.0862325,0.00591278,0.0237656,0.0168228,0.00915527,0.0285721,-0.0069809,0.0157547,0.0218964,-9.97986,0.0114822,-0.0193024,-0.00980377,-0.0249481,0.0056839,-0.0102997,0.20504,0.0141525
16,4,10.0097,-0.0012207,0,-2.42867,0.0535448,-0.0765889,0.0513814,0.0782946,-0.095893,0.144403,-0.127598,-0.0862325,0.0149155,0.0270462,0.0210953,0.0152206,0.0279999,0.000648499,0.0115585,0.0272369,-9.97986,0.0175095,-0.014267,-0.00663757,-0.0235748,0.00457764,-0.0106049,0.194511,0.0247955
16,5,10.0097,0.0012207,-0.000610352,-2.42837,0.0541551,-0.0768941,0.0522969,0.0724962,-0.0934516,0.144098,-0.126682,-0.0865377,0.00801086,0.0257492,0.0204086,0.0158691,0.0266647,-0.00217438,0.0107193,0.0231552,-9.97986,0.0140762,-0.00961304,-0.00854492,-0.0224686,-0.00125885,-0.00549316,0.184669,0.027771
16,6,10.0097,0,-0.000610352,-2.42928,0.0538499,-0.0771993,0.0526021,0.0694445,-0.0961982,0.138604,-0.127598,-0.0874532,0.00972748,0.0247192,0.0195313,0.014534,0.027504,0.00350952,0.0117493,0.021286,-9.97986,0.0107574,-0.0179672,-0.0127411,-0.02491,-0.00270844,-0.00938416,0.1754,0.0294876
16,7,10.0097,0.00152588,-0.000915527,-2.42989,0.0544603,-0.0762837,0.0529073,0.0694445,-0.0955879,0.143487,-0.127903,-0.0868429,0.0115967,0.0284195,0.0206375,0.0111389,0.0219345,0.0044632,0.0120926,0.0151062,-9.97986,0.0101852,-0.0159454,-0.0130463,-0.0254059,0.000114441,-0.00988007,0.162735,0.0322342
16,8,10.0097,0.00183105,-0.000457764,-2.42989,0.0538499,-0.0768941,0.0538228,0.0694445,-0.0937568,0.144098,-0.127903,-0.0859274,0.0136566,0.0281906,0.0178909,0.0144196,0.0221252,0.00720978,0.0135422,0.0153732,-9.97986,0.00980377,-0.01297,-0.0140762,-0.0279236,-0.00377655,-0.00762939,0.147095,0.0296021
16,9,10.0097,-0.000915527,0.000152588,-2.42837,0.0550706,-0.0747579,0.0526021,0.0700548,-0.0949775,0.141046,-0.125461,-0.0856222,0.0141525,0.032196,0.0228882,0.0133133,0.0226974,0.0107193,0.0102615,0.0111008,-9.97986,0.0151825,-0.0143051,-0.0143051,-0.0237274,-0.00328064,-0.00457764,0.141373,0.0247955
17,0,10.0097,0.000915527,-0.000152588,-2.42776,0.0553758,-0.0753682,0.054128,0.0691393,-0.0937568,0.145013,-0.126682,-0.0834859,0.0127411,0.0484467,0.0162506,0.00965118,0.0197601,0.00770569,0.00911713,0.0107956,-9.97986,0.00511169,-0.0138855,-0.00747681,-0.0320816,-0.00858307,-0.0104141,0.126457,0.0160599
17,1,10.0097,-0.0012207,0,-2.42745,0.055681,-0.075063,0.0532125,0.0700548,-0.0937568,0.144708,-0.125766,-0.0847066,0.0100708,0.0564575,0.0216675,0.0148773,0.0245285,0.0131607,0.0104523,0.00930786,-9.97986,0.00965118,-0.0157928,-0.00518799,-0.0268173,-0.00457764,-0.00499725,0.118256,0.0133514
17,2,10.0097,0.000305176,0.000610352,-2.42562,0.0562914,-0.0747579,0.0547383,0.0712755,-0.0934516,0.150812,-0.125156,-0.0828756,0.0127792,0.0498199,0.0217056,0.00911713,0.0246429,0.00907898,0.0138092,0.0118256,-9.97986,0.00873566,-0.0104904,-0.0056076,-0.0273132,-0.00354767,-0.0069809,0.10746,0.0105286
17,3,10.0097,-0.000610352,0.000610352,-2.42531,0.0569017,-0.0735371,0.055959,0.07036,-0.0919257,0.145624,-0.125156,-0.0819601,0.0105667,0.0370407,0.0222397,0.0110245,0.0195694,0.00476837,0.00938416,0.0186539,-9.97986,0.00350952,-0.011673,-0.00171661,-0.0287247,0.00137329,-0.00865936,0.100021,0.00812531
17,4,10.0097,0.000305176,0.000457764,-2.4244,0.0569017,-0.0747579,0.054128,0.07036,-0.0919257,0.145624,-0.125766,-0.0804342,0.0154877,0.0170898,0.0184631,0.0120544,0.0181198,0.00488281,0.0111389,0.0199127,-9.97986,0.0102234,-0.0109863,0.00354767,-0.0300217,0.00553131,-0.00579834,0.0891113,0.00198364
17,5,10.0097,0.000610352,0.000457764,-2.42531,0.0562914,-0.0729268,0.0550435,0.0700548,-0.0931465,0.143487,-0.124241,-0.0807394,0.0151062,-0.00156403,0.0159073,0.00812531,0.0181198,0.00789642,0.0154495,0.018692,-9.97986,0.00831604,-0.0121307,0.00396729,-0.0273895,0.00419617,-0.00648499,0.0827789,0.00350952
17,6,10.0097,0.000915527,0.000457764,-2.4244,0.0562914,-0.0735371,0.0553487,0.0712755,-0.0916206,0.145624,-0.124546,-0.0810445,0.016861,-0.00782013,0.0146484,0.0111771,0.0186539,0.00236511,0.0153351,0.0192261,-9.97986,0.00400543,-0.01194,0.00770569,-0.0225067,0.00442505,-0.00823975,0.0753021,0.00457764
17,7,10.0097,0.000610352,0,-2.42653,0.0559862,-0.0744527,0.0529073,0.0489977,-0.094062,0.146234,-0.125766,-0.0828756,0.0161362,-0.0037384,0.00881195,0.0130844,0.0180817,0.0018692,0.0159073,0.017662,-9.97986,0.0063324,-0.0107574,0.0082016,-0.0214005,0.00442505,-0.00778198,0.0595093,-0.000457764
17,8,9.23848,0.000610352,-0.00137329,-2.4247,0.0562914,-0.0735371,0.0550435,0.0459459,-0.0922309,0.145624,-0.126377,-0.0816549,0.00846863,0.00293732,0.00480652,0.00926971,0.0178146,0.00125885,0.015831,0.0213242,-9.97986,0.000991821,-0.0138092,0.00995636,-0.022316,0.00614166,-0.00553131,0.052681,0.00347137
17,9,7.99245,-0.000305176,-0.00106812,-2.42562,0.0559862,-0.0738423,0.0535176,0.0535753,-0.0922309,0.146234,-0.126072,-0.0822652,0.00595093,0.0119781,0.0102234,0.00965118,0.022583,-0.00102997,0.0154877,0.0224686,-9.97986,0.00244141,-0.0114441,0.00770569,-0.0186539,0.00995636,-0.00850677,0.0495148,0.00347137
18,0,7.74648,0.000915527,-0.000305176,-2.42714,0.0553758,-0.0741475,0.0556539,0.0636461,-0.0913154,0.145318,-0.126072,-0.0834859,0.00419617,0.0137711,0.0134277,0.0122452,0.0178146,-0.00087738,0.0187683,0.0142288,-9.97986,-0.00179291,-0.0101852,-0.00259399,-0.0212097,0.00564575,-0.00854492,0.0357819,0.00225067
18,1,7.94667,0,0.000305176,-2.42684,0.055681,-0.0747579,0.0535176,0.07036,-0.0913154,0.145318,-0.125766,-0.0831808,-0.0025177,0.0152969,0.0147629,0.0094223,0.0218582,-0.00305176,0.0157547,0.018692,-9.97986,-0.00797272,-0.0114059,-0.00652313,-0.0236511,0.00812531,-0.0056076,0.0292587,0.00324249
18,2,9.51344,0.000915527,0.00137329,-2.42623,0.0553758,-0.0753682,0.0550435,0.0898912,-0.0913154,0.145318,-0.124546,-0.0834859,-0.00244141,0.0138092,0.00812531,0.0133514,0.0214386,-0.00328064,0.0189972,0.0181198,-9.97986,-0.00663757,-0.0109863,-0.00728607,-0.0198746,0.0122833,0.0025177,0.0252914,0.00644684
18,3,10.0097,0.000915527,0.00183105,-2.42867,0.0535448,-0.0759786,0.0538228,0.0938585,-0.0928413,0.144708,-0.126377,-0.0847066,0.00102997,0.0185776,0.0138855,0.013237,0.0258255,-0.00110626,0.0190353,0.0170517,-9.97986,-0.00953674,-0.00694275,-0.00667572,-0.0273895,0.00831604,0.00587463,0.0272369,0.00415802
18,4,10.0097,0.00183105,0.000305176,-2.42928,0.0535448,-0.0765889,0.0504659,0.0782946,-0.0946723,0.144098,-0.126682,-0.0874532,0.000495911,0.0170135,0.0144958,0.0127029,0.0249481,0.00400543,0.0179291,0.0175858,-9.97986,-0.00846863,-0.0082016,-0.0104141,-0.0203323,0.0102615,0.00770569,0.026741,0.00328064
18,5,10.0097,0,0,-2.42989,0.0538499,-0.0762837,0.0522969,0.072191,-0.0943672,0.144403,-0.127598,-0.0871481,0.00854492,0.0164795,0.0123596,0.00858307,0.021286,0.00774384,0.0164795,0.0210571,-9.97986,-0.0117493,-0.0108337,-0.0087738,-0.0177383,0.0132751,0.00873566,0.0241852,0.0030899
18,6,10.0097,0.0012207,-0.000152588,-2.42898,0.0520189,-0.0775044,0.0519917,0.0691393,-0.0952827,0.143487,-0.127903,-0.0874532,0.024147,0.0149918,0.0149536,0.00831604,0.0185776,0.000610352,0.0136185,0.02285,-9.97986,-0.0103378,-0.0120163,-0.00671387,-0.0168228,0.0111008,0.00476837,0.0117874,0.00671387
18,7,10.0097,-0.000305176,-0.000762939,-2.42989,0.0550706,-0.0753682,0.0516866,0.0688341,-0.0946723,0.143487,-0.128513,-0.0871481,0.0255203,0.0151443,0.0125122,0.0111008,0.0186539,0.00160217,0.0151062,0.0261688,-9.97986,-0.0132751,-0.0101089,0.00167847,-0.0156403,0.0149918,0.0134277,0.00419617,0.00804901
18,8,10.0097,0.000305176,0.000457764,-2.42714,0.0535448,-0.0753682,0.0526021,0.0682238,-0.0946723,0.143792,-0.127292,-0.0865377,0.0213242,0.0146484,0.0166702,0.0118256,0.0139236,0.00232697,0.0200653,0.0234985,-9.97986,-0.0149155,-0.00846863,0.00556946,-0.0178528,0.0143814,0.00888824,-0.00457764,0.00995636
18,9,10.0097,-0.000610352,-0.000457764,-2.42776,0.0547655,-0.0747579,0.0532125,0.0691393,-0.0949775,0.144098,-0.126072,-0.085317,0.0200653,0.0131607,0.0147247,0.0133896,0.0155258,0.000801086,0.017395,0.0274277,-9.97986,-0.0141525,-0.0031662,0.0130081,-0.0202942,0.0109863,0.00408173,-0.0139618,0.00740051
19,0,10.0097,0,0.000152588,-2.42653,0.0535448,-0.0756734,0.0535176,0.0697496,-0.094062,0.144708,-0.125766,-0.0840963,0.0218964,0.0163651,0.0177765,0.0127411,0.0205994,0.00244141,0.0210953,0.0303268,-9.97986,-0.0114059,-0.00461578,0.0185013,-0.0168991,0.0155258,0.00434875,-0.018158,0.00610352
19,1,10.0097,0.000305176,0.000305176,-2.42684,0.0553758,-0.075063,0.0538228,0.0697496,-0.094062,0.144403,-0.125461,-0.0840963,0.0182343,0.0164795,0.0204086,0.0149536,0.0195694,0.000343323,0.0201035,0.0252533,-9.97986,-0.0107574,-0.00221252,0.0180817,-0.0182724,0.0163651,-0.00175476,-0.0239944,0.011673
19,2,10.0097,-0.000305176,0.000762939,-2.42714,0.0562914,-0.0744527,0.054128,0.0697496,-0.0913154,0.146539,-0.126377,-0.0831808,0.0128937,0.0193787,0.0236893,0.0142288,0.0209808,0.000839233,0.0332642,0.028038,-9.97986,-0.00541687,0.00137329,0.018158,-0.0156784,0.0164413,-0.00286102,-0.0299835,0.00965118
19,3,10.0097,0.00274658,0.000457764,-2.42562,0.0569017,-0.073232,0.0544332,0.07036,-0.0916206,0.146844,-0.124241,-0.0807394,0.0140762,0.0188446,0.028038,0.0193787,0.0211716,-0.00133514,0.0312424,0.0276184,-9.97986,-0.00144958,0.000915527,0.0160217,-0.0174332,0.0126648,3.8147e-005,-0.0344467,0.0117111
19,4,10.0097,0.000610352,0.000152588,-2.42501,0.0562914,-0.0747579,0.054128,0.0712755,-0.0925361,0.147149,-0.124851,-0.0813497,0.0128937,0.02388,0.0282288,0.0128174,0.0201035,-0.0030899,0.0261688,0.0191498,-9.97986,-0.00526428,7.62939e-005,0.0123978,-0.0209808,0.00999451,-0.00343323,-0.0408173,0.00694275
19,5,10.0097,0,0.000152588,-2.42623,0.0565965,-0.073232,0.0538228,0.0712755,-0.0910102,0.147149,-0.124241,-0.0810445,0.0154877,0.0273514,0.031929,0.0170517,0.0229645,0.0044632,0.0259399,0.0222015,-9.97986,-0.00576019,0.00411987,0.0194931,-0.0146866,0.0139236,0.000190735,-0.0416946,0.00595093
19,6,10.0097,0.000305176,0.000762939,-2.42409,0.0569017,-0.0738423,0.0556539,0.0712755,-0.0903999,0.145624,-0.12363,-0.0804342,0.0136566,0.0322723,0.0376511,0.0141907,0.0238037,0.00656128,0.0210953,0.0224686,-9.97986,-0.00339508,0.0038147,0.0188065,-0.014534,0.0104141,-0.000190735,-0.046463,0.0030899
19,7,10.0097,0,-0.000457764,-2.42623,0.0569017,-0.0744527,0.0538228,0.0493029,-0.0943672,0.146844,-0.126682,-0.0825704,0.0147629,0.0346756,0.0344849,0.0144958,0.0304031,0.00175476,0.0295639,0.0169754,-9.97986,-0.00679016,0.00335693,0.0205231,-0.0154495,0.00980377,-0.00396729,-0.0465012,0.00385284
19,8,9.21529,0,-0.00137329,-2.42592,0.0572069,-0.0741475,0.0547383,0.0465563,-0.094062,0.147149,-0.126072,-0.0810445,0.0117493,0.0371552,0.0374985,0.0136566,0.0258636,0.00587463,0.0305557,0.0218964,-9.97986,-0.00759125,0.00427246,0.019989,-0.014267,0.00801086,-0.0030899,-0.0498581,0.000228882
19,9,8.04921,0.00274658,-0.000610352,-2.42623,0.0565965,-0.0744527,0.0544332,0.0554064,-0.0913154,0.147149,-0.125156,-0.0816549,0.0149536,0.0421906,0.0454712,0.0107574,0.0270462,0.00659943,0.0268936,0.02285,-9.97986,-0.00869751,0.00469208,0.0265121,-0.0102997,0.0122452,-0.00171661,-0.0546265,0.00576019
20,0,7.80324,0.00152588,0,-2.42531,0.0544603,-0.075063,0.0553487,0.0642565,-0.0922309,0.146234,-0.126072,-0.0825704,0.0144196,0.0527191,0.0504303,0.000686646,0.0231171,0.00473022,0.0201797,0.0214767,-9.97986,-0.00930786,0.00408173,0.0247574,-0.00778198,0.0127792,0.000114441,-0.0567245,0.0012207
20,1,8.03273,-0.000305176,0.000305176,-2.42684,0.055681,-0.0741475,0.0538228,0.0694445,-0.0925361,0.144403,-0.125156,-0.0828756,0.0137711,0.0672531,0.050621,-0.00770569,0.0231171,0.00534058,0.0169373,0.0234604,-9.97986,-0.0117111,0.00312805,0.0217056,-0.0107574,0.0121307,-0.00282288,-0.0563431,0.0019455
20,2,9.64162,0.000610352,0.00106812,-2.42592,0.0562914,-0.0744527,0.054128,0.0908068,-0.0910102,0.145929,-0.125156,-0.0844015,0.0101852,0.0785828,0.0485611,-0.00419617,0.0190735,0.00648499,0.0148392,0.0256348,-9.97986,-0.00549316,-7.62939e-005,0.0198364,-0.00823975,0.0141907,-0.00324249,-0.0576401,-0.00267029
20,3,10.0097,0.00183105,0.00183105,-2.42837,0.0538499,-0.0768941,0.0526021,0.0923326,-0.0934516,0.144708,-0.126072,-0.085317,0.0112152,0.0855255,0.0374603,-0.00862122,0.022316,0.00766754,0.0226212,0.0222778,-9.97986,-0.00808716,-0.000534058,0.0253296,-0.0103378,0.0125504,-0.00530243,-0.0627899,-0.00572205
20,4,10.0097,0.000305176,0.000457764,-2.42837,0.0526292,-0.0756734,0.0513814,0.0767687,-0.0952827,0.143487,-0.127292,-0.0868429,0.00835419,0.0871658,0.0320435,-0.00713348,0.0231552,0.0094223,0.0332642,0.0189972,-9.97986,-0.00541687,-0.000419617,0.0265121,-0.00743866,0.0172424,0.000457764,-0.0586319,-0.00461578
20,5,10.0097,-0.000915527,0,-2.4305,0.0550706,-0.0768941,0.0516866,0.0734117,-0.0955879,0.144098,-0.126377,-0.0865377,0.014534,0.0802231,0.0266647,-0.0165558,0.019722,0.00637054,0.043602,0.0183868,-9.97986,-0.00507355,-7.62939e-005,0.0252151,-0.00480652,0.0223541,-0.000419617,-0.058403,-0.00164032
20,6,10.0097,-0.000305176,0.000152588,-2.42898,0.0532396,-0.0765889,0.0513814,0.0709703,-0.0955879,0.141351,-0.128818,-0.0871481,0.013504,0.0657654,0.0204849,-0.0337982,0.0163269,0.00808716,0.0443649,0.0181198,-9.97986,0.000686646,0.010643,0.0237274,-0.00221252,0.0234985,-0.00164032,-0.062294,-0.00423431
20,7,10.0097,-0.000305176,-0.000152588,-2.42837,0.0538499,-0.0768941,0.0526021,0.0685289,-0.0952827,0.142877,-0.127598,-0.0877584,0.0141144,0.0428391,0.0121689,-0.0370407,0.0225067,0.00648499,0.0318527,0.0146484,-9.97986,0.00282288,0.00488281,0.0237274,-0.00278473,0.0238037,-0.00362396,-0.0602341,-0.00389099
20,8,10.0097,0.000305176,-0.000305176,-2.42867,0.0553758,-0.0756734,0.0516866,0.0694445,-0.094062,0.144098,-0.126682,-0.0865377,0.0121689,0.0120544,0.0154877,-0.0123978,0.018959,0.00812531,0.0206757,0.0146866,-9.97986,-0.000228882,-0.00652313,0.0220871,-0.00453949,0.0206757,-0.00694275,-0.0614166,-0.00694275
20,9,10.0097,-0.00183105,0,-2.42684,0.0553758,-0.0747579,0.0522969,0.0700548,-0.0934516,0.143182,-0.126072,-0.0847066,0.0131607,0.000915527,0.0130463,0.0106049,0.0190735,0.0125885,0.0115585,0.0094223,-9.97986,0.00110626,-0.0133514,0.0233078,-0.00198364,0.0251389,-0.00694275,-0.0587463,-0.00484467
21,0,10.0097,-0.000915527,0.000152588,-2.42623,0.0550706,-0.0744527,0.0538228,0.07036,-0.0946723,0.144403,-0.126072,-0.085317,0.0141525,-0.0120163,0.0111008,-0.000152588,0.0203705,0.010376,0.00282288,0.00244141,-9.97986,0,-0.0147247,0.0178146,-3.8147e-005,0.0211334,-0.00991821,-0.0584793,-0.00358582
21,1,10.0097,-0.000915527,0.000305176,-2.42623,0.055681,-0.075063,0.0532125,0.0700548,-0.0925361,0.144708,-0.126072,-0.0831808,0.00778198,-0.0170517,3.8147e-005,0.00732422,0.0246811,0.0124359,0.0018692,-0.00175476,-9.97986,0.00480652,-0.0087738,0.0205231,-0.00282288,0.0203323,-0.0101471,-0.0567627,3.8147e-005
21,2,10.0097,0.000305176,-0.000305176,-2.42653,0.0553758,-0.0744527,0.0544332,0.07036,-0.0928413,0.145318,-0.125461,-0.0831808,0.00751495,-0.0249863,-0.0135803,0.0222778,0.0279617,0.0123596,0.0137329,0.00507355,-9.97986,0.0094986,-0.00572205,0.0181961,-0.0019455,0.0243378,-0.00537872,-0.0578308,0.00164032
21,3,10.0097,0.000610352,0,-2.42562,0.0559862,-0.0747579,0.0550435,0.0718859,-0.0916206,0.145929,-0.124546,-0.0819601,0.00671387,-0.0327301,-0.0159836,0.0130081,0.0245285,0.0111389,0.0204086,0.00362396,-9.97986,0.00991821,-0.0025177,0.0164795,-0.00507355,0.0216675,-0.00541687,-0.0561142,-0.00320435
21,4,10.0097,0.000610352,0,-2.4247,0.0562914,-0.0738423,0.0556539,0.0706652,-0.0916206,0.147455,-0.124241,-0.0810445,0.0144196,-0.0241852,-0.00766754,0.0108337,0.0263214,0.0156784,0.0279617,0.00911713,-9.97986,0.0174332,-0.0128937,0.0128555,-0.00423431,0.0194168,-0.00114441,-0.0535583,-0.00328064
21,5,10.0097,0.000305176,-0.000305176,-2.42592,0.055681,-0.0741475,0.0538228,0.0709703,-0.0916206,0.148065,-0.125156,-0.0804342,0.00774384,-0.0106812,0.00213623,-0.000572205,0.0210571,0.0143433,0.0303268,0.00923157,-9.97986,0.0200272,-0.0164413,0.0107193,-0.00522614,0.0201797,0.00114441,-0.0527954,-0.00125885
21,6,10.0097,0.000915527,0.000915527,-2.4244,0.0569017,-0.073232,0.0550435,0.0715807,-0.0922309,0.146844,-0.12363,-0.080129,0.00694275,0.00499725,0.00217438,-0.0030899,0.0203705,0.016861,0.0310898,0.0131989,-9.97986,0.0224686,-0.0218964,0.0115585,-0.00167847,0.018692,0.00602722,-0.0540924,-0.0038147
21,7,10.0097,-0.000915527,0.000152588,-2.42623,0.0553758,-0.0729268,0.0529073,0.047777,-0.0949775,0.147149,-0.126377,-0.0825704,0.0107956,0.0110626,0.00183105,0.0125885,0.0173187,0.0162888,0.0376892,0.0127792,-9.97986,0.0187302,-0.0196838,0.00961304,-0.00236511,0.0191879,0.00576019,-0.051918,-0.00564575
21,8,9.10451,0.00183105,-0.00167847,-2.42562,0.0562914,-0.0741475,0.0544332,0.0462511,-0.0946723,0.146539,-0.126072,-0.0813497,0.0044632,0.00888824,-0.001297,0.0248337,0.0211716,0.0144958,0.0299835,0.00892639,-9.97986,0.0188065,-0.0179672,0.00930786,-0.00171661,0.014534,0.00492096,-0.0510406,-0.00778198
21,9,7.90792,0.000305176,-0.00137329,-2.42562,0.0559862,-0.0741475,0.0544332,0.0535753,-0.0919257,0.146234,-0.126072,-0.0822652,0.0106812,0.0172043,0.00705719,0.0455093,0.0245285,0.0144958,0.0349808,0.0157928,-9.97986,0.0219345,0.0031662,0.00705719,-0.00209808,0.0187302,0.00400543,-0.0471497,-0.00808716
22,0,7.65523,0,-0.000610352,-2.42653,0.0547655,-0.0747579,0.0538228,0.0639513,-0.0919257,0.145624,-0.125156,-0.0822652,0.00720978,0.0220108,0.00495911,0.0655365,0.0208664,0.0203323,0.0327682,0.014267,-9.97986,0.023613,0.0278854,0.00988007,-0.00232697,0.0206757,0.00164032,-0.0430679,0.000953674
22,1,7.86977,0.0012207,-0.000152588,-2.42623,0.0547655,-0.075063,0.0532125,0.0709703,-0.0925361,0.145318,-0.125766,-0.0822652,0.00484467,0.0229645,0.00396729,0.0610352,0.022583,0.0206375,0.0330353,0.0159836,-9.97986,0.0231552,0.0210953,0.00701904,-0.00789642,0.0197601,-0.00164032,-0.0410461,-0.00377655
22,2,9.43105,0.00152588,0.0012207,-2.42562,0.0544603,-0.075063,0.0547383,0.0901964,-0.090705,0.145013,-0.124851,-0.0834859,0.00320435,0.0183868,0.00514984,0.0453568,0.021553,0.0217056,0.0270462,0.0130081,-9.97986,0.0194168,0.0113678,0.00556946,-0.00839233,0.021019,-0.0012207,-0.0423431,-0.00366211
22,3,10.0097,-0.000610352,0.00183105,-2.42837,0.0541551,-0.0753682,0.0532125,0.0932482,-0.0925361,0.143182,-0.126377,-0.0871481,0.00778198,0.0214386,0.00751495,0.0383377,0.0212479,0.0203323,0.0234604,0.0181198,-9.97986,0.0240326,0.0109863,0.00400543,-0.00686646,0.0182343,0.00102997,-0.0373459,-0.000267029
22,4,10.0097,0.00213623,0.000305176,-2.42989,0.0541551,-0.0759786,0.0526021,0.0782946,-0.094062,0.142267,-0.126987,-0.0871481,0.00602722,0.0285339,0.00385284,0.0304031,0.0197601,0.0189209,0.0199509,0.0182724,-9.97986,0.0274277,0.000534058,0.00408173,-0.0146103,0.0190735,-0.00419617,-0.0314713,-0.00244141
22,5,10.0097,0.000915527,-0.000152588,-2.42806,0.0535448,-0.075063,0.0526021,0.0712755,-0.0949775,0.143792,-0.126682,-0.0865377,0.00843048,0.0261307,0.00682831,0.0365448,0.0155258,0.027504,0.017395,0.0165176,-9.97986,0.0236893,0.00495911,0.00171661,-0.00694275,0.0172424,-0.00106812,-0.0301743,-0.00507355
22,6,10.0097,0.000610352,-0.000305176,-2.42959,0.055681,-0.0747579,0.0516866,0.0715807,-0.0949775,0.142572,-0.127903,-0.0871481,0.00999451,0.0136566,0.00514984,0.0340271,0.0200272,0.0183105,0.0198364,0.0180817,-9.97986,0.0276566,0.0123215,0.00392914,-0.00850677,0.0121689,-0.00469208,-0.0273132,-0.00465393
22,7,10.0097,0.000305176,-0.000152588,-2.42928,0.0535448,-0.0756734,0.0519917,0.0700548,-0.0943672,0.143487,-0.128208,-0.0880636,0.00804901,-0.0044632,0.00667572,0.0292206,0.0191879,0.021553,0.0152206,0.0205231,-9.97986,0.0292969,0.019455,0.0107193,-0.00846863,0.0157166,-0.0012207,-0.0216675,-0.000648499
22,8,10.0097,0.00183105,0,-2.42898,0.0559862,-0.0756734,0.0529073,0.0697496,-0.0931465,0.142877,-0.126072,-0.0859274,0.0062561,-0.00450134,0.00205994,0.026474,0.0172424,0.0194931,0.019722,0.0169754,-9.97986,0.0299835,0.023613,0.00827789,-0.00816345,0.0222397,-0.00343323,-0.0130081,0.000419617
22,9,10.0097,0,-0.000305176,-2.42745,0.0547655,-0.075063,0.0529073,0.0694445,-0.0928413,0.144098,-0.127292,-0.0847066,0.00705719,0.00038147,0.00457764,0.0252533,0.0196457,0.0204086,0.018158,0.0199127,-9.97986,0.0325775,0.0246048,0.00869751,-0.0123596,0.0209808,0.000343323,-0.00904083,0.000915527
23,0,10.0097,-0.000305176,0.000610352,-2.42714,0.0538499,-0.0753682,0.0529073,0.0706652,-0.0937568,0.144403,-0.126987,-0.0840963,0.00709534,0.000534058,0.000190735,0.0260162,0.0162506,0.0172043,0.0246048,0.0178909,-9.97986,0.0297165,0.0209427,0.00900269,-0.00888824,0.0228882,0.000267029,-0.00404358,0.00434875
23,1,10.0097,-0.000610352,0.000152588,-2.42684,0.0553758,-0.0747579,0.0522969,0.07036,-0.0943672,0.146539,-0.126072,-0.0847066,0.0112534,0.00537872,0.00419617,0.0255966,0.0137329,0.0183487,0.0211334,0.0209427,-9.97986,0.0333786,-0.0062561,0.0166321,-0.00831604,0.0221252,0.000228882,0.0025177,-0.000953674
23,2,10.0097,0.000915527,0.000457764,-2.42714,0.055681,-0.0738423,0.0553487,0.07036,-0.0913154,0.146234,-0.124851,-0.0831808,0.00717163,0.00392914,0.00865936,0.0221634,0.0196838,0.0147247,0.0255203,0.0148392,-9.97986,0.0365067,-0.00831604,0.0149918,-0.00797272,0.022049,0.000495911,0.00171661,-0.00263214
23,3,10.0097,-0.000305176,0,-2.42562,0.0562914,-0.0744527,0.0535176,0.0712755,-0.0916206,0.146234,-0.125461,-0.0819601,0.00762939,0.00873566,0.00862122,0.0177002,0.017395,0.0162888,0.0261688,0.0166321,-9.97986,0.0318527,0.000419617,0.0143433,-0.0102997,0.0199127,-0.00659943,-0.000457764,-0.000686646
23,4,10.0097,-0.000610352,0.000610352,-2.4244,0.0559862,-0.075063,0.0519917,0.0709703,-0.0922309,0.145318,-0.123935,-0.0810445,0.00869751,0.00915527,0.0112915,0.0190735,0.0126266,0.0153351,0.0237274,0.016098,-9.97986,0.0349426,0.00312805,0.0162125,-0.0106049,0.0183868,-0.00988007,0.00148773,-0.0018692
23,5,10.0097,-0.000610352,0.000457764,-2.42592,0.0559862,-0.0738423,0.0535176,0.07036,-0.0925361,0.146539,-0.12363,-0.0813497,0.00659943,0.00709534,0.0094986,0.0159454,0.0125122,0.0172424,0.0280762,0.0171661,-9.97986,0.0285339,-0.00152588,0.0173569,-0.0114822,0.0180054,-0.014801,-0.00442505,-0.00183105
23,6,10.0097,0.000915527,0.000152588,-2.42409,0.0575121,-0.0738423,0.0556539,0.0724962,-0.0919257,0.146539,-0.123935,-0.0804342,0.00972748,0.0100327,0.0138855,0.0154114,0.0101089,0.0181198,0.0299454,0.0162888,-9.97986,0.0348282,-0.00751495,0.0187683,-0.0121689,0.0186539,-0.0154877,-0.00606537,-0.00499725
23,7,10.0097,0.000915527,-0.000457764,-2.42623,0.0565965,-0.0747579,0.0532125,0.0471666,-0.0949775,0.149591,-0.126682,-0.0819601,0.0100708,0.0136948,0.0170135,0.0130463,0.00965118,0.0167084,0.0317001,0.0178528,-9.97986,0.0346756,-0.00926971,0.024147,-0.0136566,0.0202179,-0.00774384,-0.00457764,-0.00354767
23,8,9.06148,0,-0.00289917,-2.42562,0.0565965,-0.0735371,0.0547383,0.0465563,-0.0946723,0.146539,-0.128208,-0.0819601,0.00976563,0.012207,0.0202179,0.0137711,0.0109863,0.0152206,0.0291061,0.0193787,-9.97986,0.0346375,-0.0104523,0.0345612,-0.00995636,0.0151443,-0.00694275,-0.00549316,-0.00190735
23,9,7.85329,-0.000610352,-0.000610352,-2.42592,0.0572069,-0.0747579,0.0550435,0.054796,-0.0922309,0.145929,-0.125461,-0.0822652,0.00938416,0.0189972,0.0241852,0.0141907,0.0151443,0.00358582,0.0289154,0.0151062,-9.97986,0.0352859,-0.00175476,0.0305939,-0.0111008,0.0147629,-0.00465393,-0.00305176,-0.00175476
24,0,7.6415,0.000610352,0.000152588,-2.42592,0.0550706,-0.0744527,0.0522969,0.0642565,-0.0913154,0.141961,-0.126377,-0.0834859,0.0118256,0.0180817,0.0199509,0.0136948,0.0122833,0.00701904,0.0233459,0.0159454,-9.97986,0.032692,-0.00297546,0.0246048,-0.017662,0.0154495,-0.00392914,0,-0.0156021
24,1,7.87709,0.000915527,-0.000457764,-2.42653,0.0553758,-0.0744527,0.0547383,0.0712755,-0.0928413,0.145318,-0.12302,-0.0831808,0.00904083,0.0244522,0.0222397,0.010376,0.0108337,0.00709534,0.0271988,0.0178146,-9.97986,0.0341797,-0.00549316,0.0231934,-0.0160599,0.0113678,-0.0030899,-0.000190735,-0.0224686
24,2,9.49361,0.00152588,0.000915527,-2.42867,0.0550706,-0.0753682,0.0550435,0.0905016,-0.0897895,0.146539,-0.124546,-0.0831808,0.00988007,0.0214005,0.0241089,0.0109482,0.00614166,0.00450134,0.0242615,0.0190735,-9.97986,0.0337601,-0.00236511,0.0154495,-0.0168991,0.0128174,-0.00255585,-0.00202179,-0.0177002
24,3,10.0097,0.00213623,0.00167847,-2.42928,0.0538499,-0.0756734,0.0519917,0.0932482,-0.0922309,0.146844,-0.125156,-0.0862325,0.0111389,0.0257111,0.025444,0.0120926,0.0043869,0.00900269,0.0256729,0.0180054,-9.97986,0.0327682,-0.00823975,0.0125885,-0.0193405,0.0101852,-0.00576019,-0.00335693,-0.0134659
24,4,10.0097,-0.00152588,0.0012207,-2.43111,0.0532396,-0.0756734,0.0522969,0.0785997,-0.0946723,0.143182,-0.124241,-0.0859274,0.00961304,0.0239182,0.0227737,0.0100327,0.00492096,0.00511169,0.028038,0.0177765,-9.97986,0.034256,-0.01194,0.00801086,-0.0150681,0.0125504,-0.0018692,7.62939e-005,-0.00705719
24,5,10.0097,0.000305176,-0.000152588,-2.42898,0.0541551,-0.0738423,0.0529073,0.0718859,-0.0943672,0.143487,-0.126072,-0.0871481,0.00904083,0.0254822,0.0199509,0.01091,0.00919342,0.00240326,0.0325775,0.0180817,-9.97986,0.0327301,-0.00801086,0.00610352,-0.0172043,0.0120926,-0.000495911,0.00350952,0.00610352
24,6,10.0097,0.000610352,-0.00106812,-2.42928,0.0529344,-0.0759786,0.0519917,0.0700548,-0.0949775,0.13891,-0.127598,-0.0865377,0.00778198,0.0261688,0.0222397,0.00701904,0.00911713,0.00358582,0.0288391,0.0162888,-9.97986,0.0312805,-0.00183105,0.00473022,-0.0148392,0.0110245,-0.00179291,0.00434875,0.0159073
24,7,10.0097,0.000610352,0.00106812,-2.4305,0.0547655,-0.0762837,0.0529073,0.0700548,-0.0946723,0.143792,-0.126377,-0.0862325,0.0131607,0.026741,0.0257492,0.00762939,0.00919342,0.00125885,0.0320816,0.0119019,-9.97986,0.0368118,-0.00656128,0.00530243,-0.0111008,0.0130844,-0.000572205,0.00904083,0.0299454
24,8,10.0097,-0.000305176,-0.000610352,-2.42928,0.0544603,-0.0771993,0.0516866,0.0694445,-0.094062,0.144098,-0.127598,-0.0862325,0.00823975,0.0344086,0.0201797,0.0129318,0.0115585,0.00652313,0.032196,0.0186539,-9.97986,0.0369263,-0.00366211,0.0025177,-0.0121307,0.0156403,0.000839233,0.0118256,0.0408173
24,9,10.0097,-0.000915527,-0.0012207,-2.42684,0.0547655,-0.075063,0.054128,0.0697496,-0.094062,0.143487,-0.126682,-0.085317,0.0063324,0.0261307,0.0258636,0.00724792,0.0136185,0.00431061,0.0255585,0.0171661,-9.97986,0.0301361,-0.00923157,0.00255585,-0.0123596,0.014267,-0.00202179,0.0149918,0.0434494
25,0,10.0097,0.00152588,0.000915527,-2.42745,0.0553758,-0.0753682,0.0526021,0.0691393,-0.094062,0.144708,-0.128818,-0.0850118,0.00934601,0.0263977,0.025444,0.00804901,0.0143051,0.00213623,0.0291824,0.0183105,-9.97986,0.0381088,-0.00247955,-0.000762939,-0.0126266,0.0121307,-0.0094223,0.0123596,0.0397873
25,1,10.0097,0.0012207,0.000305176,-2.42745,0.0553758,-0.0735371,0.0532125,0.0700548,-0.0931465,0.143487,-0.126072,-0.0834859,0.0111008,0.0278854,0.0240707,0.00598907,0.0114059,0.00659943,0.0304031,0.0183105,-9.97986,0.0355911,-0.00583649,-0.00537872,-0.0107956,0.0115967,-0.00556946,0.0197983,0.0346375
25,2,10.0097,-0.000915527,0.000305176,-2.42562,0.0562914,-0.0735371,0.0532125,0.0709703,-0.0922309,0.145624,-0.124546,-0.0831808,0.00724792,0.0292206,0.021019,0.00888824,0.0120926,0.00984192,0.0275421,0.0196457,-9.97986,0.0343704,-0.0019455,-0.0144958,-0.00644684,0.0141144,-0.00518799,0.0209427,0.025177
25,3,10.0097,0.00183105,0.000915527,-2.42531,0.0559862,-0.0738423,0.054128,0.0718859,-0.0919257,0.145624,-0.12241,-0.0825704,0.00881195,0.0286484,0.0275803,0.00659943,0.00984192,0.0126266,0.0242233,0.0197983,-9.97986,0.0405502,-0.00240326,-0.0179672,-0.00804901,0.0191879,-0.00747681,0.0204849,0.0208664
25,4,10.0097,0.000610352,0.000610352,-2.42501,0.0572069,-0.0781148,0.0553487,0.0709703,-0.0928413,0.146844,-0.124851,-0.0810445,0.00865936,0.0326538,0.0245667,0.00530243,0.00587463,0.00946045,0.0336075,0.0203323,-9.97986,0.0363922,-0.00263214,-0.0130844,-0.00675201,0.0180054,-0.00740051,0.0260162,0.0193024
25,5,10.0097,0.000305176,0.000610352,-2.42684,0.055681,-0.0735371,0.0538228,0.0706652,-0.0925361,0.142877,-0.123935,-0.0813497,0.00999451,0.0323105,0.0271225,0.00423431,0.00858307,0.0105667,0.0276566,0.0221252,-9.97986,0.0400543,-0.00236511,-0.013237,-0.000228882,0.0204086,-0.00862122,0.0294876,0.0153732
25,6,10.0097,0.000305176,-0.000152588,-2.42409,0.0575121,-0.0741475,0.0562642,0.0712755,-0.090705,0.145929,-0.125461,-0.080129,0.0104141,0.0325775,0.027504,0.00282288,0.00267029,0.00526428,0.029335,0.018158,-9.97986,0.0361633,-0.00038147,-0.0128555,0.000572205,0.0218964,-0.01194,0.0332642,0.0110626
25,7,10.0097,0.000305176,-0.000457764,-2.42653,0.0562914,-0.069875,0.0544332,0.0480822,-0.0946723,0.147455,-0.126682,-0.0816549,0.00713348,0.0276566,0.0283432,0.00358582,0.00137329,0.00263214,0.0285721,0.0181961,-9.97986,0.033493,0.00179291,-0.0125885,0.00293732,0.0178146,-0.0119781,0.0349426,0.00553131
25,8,9.18324,-0.000305176,-0.00106812,-2.42653,0.055681,-0.0735371,0.0538228,0.0474718,-0.0928413,0.143487,-0.126072,-0.0810445,0.00907898,0.0299072,0.0289917,0.0069046,0.0128174,0.00221252,0.0244522,0.0174713,-9.97986,0.0374985,-0.0018692,-0.00602722,0.00350952,0.019455,-0.00423431,0.0403595,0.00644684
25,9,8.02327,0.000305176,-0.000152588,-2.42623,0.0550706,-0.0741475,0.0556539,0.0544908,-0.0925361,0.145929,-0.126072,-0.0825704,0.00854492,0.0320435,0.0300217,0.00366211,0.0113297,-0.000534058,0.0260544,0.0172043,-9.97986,0.0344467,0.00217438,-0.00118256,0.00621796,0.0165558,-0.0145721,0.0380325,0.0069809
26,0,7.7773,-0.000305176,-0.000305176,-2.42653,0.055681,-0.0738423,0.0550435,0.0639513,-0.0916206,0.145624,-0.125461,-0.0828756,0.00946045,0.0313187,0.0285721,0.00205994,0.00747681,0.00087738,0.0254059,0.0177765,-9.97986,0.033493,0.00350952,0.0037384,0.00453949,0.0162506,-0.0126266,0.0360489,0.00534058
26,1,8.00466,0.000610352,0.000457764,-2.42623,0.0569017,-0.0747579,0.0544332,0.07036,-0.0922309,0.147149,-0.125156,-0.0831808,0.0128555,0.0310135,0.0312805,0.00511169,0.00904083,0.00576019,0.0252914,0.0153351,-9.97986,0.0297546,0.00247955,0.00213623,0.00617981,0.0125122,-0.0142288,0.0414658,0.0069809
26,2,9.66115,0.0012207,0.000457764,-2.42714,0.0550706,-0.0747579,0.054128,0.0911119,-0.0900947,0.145929,-0.125156,-0.0834859,0.00923157,0.0311661,0.0273514,0.00209808,0.00926971,0.00892639,0.0228119,0.0153732,-9.97986,0.0340271,0.00190735,0.00389099,0.00732422,0.0170135,-0.00869751,0.0368881,0.00595093
26,3,10.0097,0,0.00137329,-2.42898,0.0535448,-0.0759786,0.0526021,0.0917223,-0.0931465,0.143182,-0.124241,-0.0859274,0.0143051,0.031395,0.0278473,0.00247955,0.00656128,0.00564575,0.0270844,0.0162506,-9.97986,0.0327301,0.00209808,0.00350952,0.00804901,0.0131989,-0.00221252,0.0406647,0.0111389
26,4,10.0097,-0.000305176,-0.000305176,-2.42898,0.0535448,-0.0759786,0.0519917,0.0776842,-0.0955879,0.142572,-0.127598,-0.0874532,0.0155258,0.0374603,0.0304031,0.00198364,0.00728607,0.00839233,0.027504,0.0198364,-9.97986,0.0301743,0,0.00671387,0.0116348,0.013504,-0.00988007,0.0449371,0.00694275
26,5,10.0097,0.000610352,0.00167847,-2.42928,0.0550706,-0.0762837,0.0519917,0.072191,-0.0955879,0.144098,-0.126377,-0.0862325,0.0197601,0.0334549,0.0296402,0.00556946,0.00965118,0.00740051,0.0253677,0.0179672,-9.97986,0.028038,0.00282288,0.00637054,0.00713348,0.0120926,-0.00984192,0.044632,0.00209808
26,6,10.0097,-0.000305176,-0.0012207,-2.42989,0.0541551,-0.0720113,0.050771,0.0709703,-0.0955879,0.143182,-0.127903,-0.0868429,0.0166321,0.0328827,0.028801,0.00278473,0.00835419,0.00675201,0.0244522,0.0167465,-9.97986,0.0250626,0.00457764,0.00980377,0.00804901,0.00934601,-0.00366211,0.0450516,0.00602722
26,7,10.0097,0.00244141,-0.00106812,-2.42898,0.0538499,-0.0768941,0.0532125,0.0691393,-0.0949775,0.146234,-0.127292,-0.0871481,0.0160217,0.0348663,0.0231552,0.0038147,0.0104904,0.00793457,0.0243378,0.0169373,-9.97986,0.0294113,0.00545502,0.0050354,0.0100327,0.00423431,0.000228882,0.0463867,0.00461578
26,8,10.0097,0.000610352,-0.000457764,-2.42867,0.0541551,-0.0759786,0.0529073,0.0691393,-0.0937568,0.144098,-0.126072,-0.0856222,0.022583,0.0340652,0.0261688,0.0082016,0.0137711,0.00663757,0.0216675,0.0213623,-9.97986,0.0317764,0.00461578,0.0127411,0.0136185,0.0119781,0.00904083,0.0503922,0.00648499
26,9,10.0097,0.000305176,-0.000305176,-2.42837,0.0550706,-0.0735371,0.0535176,0.0700548,-0.094062,0.143792,-0.126377,-0.0850118,0.0112534,0.0284195,0.0173569,0.00171661,0.0150299,0.00499725,0.0162125,0.0257874,-9.97986,0.0317764,0.00324249,0.0125122,0.0106049,0.00724792,0.00530243,0.0498962,0.0126648
27,0,10.0097,0.000305176,0.000152588,-2.42776,0.0547655,-0.0747579,0.0519917,0.0682238,-0.0937568,0.14776,-0.125766,-0.0837911,0.0161743,0.0276566,0.0195313,0.00267029,0.0203323,0.00843048,0.0127411,0.0269699,-9.97986,0.0346756,0.00274658,0.0101471,0.0130463,0.00385284,0.00888824,0.0553131,0.0104904
27,1,10.0097,-0.000305176,-0.00137329,-2.42714,0.0550706,-0.0744527,0.0538228,0.0697496,-0.0922309,0.145929,-0.126072,-0.0834859,0.0103378,0.0302124,0.0201797,0.00297546,0.0285339,0.0094223,0.0143814,0.0283051,-9.97986,0.035553,-0.0025177,0.00526428,0.0149155,0.00427246,0.0062561,0.056839,0.01297
27,2,10.0097,0,0.000457764,-2.42531,0.0559862,-0.0762837,0.0550435,0.0718859,-0.0928413,0.145013,-0.125766,-0.0825704,0.00816345,0.0294876,0.0162506,0.00720978,0.0255585,0.0124741,0.00686646,0.0244141,-9.97986,0.0334167,-0.00038147,0.000686646,0.0105286,0.00396729,0.00221252,0.0629044,0.00408173
27,3,10.0097,0.000610352,0.000610352,-2.42562,0.0569017,-0.0744527,0.0547383,0.0700548,-0.0925361,0.146539,-0.124546,-0.0810445,0.0122833,0.0319672,0.0230408,0.00701904,0.0285721,0.0140762,0.0111389,0.0236893,-9.97986,0.0392914,0.00179291,0.00232697,0.015831,0.00659943,0.00179291,0.0679779,0.00747681
27,4,10.0097,-0.000610352,0.000610352,-2.42409,0.0565965,-0.0744527,0.0547383,0.0709703,-0.0910102,0.147149,-0.124851,-0.0810445,0.0204468,0.0299072,0.02388,0.00751495,0.0279617,0.0164795,0.0102997,0.020256,-9.97986,0.0357819,0.000762939,0.000762939,0.0116348,0.00789642,0.000419617,0.0601196,0.00591278
27,5,10.0097,-0.000610352,0.000457764,-2.42623,0.0559862,-0.0747579,0.0556539,0.0706652,-0.0919257,0.146539,-0.125766,-0.0810445,0.0281906,0.0339127,0.022049,0.0141525,0.0260544,0.0162506,0.0164032,0.012207,-9.97986,0.0340271,0.00213623,-0.00144958,0.0118637,0.00816345,-0.00286102,0.0598526,0.00774384
27,6,10.0097,0.000305176,0.000152588,-2.42531,0.0559862,-0.0741475,0.0544332,0.0706652,-0.0928413,0.145318,-0.124241,-0.0804342,0.0183487,0.0365448,0.0273514,0.0087738,0.0235748,0.00785828,0.0188446,0.00804901,-9.97986,0.0361252,0.00213623,-0.00202179,0.0196075,0.0130463,-0.000724792,0.0648117,0.0154495
27,7,10.0097,0.000305176,0,-2.42714,0.0569017,-0.0744527,0.0532125,0.0480822,-0.0949775,0.147455,-0.126377,-0.0819601,0.0117874,0.032196,0.0277328,0.0144577,0.0165176,0.0110626,0.0166321,0.000495911,-9.97986,0.0317764,0.00152588,0.00225067,0.0196457,0.012207,-0.00240326,0.0630569,0.0149918
27,8,9.1628,0.000915527,-0.000915527,-2.42501,0.0562914,-0.0723164,0.0553487,0.0474718,-0.0931465,0.146844,-0.126072,-0.0825704,-0.000228882,0.0381088,0.0245667,0.0156784,0.0196838,0.0102997,0.0166702,3.8147e-005,-9.97986,0.0192261,0.00175476,-0.0031662,0.0187683,0.00938416,0.00526428,0.0740814,0.00976563
27,9,7.99459,0.00152588,-0.000762939,-2.42501,0.0538499,-0.0735371,0.0553487,0.0535753,-0.0931465,0.145929,-0.125766,-0.0822652,-0.0205994,0.0353241,0.0255585,0.0123596,0.0230789,0.0159454,0.0154495,0.00915527,-9.97986,0.0121307,0.00473022,-0.00492096,0.0213623,0.00640869,0.00160217,0.0769043,0.0172424
28,0,7.7712,0.000305176,-0.000915527,-2.42592,0.0559862,-0.0756734,0.0544332,0.0633409,-0.0931465,0.145013,-0.126377,-0.0825704,-0.0306702,0.0305176,0.0202942,0.00892639,0.015564,0.015564,0.0153732,0.00629425,-9.97986,0.000495911,0.00415802,-0.00198364,0.021553,0.00865936,0.00228882,0.0749588,0.0134659
28,1,8.03151,0.000610352,-0.000305176,-2.42623,0.0538499,-0.0753682,0.054128,0.0712755,-0.0922309,0.145013,-0.125156,-0.0834859,-0.0338745,0.0272369,0.0180817,0.0120926,0.0160217,0.0229645,0.0192261,0.0125122,-9.97986,-0.0104141,0.00476837,-0.00213623,0.0276947,0.0150299,0.00244141,0.0696945,0.0149155
28,2,9.70448,-0.000610352,0.00137329,-2.42714,0.0544603,-0.0741475,0.0538228,0.0905016,-0.0913154,0.144403,-0.125766,-0.0831808,-0.0279617,0.0228119,0.0114822,0.0121307,0.0118637,0.0205994,0.0160217,0.019989,-9.97986,-0.027504,0.00484467,0.00221252,0.0292587,0.0136185,0.00328064,0.0708008,0.0105667
28,3,10.0097,0.00152588,0.000915527,-2.42989,0.0541551,-0.0765889,0.0519917,0.092943,-0.0928413,0.143487,-0.126987,-0.0865377,-0.0200653,0.0161362,0.00289917,0.00331879,0.00717163,0.0177002,0.016861,0.0137711,-9.97986,-0.0286102,0.0038147,-0.00442505,0.0257492,0.0127411,0.0063324,0.0654984,0.00617981
28,4,10.0097,0,0.000762939,-2.42867,0.0538499,-0.0744527,0.0516866,0.0785997,-0.0952827,0.142877,-0.126072,-0.0871481,0.00576019,0.0204849,0.00751495,0.00205994,0.00770569,0.0178909,0.0176239,0.0181961,-9.97986,-0.0182343,0.00495911,0.000915527,0.0301361,0.0187683,0.00720978,0.0713348,0.00541687
28,5,10.0097,-0.000305176,0,-2.42898,0.0544603,-0.0753682,0.0529073,0.0728014,-0.0931465,0.144098,-0.125766,-0.0868429,0.0133514,0.0144958,0.00614166,0.00514984,0.00171661,0.0155258,0.0146484,0.0141525,-9.97986,-0.00743866,0.00629425,-0.00114441,0.0258255,0.0167465,0.00339508,0.0714874,0.00423431
28,6,10.0097,0.000305176,0,-2.42989,0.0529344,-0.0759786,0.0516866,0.0682238,-0.0955879,0.143792,-0.126682,-0.0871481,0.0204086,0.0189209,0.0130844,0.00682831,0.00656128,0.0188065,0.0191498,0.018425,-9.97986,0.00202179,0.000572205,-0.000801086,0.0271606,0.0165558,0.00179291,0.0740051,0.00465393
28,7,10.0097,-0.000610352,-0.000457764,-2.42928,0.0538499,-0.0753682,0.0522969,0.0694445,-0.0943672,0.144098,-0.126987,-0.0868429,0.0121307,0.0189209,0.00965118,0.00648499,0.00762939,0.014534,0.0134659,0.0209427,-9.97986,0.0127411,0.00228882,0.00782013,0.0325394,0.0123215,0.000762939,0.0730133,-0.000267029
28,8,10.0097,0,-0.000152588,-2.42837,0.0550706,-0.0759786,0.0526021,0.0697496,-0.0943672,0.142267,-0.127598,-0.0859274,0.0133514,0.0167847,0.0133133,0.00900269,0.00766754,0.0168228,0.0181961,0.0188828,-9.97986,0.02491,0.000305176,0.00549316,0.0305176,0.0118637,0.00396729,0.0674438,-0.00476837
28,9,10.0097,0.0012207,0,-2.42837,0.0541551,-0.0744527,0.0532125,0.07036,-0.0943672,0.143792,-0.126072,-0.0850118,0.0210953,0.0172424,0.00671387,0.00804901,0.0125504,0.0164795,0.0148773,0.0180054,-9.97986,0.0402451,0.00202179,0.00846863,0.0275421,0.0110626,0.00900269,0.0642776,-0.0043869
29,0,10.0097,0.000305176,-0.000610352,-2.42684,0.0547655,-0.0765889,0.0532125,0.07036,-0.0931465,0.143792,-0.126682,-0.0850118,0.0270462,0.0172806,0.0087738,0.00705719,0.00915527,0.0156784,0.0144958,0.0194168,-9.97986,0.0404358,0.00347137,0.0143433,0.0298309,0.0131607,0.0155258,0.0602722,-0.00827789
29,1,10.0097,0.000610352,0.000152588,-2.42684,0.0547655,-0.075063,0.0544332,0.0697496,-0.0934516,0.145013,-0.125766,-0.0834859,0.0218964,0.0181198,0.0118637,0.00839233,0.00579834,0.0186157,0.0151825,0.016098,-9.97986,0.0352097,0.00297546,0.0167465,0.0307465,0.0124741,0.0181198,0.0593185,-0.00770569
29,2,10.0097,-0.000610352,0.000457764,-2.42592,0.0572069,-0.0747579,0.0544332,0.0709703,-0.0922309,0.145624,-0.124241,-0.0825704,0.0248337,0.0187302,0.00839233,0.0107574,0.0043869,0.0136185,0.0147247,0.0143051,-9.97986,0.0264359,0.00286102,0.0165558,0.0259399,0.0135422,0.0195694,0.0613022,-0.00442505
29,3,10.0097,0.000305176,0,-2.42714,0.0578172,-0.0717061,0.0544332,0.0706652,-0.0934516,0.147149,-0.124241,-0.0819601,0.0149155,0.020256,0.0106049,0.00343323,0.00228882,0.0124359,0.0151825,0.0121307,-9.97986,0.0209427,0.000419617,0.0111389,0.0251007,0.0056839,0.018959,0.0540924,-0.00469208
29,4,10.0097,0.000610352,0.000152588,-2.4247,0.0572069,-0.0738423,0.0547383,0.0715807,-0.0931465,0.146844,-0.124546,-0.0813497,0.0130081,0.0184631,0.0123596,0.00499725,0.00541687,0.0118256,0.0156021,0.0162506,-9.97986,0.0378418,0.00434875,0.0173187,0.033493,0.00843048,0.0127411,0.0494766,0.00160217
29,5,10.0097,0.000610352,0.000457764,-2.42623,0.0553758,-0.0738423,0.0544332,0.0718859,-0.0913154,0.146234,-0.125156,-0.0813497,0.0165176,0.0230408,0.0127792,0.00663757,0.0104904,0.0104523,0.0182724,0.019455,-9.97986,0.0496674,0.00328064,0.0226593,0.0341415,0.00865936,0.00881195,0.0482559,-0.00640869
29,6,10.0097,0.000610352,0.000610352,-2.42501,0.0559862,-0.0729268,0.0553487,0.0718859,-0.0916206,0.147149,-0.123935,-0.0810445,0.0159836,0.0188065,0.0138092,0.0123978,0.015564,0.00980377,0.0168991,0.0175095,-9.97986,0.0460052,-0.00114441,0.022583,0.0298691,0.0101852,-0.000267029,0.0495148,-0.0131607
29,7,10.0097,0.000915527,-0.000610352,-2.42623,0.055681,-0.0747579,0.0526021,0.0474718,-0.0946723,0.142572,-0.127292,-0.0822652,0.0147247,0.0209427,0.0159454,0.010376,0.0186539,0.014801,0.0174713,0.0164413,-9.97986,0.0450516,0.00267029,0.031662,0.0270462,0.0126648,3.8147e-005,0.0448227,-0.00484467
29,8,9.10054,0.00152588,-0.00167847,-2.42562,0.0572069,-0.0741475,0.0535176,0.0459459,-0.0934516,0.147455,-0.125766,-0.0819601,0.0133133,0.0193787,0.0174713,0.00915527,0.0182724,0.014267,0.0128174,0.016098,-9.97986,0.039444,0.00141144,0.0270844,0.0343323,0.0112915,-0.00190735,0.0445175,0.0043869
29,9,7.90273,-0.000305176,-0.0012207,-2.42562,0.0553758,-0.075063,0.0556539,0.0541857,-0.0916206,0.145929,-0.125766,-0.0825704,0.0148392,0.0168991,0.0127411,0.0133514,0.0225449,0.00881195,0.0153732,0.0176239,-9.97986,0.0342941,-0.00274658,0.0256729,0.0345993,0.0104523,-0.00358582,0.0375748,0.0148392
30,0,7.73732,0,-0.000152588,-2.42653,0.055681,-0.0744527,0.054128,0.0642565,-0.0922309,0.145013,-0.125156,-0.0825704,0.0152969,0.0205231,0.0191879,0.0119781,0.0240707,0.0156403,0.0162888,0.0201416,-9.97986,0.0328064,-0.00133514,0.0208282,0.0327301,0.00957489,0.00335693,0.0360489,0.0219727
30,1,7.95735,0.00152588,0.000762939,-2.42623,0.0547655,-0.0735371,0.0544332,0.0706652,-0.0922309,0.146539,-0.125156,-0.0825704,0.0134277,0.0239944,0.0190735,0.0128555,0.0206375,0.0191879,0.0156403,0.0144577,-9.97986,0.030899,0.00160217,0.0157166,0.0395584,0.0113297,0.00087738,0.0310135,0.0276184
30,2,9.60774,0.000305176,0.00167847,-2.42684,0.0538499,-0.0756734,0.0538228,0.0926378,-0.0910102,0.145624,-0.12363,-0.0844015,0.0142288,0.020256,0.0182343,0.0143814,0.0187683,0.02388,0.0202179,0.0201416,-9.97986,0.0308609,-0.000228882,0.00801086,0.0377655,0.0122452,0.00659943,0.0302505,0.0248718
30,3,10.0097,0.00183105,0.00137329,-2.42928,0.0547655,-0.0768941,0.0529073,0.0914171,-0.0937568,0.143792,-0.124546,-0.0859274,0.0119781,0.0183105,0.0159073,0.0128174,0.0160599,0.0235748,0.0331116,0.0196457,-9.97986,0.027771,0.000648499,0.00766754,0.0382614,0.0165939,0.00614166,0.0343704,0.0175476
30,4,10.0097,0.000305176,-0.000305176,-2.42928,0.0541551,-0.0771993,0.0522969,0.0776842,-0.0955879,0.144098,-0.127598,-0.0877584,0.0115585,0.0214386,0.022049,0.0131607,0.0156403,0.0231552,0.0394058,0.0210953,-9.97986,0.0245667,0.000457764,0.00282288,0.0416565,0.0217438,0.00858307,0.0333023,0.0161362
30,5,10.0097,-0.000915527,-0.000457764,-2.42806,0.0544603,-0.0768941,0.0513814,0.0724962,-0.0949775,0.143182,-0.126682,-0.0856222,0.0120926,0.0205994,0.0197601,0.0143814,0.0116348,0.0207138,0.0357819,0.0192261,-9.97986,0.0209808,0.00160217,0.00328064,0.0373077,0.0204086,0.00991821,0.0299454,0.00766754
30,6,10.0097,0,-0.000610352,-2.42867,0.0529344,-0.0765889,0.0522969,0.0700548,-0.0949775,0.143182,-0.126682,-0.0871481,0.00904083,0.0178528,0.0202179,0.0183868,0.00610352,0.021286,0.0291443,0.0174713,-9.97986,0.0210571,-0.0030899,0.0108719,0.0411606,0.0218201,0.0144958,0.0337982,0.00617981
30,7,10.0097,0,-0.000915527,-2.42898,0.0535448,-0.0759786,0.0513814,0.0697496,-0.0946723,0.143792,-0.126682,-0.0877584,0.0109863,0.0226593,0.0200653,0.017128,0.00778198,0.0165939,0.0191498,0.0165939,-9.97986,0.0241089,-0.0037384,0.0207901,0.044899,0.0208282,0.0148773,0.0360489,0.00640869
30,8,10.0097,-0.000915527,-0.000610352,-2.42867,0.0544603,-0.0756734,0.0522969,0.07036,-0.0946723,0.145624,-0.126377,-0.0862325,0.0087738,0.0230408,0.0258255,0.0170135,0.00610352,0.0133133,0.019455,0.014534,-9.97986,0.0197601,-0.00583649,0.028038,0.0389862,0.0215149,0.0102997,0.0413513,0.0110245
30,9,10.0097,-0.000610352,-0.000457764,-2.42867,0.0544603,-0.0756734,0.0526021,0.0697496,-0.0934516,0.144708,-0.126987,-0.0850118,0.0109863,0.0248718,0.024147,0.0177002,0.00663757,0.0122833,0.0268936,0.0201416,-9.97986,0.0209427,-0.000305176,0.0361633,0.0446701,0.0205994,0.0120544,0.0397491,0.0115967
31,0,10.0097,-0.0012207,-0.000305176,-2.42806,0.0550706,-0.0747579,0.0526021,0.0691393,-0.0928413,0.145318,-0.126072,-0.0840963,0.0187302,0.0245667,0.0247574,0.0165176,0.00366211,0.0127029,0.0236893,0.0183105,-9.97986,0.0152588,-0.00431061,0.0295258,0.043869,0.0218201,0.000114441,0.0310516,0.0056076
31,1,10.0097,-0.000305176,0.000152588,-2.42684,0.0559862,-0.0762837,0.0535176,0.0691393,-0.0943672,0.144708,-0.126377,-0.0831808,0.0175858,0.0241089,0.0219727,0.0165939,0.00488281,0.0133133,0.019989,0.0233459,-9.97986,0.0170135,-0.00114441,0.0271225,0.0405884,0.0202942,-0.000610352,0.0292969,0.00240326
31,2,10.0097,-0.00152588,0,-2.42623,0.055681,-0.0741475,0.0538228,0.0737169,-0.0922309,0.145624,-0.125156,-0.0825704,0.0121689,0.0218201,0.0234604,0.0146103,0.00854492,0.00793457,0.0192261,0.0180054,-9.97986,0.0110245,-0.00209808,0.0209808,0.0416565,0.0206375,0.00183105,0.0225449,0.0038147
31,3,10.0097,0.000610352,0.000152588,-2.42562,0.0553758,-0.0744527,0.0550435,0.0715807,-0.0925361,0.147455,-0.124546,-0.0813497,0.0136948,0.0216675,0.0197601,0.0153732,0.00919342,0.0136948,0.0193024,0.0162506,-9.97986,0.00934601,-0.00564575,0.018425,0.0408936,0.0244904,0.0115967,0.0114059,-0.000839233
31,4,10.0097,0.0012207,0.000457764,-2.42226,0.0565965,-0.0747579,0.0550435,0.0709703,-0.0910102,0.147149,-0.124546,-0.0813497,0.0139618,0.0192261,0.0178528,0.0124741,0.00953674,0.00766754,0.0154877,0.016098,-9.97986,0.00740051,-0.00450134,0.02388,0.0443268,0.0263214,0.0148773,0.0123215,0.00717163
31,5,10.0097,-0.000610352,0.000457764,-2.4247,0.0565965,-0.0735371,0.054128,0.0734117,-0.0925361,0.146844,-0.123935,-0.0822652,0.0161362,0.0201035,0.0183105,0.0125504,0.0105286,0.0113678,0.00797272,0.0189209,-9.97986,0.0110626,-0.00427246,0.0240707,0.0461197,0.0238419,0.0138474,0.00659943,0.00759125
31,6,10.0097,-0.000305176,0.000915527,-2.42592,0.0578172,-0.0726216,0.0562642,0.0709703,-0.090705,0.146844,-0.124241,-0.0828756,0.0121307,0.0224686,0.0215149,0.0159836,0.0154114,0.0108337,0.0127792,0.0233078,-9.97986,0.0104141,-0.00205994,0.0284195,0.0450897,0.0238037,0.0193405,0.0108719,0.00999451
31,7,10.0097,0.000305176,-0.000915527,-2.42714,0.0553758,-0.0723164,0.054128,0.0486925,-0.0955879,0.14776,-0.126072,-0.0819601,0.0133133,0.0188446,0.015831,0.0136185,0.01297,0.00728607,0.0173569,0.013237,-9.97986,0.00495911,-0.00652313,0.030899,0.0440979,0.020256,0.0167465,0.00476837,0.00442505
31,8,9.2986,0,-0.0012207,-2.42623,0.0559862,-0.0738423,0.0535176,0.0471666,-0.0934516,0.147149,-0.126682,-0.0819601,0.0122833,0.0223541,0.0196075,0.0117874,0.0189972,0.00606537,0.020256,0.0156021,-9.97986,0.00537872,-0.00228882,0.0262833,0.0478745,0.0236511,0.0233841,0.00377655,0.00705719
31,9,8.12062,-0.000610352,-0.000457764,-2.42592,0.055681,-0.0738423,0.0553487,0.0560167,-0.0919257,0.145013,-0.125766,-0.0807394,0.0133896,0.022316,0.0250626,0.0111771,0.0207901,0.00804901,0.0200272,0.0195694,-9.97986,0.00507355,-0.000495911,0.0221252,0.0495148,0.0205612,0.019989,0.00411987,0.00499725
32,0,7.94118,-0.000305176,-0.000915527,-2.42837,0.0553758,-0.0735371,0.0544332,0.0642565,-0.0922309,0.144403,-0.125156,-0.0831808,0.00953674,0.0209427,0.0204849,0.0119781,0.0153351,0.0100708,0.0160599,0.0180435,-9.97986,0.00976563,-0.00362396,0.0176239,0.0498199,0.0201416,0.0170898,-0.000915527,0.0025177
32,1,8.18044,0,0.000610352,-2.42653,0.0550706,-0.0753682,0.0544332,0.0715807,-0.0916206,0.143792,-0.126072,-0.0834859,0.0102234,0.0244904,0.0183487,0.00991821,0.0175858,0.0118256,0.0221634,0.0229645,-9.97986,0.00797272,-0.00335693,0.0180817,0.0510025,0.0173187,0.0100708,-0.00370026,-0.00198364
32,2,9.82991,0.0012207,0.000610352,-2.42776,0.0547655,-0.0753682,0.0553487,0.0920275,-0.090705,0.144403,-0.124241,-0.0828756,0.00972748,0.0244904,0.0235748,0.0149536,0.0209808,0.00827789,0.0170135,0.0223923,-9.97986,0.00938416,-0.00144958,0.0167465,0.0526047,0.0184631,0.00736237,-0.00263214,-0.00480652
32,3,10.0097,-0.0012207,0.00183105,-2.42501,0.0535448,-0.0768941,0.0532125,0.0917223,-0.0943672,0.143792,-0.125156,-0.0856222,0.00991821,0.0236893,0.0192261,0.0153351,0.0167847,0.00415802,0.0144958,0.0205994,-9.97986,0.0101471,-0.00228882,0.0270462,0.0450516,0.0174713,0.0125504,-0.0102234,-0.000915527
32,4,10.0097,0.00152588,0,-2.42928,0.0535448,-0.0759786,0.0529073,0.0767687,-0.0943672,0.145013,-0.126377,-0.0868429,0.00728607,0.023613,0.0204468,0.0149918,0.0168991,0.00724792,0.0115967,0.0170898,-9.97986,0.0126648,-0.00926971,0.0323486,0.047493,0.0173569,0.0117111,-0.00968933,0.000572205
32,5,10.0097,0.000305176,-0.000457764,-2.42837,0.0538499,-0.0765889,0.0519917,0.072191,-0.0961982,0.142877,-0.127292,-0.0862325,0.00919342,0.0231171,0.0192642,0.0128174,0.0247192,0.00358582,0.0151443,0.0221252,-9.97986,0.00881195,-0.000953674,0.0313187,0.0439453,0.0239182,0.0113678,-0.00961304,-0.00209808
32,6,10.0097,0.000610352,-0.000762939,-2.43325,0.0541551,-0.0768941,0.0519917,0.0697496,-0.095893,0.143792,-0.127598,-0.0874532,0.00858307,0.0246811,0.0189209,0.0143814,0.0213242,0.000686646,0.0166702,0.0190353,-9.97986,0.0120926,-0.00358582,0.0323486,0.0429535,0.0194931,0.0120163,-0.0130081,0.00164032
32,7,10.0097,0.00183105,0,-2.42989,0.0535448,-0.0771993,0.0526021,0.0685289,-0.0952827,0.144708,-0.126682,-0.0874532,0.00911713,0.0258636,0.0235367,0.0165558,0.0213623,-0.00305176,0.0166702,0.0141907,-9.97986,0.0136185,-0.00270844,0.0299835,0.0387573,0.0212097,0.0119019,-0.0118637,0.000610352
32,8,10.0097,-0.000915527,-0.0012207,-2.42806,0.0550706,-0.0744527,0.0529073,0.0694445,-0.0949775,0.144403,-0.126377,-0.0840963,0.00797272,0.0218964,0.0233459,0.0152206,0.0245667,0.00087738,0.0182724,0.0183105,-9.97986,0.0050354,-0.00644684,0.0300598,0.036087,0.0198364,0.00881195,-0.0101471,0.00179291
32,9,10.0097,0.000915527,-0.000610352,-2.42867,0.0553758,-0.0759786,0.0526021,0.0691393,-0.0952827,0.145013,-0.128513,-0.085317,0.0104523,0.0260162,0.0256348,0.0164795,0.0254822,-0.00236511,0.0180054,0.0198364,-9.97986,0.00541687,-0.00278473,0.0331497,0.0365829,0.0159836,0.00553131,-0.0159836,0.00522614
33,0,10.0097,0.000610352,0.000305176,-2.42745,0.0547655,-0.0753682,0.0526021,0.0691393,-0.0931465,0.144403,-0.126377,-0.0850118,0.0121307,0.026207,0.0256348,0.014267,0.0217438,-0.000495911,0.0173569,0.0183868,-9.97986,0.00953674,-0.00453949,0.0279999,0.0316238,0.018692,0.00850677,-0.0160217,0.0103378
33,1,10.0097,0,-0.000915527,-2.42653,0.0553758,-0.0738423,0.0538228,0.0700548,-0.0928413,0.145624,-0.126682,-0.0844015,0.0128937,0.0279236,0.0234985,0.0188828,0.0218201,-0.00434875,0.0179672,0.0218582,-9.97986,0.0103378,-0.0037384,0.0253296,0.0244522,0.0180817,0.0111771,-0.0196075,0.00453949
33,2,10.0097,-0.000305176,-0.00106812,-2.42501,0.0550706,-0.073232,0.0544332,0.0706652,-0.0919257,0.146539,-0.124241,-0.0831808,0.0150299,0.0289536,0.0201416,0.0160217,0.0296402,-0.0030899,0.0203323,0.0203323,-9.97986,0.0130081,-0.00469208,0.0292587,0.0260162,0.0103378,0.0176239,-0.0189972,0.00289917
33,3,10.0097,-0.000915527,-0.000457764,-2.4247,0.0565965,-0.0747579,0.0538228,0.0718859,-0.0910102,0.145013,-0.124241,-0.0816549,0.00545502,0.026741,0.0174713,0.0159836,0.0358582,-0.00244141,0.021286,0.0190353,-9.97986,0.0139236,-0.00282288,0.0207138,0.0204849,0.0119019,0.0104523,-0.0205994,0.00255585
33,4,10.0097,0.000610352,-0.000152588,-2.4247,0.0569017,-0.0741475,0.0547383,0.0709703,-0.0919257,0.145624,-0.124851,-0.0816549,0.0088501,0.0216675,0.022049,0.0113678,0.0405121,-0.00545502,0.0194931,0.0183487,-9.97986,0.00778198,-0.00453949,0.0305557,0.0215149,0.0120163,0.0105286,-0.0188828,-0.0106812
33,5,10.0097,0.00152588,0.000152588,-2.42287,0.0559862,-0.0738423,0.0535176,0.0700548,-0.0910102,0.146234,-0.124851,-0.0819601,0.00724792,0.0242996,0.0213623,0.0126266,0.0460434,-0.00232697,0.0210571,0.0207138,-9.97986,0.01091,-0.00404358,0.0294495,0.0206757,0.0117493,0.00854492,-0.0228882,-0.00289917
33,6,10.0097,0.000610352,-0.000610352,-2.4244,0.0581224,-0.0735371,0.055959,0.0715807,-0.0919257,0.148065,-0.124241,-0.0813497,0.00686646,0.0256729,0.0211334,0.0119019,0.0482559,0.00522614,0.0176239,0.0222397,-9.97986,0.0135803,-0.00476837,0.0260544,0.0185394,0.0120544,0.0102234,-0.0263977,0.0111008
33,7,10.0097,0,-0.000305176,-2.42562,0.0569017,-0.0738423,0.054128,0.047777,-0.0961982,0.145929,-0.126072,-0.0816549,0.00541687,0.025444,0.0185776,0.0139236,0.045929,-0.00156403,0.018959,0.0180435,-9.97986,0.00934601,-0.00465393,0.02285,0.0178528,0.0139236,0.00576019,-0.0240707,0.0225067
33,8,9.22994,-0.000610352,-0.00183105,-2.42714,0.055681,-0.073232,0.054128,0.0468614,-0.0928413,0.145929,-0.125766,-0.0822652,0.00358582,0.0252533,0.0195694,0.0130463,0.0456238,0.00106812,0.015564,0.0154495,-9.97986,0.0114822,-0.00385284,0.0206375,0.0094223,0.01091,0.000648499,-0.0209427,0.0364304
33,9,8.08339,-0.000305176,-0.00137329,-2.42623,0.055681,-0.0747579,0.054128,0.0554064,-0.0928413,0.146539,-0.126682,-0.0819601,0.000991821,0.0218582,0.0194931,0.0131226,0.0486374,0.00747681,0.0191879,0.0177765,-9.97986,0.0136566,-0.00358582,0.0224686,0.00354767,0.00984192,0.000305176,-0.0241089,0.0463104
34,0,7.89022,-0.0012207,-0.000915527,-2.42592,0.055681,-0.075063,0.054128,0.0648668,-0.0916206,0.146234,-0.126072,-0.0825704,0.00450134,0.021286,0.0221634,0.0119781,0.0397491,0.0107574,0.0157928,0.0171661,-9.97986,0.012207,-0.00255585,0.0197601,-0.00370026,0.0104141,0.000991821,-0.0244141,0.0534058
34,1,8.13924,0,-0.000305176,-2.42623,0.0562914,-0.0744527,0.054128,0.0724962,-0.0910102,0.146539,-0.125461,-0.0828756,0.00709534,0.0236511,0.0222778,0.0136948,0.0375748,0.0235748,0.018425,0.0212097,-9.97986,0.0136185,0.000762939,0.0184631,-0.00679016,0.0120544,-0.0037384,-0.0225067,0.055275
34,2,9.85463,0.000610352,0.000457764,-2.42714,0.0553758,-0.0738423,0.0547383,0.092943,-0.0897895,0.145318,-0.124546,-0.0844015,0.00858307,0.0245667,0.0174332,0.00827789,0.0273132,0.0294113,0.0135803,0.0194168,-9.97986,0.0101089,-0.00286102,0.0184631,-0.00900269,0.0140762,-0.00762939,-0.0211334,0.0558853
34,3,10.0097,0.0012207,0.00137329,-2.42898,0.0532396,-0.0768941,0.0526021,0.0901964,-0.0937568,0.143182,-0.125156,-0.0859274,0.0123215,0.0257492,0.0210571,0.0122452,0.0210571,0.0312805,0.0164413,0.0217438,-9.97986,0.00793457,0.00152588,0.0190735,-0.0145721,0.0121307,-0.00926971,-0.0199509,0.0444412
34,4,10.0097,0.0198364,-0.00106812,-2.42959,0.055681,-0.0747579,0.0519917,0.0764635,-0.0949775,0.156305,-0.127598,-0.0865377,0.00839233,0.0269699,0.0199127,0.0135422,0.0104904,0.0355911,0.0164413,0.0236511,-9.97986,0.00591278,-0.000190735,0.0150299,-0.0205994,0.0120163,-0.0121307,-0.0120544,0.0255585
34,5,10.0097,0.00244141,-0.000762939,-2.42959,0.0550706,-0.075063,0.0532125,0.0731066,-0.0965034,0.149896,-0.127292,-0.0859274,0.0181198,0.0282669,0.0227737,0.0115967,0.00652313,0.0342178,0.0165558,0.0217438,-9.97986,0.00102997,-0.00457764,0.01194,-0.018158,0.0153351,-0.0117111,-0.00915527,0.0165939
34,6,10.0097,0.00152588,-0.000610352,-2.42959,0.0526292,-0.0759786,0.0510762,0.0700548,-0.0955879,0.144098,-0.126682,-0.0871481,0.00701904,0.0234985,0.0211334,0.0152969,0.00389099,0.0350952,0.0168991,0.020256,-9.97986,0.00377655,-0.000991821,0.012207,-0.0207901,0.0125504,-0.00450134,0.000495911,0.0087738
34,7,10.0097,0,-0.000762939,-2.42867,0.0538499,-0.0762837,0.0519917,0.0682238,-0.0949775,0.143182,-0.127903,-0.0868429,0.00183105,0.0251007,0.0237656,0.0104523,0.00255585,0.0302505,0.0205231,0.0154495,-9.97986,-0.00255585,0.000152588,0.0121307,-0.0231552,0.0212097,-0.00328064,0.000801086,-0.00419617
34,8,10.0097,0.00183105,-0.000305176,-2.42776,0.0538499,-0.0747579,0.0526021,0.0685289,-0.0934516,0.145013,-0.127598,-0.0862325,0.00282288,0.0298309,0.0213242,0.0134659,-0.00385284,0.0262451,0.0181961,0.0134659,-9.97986,0.000267029,-0.000343323,0.0211334,-0.0183105,0.0254822,0.000343323,0.0037384,-0.0101471
34,9,10.0097,-0.000305176,-0.000915527,-2.42806,0.0541551,-0.0747579,0.0522969,0.0700548,-0.0931465,0.145013,-0.126682,-0.085317,0.00465393,0.0262451,0.0205231,0.0144958,-0.00495911,0.018692,0.0246048,0.0109482,-9.97986,-0.00495911,-0.00495911,0.0299835,-0.0285339,0.0304794,0.00606537,0.000419617,-0.0228119
35,0,10.0097,-0.000610352,-0.000305176,-2.42898,0.0544603,-0.075063,0.0529073,0.0685289,-0.0913154,0.144403,-0.125766,-0.0840963,0.0019455,0.0292206,0.0247574,0.0183487,0.00431061,0.0195694,0.0259781,0.0139236,-9.97986,-0.00350952,-0.00427246,0.0226974,-0.0331116,0.0341415,0.0111771,-0.00774384,-0.0214005
35,1,10.0097,-0.000915527,-0.000457764,-2.42684,0.0550706,-0.0738423,0.0522969,0.0688341,-0.0937568,0.144708,-0.125766,-0.0844015,-0.00171661,0.0279617,0.020256,0.0129318,0.00961304,0.0147629,0.0261307,0.0170135,-9.97986,-0.00957489,-0.00225067,0.0131607,-0.0323868,0.0328827,0.00762939,-0.0131226,-0.0252914
35,2,10.0097,-0.000305176,-0.000305176,-2.42592,0.055681,-0.0738423,0.0553487,0.0715807,-0.0922309,0.146844,-0.124851,-0.0825704,0.0178909,0.0233459,0.0211334,0.0170898,0.0130844,0.0122833,0.0243378,0.0187683,-9.97986,-0.00926971,0.000686646,0.0182724,-0.0305939,0.0265884,0.00389099,-0.00923157,-0.0251389
35,3,10.0097,-0.000305176,0.000305176,-2.42501,0.0559862,-0.0738423,0.0550435,0.0709703,-0.0919257,0.144403,-0.123935,-0.0804342,0.0424194,0.02285,0.0168991,0.0152206,0.017395,0.0100708,0.0254822,0.0254822,-9.97986,-0.00808716,-0.00297546,0.0223923,-0.0353622,0.0281525,0.00228882,-0.00198364,-0.0204849
35,4,10.0097,0.00183105,-0.000305176,-2.4247,0.0562914,-0.0738423,0.054128,0.07036,-0.0922309,0.145929,-0.123325,-0.0816549,0.0276566,0.0180435,0.0151443,0.0157928,0.0223923,0.0139618,0.0258255,0.0384521,-9.97986,-0.00984192,-0.00434875,0.0318527,-0.0346375,0.0269699,0.00236511,3.8147e-005,-0.0162506
35,5,10.0097,0,0,-2.42501,0.0562914,-0.0738423,0.0556539,0.0700548,-0.0913154,0.148065,-0.125156,-0.0810445,0.0187683,0.0165176,0.0180054,0.0146103,0.0197983,0.013504,0.021019,0.0429535,-9.97986,-0.00274658,-0.00297546,0.0413895,-0.0385284,0.0245285,-0.00434875,-0.0050354,-0.0128174
35,6,10.0097,0.00152588,0,-2.4244,0.0572069,-0.0735371,0.0556539,0.0706652,-0.0931465,0.146844,-0.123935,-0.0804342,0.0136948,0.0143433,0.017662,0.0177765,0.0225067,0.0119019,0.0216675,0.0558472,-9.97986,0.00328064,-0.0019455,0.0367355,-0.0378799,0.028038,-0.00114441,-0.00778198,-0.0119781
35,7,10.0097,0.0012207,-0.000915527,-2.42653,0.0553758,-0.0738423,0.0532125,0.0493029,-0.0946723,0.145318,-0.126987,-0.0813497,0.00190735,0.0113297,0.0202942,0.021019,0.0203705,0.01297,0.0253677,0.0635147,-9.97986,0.0212479,0.000152588,0.02491,-0.0389481,0.0235748,-0.00202179,-0.00999451,-0.00980377
35,8,9.46523,0.00183105,-0.000915527,-2.42592,0.0562914,-0.0741475,0.0535176,0.047777,-0.0934516,0.147149,-0.125766,-0.0816549,0.00530243,0.0135803,0.0223923,0.023613,0.0143814,0.0147247,0.0177383,0.060463,-9.97986,0.0374985,0.000610352,0.0140762,-0.0401688,0.0265503,-0.000572205,-0.0125885,-0.00644684
35,9,8.31227,0.000610352,-0.00137329,-2.42562,0.0559862,-0.073232,0.0550435,0.0551012,-0.0922309,0.146539,-0.126987,-0.0825704,0.012207,0.00637054,0.0276947,0.0193024,0.0131989,0.0125885,0.0231171,0.0503922,-9.97986,0.0390625,0.000915527,0.00976563,-0.0424194,0.0214005,-0.000610352,-0.0125885,-0.0056839
36,0,8.16945,0.00152588,-0.000305176,-2.42623,0.0553758,-0.075063,0.054128,0.0648668,-0.0931465,0.146234,-0.126682,-0.0825704,0.0127411,0.0163651,0.0405502,0.022583,0.0113678,0.0164413,0.0222397,0.040741,-9.97986,0.0317764,-0.00167847,0.00747681,-0.041275,0.0239563,-0.00274658,-0.0133896,-0.00499725
36,1,8.48348,0.00152588,0.000152588,-2.42623,0.0553758,-0.0744527,0.054128,0.0724962,-0.0916206,0.145318,-0.125766,-0.0831808,0.0102997,0.0315094,0.0557709,0.0220871,0.0122452,0.0162506,0.0208282,0.0317383,-9.97986,0.0178146,-0.00240326,0.0130463,-0.045929,0.0231552,-0.0117111,-0.0172424,-0.00522614
36,2,10.0097,0.000305176,0.00106812,-2.42684,0.0550706,-0.0747579,0.0538228,0.0938585,-0.0897895,0.145013,-0.123935,-0.0840963,0.0123978,0.0418854,0.0712585,0.0192642,0.0167465,0.0190353,0.0236893,0.0234985,-9.97986,0.01091,-0.000343323,0.0111008,-0.0435257,0.0207901,-0.0110245,-0.0149155,-0.000686646
36,3,10.0097,0,0.00106812,-2.42867,0.0541551,-0.0759786,0.0529073,0.0880602,-0.0937568,0.144403,-0.126377,-0.0865377,0.00968933,0.0442505,0.0743484,0.0148392,0.0127029,0.0130081,0.021553,0.018425,-9.97986,0.0094986,-0.00087738,0.00938416,-0.0465393,0.0156784,-0.0139999,-0.0185013,-0.00225067
36,4,10.0097,0.000305176,0,-2.42928,0.0541551,-0.0759786,0.0522969,0.075548,-0.0965034,0.143792,-0.128208,-0.0880636,0.00659943,0.0509644,0.0853729,0.00595093,0.0159836,0.0160599,0.0227356,0.0160599,-9.97986,0.00652313,-0.00232697,0.0111771,-0.0413513,0.0162506,-0.0100327,-0.0143814,-0.000152588
36,5,10.0097,0,-0.000457764,-2.42959,0.0544603,-0.0747579,0.0516866,0.0715807,-0.0955879,0.144403,-0.127598,-0.0862325,0.00965118,0.0640106,0.0922775,-0.00865936,0.0196075,0.0148773,0.0201416,0.0112915,-9.97986,0.00183105,-0.00434875,0.0107956,-0.0482941,0.0143433,-0.0108719,-0.013237,0.0019455
36,6,10.0097,-0.00152588,0,-2.42898,0.0541551,-0.0756734,0.054128,0.07036,-0.0949775,0.144708,-0.126987,-0.0874532,0.0131226,0.077095,0.0962067,-0.00461578,0.0215149,0.0174332,0.021286,0.000228882,-9.97986,0.00110626,-0.00587463,0.0179291,-0.0465012,0.0149155,-0.0102615,-0.0111771,0.00156403
36,7,10.0097,0,-0.00152588,-2.42806,0.0535448,-0.075063,0.0526021,0.0697496,-0.0952827,0.143792,-0.127903,-0.0871481,0.0133514,0.0932312,0.098114,-0.0100327,0.0282288,0.0145721,0.0250626,-0.0151825,-9.97986,0.00587463,-0.00190735,0.0283051,-0.0510788,0.0140762,-0.00843048,-0.0178528,0.000534058
36,8,10.0097,-0.0012207,0.000305176,-2.42928,0.0544603,-0.0759786,0.0553487,0.0697496,-0.0943672,0.145318,-0.127292,-0.0865377,0.00892639,0.129242,0.0959396,-0.0139236,0.0263214,0.0106812,0.0177002,-0.0387573,-9.97986,0.00396729,-0.000228882,0.0334167,-0.0550842,0.0131989,-0.0138855,-0.0159454,3.8147e-005
36,9,10.0097,0.000305176,-0.000915527,-2.42837,0.0550706,-0.073232,0.0532125,0.0679186,-0.0937568,0.145013,-0.126072,-0.0847066,0.0175858,0.145569,0.0930786,-0.0031662,0.0257874,0.00938416,0.0154877,-0.0453186,-9.97986,0.00434875,-0.00484467,0.0379562,-0.0504684,0.0153732,-0.00766754,-0.0158691,0.00301361
37,0,10.0097,-0.000610352,-0.000305176,-2.42745,0.0544603,-0.0756734,0.0544332,0.07036,-0.0925361,0.144403,-0.125766,-0.0840963,0.0139236,0.118828,0.0696945,0.000534058,0.0253677,0.0151062,0.0175858,-0.0444794,-9.97986,0.0075531,-0.00747681,0.0367355,-0.0566483,0.0175476,-0.00976563,-0.0179291,0.000953674
37,1,10.0097,-0.000915527,0,-2.42592,0.0553758,-0.075063,0.0532125,0.0700548,-0.0931465,0.145013,-0.126377,-0.0837911,0.0111771,0.124817,0.0448227,0.00843048,0.0257111,0.0123978,0.0188065,-0.0392532,-9.97986,0.0125504,-0.0120163,0.0367355,-0.0598907,0.0195694,-0.0126648,-0.0141525,-0.00213623
37,2,10.0097,-0.00213623,0,-2.42562,0.0559862,-0.0726216,0.0535176,0.0715807,-0.0934516,0.146234,-0.125461,-0.0825704,0.0130844,0.141029,0.000534058,0.01297,0.0205231,0.012207,0.0186157,-0.0247192,-9.97986,0.0157166,-0.0088501,0.0308609,-0.0639343,0.0131989,-0.0198746,-0.0165558,-0.00576019
37,3,10.0097,0,0.000457764,-2.42592,0.055681,-0.0741475,0.0544332,0.0706652,-0.0919257,0.143182,-0.12363,-0.0810445,0.0114059,0.0481796,-0.0518799,0.0118637,0.0224304,0.00953674,0.0157166,-0.00843048,-9.97986,0.0269318,-0.0056839,0.028038,-0.0662994,0.0153732,-0.0174332,-0.0168991,-0.00167847
37,4,10.0097,0,0.000152588,-2.42501,0.0559862,-0.0741475,0.0547383,0.0709703,-0.0913154,0.142572,-0.124546,-0.0819601,0.00835419,-0.0841141,-0.0973892,0.0147247,0.0263214,0.00812531,0.014534,-0.00328064,-9.97986,0.0402451,0.00354767,0.0284195,-0.0636673,0.0104523,-0.0194931,-0.0134277,0.00087738
37,5,10.0097,0.00335693,0.000152588,-2.4247,0.0562914,-0.0726216,0.0556539,0.0706652,-0.0922309,0.144708,-0.124546,-0.0813497,0.00507355,-0.151405,-0.113297,0.0120926,0.0205231,0.00701904,0.0219727,-0.00320435,-9.97986,0.0535965,-0.000762939,0.0323868,-0.0632858,0.00915527,-0.0125504,-0.0135803,0.000534058
37,6,10.0097,-0.000305176,-0.000152588,-2.42501,0.0562914,-0.0735371,0.0562642,0.07036,-0.0916206,0.146539,-0.124546,-0.080129,0.0069046,-0.149612,-0.107651,0.0162506,0.0242996,0.00858307,0.030632,0.0056076,-9.97986,0.055275,-0.00137329,0.0333786,-0.0670242,0.0133514,-0.0171661,-0.0152206,0.00770569
37,7,10.0097,0.00183105,-0.000915527,-2.42562,0.0562914,-0.0726216,0.0547383,0.0483873,-0.0943672,0.147455,-0.125766,-0.0831808,0.00644684,-0.11364,-0.0929642,0.00797272,0.0250626,0.0109482,0.0240707,0.00534058,-9.97986,0.0492477,-0.00659943,0.0323486,-0.064621,0.00957489,-0.014534,-0.0124741,0.00980377
37,8,9.29799,-0.0012207,-0.00137329,-2.42501,0.0572069,-0.0741475,0.0550435,0.0471666,-0.094062,0.146234,-0.126682,-0.0822652,0.00904083,-0.0800705,-0.0730896,0.0126266,0.0246811,0.00961304,0.0319672,0.0118256,-9.97986,0.0429153,-0.00343323,0.0309753,-0.0658035,0.0104141,-0.0126266,-0.0172806,0.0133514
37,9,8.12184,0.0012207,-0.000915527,-2.42592,0.0569017,-0.0747579,0.0544332,0.054796,-0.0919257,0.14776,-0.126072,-0.0822652,0.00602722,-0.0476456,-0.0542831,0.015564,0.0281906,0.0102997,0.0300217,0.0149155,-9.97986,0.0393677,-0.00900269,0.0337982,-0.0665283,0.00713348,-0.0151062,-0.0142288,0.018692
38,0,7.9363,0,-0.000457764,-2.42531,0.0553758,-0.0747579,0.0547383,0.0642565,-0.0925361,0.146539,-0.125766,-0.0822652,0.00774384,-0.0333786,-0.0423813,0.0151825,0.0246048,0.0115967,0.0271988,0.014801,-9.97986,0.0376129,-0.0107574,0.0334549,-0.0642395,0.00816345,-0.0151062,-0.0146866,0.0167084
38,1,8.20424,-0.000305176,0.000305176,-2.42592,0.0562914,-0.0753682,0.054128,0.0715807,-0.0919257,0.145318,-0.125156,-0.0831808,0.00522614,-0.0226593,-0.0266647,0.0128937,0.0273895,0.0117874,0.0257111,0.0186539,-9.97986,0.0290298,-0.00198364,0.0324631,-0.0637054,0.0044632,-0.00778198,-0.0156021,0.0127411
38,2,9.91139,0.000610352,0,-2.42684,0.0544603,-0.0747579,0.0556539,0.0932482,-0.088874,0.144098,-0.124546,-0.0840963,0.00766754,-0.0131226,-0.0247192,0.0171661,0.0320816,0.0120926,0.0211334,0.0119019,-9.97986,0.0279999,0.0150681,0.0279617,-0.0696945,0.00846863,-0.00183105,-0.0131989,0.0164795
38,3,10.0097,-0.000305176,0.000762939,-2.42867,0.0541551,-0.0762837,0.0522969,0.0911119,-0.0931465,0.145624,-0.126072,-0.0865377,0.00850677,-0.00614166,-0.0137711,0.0094223,0.0315857,0.0144958,0.0271606,0.016098,-9.97986,0.0284958,0.00160217,0.02388,-0.0697327,0.00431061,0.00247955,-0.00972748,0.023613
38,4,10.0097,0.000610352,0.000762939,-2.42989,0.0532396,-0.075063,0.0516866,0.0767687,-0.0937568,0.143792,-0.126682,-0.0865377,0.00640869,-0.00228882,-0.0088501,0.0148773,0.0348282,0.0162506,0.0284958,0.018425,-9.97986,0.0200653,-0.00652313,0.0150681,-0.0672531,0.00717163,0.00419617,-0.0116348,0.0199509
38,5,10.0097,0.00152588,0.000152588,-2.42837,0.0529344,-0.0762837,0.0513814,0.0712755,-0.095893,0.144098,-0.126682,-0.0859274,0.00732422,-0.00213623,-0.00759125,0.0127411,0.0317001,0.0167084,0.0259399,0.0201416,-9.97986,0.0205231,0.015831,0.00873566,-0.0624847,0.00286102,0.0043869,-0.0118256,0.0214767
38,6,10.0097,0.0012207,-0.000610352,-2.42928,0.0538499,-0.0756734,0.0519917,0.0709703,-0.0946723,0.144403,-0.127292,-0.0871481,0.00591278,0.00419617,-0.0063324,0.0125504,0.0258255,0.0200272,0.0297546,0.0198746,-9.97986,0.0174332,0.0182343,-0.000152588,-0.0658798,0.0019455,0.000457764,-0.0127792,0.0204468
38,7,10.0097,0.000915527,-0.000457764,-2.42776,0.0535448,-0.0756734,0.0519917,0.0685289,-0.0983344,0.143487,-0.126682,-0.0871481,0.0087738,0.00324249,0.0012207,0.0133896,0.0248337,0.0200272,0.0258636,0.0172043,-9.97986,0.0179291,0.00564575,-0.00328064,-0.0598907,0.00999451,0.00240326,-0.00747681,0.0196075
38,8,10.0097,0.000915527,0.000305176,-2.42745,0.0544603,-0.0756734,0.0535176,0.0697496,-0.0949775,0.144708,-0.127292,-0.0859274,0.00843048,0.010643,0.00591278,0.0140762,0.0209808,0.0232697,0.0227737,0.0205612,-9.97986,0.0144196,-0.00583649,-0.00259399,-0.0579834,0.0127029,0.00114441,-0.00110626,0.017662
38,9,10.0097,-0.000610352,0.000305176,-2.42806,0.0535448,-0.0753682,0.0538228,0.0694445,-0.0949775,0.144098,-0.126682,-0.0850118,0.00671387,0.0114059,0.00453949,0.01091,0.019722,0.0185013,0.0281143,0.0190735,-9.97986,0.0135422,0.00476837,0.00854492,-0.051384,0.0134659,-0.00259399,0.00545502,0.0134659
39,0,10.0097,-0.000610352,0.000305176,-2.42714,0.0541551,-0.0741475,0.0547383,0.0709703,-0.0977241,0.144403,-0.126072,-0.0847066,0.00732422,0.0140381,0.0100708,0.0127411,0.0149918,0.0203705,0.0239563,0.0209808,-9.97986,0.015564,0.011673,0.01297,-0.0549316,0.0124741,-0.00549316,0.00869751,0.0102997
39,1,10.0097,0.000610352,0.000457764,-2.42714,0.055681,-0.0759786,0.0538228,0.0697496,-0.094062,0.145929,-0.126987,-0.0834859,0.00965118,0.0169754,0.0127411,0.0140381,0.0179672,0.019722,0.0292587,0.0231934,-9.97986,0.0149918,0.00946045,0.0169373,-0.049057,0.0151825,-0.000267029,0.0112915,0.00507355
39,2,10.0097,0.00244141,0.000915527,-2.42592,0.055681,-0.0744527,0.0544332,0.0709703,-0.0934516,0.145013,-0.124546,-0.0819601,0.00385284,0.0190735,0.0141144,0.0156784,0.0115585,0.0164413,0.0328445,0.0196457,-9.97986,0.0149918,0.0125504,0.0266266,-0.0399399,0.0128937,-0.000953674,0.00774384,-0.000991821
39,3,10.0097,-0.0012207,0.000915527,-2.4247,0.0565965,-0.0741475,0.0544332,0.0706652,-0.0919257,0.146234,-0.124241,-0.0816549,0.00679016,0.0192261,0.0149918,0.00896454,0.00675201,0.0128555,0.032196,0.019989,-9.97986,0.00930786,-0.00808716,0.0234604,-0.0352859,0.0121307,0.00141144,0.00526428,-0.00423431
39,4,10.0097,0.000305176,0.000915527,-2.42501,0.0569017,-0.0738423,0.0547383,0.0700548,-0.090705,0.146234,-0.125156,-0.0810445,0.00957489,0.0236511,0.022583,0.0114822,0.00862122,0.0139999,0.0323105,0.021019,-9.97986,0.0101852,-0.0299835,0.0194168,-0.0295258,0.0118256,-0.00164032,0.0056839,-0.00759125
39,5,10.0097,-0.000610352,0.000762939,-2.42562,0.0590379,-0.0741475,0.0544332,0.0706652,-0.0922309,0.147149,-0.124546,-0.0813497,0.00976563,0.02285,0.0192642,0.010643,0.0102615,0.0082016,0.0274658,0.0185394,-9.97986,0.00965118,-0.0217819,0.0259018,-0.0197983,0.0130081,-0.00530243,0.0120544,-0.00621796
39,6,10.0097,-0.000915527,0.000915527,-2.42623,0.0584276,-0.073232,0.0547383,0.0712755,-0.090705,0.14776,-0.123935,-0.0804342,0.00904083,0.0294113,0.0231934,0.0101089,0.0127411,0.0088501,0.0373077,0.0214005,-9.97986,0.00705719,-0.00980377,0.0252914,-0.0133133,0.0188828,-0.00602722,0.0162125,-0.00457764
39,7,10.0097,-0.000610352,0,-2.42776,0.0553758,-0.0735371,0.0529073,0.0471666,-0.0943672,0.146234,-0.125766,-0.0825704,0.01091,0.0279617,0.021286,0.013504,0.0143814,0.00968933,0.0379944,0.0212097,-9.97986,0.00682831,-0.0146866,0.0100327,-0.00598907,0.0115204,-0.0105286,0.0149536,-0.00541687
39,8,9.24459,-0.000305176,-0.000457764,-2.42714,0.0562914,-0.0738423,0.0550435,0.0489977,-0.094062,0.145624,-0.125766,-0.0813497,0.00846863,0.0286102,0.0237656,0.00694275,0.0167465,0.00350952,0.030365,0.0206757,-9.97986,0.00682831,-0.0121307,0.00164032,0.0030899,0.0144196,-0.0108337,0.0138092,-0.00434875
39,9,8.04219,0.000610352,-0.000457764,-2.42623,0.0565965,-0.0744527,0.0544332,0.0554064,-0.0931465,0.145013,-0.126377,-0.0816549,0.0104523,0.0333023,0.0254822,0.00793457,0.014801,0.00286102,0.0310516,0.0251007,-9.97986,0.00846863,-0.0161743,0.00606537,0.00343323,0.0138092,-0.0087738,0.00606537,0.00152588
40,0,7.86763,-0.000610352,0.000305176,-2.42653,0.0550706,-0.0744527,0.0532125,0.0648668,-0.0922309,0.145013,-0.125461,-0.0825704,0.00873566,0.0330734,0.0287628,0.00953674,0.0202179,-7.62939e-005,0.027771,0.0217056,-9.97986,0.0094223,-0.00778198,0.00656128,0.0150681,0.0113678,-0.00988007,0.00263214,0.00259399
40,1,8.1136,0.000915527,0.00106812,-2.42714,0.0596483,-0.0738423,0.054128,0.0718859,-0.0916206,0.146844,-0.126072,-0.0834859,0.0135422,0.0354004,0.0299454,0.00926971,0.0200653,-0.0019455,0.0279617,0.0234604,-9.97986,0.0088501,-0.00164032,0.0088501,0.0244904,0.0123978,-0.00850677,0.00175476,0.00968933
40,2,9.8116,0.00183105,0.00213623,-2.42623,0.055681,-0.0759786,0.0547383,0.0941637,-0.0882636,0.145013,-0.124241,-0.0834859,0.013237,0.0368118,0.0311279,0.010376,0.0248337,0.00102997,0.0304031,0.0250244,-9.97986,0.00621796,-0.00350952,0.0157928,0.0304794,0.0162506,-0.0113297,0.00621796,0.00774384
40,3,10.0097,0.000610352,0.00228882,-2.42867,0.0541551,-0.0768941,0.0535176,0.0920275,-0.094062,0.145013,-0.125461,-0.0865377,0.011673,0.0411224,0.0318146,0.00968933,0.0273132,-0.00843048,0.0242615,0.0293732,-9.97986,0.00850677,-0.00213623,0.0062561,0.0409317,0.0167847,-0.010376,-0.000190735,0.00476837
40,4,10.0097,0.000305176,0.00106812,-2.42837,0.050493,-0.0759786,0.0510762,0.075548,-0.0949775,0.142267,-0.126682,-0.0862325,0.00751495,0.0434113,0.0298691,0.01091,0.0288773,-0.00335693,0.0265503,0.0298691,-9.97986,0.00629425,-0.00495911,0.00354767,0.045929,0.0214386,-0.00534058,-0.000152588,-0.00728607
40,5,10.0097,0.000305176,0,-2.42837,0.0529344,-0.0756734,0.0519917,0.0728014,-0.0934516,0.145318,-0.126987,-0.0859274,0.00854492,0.0414276,0.0332642,0.0108719,0.0349045,-0.00347137,0.0196457,0.0242996,-9.97986,0.00553131,-0.00221252,0.000267029,0.0497055,0.0193024,-0.00629425,0.00179291,0.00236511
