
Devices
1200
,,BP Load cell - Voltage,String Length - Voltage,Clutch Active - Voltage,#7 iPecs - Voltage,,,,,,,,,EMG 1-8 Left - Voltage,,,,,,,,Pylon Force - Voltage,EMG 9-16 Right - Voltage,,,,,,,,
Frame,Sub Frame,BP Load Cell,String Length,From Arduino Logic,A45,A135,A225,A315,S0,S90,S180,S270,ZSum,EMG 1 Glut Max,EMG 2 Glut Med,EMG 3 Biceps Femoris Long,EMG 4 Rectus Femoris,EMG 5 Vastus Medialis,EMG 6 Tib Ant,EMG 7 Med Gas,EMG 8 Soleus,Pylon volts,EMG 9 Glut Max,EMG 10 Glut Med,EMG 11 Biceps Femoris Long,EMG 12 Rectus Femoris,EMG 13 Vastus Medialis,EMG 14 Tib Ant,EMG 15 Med Gas,EMG 16 Soleus
,,V,V,V,V,V,V,V,V,V,V,V,V,V,V,V,V,V,V,V,V,V,V,V,V,V,V,V,V,V
1,0,10.0097,0.00152588,-0.00106812,-2.42592,0.0553758,-0.0747579,0.0544332,0.04442,-0.0955879,0.146539,-0.126377,-0.0831808,0.0133514,0.0259018,0.0199127,0.0124359,0.0139618,-0.000991821,0.020752,0.0172806,-9.97986,0.0144958,-0.0018692,0.0069809,-0.0191498,0.0182724,-0.00419617,0.0184631,0.00648499
1,1,9.24275,0.000305176,-0.00106812,-2.42531,0.0562914,-0.0723164,0.0550435,0.0459459,-0.0931465,0.146539,-0.126072,-0.0813497,0.00900269,0.0254822,0.0205612,0.0167465,0.017395,-0.00278473,0.0208282,0.0166321,-9.97986,0.0153351,0.00118256,0.00915527,-0.0211716,0.0165176,-0.00267029,0.0187683,0.00354767
1,2,8.2314,0.00244141,-0.000152588,-2.42562,0.055681,-0.0741475,0.0550435,0.0578478,-0.0910102,0.14013,-0.126987,-0.0822652,0.0125122,0.0254059,0.0180817,0.0122452,0.0185776,-0.00320435,0.0202179,0.0205612,-9.97986,0.00801086,0.001297,0.00991821,-0.0259018,0.0159454,-0.00492096,0.0182343,0.00530243
1,3,8.18318,-0.0244141,0.0012207,-2.42623,0.0538499,-0.0723164,0.0550435,0.065172,-0.0931465,0.131891,-0.125766,-0.0831808,0.0109863,0.0257492,0.0180435,0.0112152,0.0203323,-0.0019455,0.0246048,0.0179291,-9.97986,0.010376,3.8147e-005,0.0110626,-0.0230026,0.0185394,-0.0050354,0.0173569,0.00671387
1,4,8.51186,-0.000610352,0.000305176,-2.42623,0.0562914,-0.0747579,0.0553487,0.0737169,-0.0910102,0.141046,-0.125766,-0.0840963,0.0114822,0.0264359,0.0225067,0.00694275,0.0197601,0.000457764,0.021019,0.0204468,-9.97986,0.00694275,-0.00118256,0.00514984,-0.0214767,0.0208282,-0.00564575,0.0179291,0.00679016
1,5,10.0097,0.000305176,0.000762939,-2.42623,0.0544603,-0.0753682,0.0550435,0.102709,-0.088874,0.139825,-0.124241,-0.0844015,0.0133896,0.0239182,0.02491,0.0094986,0.0192261,-0.00106812,0.0200653,0.0170135,-9.97986,0.00808716,-0.00144958,0.00865936,-0.0196075,0.0205231,-0.00907898,0.0193787,0.00556946
1,6,10.0097,0.000915527,0.00152588,-2.42989,0.0550706,-0.0762837,0.050771,0.0843981,-0.0952827,0.142877,-0.129123,-0.0856222,0.00164032,0.0218582,0.022583,0.0145721,0.0169373,-0.00213623,0.019989,0.0220871,-9.97986,0.00663757,-0.00209808,0.0107956,-0.0242996,0.0206375,-0.00938416,0.0168991,0.00328064
1,7,10.0097,-0.000305176,0.000152588,-2.42959,0.0538499,-0.0695699,0.0532125,0.0767687,-0.0946723,0.143182,-0.126682,-0.0865377,0.00450134,0.0241089,0.0207138,0.00823975,0.0212097,0.000648499,0.0210953,0.0248337,-9.97986,0.00217438,0.000228882,0.0108719,-0.021019,0.0201035,-0.0148392,0.0179291,0.00270844
1,8,10.0097,0.000610352,-0.000305176,-2.42867,0.0535448,-0.0756734,0.0529073,0.0712755,-0.0955879,0.137689,-0.127903,-0.0865377,0.00434875,0.022049,0.0201797,0.00621796,0.0184631,-0.00392914,0.0166702,0.0213623,-9.97986,0.00873566,0.000457764,0.0111389,-0.0159836,0.0225449,-0.0139999,0.0190353,0.00431061
1,9,10.0097,0,-0.000610352,-2.42867,0.0532396,-0.0756734,0.0529073,0.0697496,-0.0943672,0.143792,-0.128208,-0.0874532,-0.0101852,0.0227737,0.0198746,0.00881195,0.0156403,-0.00450134,0.0185013,0.025177,-9.97986,0.00545502,0.000686646,0.0119781,-0.0200653,0.0133896,-0.0157928,0.018692,0.00572205
2,0,10.0097,-0.000915527,-0.000610352,-2.42959,0.0535448,-0.0775044,0.0519917,0.0700548,-0.0955879,0.143487,-0.126682,-0.0865377,-0.0146866,0.0202179,0.0198746,0.00934601,0.016098,-0.00457764,0.0185776,0.0265503,-9.97986,0.00324249,0.00171661,0.0129318,-0.0195694,0.0187683,-0.00968933,0.0178528,0.00598907
2,1,10.0097,-0.000610352,-0.000762939,-2.42867,0.0541551,-0.0759786,0.0529073,0.0694445,-0.0946723,0.142267,-0.127292,-0.085317,-0.0165558,0.0216675,0.0224304,0.00709534,0.0147629,-0.00591278,0.0209808,0.030098,-9.97986,0.00347137,-0.00423431,0.00865936,-0.0201416,0.0170135,-0.00892639,0.0133514,0.00305176
2,2,10.0097,0.00183105,0.000610352,-2.42714,0.0547655,-0.0753682,0.0535176,0.0700548,-0.0934516,0.146234,-0.126072,-0.0850118,-0.0251007,0.0287628,0.0261688,0.0168991,0.0204086,-0.00492096,0.019722,0.0399399,-9.97986,0.00808716,0.0025177,0.0131607,-0.0140762,0.0249481,-0.00179291,0.0228119,0.0104523
2,3,10.0097,0.000610352,-0.000610352,-2.42776,0.0550706,-0.0747579,0.0538228,0.0691393,-0.0934516,0.144708,-0.125766,-0.085317,-0.0432205,0.0223541,0.022583,0.00377655,0.0131989,-0.00965118,0.01091,0.0226212,-9.97986,-0.00423431,-0.0101852,0.00610352,-0.0226974,0.0125885,-0.00598907,0.0117493,0.00118256
2,4,10.0097,0.0012207,0.000152588,-2.42531,0.0565965,-0.0747579,0.054128,0.0706652,-0.0934516,0.14776,-0.125766,-0.0828756,-0.0148773,0.0289536,0.0253296,0.0104523,0.0186157,-0.00354767,0.0193787,0.0322723,-9.97986,0.00205994,0.0044632,0.0123978,-0.0127411,0.0201416,0.000457764,0.0185776,0.00576019
2,5,10.0097,-0.000305176,0.000305176,-2.42562,0.0562914,-0.0744527,0.0547383,0.0694445,-0.0916206,0.146234,-0.126682,-0.0816549,0.0219727,0.0294495,0.0244522,0.00911713,0.0177002,-0.00423431,0.0148773,0.0257874,-9.97986,0.00434875,-0.00247955,0.00858307,-0.0157547,0.0164032,-0.00759125,0.0145721,0.00495911
2,6,10.0097,0.000610352,-0.000305176,-2.4247,0.0562914,-0.0704854,0.0550435,0.0718859,-0.0913154,0.145624,-0.124546,-0.0804342,0.0386429,0.0320816,0.0235748,0.0129318,0.0162125,-0.00545502,0.0184631,0.022049,-9.97986,0.00411987,0.000495911,0.00968933,-0.0140381,0.0191879,-0.00511169,0.0154114,0.00617981
2,7,10.0097,0.0012207,0.000152588,-2.42592,0.0575121,-0.0747579,0.0565694,0.0709703,-0.0910102,0.144708,-0.123935,-0.0807394,0.0373459,0.032959,0.0256729,0.0115967,0.0164413,-0.0111771,0.0209045,0.0149155,-9.97986,0.00205994,-0.0031662,0.00900269,-0.0207138,0.0195313,-0.00682831,0.0200653,0.00736237
2,8,10.0097,0.000610352,0.000457764,-2.4244,0.0559862,-0.0729268,0.0544332,0.0700548,-0.0913154,0.144708,-0.127903,-0.0810445,0.0544739,0.0328827,0.0288773,0.0119019,0.0154495,-0.0104904,0.0169754,0.0214767,-9.97986,0.00156403,-0.00385284,0.00999451,-0.0135422,0.0188828,-0.00766754,0.0172043,0.00514984
2,9,10.0097,0.000610352,0.000305176,-2.42531,0.0569017,-0.0735371,0.054128,0.07036,-0.0919257,0.146539,-0.124546,-0.0816549,0.0547028,0.0328827,0.0255585,0.0135422,0.0149536,-0.00476837,0.0175476,0.0208282,-9.97986,-0.00102997,-0.00656128,0.00812531,-0.00888824,0.0179291,-0.00457764,0.0180435,0.00747681
3,0,10.0097,0.000915527,-0.000762939,-2.42623,0.055681,-0.0741475,0.0565694,0.0428942,-0.0955879,0.147149,-0.125766,-0.0828756,0.0297928,0.0315857,0.0269699,0.0123596,0.02388,-0.00850677,0.0159836,0.0107574,-9.97986,-0.00732422,0.000343323,0.00999451,-0.00858307,0.0193024,-0.000343323,0.0151443,0.00370026
3,1,9.01204,0.000610352,-0.000915527,-2.42562,0.0562914,-0.0735371,0.0529073,0.0450304,-0.0931465,0.146539,-0.126377,-0.0816549,0.0290298,0.0281525,0.0269699,0.0147629,0.0161362,-0.00415802,0.0175476,0.00549316,-9.97986,-0.01091,-0.00205994,0.00843048,-0.00911713,0.0196838,0.00473022,0.0176239,0.00743866
3,2,7.95735,0,-0.000305176,-2.42592,0.0550706,-0.0762837,0.054128,0.0566271,-0.0922309,0.146234,-0.126377,-0.0819601,0.0231934,0.0286865,0.0242615,0.0135803,0.0135422,-0.00499725,0.015831,0.000953674,-9.97986,-0.0162506,-0.00576019,0.0101471,-0.0101471,0.0185013,0.0109482,0.0154114,0.00610352
3,3,7.88991,0.000610352,0.000305176,-2.42562,0.0550706,-0.0741475,0.0568746,0.0657823,-0.0922309,0.145624,-0.126072,-0.0831808,0.00762939,0.024147,0.0183868,0.0121307,0.0158691,-0.00171661,0.0186539,-0.00114441,-9.97986,-0.0101852,0.00209808,0.00835419,-0.00846863,0.0183105,0.0107956,0.0177383,0.00850677
3,4,8.18715,0,0.000305176,-2.42776,0.0541551,-0.075063,0.0544332,0.0734117,-0.0919257,0.145013,-0.124241,-0.0834859,0.0181198,0.0234222,0.0190735,0.013504,0.0174713,-0.00289917,0.0179291,0.000915527,-9.97986,-0.00965118,0.00114441,0.00846863,-0.00423431,0.0178528,0.0139618,0.0198746,0.00850677
3,5,10.0097,0.000305176,0.00152588,-2.42837,0.055681,-0.0778096,0.0544332,0.101793,-0.090705,0.144708,-0.12363,-0.0831808,0.0347137,0.0236893,0.0164032,0.0112915,0.0157547,-0.00213623,0.014534,-0.00137329,-9.97986,-0.0101089,3.8147e-005,0.0113297,-0.00328064,0.0203705,0.0123978,0.0178146,0.0087738
3,6,10.0097,-0.000915527,0.00152588,-2.42989,0.0532396,-0.0756734,0.0486348,0.0865343,-0.094062,0.144098,-0.128208,-0.0868429,0.0330353,0.0153351,0.0142288,0.0126266,0.0208282,0.00228882,0.0139236,-0.00198364,-9.97986,-0.00679016,-0.0043869,0.00404358,-0.00286102,0.0182343,0.00324249,0.0175476,0.0117111
3,7,10.0097,0.000610352,-0.0012207,-2.42867,0.0544603,-0.0762837,0.0516866,0.0752428,-0.0949775,0.144098,-0.127598,-0.0868429,0.0310898,0.0129318,0.0131989,0.0128555,0.0203705,0.00801086,0.0175858,-0.00133514,-9.97986,-0.0164032,0.00167847,0.00694275,-0.00469208,0.0197983,-0.00205994,0.0161743,0.00823975
3,8,10.0097,0.000305176,0.000305176,-2.42898,0.0529344,-0.0759786,0.0516866,0.0712755,-0.0946723,0.142877,-0.127292,-0.0865377,0.0161362,0.0110626,0.00957489,0.00751495,0.0202942,0.00793457,0.0193024,0.00175476,-9.97986,-0.0136566,-0.0019455,0.00679016,-0.00591278,0.0211334,-0.00209808,0.0176239,0.00682831
3,9,10.0097,0.000305176,-0.000915527,-2.42898,0.0541551,-0.0762837,0.0550435,0.0697496,-0.0955879,0.145013,-0.127598,-0.0877584,0.00209808,0.0131989,0.0130844,0.0112152,0.0172424,0.0103378,0.00980377,0.00576019,-9.97986,-0.0167847,-0.00320435,0.00728607,-0.00480652,0.0197983,-0.000839233,0.0183868,0.00926971
4,0,10.0097,-0.000915527,-0.000915527,-2.42837,0.0544603,-0.0756734,0.0513814,0.0688341,-0.0949775,0.143182,-0.128208,-0.0868429,0.0018692,0.00740051,0.00839233,0.00911713,0.0163269,0.0134659,0.0167465,0.00576019,-9.97986,0.00953674,-0.00808716,0.0114059,-0.00350952,0.016861,0.000343323,0.0150681,0.00995636
4,1,10.0097,0.000610352,0,-2.42898,0.0532396,-0.0741475,0.0513814,0.0697496,-0.094062,0.143792,-0.126377,-0.085317,0.00995636,0.00587463,0.00659943,0.00946045,0.016861,0.0153351,0.0170898,0.0141907,-9.97986,0.0403214,-0.00293732,0.00480652,-0.0019455,0.0218201,-0.00038147,0.0141907,0.00602722
4,2,10.0097,0.000610352,-0.000305176,-2.42776,0.055681,-0.0744527,0.0535176,0.07036,-0.0946723,0.145318,-0.126377,-0.085317,-0.00335693,0.00988007,0.00465393,0.00621796,0.0165558,0.017662,0.0167847,0.0149155,-9.97986,0.0469208,-0.00427246,0.0088501,0.00175476,0.018692,0.00312805,0.0163269,0.0112534
4,3,10.0097,0.000915527,0.000152588,-2.42745,0.0547655,-0.075063,0.0532125,0.0709703,-0.0916206,0.145013,-0.125156,-0.0837911,-0.00213623,0.00518799,0.00587463,0.00431061,0.0162125,0.0261688,0.0164795,0.0115967,-9.97986,0.0511551,0.000114441,0.00747681,-0.00118256,0.0199509,-0.000953674,0.0138092,0.0128555
4,4,10.0097,-0.000610352,0.000152588,-2.42745,0.0547655,-0.0753682,0.0535176,0.0694445,-0.0925361,0.146234,-0.126072,-0.0837911,-0.00354767,0.00770569,0.00537872,0.012207,0.0165939,0.0352478,0.0170517,0.0160217,-9.97986,0.0513458,-0.00179291,0.0069809,0.0019455,0.0222778,-3.8147e-005,0.0115585,0.0105667
4,5,10.0097,0.000305176,0.000152588,-2.42653,0.055681,-0.0747579,0.0526021,0.0706652,-0.0925361,0.145929,-0.124851,-0.0819601,0.00179291,0.0159073,0.00774384,0.0137329,0.0205994,0.0431061,0.015831,0.0155258,-9.97986,0.0421906,-0.000534058,0.0132751,0.00202179,0.0248718,-0.000724792,0.0142288,0.00968933
4,6,10.0097,0.00335693,0.000610352,-2.42501,0.0559862,-0.0723164,0.0538228,0.0712755,-0.090705,0.146539,-0.124546,-0.0816549,0.00236511,0.00934601,0.00762939,0.00591278,0.0136566,0.0427628,0.0177383,0.014534,-9.97986,0.0379944,-0.000267029,0.0102615,-0.000305176,0.0218964,0.00213623,0.0111389,0.0106812
4,7,10.0097,-0.000305176,0.000152588,-2.42501,0.0572069,-0.0726216,0.054128,0.07036,-0.0922309,0.146539,-0.125156,-0.080129,0.00553131,0.0138855,0.010376,0.0130081,0.021019,0.0537491,0.0200272,0.019989,-9.97986,0.0421524,0.000686646,0.0082016,0.0087738,0.0203705,0.000572205,0.0139999,0.00732422
4,8,10.0097,0.000915527,0.000610352,-2.42501,0.055681,-0.0744527,0.0532125,0.0706652,-0.0922309,0.146539,-0.123935,-0.0816549,0.00415802,0.0178909,0.0110245,0.00965118,0.0178146,0.0572586,0.0178146,0.0183105,-9.97986,0.0536346,0.00320435,0.0127792,0.00637054,0.021019,0.00583649,0.0135803,0.00724792
4,9,10.0097,-0.000610352,0.000457764,-2.42501,0.0572069,-0.0729268,0.0538228,0.0712755,-0.0913154,0.146234,-0.125156,-0.0813497,0.000152588,0.0138474,0.0117493,0.00839233,0.0215149,0.0635529,0.0188446,0.0191879,-9.97986,0.0650787,-0.000534058,0.0056076,0.00736237,0.02388,0.0133133,0.0149536,0.00556946
5,0,10.0097,0.000305176,-0.000762939,-2.42653,0.0569017,-0.0720113,0.0535176,0.0435045,-0.0952827,0.146234,-0.126072,-0.0828756,-0.00839233,0.0189209,0.0105667,0.0075531,0.0189972,0.0658417,0.0180435,0.0188065,-9.97986,0.0685501,-0.00232697,0.010643,0.00843048,0.0194168,0.00797272,0.016098,0.0102234
5,1,9.0035,0.000610352,-0.00106812,-2.42562,0.0562914,-0.0741475,0.0550435,0.0453356,-0.0925361,0.145318,-0.126072,-0.0822652,-0.0180435,0.0192642,0.0164032,0.0063324,0.0159454,0.0637817,0.017395,0.026741,-9.97986,0.0611496,-0.00144958,0.0108337,0.00682831,0.0196075,0.00988007,0.0115967,0.00904083
5,2,7.97261,0.0012207,-0.000457764,-2.42745,0.0569017,-0.0738423,0.054128,0.058153,-0.0919257,0.146234,-0.125461,-0.0825704,-0.0127411,0.017662,0.014267,0.00862122,0.0170135,0.0688553,0.0161362,0.019455,-9.97986,0.0460815,-0.00205994,0.00888824,0.00900269,0.0197601,0.00320435,0.0185394,0.00957489
5,3,7.8777,0.000305176,-0.000305176,-2.42623,0.0559862,-0.0756734,0.054128,0.0654772,-0.0916206,0.145624,-0.125461,-0.0822652,0.00541687,0.0210953,0.017128,0.0130463,0.020752,0.0708771,0.0201416,0.0285339,-9.97986,0.03582,-0.00202179,0.0100708,0.0109863,0.0198746,0.000495911,0.0145721,0.00862122
5,4,8.21309,0,0.000762939,-2.42653,0.0547655,-0.0741475,0.0532125,0.0734117,-0.0903999,0.143792,-0.125766,-0.0834859,0.0213242,0.0189209,0.0158691,0.0069809,0.0168991,0.0721741,0.0162506,0.0297928,-9.97986,0.0297928,-0.00282288,0.0152206,0.0123596,0.0165558,-0.00545502,0.0156021,0.0056076
5,5,10.0097,-0.000305176,0.0012207,-2.42653,0.0550706,-0.075063,0.055959,0.103624,-0.0894843,0.145318,-0.124851,-0.0834859,0.0362778,0.0206757,0.016861,0.00988007,0.0171661,0.0708389,0.0147247,0.0256348,-9.97986,0.0316238,0.00156403,0.0143051,0.0127792,0.0205994,-0.00293732,0.0150299,0.00896454
5,6,10.0097,0.00152588,0.00152588,-2.42989,0.0541551,-0.0759786,0.0529073,0.0868395,-0.0937568,0.143792,-0.127598,-0.0859274,0.0471878,0.02491,0.0133896,0.00778198,0.0236893,0.0653076,0.0210953,0.0354385,-9.97986,0.0318146,0.00183105,0.0154877,0.0110245,0.0180054,-0.00225067,0.0144958,0.00904083
5,7,10.0097,-0.000305176,0.000305176,-2.4305,0.0544603,-0.075063,0.0522969,0.0749376,-0.0943672,0.143487,-0.127598,-0.0862325,0.0437546,0.0205231,0.0184631,0.00831604,0.0177002,0.0667953,0.0177765,0.0370789,-9.97986,0.0303268,0.00038147,0.0136566,0.0124741,0.0182343,0.0037384,0.0132751,0.00728607
5,8,10.0097,-0.00183105,-0.000152588,-2.42959,0.0532396,-0.0762837,0.0519917,0.0706652,-0.0943672,0.143792,-0.126682,-0.0868429,0.0278091,0.022583,0.0201416,0.0104904,0.019989,0.0656509,0.0203323,0.0348663,-9.97986,0.0270081,-0.00183105,0.0175095,0.0131989,0.0155258,0.00717163,0.013237,0.00812531
5,9,10.0097,0.000610352,-0.000305176,-2.42867,0.0532396,-0.0759786,0.0513814,0.0694445,-0.0952827,0.143487,-0.127598,-0.0871481,0.00743866,0.0254059,0.0233459,0.00991821,0.0203705,0.0677872,0.0167084,0.0329208,-9.97986,0.0248337,-0.00213623,0.0142288,0.0133133,0.0140381,0.00553131,0.0160599,0.00850677
6,0,10.0097,0,-0.0012207,-2.42928,0.0544603,-0.0759786,0.0529073,0.0694445,-0.0955879,0.143182,-0.126682,-0.0871481,-0.00637054,0.0238037,0.0235367,0.00846863,0.0164032,0.0621796,0.0202179,0.0206757,-9.97986,0.0257111,-0.00259399,0.0164795,0.016098,0.0136566,0.00873566,0.0179672,0.00526428
6,1,10.0097,0.000915527,0.000457764,-2.42867,0.0541551,-0.075063,0.0526021,0.0688341,-0.0946723,0.144403,-0.126072,-0.085317,-0.0239563,0.0227356,0.0255203,0.0120163,0.0190735,0.0572205,0.0188446,0.0206375,-9.97986,0.0258636,-0.00293732,0.0160217,0.0159454,0.017395,0.00801086,0.0163651,0.00682831
6,2,10.0097,-0.00183105,-0.000305176,-2.42837,0.0541551,-0.0738423,0.0532125,0.0694445,-0.0934516,0.144403,-0.126682,-0.0847066,-0.0314713,0.0283432,0.0276947,0.010376,0.019722,0.0587082,0.019455,0.0203705,-9.97986,0.0215912,-0.00244141,0.0141907,0.0174332,0.0180817,0.00610352,0.0175476,0.00663757
6,3,10.0097,0.00213623,-0.000457764,-2.42898,0.0547655,-0.075063,0.0535176,0.0697496,-0.0937568,0.145013,-0.125461,-0.0837911,-0.0243378,0.0276184,0.0299835,0.0112152,0.0169754,0.0523758,0.0201797,0.0280762,-9.97986,0.0151825,0,0.0131607,0.0167465,0.0167847,0.00892639,0.0208282,0.00511169
6,4,10.0097,0.000305176,0.000305176,-2.42653,0.0547655,-0.0735371,0.0544332,0.0697496,-0.0916206,0.146234,-0.125766,-0.0834859,-0.0192642,0.0268173,0.0271225,0.0134277,0.0167847,0.0496674,0.0191116,0.0296021,-9.97986,0.0100708,-0.00247955,0.0159836,0.019455,0.0119781,0.00843048,0.0153351,0.00617981
6,5,10.0097,0.00152588,0.000152588,-2.42623,0.0559862,-0.0744527,0.054128,0.0724962,-0.0913154,0.147149,-0.124241,-0.0825704,0.00934601,0.0293732,0.0256348,0.0104523,0.0165939,0.0468826,0.0197601,0.0232315,-9.97986,-0.00240326,-0.000915527,0.0154114,0.0189972,0.0135422,0.00804901,0.0186157,0.00850677
6,6,10.0097,0,0.000305176,-2.42531,0.0572069,-0.0735371,0.0535176,0.07036,-0.0916206,0.146844,-0.123935,-0.0810445,0.0270081,0.0246429,0.0233841,0.0167084,0.0154114,0.0457001,0.0207901,0.0191116,-9.97986,-0.0119781,-0.00297546,0.0187683,0.0223923,0.0120544,0.00598907,0.0169754,0.00492096
6,7,10.0097,0,0.000152588,-2.42531,0.0565965,-0.073232,0.0553487,0.0715807,-0.0903999,0.146539,-0.123935,-0.0819601,0.027771,0.0311661,0.0268936,0.0174332,0.0177765,0.043602,0.0187302,0.0062561,-9.97986,-0.0247574,-0.00167847,0.0158691,0.025444,0.018158,0.00858307,0.019455,0.00740051
6,8,10.0097,-0.000305176,0.000305176,-2.42501,0.0559862,-0.0729268,0.055959,0.0706652,-0.0919257,0.145929,-0.124241,-0.0810445,0.0155258,0.0274277,0.0240707,0.0153732,0.0204849,0.0369263,0.0225067,-0.00102997,-9.97986,-0.033989,-0.0037384,0.0131607,0.0227737,0.0162125,0.00782013,0.0178146,0.00469208
6,9,10.0097,0.000305176,0.000915527,-2.42531,0.0559862,-0.0738423,0.0547383,0.0706652,-0.0913154,0.145929,-0.124546,-0.0810445,0.0147247,0.0227737,0.0246429,0.0170135,0.0163651,0.0387955,0.0224304,-0.00102997,-9.97986,-0.0404358,-0.00476837,0.0153351,0.0240707,0.00915527,0.0056076,0.0172424,0.0062561
7,0,10.0097,0.000610352,-0.000915527,-2.42653,0.0565965,-0.0735371,0.0522969,0.0447252,-0.0943672,0.145929,-0.126987,-0.0819601,0.0172806,0.0254059,0.0170898,0.0121689,0.0130081,0.031929,0.0195694,-0.0038147,-9.97986,-0.0493622,-0.00144958,0.0142288,0.0205612,0.0128937,0.00190735,0.0154877,0.00133514
7,1,9.09841,0.00213623,-0.000305176,-2.4247,0.0562914,-0.0747579,0.0544332,0.0456407,-0.0922309,0.146539,-0.126377,-0.0813497,0.0193787,0.0210953,0.0167465,0.0141525,0.015564,0.0337982,0.0217438,0.00324249,-9.97986,-0.0500107,-0.000686646,0.0133896,0.0291824,0.0125885,0.00709534,0.0139236,0.00656128
7,2,8.07332,0,-0.00106812,-2.42592,0.055681,-0.0747579,0.0538228,0.0572374,-0.0919257,0.144403,-0.126072,-0.0825704,0.00988007,0.0146103,0.0168991,0.0123978,0.0177765,0.0311279,0.021553,0.00549316,-9.97986,-0.0468445,-0.0038147,0.0114822,0.0276184,0.0130081,0.00408173,0.0150681,0.00392914
7,3,7.9485,0.000610352,0.000152588,-2.42653,0.0550706,-0.0741475,0.0544332,0.065172,-0.0916206,0.145318,-0.125766,-0.0828756,0.0139236,0.0176239,0.015831,0.0116348,0.0193024,0.0226593,0.021019,0.00747681,-9.97986,-0.0287628,-0.00221252,0.0114441,0.0286865,0.0108337,7.62939e-005,0.0132751,0.00541687
7,4,8.2842,0.000915527,0.000457764,-2.42714,0.0550706,-0.075063,0.0550435,0.0746324,-0.0910102,0.145318,-0.125156,-0.0834859,0.00324249,0.0161743,0.0164032,0.014801,0.0129318,0.02285,0.0233841,0.0139618,-9.97986,0.00102997,-0.00511169,0.014267,0.0327301,0.0109863,-0.000839233,0.0177383,0.00839233
7,5,10.0097,0.0012207,0.000915527,-2.42653,0.0550706,-0.0759786,0.0556539,0.103929,-0.0900947,0.145624,-0.124241,-0.0844015,0.00862122,0.0128937,0.0113678,0.0110245,0.0168991,0.0240707,0.0196838,0.0105286,-9.97986,0.0138855,-0.00423431,0.0139618,0.0317001,0.0112152,-0.00141144,0.0162888,0.00324249
7,6,10.0097,-0.0012207,0.000305176,-2.42959,0.0541551,-0.0756734,0.0519917,0.0874498,-0.0943672,0.143792,-0.126072,-0.0868429,0.0101471,0.0164032,0.00869751,0.00946045,0.0162125,0.0198746,0.0226212,0.0142288,-9.97986,0.0284195,-0.00213623,0.0141525,0.0289154,0.0157547,0.00133514,0.0159073,0.0025177
7,7,10.0097,0.000610352,-0.000152588,-2.42959,0.0532396,-0.0759786,0.0526021,0.075548,-0.0946723,0.143792,-0.126682,-0.0868429,0.0154495,0.0124359,0.0110626,0.00766754,0.0206757,0.0165176,0.0190353,0.0179291,-9.97986,0.0549698,-0.00541687,0.0144196,0.0304413,0.0117493,0.00404358,0.0150299,0.00583649
7,8,10.0097,-0.000915527,0.000457764,-2.42867,0.0541551,-0.0762837,0.0519917,0.0715807,-0.0952827,0.144403,-0.127598,-0.0859274,0.0174713,0.0139999,0.0102234,0.01297,0.0175858,0.0132751,0.0245285,0.0156021,-9.97986,0.0648117,-0.00377655,0.0137329,0.0310898,0.0129318,0.00617981,0.0135422,0.00495911
7,9,10.0097,0.000305176,0.000305176,-2.42989,0.0535448,-0.0747579,0.0516866,0.0691393,-0.0961982,0.143182,-0.127598,-0.0877584,0.0178528,0.0159454,0.00328064,0.0137711,0.0178528,0.0135422,0.0209045,0.0136566,-9.97986,0.0641251,-0.000534058,0.0132751,0.0348282,0.00980377,0.00644684,0.0154877,0.0056839
8,0,10.0097,-0.000305176,0.000305176,-2.42867,0.0538499,-0.0744527,0.0513814,0.0697496,-0.095893,0.141961,-0.127292,-0.0871481,0.0193787,0.014534,0.00709534,0.0114059,0.0124359,0.013237,0.0202179,0.0141525,-9.97986,0.0696182,0.00270844,0.0138855,0.0347519,0.0161362,0.00629425,0.0159073,0.00339508
8,1,10.0097,0.000305176,0,-2.42898,0.0529344,-0.075063,0.0519917,0.0697496,-0.094062,0.145318,-0.127903,-0.0859274,0.0157547,0.0128555,0.00453949,0.0101089,0.0139618,0.0107193,0.0217056,0.0159836,-9.97986,0.060997,0.00144958,0.0123215,0.0339127,0.0125885,0.00518799,0.0118637,0.00301361
8,2,10.0097,0,0,-2.42592,0.0547655,-0.075063,0.054128,0.0679186,-0.0934516,0.144708,-0.125461,-0.0856222,0.0130463,0.0138855,0.0105667,0.00881195,0.0159836,0.0140381,0.0223541,0.0145721,-9.97986,0.0439072,-0.000305176,0.0104141,0.0333786,0.0122833,0.0082016,0.0107574,0.00404358
8,3,10.0097,-0.0012207,0,-2.42898,0.0550706,-0.0744527,0.0519917,0.0694445,-0.0949775,0.144708,-0.126072,-0.0844015,0.0162888,0.018692,0.0106049,0.010376,0.0152206,0.00854492,0.0232697,0.0169754,-9.97986,0.0246048,-0.00297546,0.0107193,0.0336456,0.0104904,0.011673,0.0140381,0.00522614
8,4,10.0097,0.00213623,-0.000305176,-2.42623,0.0544603,-0.075063,0.0538228,0.0700548,-0.0928413,0.143792,-0.125461,-0.0837911,0.0150299,0.0175858,0.0126648,0.00888824,0.0139999,0.00476837,0.0214005,0.0181198,-9.97986,0.0242615,-0.00141144,0.0125504,0.0335312,0.0131226,0.0104904,0.0123596,0.00434875
8,5,10.0097,0.000610352,0.000457764,-2.4247,0.0559862,-0.0738423,0.0544332,0.0712755,-0.0913154,0.146844,-0.124546,-0.0822652,0.0145721,0.018692,0.0100327,0.0050354,0.0180817,0.00854492,0.0168991,0.0218964,-9.97986,0.0317764,-0.00270844,0.0122452,0.034523,0.0169754,0.00453949,0.0121307,0.00137329
8,6,10.0097,0.000610352,0.000457764,-2.42562,0.0565965,-0.0747579,0.0547383,0.0718859,-0.0925361,0.146539,-0.123935,-0.0816549,0.0125885,0.0164795,0.0144196,0.0115204,0.0176239,0.00946045,0.0211716,0.0209045,-9.97986,0.043602,-0.00320435,0.0123978,0.0373077,0.0138855,0.00198364,0.0124359,0.00705719
8,7,10.0097,0.00183105,-0.000152588,-2.42409,0.0578172,-0.0738423,0.0547383,0.0712755,-0.0922309,0.145929,-0.124241,-0.0813497,0.0133133,0.0178146,0.0185013,0.00514984,0.0153351,0.00209808,0.0252914,0.0230026,-9.97986,0.0510788,-0.00217438,0.00968933,0.0330734,0.0138092,0.00209808,0.0154114,0.0044632
8,8,10.0097,0.000610352,-0.000152588,-2.42531,0.0565965,-0.0735371,0.0550435,0.0712755,-0.0919257,0.146234,-0.124546,-0.0798238,0.0156403,0.020256,0.0138855,0.00785828,0.0155258,0.00797272,0.0178909,0.0297165,-9.97986,0.0461197,-0.00465393,0.0107574,0.0329971,0.0161743,-0.00282288,0.0149155,0.00263214
8,9,10.0097,0.00152588,0,-2.42531,0.0565965,-0.0744527,0.054128,0.0706652,-0.0919257,0.147149,-0.124546,-0.0810445,0.0150681,0.0244141,0.0157547,0.00946045,0.013504,0.00915527,0.0193405,0.0251389,-9.97986,0.0372696,-0.00133514,0.0134277,0.0334549,0.0111389,-0.001297,0.0133133,0.00541687
9,0,10.0097,0.0012207,-0.00106812,-2.42592,0.0559862,-0.0741475,0.0538228,0.04442,-0.0946723,0.145624,-0.125766,-0.0831808,0.00980377,0.0185394,0.0133896,0.00968933,0.015564,0.00850677,0.0190353,0.0263214,-9.97986,0.028038,-0.00347137,0.0161743,0.0322342,0.0130463,-0.0056076,0.0122452,0.00663757
9,1,9.03066,0.000305176,-0.0012207,-2.42623,0.0544603,-0.0747579,0.0544332,0.0462511,-0.0943672,0.147455,-0.124546,-0.0822652,0.00671387,0.0230026,0.0184631,0.0115967,0.0147247,0.0062561,0.0236511,0.0315857,-9.97986,0.0191879,-0.000534058,0.0111008,0.0295639,0.0131226,-0.0102615,0.0137329,0.00366211
9,2,8.0428,0.000610352,-0.000762939,-2.42653,0.0553758,-0.0738423,0.0535176,0.0578478,-0.0913154,0.145013,-0.126072,-0.0822652,-0.0111389,0.0282288,0.0192642,0.00762939,0.0141907,0.00396729,0.022316,0.0305557,-9.97986,0.0144196,0.00202179,0.0138855,0.0326538,0.013237,-0.00858307,0.0148392,0.00370026
9,3,7.97261,-0.000915527,-0.000915527,-2.42501,0.0562914,-0.0741475,0.0538228,0.065172,-0.0934516,0.145318,-0.124546,-0.0831808,-0.032959,0.026207,0.0188828,0.013504,0.0123978,0.00778198,0.020752,0.0325394,-9.97986,0.010376,-0.000610352,0.01297,0.0318909,0.0148392,-0.00980377,0.0169373,-0.000915527
9,4,8.2964,0.00244141,0.000610352,-2.42684,0.0559862,-0.0744527,0.054128,0.0746324,-0.0919257,0.143792,-0.125766,-0.0828756,-0.0318146,0.0235748,0.0230408,0.0109482,0.0156021,0.00587463,0.0200653,0.0349808,-9.97986,0.00946045,0.00179291,0.0163651,0.0292206,0.0160217,-0.0075531,0.0125504,0.00518799
9,5,10.0097,0.00183105,0.000610352,-2.42745,0.0541551,-0.0741475,0.0538228,0.103624,-0.088874,0.145624,-0.12363,-0.0837911,-0.0327301,0.0271606,0.0232697,0.010643,0.0162125,0.00198364,0.0236893,0.0413513,-9.97986,0.00480652,-0.00102997,0.0106049,0.0338364,0.010376,-0.0088501,0.0144577,0.00347137
9,6,10.0097,0.000915527,0.000915527,-2.42867,0.0541551,-0.0762837,0.0519917,0.0853136,-0.0946723,0.144403,-0.126682,-0.0871481,-0.0296021,0.0305557,0.0236511,0.0114822,0.0160599,0.00202179,0.022049,0.0341034,-9.97986,-0.00286102,-0.000343323,0.0167084,0.0305176,0.0118256,-0.00728607,0.0184631,0.00293732
9,7,10.0097,-0.000305176,0.000762939,-2.42928,0.0532396,-0.0759786,0.0513814,0.0740221,-0.0943672,0.143792,-0.126682,-0.0892843,-0.0139618,0.0292206,0.0238419,0.00892639,0.013237,0.0102234,0.0197601,0.032959,-9.97986,-0.00598907,-0.00171661,0.0130463,0.028801,0.0102615,-0.00362396,0.0141907,0.00301361
9,8,10.0097,0.00213623,0,-2.42837,0.0541551,-0.0759786,0.0526021,0.0724962,-0.0946723,0.143487,-0.126987,-0.0868429,0.00370026,0.0302505,0.0271988,0.0121307,0.0122452,0.00728607,0.016098,0.0255585,-9.97986,-0.00911713,-0.00179291,0.0137711,0.0259781,0.0106049,-0.000495911,0.0143814,0.00297546
9,9,10.0097,0.000610352,-0.000152588,-2.42989,0.0544603,-0.0753682,0.0522969,0.07036,-0.0955879,0.143792,-0.126987,-0.0865377,0.0376511,0.0331497,0.0263977,0.014534,0.0164413,0.00823975,0.0202942,0.0200272,-9.97986,-0.0131989,-0.00297546,0.0143814,0.0302887,0.0125122,0.00167847,0.0153351,0.00442505
10,0,10.0097,0.000610352,-0.000762939,-2.42898,0.0535448,-0.0765889,0.0519917,0.0682238,-0.0955879,0.143792,-0.127292,-0.085317,0.059433,0.0289536,0.0246429,0.0129318,0.0200653,0.00377655,0.0180817,0.0188828,-9.97986,-0.00343323,0.000572205,0.0102997,0.0308609,0.0144958,0.000762939,0.0148773,0.000915527
10,1,10.0097,0,-0.0012207,-2.42989,0.0544603,-0.0756734,0.0538228,0.0691393,-0.0943672,0.144708,-0.127903,-0.0865377,0.0574875,0.0318527,0.0246048,0.0115967,0.0175095,0.00556946,0.0180435,0.0113678,-9.97986,0.00518799,-0.00350952,0.0191498,0.0287628,0.0139999,-0.0141525,0.0136566,0.0031662
10,2,10.0097,0,0.000610352,-2.42745,0.0553758,-0.0753682,0.0538228,0.0697496,-0.0916206,0.144098,-0.125461,-0.0847066,0.0514603,0.0308228,0.0291061,0.0144196,0.0161743,0.00701904,0.0208282,0.00583649,-9.97986,0.018425,-0.00263214,0.0193787,0.0314331,0.0172806,-0.0218201,0.0175095,0.00484467
10,3,10.0097,-0.0012207,0,-2.42684,0.0544603,-0.0747579,0.0526021,0.0697496,-0.0931465,0.146234,-0.124851,-0.0850118,0.0287247,0.0291061,0.0266647,0.0120544,0.0177383,0.00598907,0.0193024,0.00217438,-9.97986,0.0175476,-0.000648499,0.018425,0.0276947,0.0149536,-0.0208664,0.0163269,0.00362396
10,4,10.0097,0.00183105,-0.000305176,-2.42898,0.0547655,-0.075063,0.0538228,0.0706652,-0.0931465,0.144708,-0.126072,-0.0834859,0.0130081,0.0310516,0.026474,0.0135803,0.0149918,0.00572205,0.0170898,-0.0100708,-9.97986,0.0161743,0.000419617,0.0175858,0.0246429,0.0164413,-0.0144577,0.0167465,0.00366211
10,5,10.0097,-0.0012207,0.000457764,-2.42623,0.0559862,-0.0738423,0.0544332,0.0673082,-0.0916206,0.146234,-0.125156,-0.0822652,-0.00282288,0.0317001,0.0304413,0.0175476,0.0165939,0.00427246,0.022316,-0.0082016,-9.97986,0.0127411,-0.00667572,0.0156784,0.0252151,0.0146103,-0.00301361,0.0151825,0.00389099
10,6,10.0097,0.000305176,-0.000152588,-2.42562,0.0565965,-0.0744527,0.054128,0.0712755,-0.0922309,0.146234,-0.125156,-0.0810445,0.000839233,0.0286102,0.0233078,0.0130463,0.016861,0.000991821,0.0202179,-0.00476837,-9.97986,-0.00617981,0.00152588,0.0152969,0.0265884,0.0111389,0.0100708,0.0169754,0.0037384
10,7,10.0097,0.000610352,0.000610352,-2.42562,0.0569017,-0.0747579,0.0547383,0.0709703,-0.090705,0.14776,-0.124546,-0.0804342,0.0260925,0.030365,0.0261307,0.011673,0.0185776,0.00263214,0.0187683,0.000762939,-9.97986,-0.0109863,-0.00114441,0.0153732,0.0294113,0.0151825,0.0130463,0.0140762,0.00484467
10,8,10.0097,0.0012207,0,-2.42501,0.0569017,-0.0741475,0.0550435,0.072191,-0.0925361,0.146539,-0.123325,-0.0822652,0.0297165,0.030365,0.0203323,0.0102615,0.0140762,0.00221252,0.0233459,0.00267029,-9.97986,-0.010376,0.000457764,0.0149536,0.0224686,0.0133514,0.0182724,0.0134277,0.0030899
10,9,10.0097,0,0.000457764,-2.42501,0.0559862,-0.0741475,0.0544332,0.0709703,-0.0916206,0.146844,-0.123325,-0.0816549,0.0230789,0.0211334,0.0161743,0.0112915,0.0117493,0.000152588,0.0201035,0.00812531,-9.97986,-0.00766754,-0.0018692,0.0178146,0.0259018,0.0141144,0.0190353,0.0186157,0.00270844
11,0,10.0097,0.000610352,-0.000610352,-2.42837,0.0547655,-0.0741475,0.0526021,0.0447252,-0.0949775,0.145013,-0.125461,-0.0822652,0.0161743,0.0230026,0.00991821,0.00896454,0.0185013,0.00156403,0.0230789,0.00537872,-9.97986,0.00389099,-0.000610352,0.0161743,0.0275421,0.016861,0.018692,0.019455,0.00499725
11,1,9.17958,0.000305176,-0.000915527,-2.42623,0.0562914,-0.0744527,0.0544332,0.0456407,-0.0934516,0.146234,-0.125461,-0.0816549,0.0102615,0.0172424,0.0133133,0.00984192,0.0159454,0.000648499,0.0190735,0.0101852,-9.97986,0.0185776,-0.000228882,0.01091,0.0286102,0.0144958,0.00530243,0.0201416,0.00148773
11,2,8.12093,-0.000610352,-0.000457764,-2.42745,0.0562914,-0.0744527,0.0553487,0.058153,-0.0925361,0.145929,-0.126987,-0.0828756,0.00946045,0.0177765,0.00938416,0.00980377,0.0139999,0.0018692,0.0222015,0.0139999,-9.97986,0.0228119,0.000915527,0.0158691,0.0278091,0.0133514,0.00087738,0.0199127,0.00118256
11,3,8.06539,0.000610352,-0.000457764,-2.42653,0.0569017,-0.0747579,0.0532125,0.0660875,-0.090705,0.144098,-0.126072,-0.0831808,0.0145721,0.0179291,0.0134659,0.00988007,0.0167465,3.8147e-005,0.0182343,0.00946045,-9.97986,0.00160217,-0.0019455,0.0139999,0.0224304,0.0136185,-0.00240326,0.0208664,0.0063324
11,4,8.4084,-0.000915527,0.000305176,-2.42592,0.0550706,-0.075063,0.0550435,0.0743273,-0.0913154,0.145013,-0.125156,-0.0844015,0.0159836,0.0171661,0.0118256,0.01091,0.0146103,0.00350952,0.0185394,0.014267,-9.97986,-0.02491,-0.00263214,0.0137329,0.0279236,0.0127792,-0.00339508,0.0185394,0.0043869
11,5,10.0097,0,0.000915527,-2.42653,0.0544603,-0.0759786,0.0550435,0.103014,-0.0894843,0.145318,-0.123935,-0.0844015,0.0172043,0.0183868,0.00904083,0.00980377,0.0188065,0.00236511,0.0231171,0.0142288,-9.97986,-0.0377274,-0.00125885,0.0153351,0.02491,0.0151062,-0.00213623,0.0203323,0.00675201
11,6,10.0097,-0.000610352,0.000305176,-2.42867,0.0547655,-0.075063,0.0519917,0.0850084,-0.0934516,0.143792,-0.126072,-0.0871481,0.0109863,0.0174332,0.0094223,0.00617981,0.017395,0.00164032,0.016098,0.0100708,-9.97986,-0.0211716,-0.000534058,0.0132751,0.0187683,0.0147629,-0.00236511,0.0188828,0.00793457
11,7,10.0097,0.0012207,0.000305176,-2.42989,0.0535448,-0.0759786,0.0522969,0.0737169,-0.0949775,0.143487,-0.126682,-0.0871481,0.0136185,0.0165176,0.0119019,0.0148392,0.0117111,0.00583649,0.0188446,0.0173569,-9.97986,0.0180435,0.0050354,0.00801086,0.022316,0.0164032,-0.00385284,0.0194168,0.00610352
11,8,10.0097,-0.00244141,-0.000610352,-2.4302,0.0547655,-0.075063,0.0532125,0.0715807,-0.0943672,0.143792,-0.127292,-0.0859274,0.0154114,0.0149155,0.0123978,0.00812531,0.0181198,-0.00705719,0.0173187,0.0129318,-9.97986,0.0384903,-0.00183105,0.0100708,0.0180817,0.0114059,-0.00583649,0.0139236,0.00732422
11,9,10.0097,0.000610352,0,-2.42837,0.0535448,-0.0759786,0.0538228,0.0712755,-0.0965034,0.145013,-0.127598,-0.0871481,0.00759125,0.0223923,0.0141144,0.0112534,0.0114822,0.00278473,0.0199509,0.0215149,-9.97986,0.0490189,0.000839233,0.0162125,0.0201035,0.0176239,-0.00160217,0.0177765,0.00434875
12,0,10.0097,-0.000915527,-0.000457764,-2.42959,0.0535448,-0.0756734,0.0513814,0.0706652,-0.0949775,0.144708,-0.127903,-0.0877584,0.00305176,0.0204849,0.0154877,0.00621796,0.0144577,-0.00148773,0.0209045,0.0209808,-9.97986,0.0515747,-0.000495911,0.013504,0.0177765,0.0126648,-0.00614166,0.0149536,0.00579834
12,1,10.0097,0.000610352,-0.000610352,-2.42898,0.0541551,-0.0753682,0.0526021,0.0685289,-0.0946723,0.144708,-0.127598,-0.0865377,0.00965118,0.0195694,0.0181961,0.00854492,0.0156784,-0.000610352,0.0220871,0.0210571,-9.97986,0.0476837,0.000190735,0.00980377,0.0186539,0.0157166,-0.00858307,0.0168228,0.00453949
12,2,10.0097,0.0012207,-0.000610352,-2.42806,0.0562914,-0.0744527,0.0522969,0.0694445,-0.0934516,0.143792,-0.126682,-0.085317,0.0112915,0.0191879,0.0199127,0.00709534,0.0163651,0.000228882,0.0200653,0.0166702,-9.97986,0.0552368,0.000114441,0.0128174,0.0172043,0.0121689,-0.012207,0.016098,0.00362396
12,3,10.0097,-0.0012207,0.000152588,-2.42745,0.0544603,-0.0753682,0.0535176,0.0712755,-0.0943672,0.145624,-0.126072,-0.0850118,0.0167465,0.0205994,0.0172043,0.0110626,0.014534,-0.00312805,0.0193405,0.0178528,-9.97986,0.0571823,-0.00225067,0.0133133,0.0179291,0.0149918,-0.0166702,0.0133133,0.00663757
12,4,10.0097,-0.000305176,0,-2.42684,0.0547655,-0.0762837,0.0529073,0.0706652,-0.094062,0.145318,-0.126377,-0.0834859,0.0117874,0.0216675,0.0160217,0.010643,0.0129318,-0.001297,0.0205994,0.0173187,-9.97986,0.0510788,0.000228882,0.00999451,0.0188065,0.0177002,-0.0135422,0.0170135,0.00652313
12,5,10.0097,0.00213623,0.000610352,-2.42592,0.0559862,-0.0753682,0.0544332,0.07036,-0.0916206,0.147149,-0.124241,-0.0819601,0.0117874,0.020752,0.019722,0.00774384,0.0136185,-0.00160217,0.0214767,0.0191498,-9.97986,0.043602,-0.00457764,0.0136185,0.0170135,0.0149918,-0.0182724,0.0160599,0.00484467
12,6,10.0097,0.0012207,0.000305176,-2.4244,0.0550706,-0.0738423,0.0547383,0.0673082,-0.0919257,0.145624,-0.12363,-0.0807394,0.0114441,0.0193024,0.0178528,0.00881195,0.0130081,-0.000762939,0.0205994,0.0205231,-9.97986,0.0362396,-0.00144958,0.0120926,0.0125885,0.0141525,-0.0181198,0.0177765,0.00411987
12,7,10.0097,0.000915527,-0.000457764,-2.42501,0.0562914,-0.0744527,0.0544332,0.0706652,-0.0916206,0.146234,-0.124241,-0.0816549,0.00976563,0.0214767,0.0196457,0.00865936,0.018158,0.000495911,0.022316,0.0204849,-9.97986,0.0308228,-0.0018692,0.0122833,0.0144196,0.0159073,-0.0122452,0.0181961,0.00576019
12,8,10.0097,0.000610352,0.000152588,-2.42592,0.0569017,-0.0738423,0.0544332,0.07036,-0.0913154,0.147149,-0.124241,-0.0810445,0.0103378,0.0214767,0.0196075,0.0139999,0.0197983,-0.00133514,0.0241089,0.0201416,-9.97986,0.0265503,-0.00160217,0.0108337,0.00865936,0.0124359,-0.0132751,0.0158691,0.00366211
12,9,10.0097,0.00152588,0.000152588,-2.42379,0.0553758,-0.0738423,0.0547383,0.07036,-0.0903999,0.147149,-0.123935,-0.0810445,0.00843048,0.0238037,0.0218964,0.0130081,0.0145721,0.00202179,0.0251389,0.0230408,-9.97986,0.0225067,0.000572205,0.0174332,0.00564575,0.0139999,-0.0112915,0.0160599,0.0056076
13,0,10.0097,-0.000305176,-0.00137329,-2.42714,0.0559862,-0.0747579,0.0532125,0.0435045,-0.0937568,0.145929,-0.127292,-0.0822652,0.0114441,0.02285,0.0206375,0.0101089,0.0168991,0.00038147,0.0259781,0.0205231,-9.97986,0.0178528,0.000991821,0.0165176,0.0069046,0.0135422,-0.00682831,0.0165558,0.00667572
13,1,9.06056,-0.00183105,-0.00167847,-2.42501,0.0559862,-0.0741475,0.0535176,0.0468614,-0.0922309,0.145624,-0.126377,-0.0816549,0.00934601,0.0217056,0.0195694,0.0109863,0.0182343,-0.00137329,0.0235367,0.0235367,-9.97986,0.0161743,-7.62939e-005,0.0138855,0.00705719,0.0121307,-0.00705719,0.0147247,0.00614166
13,2,8.02632,-0.000305176,-0.000610352,-2.42562,0.0559862,-0.0756734,0.0547383,0.058153,-0.0916206,0.146234,-0.125461,-0.0813497,0.00518799,0.0222397,0.0181198,0.00926971,0.0163651,0.000495911,0.0208282,0.0214767,-9.97986,0.0166321,-0.00480652,0.0118637,0.00782013,0.0167084,-0.00362396,0.0164413,0.0031662
13,3,7.96559,0.00152588,0,-2.42745,0.0550706,-0.0747579,0.054128,0.0654772,-0.0916206,0.144403,-0.126072,-0.0819601,0.00606537,0.0258255,0.0220871,0.0131226,0.0166702,-0.0031662,0.0206375,0.0178528,-9.97986,0.0134659,0.00270844,0.013237,0.00728607,0.0128555,-0.000457764,0.0162125,0.00770569
13,4,8.30495,0.00274658,0.000305176,-2.42623,0.0538499,-0.0744527,0.054128,0.0746324,-0.0922309,0.144708,-0.126072,-0.0847066,0.00976563,0.0233841,0.0231171,0.00537872,0.0187683,3.8147e-005,0.0230789,0.0242615,-9.97986,0.0121307,-0.00541687,0.0174713,0.00114441,0.0169754,0.00358582,0.0165558,0.00717163
13,5,10.0097,-0.0012207,0.00106812,-2.42684,0.0544603,-0.0747579,0.0556539,0.103624,-0.0897895,0.144098,-0.123935,-0.0847066,0.0119019,0.0294876,0.0200272,0.0113678,0.0175095,-0.00171661,0.0196838,0.0193787,-9.97986,0.0113678,0.00225067,0.0154114,-0.000267029,0.0177765,0.00473022,0.0135422,0.0050354
13,6,10.0097,0,0.000305176,-2.42959,0.0535448,-0.0753682,0.0519917,0.0843981,-0.0949775,0.142572,-0.126072,-0.0865377,0.0087738,0.0214386,0.0250244,0.00976563,0.015831,0.000953674,0.0188828,0.0240707,-9.97986,0.00972748,0.00228882,0.0179672,-0.00125885,0.0108719,0.00602722,0.0187302,0.00629425
13,7,10.0097,0.0012207,-0.000152588,-2.4302,0.0550706,-0.0759786,0.0529073,0.0761583,-0.0952827,0.143487,-0.126987,-0.0877584,0.00751495,0.0211716,0.0174713,0.0124359,0.0149536,-0.00236511,0.0205231,0.0260544,-9.97986,0.00923157,0.000648499,0.0144196,0.000228882,0.011673,-0.000305176,0.0175858,0.00923157
13,8,10.0097,0.000305176,0,-2.42898,0.0538499,-0.0762837,0.0522969,0.0706652,-0.0949775,0.144708,-0.127598,-0.0871481,0.00640869,0.0212097,0.0180435,0.0127792,0.0151825,-0.000610352,0.0231934,0.0200272,-9.97986,0.0125504,0.00232697,0.0165176,-0.00297546,0.0146866,0.00133514,0.0164795,0.00576019
13,9,10.0097,0.00152588,-0.000152588,-2.43081,0.0529344,-0.0768941,0.0513814,0.0697496,-0.0949775,0.144403,-0.127292,-0.0859274,0.00831604,0.0218582,0.014801,0.00988007,0.0168228,-0.00392914,0.0190735,0.0227356,-9.97986,0.0102997,-0.00213623,0.0121689,-0.00732422,0.0112152,-0.000419617,0.015564,0.0062561
14,0,10.0097,0.000610352,-0.000457764,-2.42867,0.0538499,-0.0771993,0.0522969,0.0694445,-0.0946723,0.142267,-0.127598,-0.0877584,0.0161362,0.0251007,0.0161743,0.0132751,0.0170135,-0.000648499,0.0233841,0.0251007,-9.97986,0.00640869,0.00118256,0.0157166,-0.00617981,0.0130463,-0.00270844,0.0188446,0.00713348
14,1,10.0097,-0.000305176,0,-2.42837,0.0538499,-0.0759786,0.0532125,0.0688341,-0.0934516,0.145318,-0.126377,-0.0865377,0.0133896,0.0262451,0.0191116,0.0110626,0.0106812,0.00190735,0.0256348,0.0279236,-9.97986,0.00511169,0.0012207,0.0161362,-0.00514984,0.0152206,-0.000534058,0.0204468,0.00488281
14,2,10.0097,-0.00244141,-0.000610352,-2.42714,0.055681,-0.0747579,0.0535176,0.07036,-0.0931465,0.145318,-0.126072,-0.085317,0.00797272,0.0255585,0.0146484,0.00785828,0.0152588,-0.00289917,0.0212097,0.0214386,-9.97986,0.00312805,0.00183105,0.0150681,-0.00507355,0.0127029,-0.00572205,0.0124359,0.00270844
14,3,10.0097,0.0012207,0.000305176,-2.42776,0.055681,-0.0759786,0.0526021,0.0694445,-0.0925361,0.145013,-0.126072,-0.0837911,0.00667572,0.0288391,0.0233078,0.01194,0.0180817,-0.00038147,0.0229263,0.0239944,-9.97986,0.0102997,0.000114441,0.0187683,-0.00663757,0.0137711,-0.00350952,0.0160217,0.00740051
14,4,10.0097,-0.000610352,0.000610352,-2.42776,0.0544603,-0.0744527,0.0532125,0.0700548,-0.0922309,0.145013,-0.126987,-0.0834859,0.00167847,0.0310135,0.0230026,0.0146103,0.0165176,-0.00190735,0.0224686,0.0267792,-9.97986,0.00968933,-0.00293732,0.0195313,-0.00747681,0.0149155,-0.00629425,0.0157166,0.00411987
14,5,10.0097,0.000915527,0.000457764,-2.42623,0.0562914,-0.0735371,0.0544332,0.0712755,-0.0916206,0.147149,-0.124851,-0.0816549,-0.00556946,0.0335693,0.0255203,0.00995636,0.019989,-0.00598907,0.0246811,0.0279617,-9.97986,0.00846863,-0.00118256,0.0172043,-0.0104523,0.0128555,-0.0116348,0.0136566,0.00423431
14,6,10.0097,0.0012207,0,-2.4247,0.0559862,-0.0741475,0.0544332,0.07036,-0.0931465,0.146844,-0.12363,-0.0810445,-0.00179291,0.0284576,0.0251389,0.0105667,0.0190353,-0.00144958,0.0262451,0.026474,-9.97986,0.00679016,7.62939e-005,0.019989,-0.00747681,0.0144196,-0.0124359,0.0137711,0.0043869
14,7,10.0097,0,-0.000305176,-2.42531,0.0559862,-0.0744527,0.0550435,0.0715807,-0.0919257,0.146234,-0.124241,-0.0813497,-0.00282288,0.026474,0.0219727,0.0125504,0.0184631,0.00240326,0.0234222,0.0255966,-9.97986,0.0087738,0.000534058,0.0188828,-0.00686646,0.0160217,-0.00659943,0.0185013,0.00701904
14,8,10.0097,-0.000305176,0.000152588,-2.42531,0.055681,-0.0729268,0.0550435,0.0706652,-0.0913154,0.146234,-0.124241,-0.0819601,-0.00938416,0.0305939,0.021286,0.0151443,0.0170517,-0.00205994,0.0258255,0.0207138,-9.97986,0.00362396,-0.00190735,0.0172043,-0.00652313,0.0126266,-0.00293732,0.0144577,0.00854492
14,9,10.0097,-0.00183105,0.000610352,-2.42562,0.0569017,-0.0735371,0.0550435,0.07036,-0.0913154,0.145318,-0.124851,-0.0804342,-0.00293732,0.0312042,0.0244141,0.0131989,0.0186157,3.8147e-005,0.0267792,0.0207901,-9.97986,0.00919342,0.00293732,0.0183868,-0.00644684,0.0118256,0.00102997,0.0139618,0.01091
15,0,10.0097,0.000305176,-0.000762939,-2.42592,0.0559862,-0.0741475,0.0535176,0.0456407,-0.0949775,0.147149,-0.126682,-0.0825704,0.000762939,0.0248337,0.0213242,0.0115204,0.0165558,-0.00152588,0.0229645,0.018959,-9.97986,0.00999451,0.000953674,0.0177765,-0.00537872,0.0109482,0.00171661,0.0136566,0.00583649
15,1,9.19759,0.000305176,-0.00152588,-2.42653,0.055681,-0.0744527,0.0544332,0.0465563,-0.0934516,0.145929,-0.126072,-0.0828756,0.00457764,0.030899,0.0265503,0.0104904,0.0145721,-0.00396729,0.0269699,0.0177383,-9.97986,0.00362396,-0.00209808,0.0139999,-0.00961304,0.01194,0.00408173,0.017128,0.00392914
15,2,8.20699,0.00152588,-0.000305176,-2.42501,0.0544603,-0.0729268,0.0553487,0.058153,-0.0919257,0.146844,-0.125461,-0.0825704,0.00953674,0.0314331,0.0236511,0.0185394,0.0170898,-0.00209808,0.0260544,0.0146103,-9.97986,0.000801086,0.00270844,0.0186539,-0.00537872,0.0189209,0.00801086,0.0189209,0.00621796
15,3,8.07912,0.000610352,-0.000305176,-2.42653,0.0550706,-0.0747579,0.054128,0.0663927,-0.0925361,0.146234,-0.126377,-0.0828756,0.0129318,0.0283051,0.0214767,0.0174332,0.0144196,-0.00190735,0.0257111,0.0161743,-9.97986,-0.0050354,-0.000991821,0.0156403,-0.00774384,0.0164413,0.0019455,0.0120163,0.00610352
15,4,8.45662,0.000610352,0.000305176,-2.42592,0.0562914,-0.0747579,0.0550435,0.0746324,-0.0913154,0.143792,-0.125461,-0.0828756,0.0169754,0.0339508,0.0261307,0.0131989,0.0211716,-0.00118256,0.0267029,0.0166702,-9.97986,-0.0114059,-0.001297,0.0180817,-0.00526428,0.0140381,-0.00259399,0.0127411,0.0062561
15,5,10.0097,0.000305176,0.000457764,-2.42806,0.0541551,-0.0738423,0.0547383,0.105455,-0.0897895,0.145318,-0.123935,-0.0837911,0.0182724,0.0326538,0.022316,0.0172424,0.0204849,-0.00259399,0.0271606,0.0145721,-9.97986,-0.0190735,-0.00167847,0.0133133,-0.00450134,0.0138474,-0.00278473,0.0153351,0.00526428
15,6,10.0097,0.00244141,0.0012207,-2.42989,0.0544603,-0.0771993,0.0522969,0.0837877,-0.0931465,0.143792,-0.126072,-0.0862325,0.0317383,0.0287628,0.0215149,0.016098,0.0152588,0.000343323,0.0236893,0.0220871,-9.97986,-0.029068,-0.000419617,0.0180817,-0.00270844,0.0163269,0.00038147,0.0170135,0.0031662
15,7,10.0097,0,0.000762939,-2.42959,0.0535448,-0.0768941,0.0516866,0.0749376,-0.0965034,0.143182,-0.126377,-0.0871481,0.0350189,0.0255585,0.0241089,0.0152206,0.0181961,-0.000648499,0.0236893,0.0172424,-9.97986,-0.0344467,-0.00228882,0.0173187,-0.0025177,0.0133133,0.000839233,0.0128174,0.00778198
15,8,10.0097,0.000305176,0.000457764,-2.42837,0.0547655,-0.0771993,0.0519917,0.0706652,-0.0949775,0.144403,-0.127903,-0.0868429,0.0293732,0.0276566,0.0201797,0.0143814,0.0201797,-0.00415802,0.0252533,0.0159073,-9.97986,-0.0217819,-0.000915527,0.0146484,-0.00240326,0.0119781,-0.0012207,0.018158,0.00301361
15,9,10.0097,0.000610352,-0.000457764,-2.42898,0.0532396,-0.0756734,0.0522969,0.07036,-0.0949775,0.144098,-0.126682,-0.0877584,0.0194931,0.0227737,0.0164795,0.0114441,0.0188446,0.00232697,0.0236511,0.0165939,-9.97986,0.00263214,-0.00183105,0.0172043,-0.00263214,0.0184631,0.000305176,0.0140381,0.00415802
16,0,10.0097,0.00213623,-0.00167847,-2.42928,0.0547655,-0.0759786,0.0519917,0.0694445,-0.0943672,0.142572,-0.128208,-0.0877584,0.0127411,0.0213623,0.0202179,0.0130463,0.0177002,0.00209808,0.0259781,0.0160599,-9.97986,0.039978,0.00144958,0.0164795,-7.62939e-005,0.0152969,-0.00133514,0.0201416,0.00602722
16,1,10.0097,-0.00152588,-0.000152588,-2.42806,0.0541551,-0.0756734,0.0522969,0.0688341,-0.0937568,0.143792,-0.126682,-0.085317,0.0155258,0.0192261,0.0146484,0.0123978,0.0160599,-0.00209808,0.0245667,0.0185776,-9.97986,0.0572968,0.00221252,0.0166702,0.00137329,0.0139236,-0.00621796,0.0195313,0.00423431
16,2,10.0097,0.000915527,-0.000305176,-2.42806,0.0550706,-0.0753682,0.054128,0.0697496,-0.094062,0.143792,-0.126987,-0.085317,0.0154495,0.0147247,0.0156784,0.0130081,0.0169754,-0.00240326,0.0245285,0.0183105,-9.97986,0.0524521,0.00225067,0.018425,-0.000228882,0.0198364,-0.010643,0.0174713,0.00610352
16,3,10.0097,0.0012207,-0.000152588,-2.42745,0.0550706,-0.0747579,0.0544332,0.0709703,-0.0928413,0.145318,-0.125156,-0.0844015,0.0177765,0.0173569,0.0164032,0.0138474,0.0168991,-0.00213623,0.0228119,0.0142288,-9.97986,0.0447464,0.000572205,0.018425,-0.0043869,0.0146866,-0.010643,0.0208282,0.00667572
16,4,10.0097,0.000610352,-0.000152588,-2.42684,0.0553758,-0.075063,0.0538228,0.0694445,-0.0922309,0.145624,-0.125766,-0.0844015,0.0114441,0.0143814,0.018692,0.0156403,0.0218582,-0.00453949,0.0255585,0.0209808,-9.97986,0.0415039,0.000991821,0.0175095,-0.00473022,0.0185776,-0.00843048,0.0213242,0.0094223
16,5,10.0097,0.00183105,0.000305176,-2.42592,0.0572069,-0.0747579,0.0550435,0.0706652,-0.0922309,0.145929,-0.124241,-0.0822652,0.014801,0.0182343,0.0136948,0.0159836,0.0222397,0.000648499,0.0193787,0.018959,-9.97986,0.0363159,0.00110626,0.014801,-0.000228882,0.0159073,-0.00591278,0.0183868,0.00556946
16,6,10.0097,-0.000305176,-0.000305176,-2.42653,0.0562914,-0.0744527,0.0550435,0.0718859,-0.0928413,0.146844,-0.124241,-0.0816549,0.0171661,0.0191879,0.0193024,0.0140762,0.0226974,-0.00228882,0.0226212,0.0104523,-9.97986,0.0364304,0.00152588,0.0161362,0.00141144,0.015831,-0.00274658,0.0201035,0.00904083
16,7,10.0097,0.00183105,0.000152588,-2.42531,0.0562914,-0.0744527,0.0544332,0.0724962,-0.0925361,0.146844,-0.124546,-0.0810445,0.0123596,0.0152206,0.0153732,0.0121307,0.0161743,-0.00408173,0.0228119,0.0185776,-9.97986,0.0353241,-0.00160217,0.0167084,0.00328064,0.0137329,-0.00343323,0.0192261,0.00911713
16,8,10.0097,0.00213623,0.000152588,-2.42592,0.0559862,-0.0726216,0.0544332,0.0694445,-0.0916206,0.146539,-0.124851,-0.0810445,0.0165558,0.0200653,0.019455,0.0155258,0.0212479,-0.00610352,0.0224686,0.0154877,-9.97986,0.0282288,-0.00118256,0.0156403,0.00518799,0.0175476,-3.8147e-005,0.0193405,0.0044632
16,9,10.0097,0.0012207,0.000152588,-2.42623,0.0575121,-0.0744527,0.0553487,0.0715807,-0.0910102,0.146844,-0.124546,-0.0804342,0.0102234,0.019989,0.0190735,0.00785828,0.0182724,-0.00160217,0.0220871,0.017662,-9.97986,0.0246048,-0.00659943,0.014267,0.0109863,0.0168228,0.00137329,0.0164413,0.00514984
17,0,10.0097,-0.00274658,-0.0012207,-2.42592,0.0569017,-0.0744527,0.0526021,0.0450304,-0.0952827,0.145318,-0.126072,-0.0822652,0.014267,0.0212479,0.0205612,0.013504,0.0165176,-0.00286102,0.02388,0.0154114,-9.97986,0.0191116,-0.00328064,0.0142288,0.00747681,0.0178146,-0.00312805,0.0190735,0.00423431
17,1,8.90309,0.0012207,-0.000457764,-2.42684,0.0553758,-0.0747579,0.0532125,0.0468614,-0.0928413,0.146844,-0.125766,-0.0813497,0.0143433,0.0246429,0.0227356,0.0120926,0.0198746,0.000610352,0.0237274,0.0179672,-9.97986,0.0189972,0.00118256,0.016861,0.00293732,0.0163651,-0.00408173,0.0183868,0.00461578
17,2,7.88991,0.000915527,-0.000305176,-2.42623,0.0559862,-0.0741475,0.0544332,0.058153,-0.0919257,0.145013,-0.126377,-0.0834859,0.0114441,0.018692,0.0207138,0.0112534,0.018959,-0.00499725,0.0234604,0.0171661,-9.97986,0.0187683,-0.000762939,0.0173569,0.00747681,0.0210571,-0.0075531,0.0177002,0.00617981
17,3,7.81758,0.000610352,-0.000457764,-2.42745,0.0562914,-0.075063,0.054128,0.0660875,-0.0934516,0.146234,-0.126377,-0.0834859,0.0125885,0.0262833,0.0210571,0.0158691,0.0197601,-0.00457764,0.0197983,0.0183105,-9.97986,0.0190353,-0.000114441,0.0190735,0.00812531,0.0220108,-0.00473022,0.0151443,0.00782013
17,4,8.19295,0.0012207,0.000305176,-2.42562,0.0547655,-0.0753682,0.0547383,0.075548,-0.0910102,0.145318,-0.125461,-0.0837911,0.0120163,0.0250244,0.0214386,0.0120926,0.0177383,0.00286102,0.0265503,0.0139999,-9.97986,0.0165176,-0.00183105,0.013237,0.00488281,0.0233078,-0.00499725,0.017128,0.00667572
17,5,10.0097,0.000610352,0.00152588,-2.42653,0.0544603,-0.0756734,0.054128,0.10454,-0.0900947,0.144403,-0.124241,-0.0844015,0.00492096,0.025444,0.0189209,0.0133514,0.0165939,0.000839233,0.0195313,0.021286,-9.97986,0.0168228,-0.00232697,0.0184631,0.00537872,0.0217056,-0.00164032,0.018425,0.00793457
17,6,10.0097,0.000610352,0.000457764,-2.42989,0.0517137,-0.0762837,0.0510762,0.0850084,-0.0952827,0.144708,-0.126377,-0.0868429,0.00175476,0.0258255,0.0169754,0.00808716,0.0194168,0.000801086,0.0250244,0.0196838,-9.97986,0.0143433,-0.00362396,0.0154877,0.00717163,0.0210953,-0.00476837,0.0172424,0.0044632
17,7,10.0097,0.00152588,0.000152588,-2.42928,0.0517137,-0.0759786,0.0522969,0.0743273,-0.0946723,0.142572,-0.127292,-0.0871481,0.00217438,0.026741,0.0194931,0.00801086,0.0225449,-0.00148773,0.0227737,0.0230789,-9.97986,0.0138855,-0.000457764,0.0153732,0.00846863,0.0167084,-0.00537872,0.017128,0.00759125
17,8,10.0097,0,0.000610352,-2.43081,0.0538499,-0.0768941,0.0513814,0.0715807,-0.0955879,0.143792,-0.126072,-0.0871481,-0.000534058,0.0242996,0.015831,0.00831604,0.0165176,-0.000152588,0.022049,0.0247192,-9.97986,0.0168228,-0.00217438,0.01297,0.0127792,0.0200653,-0.00423431,0.0188828,0.0087738
17,9,10.0097,0.000915527,0,-2.42928,0.0492723,-0.0756734,0.0519917,0.0694445,-0.0937568,0.142877,-0.126987,-0.0871481,0.00667572,0.0315094,0.0166702,0.0143433,0.0159836,0.0044632,0.0212479,0.0260162,-9.97986,0.0135422,-0.00209808,0.0160599,0.012207,0.0190735,-0.000724792,0.0160599,0.00873566
18,0,10.0097,0.000305176,-0.000610352,-2.42959,0.0535448,-0.0762837,0.0516866,0.0691393,-0.0934516,0.144098,-0.128818,-0.0877584,0.0139999,0.0285721,0.0172043,0.00827789,0.0174332,0.0012207,0.0251007,0.0241852,-9.97986,0.0147247,-0.00328064,0.0147629,0.00785828,0.017662,-0.000190735,0.0152588,0.00938416
18,1,10.0097,0.000915527,-0.000762939,-2.42959,0.0550706,-0.0753682,0.0519917,0.0694445,-0.0931465,0.145013,-0.127598,-0.0859274,0.0203323,0.0262451,0.0156021,0.0107574,0.0204849,0.00522614,0.0214386,0.0247955,-9.97986,0.0144577,-0.00476837,0.0131607,0.0137711,0.0200653,0.000305176,0.0159454,0.00797272
18,2,10.0097,0.00244141,0.000152588,-2.42714,0.0565965,-0.0747579,0.0562642,0.0697496,-0.0937568,0.145318,-0.127598,-0.0850118,0.0313568,0.0304413,0.01194,0.00770569,0.0200653,-0.00137329,0.0246811,0.0315857,-9.97986,0.0131607,-0.0043869,0.018158,0.0125885,0.0180054,0.0025177,0.0214005,0.011673
18,3,10.0097,-0.000915527,0.000457764,-2.42684,0.0550706,-0.0747579,0.054128,0.0700548,-0.0922309,0.145318,-0.126682,-0.0844015,0.0255585,0.0287628,0.0190735,0.0106812,0.0202179,0.00183105,0.0201035,0.0318146,-9.97986,0.00961304,-0.00587463,0.0151825,0.00785828,0.018959,0.00473022,0.0192261,0.00762939
18,4,10.0097,0.000610352,0.000152588,-2.42745,0.0544603,-0.0747579,0.0532125,0.0685289,-0.094062,0.146234,-0.124851,-0.0828756,-0.00938416,0.026741,0.0200653,0.00644684,0.0191498,0.000457764,0.0198746,0.0315857,-9.97986,0.00995636,-0.00247955,0.0153351,0.00747681,0.0225067,0.00556946,0.0205994,0.00968933
18,5,10.0097,0,0.000152588,-2.42592,0.055681,-0.073232,0.0556539,0.0709703,-0.0922309,0.146844,-0.123935,-0.0810445,-0.0273132,0.0300217,0.0195313,0.0115967,0.0178146,-0.000152588,0.0213623,0.0286102,-9.97986,0.00217438,-0.00419617,0.0138474,0.00854492,0.0185394,0.00244141,0.0141144,0.00770569
18,6,10.0097,-0.000915527,-0.000305176,-2.42592,0.055681,-0.073232,0.054128,0.0712755,-0.0925361,0.146234,-0.125766,-0.0816549,-0.0260544,0.0349808,0.0212097,0.0123978,0.0216293,0.00171661,0.0202942,0.0163651,-9.97986,0.0030899,-0.0025177,0.0128555,0.0117493,0.0186157,0.00717163,0.0157928,0.00484467
18,7,10.0097,0.0012207,0.000915527,-2.4247,0.0569017,-0.0738423,0.0553487,0.0706652,-0.090705,0.146539,-0.124546,-0.0804342,-0.00514984,0.0326157,0.0222015,0.0147629,0.0185394,0.00492096,0.0246048,0.0136185,-9.97986,0.00549316,-0.000648499,0.0170898,0.0125885,0.0189972,-0.00118256,0.0174332,0.00785828
18,8,10.0097,-0.000305176,0.000457764,-2.42501,0.0559862,-0.0726216,0.050771,0.0712755,-0.090705,0.145624,-0.12363,-0.0813497,-0.00835419,0.0294113,0.023613,0.0148773,0.0163269,0.00190735,0.0218582,0.0121689,-9.97986,0.00976563,-0.001297,0.0124741,0.011673,0.0186157,-0.0043869,0.0199509,0.00453949
18,9,10.0097,-0.000305176,0.000762939,-2.42531,0.0559862,-0.0738423,0.0544332,0.0712755,-0.0910102,0.146844,-0.125461,-0.0813497,-0.00606537,0.0302887,0.0222778,0.0130081,0.0165939,0.00530243,0.0258636,0.0114441,-9.97986,0.00915527,-0.00263214,0.0149536,0.0116348,0.0194168,-0.0030899,0.0131989,0.00713348
19,0,10.0097,-0.0012207,-0.0012207,-2.42623,0.0565965,-0.0741475,0.0529073,0.0450304,-0.094062,0.145624,-0.126682,-0.0828756,0.016861,0.0271225,0.0175095,0.0150299,0.0134659,0.00537872,0.0229263,0.00156403,-9.97986,0.000457764,-0.00450134,0.00900269,0.00991821,0.0187302,-0.0063324,0.0165558,0.00862122
19,1,9.19911,-0.000305176,-0.000915527,-2.42623,0.0569017,-0.0738423,0.0516866,0.0480822,-0.0919257,0.145929,-0.126682,-0.0819601,0.034523,0.0272369,0.0231552,0.0118256,0.0200653,0.00289917,0.0234222,-3.8147e-005,-9.97986,0.00164032,-0.0012207,0.0141525,0.013504,0.0211716,-0.00171661,0.0158691,0.00850677
19,2,8.25154,0.00152588,-0.000152588,-2.42653,0.0562914,-0.075063,0.0544332,0.0590685,-0.0931465,0.145624,-0.125766,-0.0822652,0.0494766,0.0254059,0.0204849,0.00900269,0.0152969,0.00370026,0.0232315,-0.00205994,-9.97986,-0.00106812,-0.00133514,0.0131989,0.0163651,0.0204468,-0.00274658,0.0127029,0.0130844
19,3,8.18715,0.000305176,0,-2.42684,0.0547655,-0.0753682,0.0538228,0.0657823,-0.0928413,0.145929,-0.125766,-0.0828756,0.0685883,0.0205612,0.018959,0.0127792,0.0204849,0.00343323,0.0248718,0.00087738,-9.97986,0.00614166,-0.00144958,0.013504,0.014534,0.0187302,0.00236511,0.0180054,0.0111389
19,4,8.53292,0.00213623,-0.000305176,-2.42653,0.0553758,-0.0744527,0.0516866,0.0749376,-0.0922309,0.146539,-0.126987,-0.0831808,0.0413513,0.0207138,0.0199127,0.0136185,0.0151062,0.0043869,0.0216293,0.00164032,-9.97986,0.0213623,-0.00461578,0.0136185,0.0108719,0.0183105,-0.00366211,0.0154877,0.00984192
19,5,10.0097,-0.000305176,0.00183105,-2.42745,0.0541551,-0.0756734,0.0547383,0.104234,-0.0919257,0.144403,-0.122104,-0.0837911,0.0136185,0.0171661,0.0144196,0.017395,0.0157928,0.00743866,0.0219727,-0.00087738,-9.97986,0.0424957,-0.0012207,0.0166321,0.018425,0.0199509,-0.00225067,0.0198364,0.0110245
19,6,10.0097,0.0012207,0.000762939,-2.42959,0.0535448,-0.0741475,0.0513814,0.0843981,-0.0943672,0.143182,-0.126682,-0.0871481,0.00972748,0.0181961,0.0110626,0.0111389,0.0175858,0.00274658,0.0214005,0.00133514,-9.97986,0.0492096,-0.0056076,0.0158691,0.0117493,0.0168228,-0.00282288,0.0148392,0.00782013
19,7,10.0097,-0.0012207,-0.000305176,-2.42928,0.0535448,-0.0759786,0.0568746,0.0746324,-0.0949775,0.143792,-0.126072,-0.0871481,-0.00125885,0.0151443,0.0127029,0.0113678,0.0167465,0.00823975,0.0229263,0.00652313,-9.97986,0.0436783,-0.0038147,0.0175858,0.0153351,0.0218201,-0.00137329,0.0221252,0.0117874
19,8,10.0097,-0.000305176,0.000305176,-2.42898,0.0544603,-0.0759786,0.0513814,0.07036,-0.0937568,0.144098,-0.125766,-0.0868429,-0.00286102,0.010643,0.00934601,0.0147247,0.0167084,0.00812531,0.0222015,0.0094223,-9.97986,0.0298691,-0.00244141,0.01194,0.0175858,0.0182343,-0.00514984,0.0180435,0.00747681
19,9,10.0097,0.000305176,-0.000610352,-2.42959,0.0547655,-0.0756734,0.0510762,0.0682238,-0.0952827,0.144403,-0.127292,-0.0874532,0.00125885,0.0138855,0.00835419,0.0113297,0.0227737,0.00881195,0.0239182,0.00724792,-9.97986,0.0204086,0.00247955,0.0164413,0.0175095,0.0219345,-0.00549316,0.0177002,0.00846863
20,0,10.0097,0.00274658,-0.000305176,-2.42959,0.0529344,-0.0759786,0.0483296,0.0682238,-0.095893,0.142877,-0.127292,-0.0871481,0.00541687,0.0149536,0.00797272,0.0112534,0.0147247,0.0104904,0.0200653,0.0102615,-9.97986,0.019722,-0.000991821,0.0146103,0.0167084,0.0207138,-0.00740051,0.0160217,0.0062561
20,1,10.0097,0.00183105,-0.000152588,-2.42867,0.0553758,-0.0741475,0.0522969,0.0709703,-0.0968086,0.143487,-0.125156,-0.0862325,0.00843048,0.0113678,0.00926971,0.0115585,0.018692,0.00545502,0.0201797,0.0191879,-9.97986,0.0199127,0.00305176,0.01091,0.0136948,0.015564,-0.00614166,0.0188828,0.00751495
20,2,10.0097,0.000915527,-0.000305176,-2.42714,0.0535448,-0.0765889,0.0538228,0.0697496,-0.094062,0.145013,-0.126377,-0.0850118,0.00694275,0.0143051,0.00843048,0.0088501,0.0167847,0.00843048,0.0234985,0.0177002,-9.97986,0.0157928,-0.00137329,0.00972748,0.0156784,0.0199509,-0.00320435,0.0162125,0.0101471
20,3,10.0097,0.000610352,0.000457764,-2.42837,0.0562914,-0.0753682,0.0510762,0.0697496,-0.094062,0.144403,-0.126072,-0.0844015,0.00778198,0.0126648,0.0069809,0.00892639,0.0150299,0.0056076,0.0226593,0.014801,-9.97986,0.00289917,0.00141144,0.0105286,0.0154877,0.0175095,-0.00217438,0.0159836,0.00621796
20,4,10.0097,0.00152588,0.000610352,-2.42653,0.0547655,-0.0735371,0.0532125,0.0700548,-0.0922309,0.144708,-0.120578,-0.0834859,0.00854492,0.0140762,0.0143433,0.00957489,0.0225449,0.00778198,0.0235367,0.0159073,-9.97986,0.0030899,-0.00225067,0.0122452,0.0152588,0.0179291,-0.00244141,0.0173187,0.00827789
20,5,10.0097,0,0.000305176,-2.42623,0.0578172,-0.0735371,0.0547383,0.0718859,-0.0910102,0.145624,-0.124546,-0.0825704,0.00926971,0.0147247,0.0123596,0.00740051,0.0161362,0.00713348,0.0216675,0.0169754,-9.97986,0.00488281,0.00198364,0.011673,0.0198746,0.0175858,-0.00473022,0.0176239,0.00831604
20,6,10.0097,0,0.000152588,-2.42409,0.0565965,-0.073232,0.0580953,0.0700548,-0.0910102,0.147149,-0.123935,-0.0825704,0.00953674,0.0165939,0.0120163,0.0123215,0.0180817,0.0111389,0.0246429,0.0159836,-9.97986,0.01297,0.000267029,0.00652313,0.0144958,0.0165939,-0.00370026,0.0148392,0.00701904
20,7,10.0097,0.000305176,0.000305176,-2.42501,0.0550706,-0.0747579,0.0535176,0.0715807,-0.090705,0.146234,-0.125766,-0.0813497,0.0088501,0.0180054,0.0172424,0.0134659,0.0196838,0.00968933,0.0218201,0.012207,-9.97986,0.0127411,0.00141144,0.00892639,0.0177765,0.0178146,-0.00286102,0.0170898,0.00610352
20,8,10.0097,0.000915527,0.000305176,-2.4247,0.0559862,-0.0738423,0.0553487,0.0712755,-0.0900947,0.146539,-0.124851,-0.0807394,0.0140762,0.014801,0.0131607,0.0107956,0.0159073,0.0094986,0.0187683,0.0140762,-9.97986,0.0113678,-0.00228882,0.0114822,0.0170517,0.0193024,-0.00480652,0.0141144,0.0101471
20,9,10.0097,0.000915527,0,-2.42501,0.0569017,-0.0738423,0.0620626,0.0712755,-0.0913154,0.146844,-0.124851,-0.0807394,0.0104141,0.0180054,0.0152588,0.0110626,0.0174332,0.0094223,0.017128,0.0194931,-9.97986,0.00972748,0.00144958,0.0108719,0.017128,0.0196075,-0.00774384,0.0153351,0.00858307
21,0,10.0097,0.000610352,-0.000915527,-2.42623,0.0572069,-0.0741475,0.0535176,0.04442,-0.0952827,0.146844,-0.126987,-0.0822652,0.00514984,0.0232315,0.0147247,0.0133514,0.0169373,0.0116348,0.0225449,0.0200272,-9.97986,0.0131226,0.00209808,0.0130081,0.0170517,0.0191498,-0.00774384,0.0175858,0.00911713
21,1,9.16585,0.000305176,-0.00183105,-2.42623,0.0562914,-0.073232,0.054128,0.0483873,-0.0928413,0.145929,-0.126072,-0.0822652,0.00656128,0.0194931,0.0156403,0.00869751,0.0146103,0.00835419,0.0182343,0.0178528,-9.97986,0.0128174,-0.000419617,0.0102997,0.0211334,0.0185394,-0.0105286,0.0172424,0.00743866
21,2,8.18654,0,-0.00106812,-2.42562,0.055681,-0.0747579,0.0519917,0.0590685,-0.0928413,0.145624,-0.126072,-0.0813497,0.00961304,0.0191116,0.0154495,0.0106049,0.0161362,0.0100327,0.0191116,0.0152969,-9.97986,0.0104141,0.00225067,0.00751495,0.0185394,0.0175476,-0.00659943,0.0156784,0.00717163
21,3,8.11482,0.000610352,0.000762939,-2.42653,0.0547655,-0.075063,0.0532125,0.0657823,-0.0928413,0.145013,-0.13126,-0.0825704,0.0112534,0.0226593,0.0230789,0.0128555,0.0170898,0.0111389,0.0219345,0.0185394,-9.97986,0.0131226,0.00118256,0.01091,0.0207138,0.0169373,-0.00343323,0.0165939,0.0069809
21,4,8.50667,0.00152588,0.000305176,-2.42653,0.0547655,-0.0759786,0.054128,0.0761583,-0.0925361,0.145013,-0.124851,-0.0837911,0.00988007,0.0164795,0.0170898,0.00919342,0.0183105,0.0087738,0.0215912,0.015564,-9.97986,0.00995636,0.000839233,0.0101471,0.015564,0.0134277,-0.00347137,0.0133133,0.00934601
21,5,10.0097,0.000610352,0.00152588,-2.42745,0.0538499,-0.075063,0.0571797,0.107286,-0.0897895,0.144708,-0.124241,-0.0834859,0.01091,0.0217056,0.0183105,0.0110626,0.0154114,0.0103378,0.0188065,0.0187302,-9.97986,0.00846863,0.000152588,0.00740051,0.0225067,0.013504,-0.00350952,0.0176239,0.00675201
21,6,10.0097,0.00213623,0.000762939,-2.42928,0.0529344,-0.0768941,0.0529073,0.0853136,-0.0931465,0.144098,-0.122104,-0.0868429,0.0143814,0.0217056,0.0188446,0.0138855,0.0170898,0.0100708,0.0213623,0.0215149,-9.97986,0.0122833,-0.00797272,0.010643,0.0209427,0.0162125,-0.0012207,0.0149536,0.0110626
21,7,10.0097,0.00274658,-0.000152588,-2.4305,0.0544603,-0.0762837,0.0516866,0.0743273,-0.0971137,0.144098,-0.127903,-0.0862325,0.0107574,0.0200653,0.0192261,0.0141525,0.0174332,0.0102234,0.0235748,0.0174332,-9.97986,0.0141907,-0.00595093,0.0148392,0.0183105,0.0159836,-0.00175476,0.0149536,0.00946045
21,8,10.0097,0.000305176,-0.000457764,-2.42989,0.0535448,-0.0762837,0.0513814,0.0694445,-0.094062,0.143792,-0.127598,-0.0871481,0.0119781,0.0233841,0.02285,0.0149918,0.0173187,0.00713348,0.0227737,0.0172043,-9.97986,0.0125122,0.000534058,0.0123215,0.0199127,0.0188828,-0.00289917,0.0185394,0.00648499
21,9,10.0097,0,-0.000305176,-2.42867,0.0538499,-0.0747579,0.0516866,0.0694445,-0.0937568,0.143182,-0.130344,-0.0874532,0.0140762,0.023613,0.0201797,0.0144577,0.0159073,0.00823975,0.0177002,0.0174332,-9.97986,0.0107574,-0.000991821,0.0100708,0.0201035,0.0183105,-0.00549316,0.0166321,0.00808716
22,0,10.0097,0.000610352,-0.000152588,-2.4302,0.0529344,-0.0765889,0.0522969,0.0679186,-0.0952827,0.143487,-0.126682,-0.0871481,0.00873566,0.0248337,0.0189209,0.0139618,0.0162125,0.0118637,0.0258636,0.0168228,-9.97986,0.0131989,0.000839233,0.0110245,0.0209045,0.0134659,-0.00213623,0.0130081,0.0088501
22,1,10.0097,-0.00213623,-0.000457764,-2.42867,0.0535448,-0.0756734,0.0516866,0.0697496,-0.0937568,0.143182,-0.126987,-0.0859274,0.00892639,0.0232697,0.0202942,0.0130081,0.0159073,0.0115585,0.0222015,0.0179672,-9.97986,0.0113297,-0.000724792,0.0109863,0.0212479,0.0185394,0.00148773,0.0139999,0.0087738
22,2,10.0097,0.000915527,0,-2.42898,0.0538499,-0.075063,0.0522969,0.0694445,-0.0934516,0.145318,-0.129429,-0.0850118,0.00957489,0.0263214,0.0209427,0.0107574,0.0141907,0.0114441,0.0198364,0.0175095,-9.97986,0.00839233,-0.000915527,0.00984192,0.0187302,0.0170517,0.00137329,0.013504,0.00862122
22,3,10.0097,0,0.000610352,-2.42745,0.0544603,-0.075063,0.0535176,0.0700548,-0.0931465,0.144403,-0.126072,-0.0840963,0.0123215,0.0241852,0.0178909,0.01091,0.0119781,0.0122833,0.0226593,0.0178909,-9.97986,0.00991821,0.000534058,0.00923157,0.0198746,0.017662,-0.000228882,0.0163651,0.00896454
22,4,10.0097,0.000915527,0,-2.42684,0.0550706,-0.075063,0.0538228,0.0688341,-0.0931465,0.145013,-0.124851,-0.0834859,0.0115967,0.0225449,0.0216675,0.0102615,0.0177765,0.00804901,0.0189972,0.0198746,-9.97986,0.0173569,-0.000190735,0.00785828,0.0222015,0.018158,-0.00160217,0.0132751,0.00728607
22,5,10.0097,-0.000610352,0.000152588,-2.42531,0.0565965,-0.0738423,0.054128,0.0706652,-0.0937568,0.147149,-0.125766,-0.0819601,0.00679016,0.0220871,0.0203705,0.00923157,0.0144196,0.0128174,0.018692,0.0146484,-9.97986,0.0138474,0.00114441,0.0116348,0.0204086,0.0131607,-3.8147e-005,0.0155258,0.00839233
22,6,10.0097,-0.000915527,0.000457764,-2.42501,0.0565965,-0.073232,0.054128,0.07036,-0.0910102,0.145624,-0.124241,-0.0807394,0.00862122,0.0200272,0.0197601,0.0138092,0.01297,0.00938416,0.019722,0.0166321,-9.97986,0.0141907,0.00114441,0.00785828,0.0177383,0.0183868,-0.00469208,0.014534,0.00732422
22,7,10.0097,0,-0.000305176,-2.42531,0.0569017,-0.0738423,0.0553487,0.0712755,-0.0919257,0.146539,-0.123935,-0.0825704,0.00968933,0.0214005,0.0183105,0.0087738,0.0198364,0.010376,0.0189209,0.0179291,-9.97986,0.0161362,-0.00225067,0.00846863,0.0170135,0.0136566,-0.00534058,0.0110626,0.00648499
22,8,10.0097,0.000915527,0.000305176,-2.42409,0.0565965,-0.073232,0.0553487,0.0700548,-0.090705,0.146234,-0.120884,-0.0807394,0.0106812,0.0260544,0.0232315,0.0130463,0.0175476,0.014534,0.0213623,0.019455,-9.97986,0.0152588,-0.00389099,0.00850677,0.0189209,0.0182343,-0.00267029,0.017128,0.00743866
22,9,10.0097,-0.000610352,0.000305176,-2.4244,0.0562914,-0.0744527,0.0544332,0.0712755,-0.0928413,0.146234,-0.12302,-0.0810445,0.00980377,0.0207138,0.0187683,0.011673,0.0148392,0.0138855,0.0193024,0.0182724,-9.97986,0.0159836,0.00465393,0.00915527,0.0216293,0.018158,-0.00724792,0.0162125,0.00953674
23,0,10.0097,0.000305176,-0.00106812,-2.42653,0.0569017,-0.0735371,0.0568746,0.0459459,-0.0965034,0.147149,-0.126072,-0.0819601,0.00881195,0.0237274,0.0216293,0.00961304,0.0164032,0.0111008,0.0188828,0.0172043,-9.97986,0.0111008,0.00221252,0.00934601,0.0210571,0.0153351,-0.0112534,0.0138092,0.00816345
23,1,9.35964,-0.000610352,-0.000610352,-2.4247,0.0562914,-0.075063,0.0529073,0.0480822,-0.0928413,0.145929,-0.126377,-0.0834859,0.0128937,0.0263214,0.0246429,0.0133133,0.0147247,0.0159454,0.0213242,0.0167465,-9.97986,0.0161362,-0.00602722,0.00862122,0.0185394,0.0182343,-0.010376,0.0187302,0.00907898
23,2,8.36476,0.000305176,-0.000762939,-2.42501,0.0547655,-0.0744527,0.054128,0.0590685,-0.0922309,0.147149,-0.125156,-0.0825704,0.0125122,0.0225067,0.0197983,0.0104141,0.0157547,0.0124359,0.0181961,0.0184631,-9.97986,0.0154495,0.00110626,0.00694275,0.0171661,0.0183105,-0.013237,0.0114059,0.0102997
23,3,8.3315,0.000305176,0.000610352,-2.42653,0.0562914,-0.0747579,0.0522969,0.0660875,-0.0931465,0.145929,-0.125461,-0.0828756,0.0088501,0.0247574,0.0228119,0.01194,0.0100708,0.0107193,0.0177002,0.0161362,-9.97986,0.014801,-0.0030899,0.00606537,0.0143814,0.0133133,-0.00774384,0.0154495,0.00785828
23,4,8.71755,-0.000610352,0.000610352,-2.42745,0.0553758,-0.075063,0.0547383,0.0767687,-0.0913154,0.145624,-0.126072,-0.0828756,0.0104523,0.0219345,0.0189209,0.00976563,0.0111008,0.0100708,0.0253677,0.023613,-9.97986,0.0144196,-0.000991821,0.0102615,0.0189209,0.0148773,-0.00728607,0.0125122,0.0094223
23,5,10.0097,0.00274658,0.00152588,-2.42745,0.0538499,-0.0753682,0.0544332,0.107286,-0.088874,0.145624,-0.122715,-0.0844015,0.0112915,0.0218964,0.0191498,0.00968933,0.00911713,0.0138474,0.0208664,0.019455,-9.97986,0.0167847,0.00354767,0.0107574,0.0182724,0.0163651,-0.00331879,0.0136185,0.00862122
23,6,10.0097,0.000305176,0.000915527,-2.42867,0.0532396,-0.0765889,0.0535176,0.0828722,-0.0943672,0.144098,-0.126377,-0.0871481,0.00797272,0.022049,0.018158,0.0116348,0.00904083,0.0157928,0.020256,0.0235748,-9.97986,0.0163269,0.00522614,0.00675201,0.0161743,0.0178528,-0.00175476,0.0128174,0.0102997
23,7,10.0097,0.000610352,-0.000762939,-2.42898,0.0541551,-0.0762837,0.0516866,0.0746324,-0.0949775,0.144098,-0.126377,-0.0868429,0.0103378,0.0204849,0.0230408,0.00984192,0.0104904,0.0196075,0.0218201,0.0181198,-9.97986,0.0138092,-0.00160217,0.0104523,0.0177383,0.017128,-0.00530243,0.0117874,0.00900269
23,8,10.0097,0.00213623,0.000152588,-2.42989,0.0535448,-0.0768941,0.0516866,0.0715807,-0.0943672,0.144403,-0.126377,-0.0862325,0.0111771,0.0207138,0.0187683,0.0106049,0.0119781,0.0144958,0.0164032,0.0168991,-9.97986,0.018158,0.00171661,0.0146484,0.0162125,0.0173187,-0.000610352,0.0150681,0.00659943
23,9,10.0097,0.00244141,0.000152588,-2.42959,0.0538499,-0.0762837,0.0519917,0.0697496,-0.0937568,0.144098,-0.126987,-0.0871481,0.0115967,0.0235748,0.0184631,0.0112152,0.0120163,0.0162506,0.0177383,0.0159454,-9.97986,0.0154495,-0.00118256,0.0101471,0.0125122,0.018158,-0.000343323,0.0151825,0.00743866
24,0,10.0097,0.000610352,-0.000305176,-2.42959,0.0538499,-0.0762837,0.0516866,0.0700548,-0.094062,0.144708,-0.127292,-0.0871481,0.013504,0.0231552,0.0183868,0.00995636,0.0146484,0.0203323,0.0218201,0.0153351,-9.97986,0.0152969,0.00106812,0.0127029,0.0181961,0.0175476,0.00545502,0.0149155,0.00862122
24,1,10.0097,-0.0012207,0,-2.42867,0.0544603,-0.075063,0.0526021,0.0694445,-0.0952827,0.144708,-0.126377,-0.0859274,0.0103378,0.0242615,0.0191116,0.00938416,0.01297,0.0198746,0.019455,0.0154114,-9.97986,0.0102615,-0.0030899,0.00614166,0.0111008,0.0172043,0.00415802,0.0149536,0.00667572
24,2,10.0097,0.00183105,0,-2.42837,0.0538499,-0.0759786,0.0535176,0.0697496,-0.0934516,0.145013,-0.125766,-0.0862325,0.00904083,0.0258255,0.0165558,0.00679016,0.0130463,0.0213623,0.0163651,0.0186539,-9.97986,0.00957489,0.00347137,0.0102234,0.00797272,0.016098,0.0113297,0.0151825,0.00522614
24,3,10.0097,0,-0.000152588,-2.42776,0.0553758,-0.0744527,0.0532125,0.0697496,-0.0934516,0.144708,-0.125766,-0.0834859,0.00968933,0.0231171,0.0242996,0.0127029,0.0131989,0.0211716,0.0216675,0.0182343,-9.97986,0.0110245,-0.00564575,0.00999451,0.0130844,0.0172806,0.0109863,0.0106049,0.00644684
24,4,10.0097,0.00152588,-0.000610352,-2.42714,0.0553758,-0.075063,0.0538228,0.0691393,-0.0931465,0.145013,-0.125156,-0.0837911,0.0112534,0.0230026,0.0185013,0.0125504,0.0143051,0.019455,0.0171661,0.0207138,-9.97986,0.0116348,0.00198364,0.00541687,0.0111008,0.0189972,0.011673,0.0118637,0.00583649
24,5,10.0097,0.00152588,-0.000457764,-2.42501,0.0565965,-0.0747579,0.0544332,0.0697496,-0.0934516,0.145929,-0.125156,-0.0813497,0.00900269,0.0227737,0.0202179,0.00827789,0.0174332,0.0195694,0.0187683,0.0205994,-9.97986,0.0108719,-0.00106812,0.0127029,0.0101852,0.0157547,0.0102997,0.0112534,0.00751495
24,6,10.0097,0.000305176,0.000152588,-2.42562,0.0562914,-0.0735371,0.0550435,0.07036,-0.0922309,0.145929,-0.122715,-0.0819601,0.00911713,0.0221634,0.018692,0.00850677,0.0181961,0.0217056,0.020752,0.019722,-9.97986,0.00617981,0.00213623,0.015831,0.00953674,0.0183868,0.0107574,0.0117874,0.0030899
24,7,10.0097,-0.000610352,-0.000915527,-2.42653,0.0559862,-0.073232,0.0553487,0.0715807,-0.0919257,0.146539,-0.125156,-0.0816549,0.00469208,0.0219345,0.021019,0.0117111,0.0185394,0.0197601,0.0202942,0.0139999,-9.97986,0.00553131,-0.0063324,0.0151062,0.0125122,0.0168228,0.00278473,0.0154495,0.00610352
24,8,10.0097,0,-0.000152588,-2.42592,0.0562914,-0.0744527,0.0556539,0.0709703,-0.0919257,0.14776,-0.124241,-0.0807394,0.00980377,0.0250244,0.0172043,0.0111771,0.0175476,0.0188828,0.0196838,0.018425,-9.97986,0.0062561,-0.00106812,0.0112534,0.0094223,0.017128,0.000495911,0.0117493,0.00671387
24,9,10.0097,0.000610352,0.000457764,-2.4244,0.0559862,-0.073232,0.0547383,0.0715807,-0.0910102,0.147149,-0.123935,-0.0813497,0.0123215,0.0254059,0.0220108,0.0117493,0.0178909,0.017395,0.0199127,0.0219727,-9.97986,0.00789642,-0.00114441,0.012207,0.00770569,0.0187683,-0.00141144,0.0139999,0.00839233
25,0,10.0097,0,-0.000762939,-2.42501,0.0559862,-0.0744527,0.0532125,0.0447252,-0.0952827,0.145929,-0.126682,-0.0822652,0.00751495,0.0251007,0.0206375,0.0153351,0.0193787,0.015564,0.0181198,0.0194168,-9.97986,0.014801,-0.00133514,0.0166702,0.00457764,0.0202942,-0.00659943,0.0106812,0.00595093
25,1,9.18874,0.000610352,-0.00137329,-2.42562,0.0572069,-0.0747579,0.0532125,0.0468614,-0.0934516,0.145624,-0.126682,-0.0822652,0.00236511,0.0276947,0.0144577,0.0134277,0.0172806,0.0154495,0.0162506,0.0177002,-9.97986,0.0289154,-0.00156403,0.0140762,0.00305176,0.017395,-0.00259399,0.0149155,0.00667572
25,2,8.23537,0,-0.000762939,-2.42623,0.0553758,-0.0747579,0.0535176,0.0587633,-0.0931465,0.145929,-0.126072,-0.0816549,0.00236511,0.0279236,0.0219727,0.0131989,0.0166702,0.0156784,0.0161362,0.0210571,-9.97986,0.032692,-0.000648499,0.0124741,0.00724792,0.0169373,-0.00167847,0.0153732,0.00595093
25,3,8.15755,0.00274658,-0.000152588,-2.42684,0.0553758,-0.0744527,0.0538228,0.0657823,-0.0922309,0.145318,-0.126072,-0.0831808,0.00328064,0.0267792,0.0202942,0.0119781,0.0156403,0.0167847,0.0234985,0.021286,-9.97986,0.0281143,0.00144958,0.0146484,0.00556946,0.0205231,-0.00591278,0.0168991,0.00736237
25,4,8.50972,0.0012207,-0.000152588,-2.42623,0.0550706,-0.0714009,0.0547383,0.0761583,-0.090705,0.144403,-0.125766,-0.0834859,0.00782013,0.0214767,0.0190353,0.00988007,0.0164795,0.0138092,0.0178146,0.0281906,-9.97986,0.0218964,0.00171661,0.0149918,0.0031662,0.0202942,-0.00869751,0.0138474,0.0063324
25,5,10.0097,0.000915527,0.000915527,-2.42684,0.0550706,-0.0759786,0.0547383,0.105455,-0.0885688,0.143182,-0.123325,-0.0840963,0.011673,0.0231552,0.0188065,0.0102615,0.0144196,0.0161362,0.0213242,0.0211716,-9.97986,0.0156021,-0.00576019,0.0191879,0.00087738,0.0166321,-0.00968933,0.0171661,0.00522614
25,6,10.0097,0.00213623,0.000457764,-2.4302,0.0538499,-0.0775044,0.0519917,0.082567,-0.0952827,0.143792,-0.127292,-0.0865377,0.0202942,0.0223541,0.0224304,0.00980377,0.0193405,0.0149536,0.0204086,0.0260925,-9.97986,0.0175858,-0.00141144,0.014801,-0.000915527,0.0167084,-0.0062561,0.0181198,0.00717163
25,7,10.0097,-0.000305176,0.000152588,-2.42837,0.0535448,-0.0726216,0.0526021,0.0737169,-0.0949775,0.142877,-0.126682,-0.0862325,0.0229645,0.0195313,0.0201797,0.0141525,0.0191498,0.01297,0.0198746,0.0272369,-9.97986,0.0212479,-0.000839233,0.0173569,-0.000343323,0.0165176,-0.00217438,0.0148392,0.00843048
25,8,10.0097,0.000610352,-0.000610352,-2.4305,0.0538499,-0.075063,0.0522969,0.0715807,-0.0949775,0.144098,-0.126072,-0.0868429,0.0169373,0.0200653,0.0201797,0.0194168,0.0135422,0.0114059,0.0193024,0.0184631,-9.97986,0.0165176,-0.00286102,0.0170898,-0.000419617,0.0147629,0.001297,0.0152969,0.00682831
25,9,10.0097,0.00183105,-0.000305176,-2.42837,0.0535448,-0.0759786,0.0522969,0.0682238,-0.0943672,0.143792,-0.127292,-0.0868429,0.0266266,0.0197601,0.024147,0.0144958,0.0152206,0.0151825,0.0237656,0.0200272,-9.97986,0.0130081,-0.000152588,0.0130844,0.00270844,0.0171661,0.0044632,0.0160599,0.00495911
26,0,10.0097,-0.00244141,-0.000610352,-2.42959,0.0529344,-0.0768941,0.0513814,0.0691393,-0.0949775,0.142572,-0.126987,-0.0871481,0.0212097,0.0215149,0.0232697,0.0120926,0.0170135,0.0187683,0.0201416,0.0268555,-9.97986,0.014801,0.00118256,0.0125885,-0.00114441,0.0179672,0.00614166,0.0152588,0.00431061
26,1,10.0097,0.000610352,-0.000457764,-2.42837,0.0550706,-0.0753682,0.0526021,0.0697496,-0.094062,0.141961,-0.128208,-0.0862325,0.0245285,0.0259018,0.0196075,0.013504,0.0173569,0.0127029,0.0241089,0.0248337,-9.97986,0.0180054,0.00106812,0.0131989,-0.00232697,0.0209045,0.00694275,0.0174713,0.00411987
26,2,10.0097,-0.0012207,-0.000457764,-2.42745,0.0538499,-0.0756734,0.0532125,0.0679186,-0.0937568,0.145929,-0.126987,-0.0850118,0.0241852,0.0275421,0.0217438,0.0111008,0.0157547,0.0196838,0.0247192,0.0239944,-9.97986,0.0183105,-0.00358582,0.0108719,-0.00629425,0.0148392,0.00205994,0.0152969,0.00366211
26,3,10.0097,0.0012207,0.000305176,-2.42806,0.0553758,-0.0765889,0.0526021,0.0697496,-0.0937568,0.144403,-0.126377,-0.0847066,0.019989,0.0262451,0.0235748,0.0136948,0.0164032,0.0185013,0.021553,0.0257111,-9.97986,0.0150299,0.00419617,0.0168228,3.8147e-005,0.0204086,0.00320435,0.0174713,0.00576019
26,4,10.0097,0.000305176,-0.000152588,-2.42714,0.0550706,-0.0744527,0.0529073,0.0700548,-0.094062,0.144403,-0.125461,-0.0834859,0.0142288,0.0269318,0.0201035,0.00682831,0.0121689,0.0151443,0.0199127,0.0211716,-9.97986,0.00850677,0.000190735,0.00762939,-0.00400543,0.015831,-0.00320435,0.0168228,0.00587463
26,5,10.0097,0.000305176,-0.000305176,-2.42531,0.0550706,-0.0726216,0.0550435,0.0700548,-0.0916206,0.145929,-0.124241,-0.0828756,0.0119019,0.0269318,0.0238037,0.0134277,0.017395,0.0167084,0.0205231,0.0177765,-9.97986,0.00671387,-0.0037384,0.014534,-0.00934601,0.0151443,-0.00106812,0.0180435,0.0069046
26,6,10.0097,0.000305176,0.000305176,-2.4247,0.0559862,-0.0747579,0.0535176,0.0709703,-0.0922309,0.146234,-0.124241,-0.0816549,0.0128555,0.0233459,0.0203323,0.0121689,0.0162506,0.0130081,0.0238419,0.00915527,-9.97986,0.00404358,-0.000534058,0.0146484,-0.00717163,0.0194931,-0.00473022,0.0188065,0.00606537
26,7,10.0097,0.000915527,0.000305176,-2.4247,0.0572069,-0.0741475,0.054128,0.0706652,-0.0919257,0.143182,-0.123935,-0.0813497,0.0069809,0.0291443,0.0242996,0.0102997,0.0149536,0.00984192,0.0198364,0.0109482,-9.97986,0.00240326,0.00125885,0.010376,-0.0056076,0.0192261,-0.0114441,0.0191879,0.00682831
26,8,10.0097,0.000305176,-0.000152588,-2.42531,0.0559862,-0.0738423,0.0550435,0.072191,-0.090705,0.146234,-0.12302,-0.0813497,-0.00556946,0.0276947,0.026741,0.0151825,0.0133514,0.0174332,0.0185394,0.0129318,-9.97986,0.0063324,0.000572205,0.0162125,-0.00354767,0.019989,-0.00213623,0.0259399,0.00881195
26,9,10.0097,-0.00274658,0.000457764,-2.42592,0.0565965,-0.0747579,0.0547383,0.0706652,-0.0925361,0.146234,-0.123935,-0.0816549,-0.017395,0.0219727,0.018959,0.00926971,0.0150299,0.00659943,0.0185394,0.000648499,-9.97986,-7.62939e-005,-0.00770569,0.00965118,-0.0143433,0.0169373,-0.00724792,0.0146103,0.000228882
27,0,10.0097,-0.000305176,-0.000915527,-2.42531,0.0550706,-0.0741475,0.0532125,0.0435045,-0.0961982,0.14776,-0.126072,-0.0819601,-0.0131607,0.0295639,0.0235748,0.0148773,0.0156403,0.018425,0.0238037,0.00400543,-9.97986,0.0139618,-0.00209808,0.0193787,-0.00789642,0.0213242,0.00141144,0.0228119,0.00835419
27,1,8.98305,0.000915527,-0.00198364,-2.42592,0.0572069,-0.0735371,0.054128,0.0480822,-0.0928413,0.145929,-0.126377,-0.0828756,-0.0146866,0.0230026,0.0166321,0.00904083,0.0113678,0.0137329,0.0219727,-0.00934601,-9.97986,0.0188446,-0.00236511,0.0114822,-0.0112152,0.0163651,-0.00259399,0.0201797,0.00461578
27,2,8.03273,0.000610352,-0.000915527,-2.42592,0.0562914,-0.0753682,0.0553487,0.058153,-0.0913154,0.146539,-0.125461,-0.0819601,-0.00473022,0.0209427,0.0185394,0.0104141,0.0143814,0.00793457,0.0223923,-0.00335693,-9.97986,0.0126648,-0.00148773,0.0120926,-0.0139236,0.0167465,0.00244141,0.0160599,0.00286102
27,3,7.97261,-0.000915527,-0.000152588,-2.42562,0.0559862,-0.0738423,0.0532125,0.0663927,-0.0916206,0.147149,-0.126682,-0.0825704,0.00293732,0.0249863,0.0177765,0.0113678,0.0150681,0.00713348,0.0226212,0.00701904,-9.97986,0.000572205,-0.00297546,0.0140762,-0.0144577,0.0166321,0.00244141,0.0174713,0.00377655
27,4,8.33028,-0.000305176,0.000152588,-2.42623,0.0550706,-0.0744527,0.0544332,0.0758531,-0.0916206,0.146234,-0.125156,-0.0828756,0.0082016,0.0207901,0.0165558,0.0114441,0.0112534,0.0141144,0.0203323,0.0106812,-9.97986,-0.00160217,-0.00545502,0.01091,-0.0118637,0.018425,0.000152588,0.0184631,0.00656128
27,5,10.0097,0.000610352,0.000762939,-2.42684,0.0544603,-0.0747579,0.054128,0.105455,-0.088874,0.144403,-0.123935,-0.0840963,0.0120544,0.0195694,0.0157547,0.0102234,0.0155258,0.00862122,0.0246811,0.00827789,-9.97986,-0.00816345,-0.00255585,0.0120926,-0.0173569,0.0152969,-0.00671387,0.0170898,0.0031662
27,6,10.0097,-0.000915527,0.0012207,-2.42898,0.0535448,-0.0759786,0.0519917,0.0865343,-0.0961982,0.140741,-0.126682,-0.0859274,0.0172424,0.0187683,0.00858307,0.00968933,0.0135422,0.0104904,0.018425,0.0101089,-9.97986,0.022316,-0.00202179,0.0112534,-0.0136566,0.0169754,-0.0147629,0.0175476,0.00133514
27,7,10.0097,0.000610352,0.000152588,-2.42898,0.0553758,-0.0765889,0.050771,0.075548,-0.0949775,0.144403,-0.126377,-0.0871481,0.0190735,0.0166702,0.00782013,0.0120544,0.0141907,0.01194,0.02285,0.00888824,-9.97986,0.0519943,-0.00102997,0.0117874,-0.0120544,0.0138474,-0.0232315,0.0216293,0.001297
27,8,10.0097,0.0012207,0,-2.42898,0.0544603,-0.0771993,0.0532125,0.0712755,-0.0943672,0.143182,-0.126682,-0.0874532,0.0159073,0.0127029,0.0111389,0.0102615,0.0127029,0.00804901,0.0243759,0.014267,-9.97986,0.0533295,-0.00160217,0.0148392,-0.0113678,0.0168991,-0.0271225,0.0174713,0.00431061
27,9,10.0097,-0.000915527,0,-2.4302,0.0550706,-0.0765889,0.0519917,0.0697496,-0.0949775,0.141351,-0.127903,-0.0871481,0.013504,0.0171661,0.00537872,0.0118637,0.014267,0.00644684,0.0203705,0.0147247,-9.97986,0.0418472,-0.000534058,0.0148773,-0.0118637,0.014801,-0.0291824,0.0181961,0.00213623
28,0,10.0097,-0.000915527,-0.000610352,-2.42928,0.0526292,-0.0771993,0.0513814,0.0682238,-0.0955879,0.143487,-0.127598,-0.0865377,0.0120163,0.0172424,0.0120544,0.0125885,0.0167084,0.0117493,0.0176239,0.0177383,-9.97986,0.0464249,0.000762939,0.0120926,-0.0125122,0.0122452,-0.0217056,0.0159836,0.00514984
28,1,10.0097,0.000305176,-0.000305176,-2.42745,0.0550706,-0.0756734,0.0532125,0.0697496,-0.0934516,0.143182,-0.126377,-0.0850118,0.0117874,0.0200272,0.0124359,0.0146866,0.0138092,0.0116348,0.021286,0.0138092,-9.97986,0.0389481,0.000228882,0.0163269,-0.0117493,0.0139618,-0.0199127,0.0181961,0.00518799
28,2,10.0097,0.000305176,-0.000305176,-2.42684,0.0529344,-0.0756734,0.0532125,0.0697496,-0.0943672,0.144098,-0.126987,-0.0850118,0.0130463,0.0208664,0.0138855,0.0115585,0.0183868,0.00888824,0.0217819,0.0164413,-9.97986,0.0352478,-0.00110626,0.0178146,-0.0134277,0.0159073,-0.0105286,0.0130463,0.0018692
28,3,10.0097,-0.000305176,-0.000305176,-2.42745,0.055681,-0.0756734,0.0522969,0.0700548,-0.0931465,0.143792,-0.126682,-0.0847066,0.00968933,0.0196457,0.0157166,0.0102615,0.0134659,0.00907898,0.0222015,0.0167847,-9.97986,0.0364685,0.000915527,0.0168991,-0.0146866,0.00972748,-0.00667572,0.0157547,0.00621796
28,4,10.0097,0.00183105,0.000457764,-2.42684,0.0553758,-0.0747579,0.0547383,0.0706652,-0.0937568,0.145013,-0.125461,-0.0834859,0.0123596,0.0205994,0.0127792,0.0119781,0.0154495,0.00850677,0.022316,0.0162125,-9.97986,0.0331497,0,0.0170898,-0.0128937,0.0163269,7.62939e-005,0.0141144,0.00644684
28,5,10.0097,-0.00152588,0.000610352,-2.42623,0.0553758,-0.0744527,0.0550435,0.0709703,-0.0916206,0.145929,-0.124546,-0.0822652,0.00816345,0.0228882,0.0173569,0.00907898,0.0151443,0.00602722,0.024147,0.0185394,-9.97986,0.0255966,-0.00038147,0.0162125,-0.0122452,0.011673,0.00343323,0.0115204,0.00640869
28,6,10.0097,-0.000915527,0.000305176,-2.42531,0.0562914,-0.0741475,0.0550435,0.0712755,-0.0913154,0.146234,-0.123935,-0.0816549,0.0150299,0.021553,0.0151825,0.00682831,0.0175476,0.00511169,0.0197601,0.0162888,-9.97986,0.0181198,-0.000343323,0.0165939,-0.0159454,0.0152969,-0.00377655,0.00961304,0.00255585
28,7,10.0097,-0.000610352,0,-2.42562,0.0569017,-0.0753682,0.0550435,0.07036,-0.0922309,0.147149,-0.124851,-0.0813497,0.0128174,0.0213242,0.0105286,0.00717163,0.0170517,0.00411987,0.0240326,0.0167465,-9.97986,0.018425,0.00202179,0.0207138,-0.0110245,0.0130463,-0.000953674,0.00831604,0.00629425
28,8,10.0097,-0.000305176,0.000610352,-2.42592,0.0569017,-0.0744527,0.0544332,0.0718859,-0.0916206,0.145929,-0.123935,-0.0810445,0.012207,0.0206757,0.0154495,0.0117111,0.0189209,0.00629425,0.0236511,0.0195694,-9.97986,0.0173569,-0.00263214,0.0135803,-0.00736237,0.0147247,0.001297,0.00919342,0.00743866
28,9,10.0097,0.00183105,0.000610352,-2.42562,0.0559862,-0.0729268,0.054128,0.0712755,-0.0916206,0.14776,-0.123935,-0.0813497,0.011673,0.0195694,0.0115967,0.0107193,0.0175858,0.00545502,0.0231552,0.0111389,-9.97986,0.0217438,-0.00038147,0.017662,-0.00667572,0.0146866,-0.00202179,0.00392914,0.00499725
29,0,10.0097,0,-0.00167847,-2.42592,0.055681,-0.0747579,0.0535176,0.0435045,-0.0955879,0.145624,-0.125766,-0.0825704,0.0121689,0.0239182,0.0148392,0.0106049,0.0193024,0.00240326,0.0240707,0.0149918,-9.97986,0.0202942,-0.00141144,0.0173187,-0.00553131,0.012207,-0.00831604,0.00427246,0.00583649
29,1,9.03005,0.00152588,-0.000915527,-2.42501,0.0547655,-0.075063,0.0538228,0.0465563,-0.0925361,0.146234,-0.126377,-0.0816549,0.00926971,0.0191116,0.0142288,0.0114059,0.0156784,0.00141144,0.0224304,0.0183487,-9.97986,0.015564,-0.00202179,0.0191879,-0.00389099,0.0114441,-0.00896454,0.00171661,0.00667572
29,2,8.10536,0.0012207,-0.000457764,-2.42623,0.0569017,-0.075063,0.0538228,0.0575426,-0.0922309,0.145318,-0.125766,-0.0819601,0.0110626,0.0236893,0.016098,0.0109863,0.0161743,-0.00110626,0.0231934,0.0183105,-9.97986,0.0154495,-0.000419617,0.0204849,-0.00236511,0.0121307,-0.00854492,-0.00507355,0.00465393
29,3,7.99306,-0.000610352,-0.000305176,-2.42653,0.0559862,-0.075063,0.054128,0.067003,-0.0913154,0.145624,-0.125766,-0.0834859,0.010376,0.0247574,0.0164032,0.0119019,0.0170898,0.00255585,0.0255585,0.0217819,-9.97986,0.0105667,0.00179291,0.0225449,-0.00514984,0.0148773,-0.00709534,-0.00282288,0.00564575
29,4,8.36568,0.000915527,0.000152588,-2.42684,0.0541551,-0.0747579,0.054128,0.0749376,-0.0925361,0.145929,-0.125766,-0.0834859,0.0127792,0.0220871,0.0122452,0.0150681,0.0186157,0.00221252,0.0236893,0.0169754,-9.97986,0.0115967,0.00087738,0.0225067,-0.00427246,0.0117111,-0.00896454,-0.00808716,0.00377655
29,5,10.0097,0,0.00198364,-2.42714,0.0538499,-0.0744527,0.0550435,0.10576,-0.0894843,0.145013,-0.12363,-0.0844015,0.0126266,0.0253296,0.0131989,0.00892639,0.0185776,-0.000190735,0.0208664,0.0191116,-9.97986,0.0101089,-0.000534058,0.0216293,-0.00442505,0.0133514,-0.0115967,-0.0127411,0.00461578
29,6,10.0097,0.000610352,0.000762939,-2.42867,0.0532396,-0.0762837,0.0532125,0.0843981,-0.0949775,0.144403,-0.127598,-0.0865377,0.0131226,0.0268555,0.0188828,0.0111389,0.0216675,0.00217438,0.0234985,0.0200272,-9.97986,0.0107193,0.00209808,0.0214005,-0.000190735,0.0132751,-0.00785828,-0.0104141,0.00667572
29,7,10.0097,0.000610352,0.000152588,-2.42776,0.0547655,-0.0747579,0.0513814,0.0743273,-0.0955879,0.144098,-0.125156,-0.0868429,0.0133514,0.0223541,0.0148773,0.0130844,0.0146484,-0.00629425,0.0217056,0.0196457,-9.97986,0.0104141,0.00389099,0.0191116,0.00137329,0.0129318,-0.00652313,-0.0173187,0.00892639
29,8,10.0097,0.0012207,0.000915527,-2.42959,0.0526292,-0.0756734,0.0526021,0.0694445,-0.0955879,0.142572,-0.127903,-0.0865377,0.0125122,0.0267792,0.0181198,0.0123215,0.0207901,-0.00244141,0.0217056,0.0250244,-9.97986,0.00770569,0.000267029,0.0231552,-0.00217438,0.00957489,-0.00480652,-0.0165558,0.00659943
29,9,10.0097,0,-0.000610352,-2.42867,0.0538499,-0.0762837,0.0529073,0.0697496,-0.0952827,0.144098,-0.127292,-0.0874532,0.0133133,0.0221252,0.0177002,0.014801,0.0226212,0.000762939,0.0235748,0.0193024,-9.97986,0.0114822,0.00137329,0.0291061,0.00293732,0.00926971,-0.00595093,-0.0202942,0.00518799
30,0,10.0097,-0.00274658,0.000305176,-2.42898,0.0544603,-0.0768941,0.0519917,0.0685289,-0.0946723,0.143182,-0.127598,-0.0868429,0.0143814,0.0257874,0.0210953,0.011673,0.0178909,-0.00110626,0.0214767,0.0241089,-9.97986,0.0114822,0.00450134,0.0252533,0.00362396,0.0136185,-0.00846863,-0.0214767,0.00614166
30,1,10.0097,0.0012207,-0.000305176,-2.42898,0.0541551,-0.0747579,0.0532125,0.0682238,-0.0946723,0.144708,-0.126987,-0.0862325,0.0143051,0.0283051,0.0201797,0.0157928,0.0174332,0.001297,0.0209427,0.0228119,-9.97986,0.0069046,0.00175476,0.0250626,-0.00366211,0.0115204,-0.0075531,-0.0222015,0.00671387
30,2,10.0097,0.0012207,0.000152588,-2.42776,0.0550706,-0.0753682,0.0532125,0.0694445,-0.0934516,0.145318,-0.126072,-0.0850118,0.0161743,0.022583,0.0193405,0.0121689,0.0201035,-0.00205994,0.0226212,0.0179672,-9.97986,0.0115204,-0.000534058,0.0282669,0.00156403,0.012207,-0.0102615,-0.0263214,0.00621796
30,3,10.0097,0.000305176,-0.000457764,-2.42776,0.0553758,-0.0747579,0.0529073,0.0706652,-0.0931465,0.144403,-0.126682,-0.0840963,0.0162125,0.0236511,0.0182343,0.0094223,0.0185394,-0.00202179,0.0195313,0.0241089,-9.97986,0.0124359,0.00591278,0.0299835,0.00492096,0.0127029,-0.0111008,-0.026474,0.00652313
30,4,10.0097,0.0012207,-0.000305176,-2.42501,0.0544603,-0.0762837,0.054128,0.0700548,-0.0943672,0.145624,-0.126072,-0.0837911,0.0117874,0.022049,0.0150299,0.00865936,0.0173187,0.00297546,0.0178528,0.0181198,-9.97986,0.00923157,-0.000801086,0.0285339,-0.000915527,0.0143051,-0.00991821,-0.0269699,0.00720978
30,5,10.0097,0.000305176,-0.000457764,-2.42653,0.055681,-0.0738423,0.0544332,0.0724962,-0.0922309,0.145929,-0.125156,-0.0822652,0.0102615,0.024147,0.0187302,0.00976563,0.0216293,0.0018692,0.0254059,0.0201797,-9.97986,0.0107956,-0.00476837,0.0296783,0.00160217,0.00759125,-0.00778198,-0.025444,0.00980377
30,6,10.0097,0.00274658,0.000762939,-2.42348,0.0562914,-0.0744527,0.0550435,0.0706652,-0.090705,0.146234,-0.12363,-0.0810445,0.0125885,0.0245285,0.0185394,0.00934601,0.0169373,0.001297,0.0183868,0.0169754,-9.97986,0.00980377,0.00141144,0.027504,0.0056839,0.0144196,-0.0050354,-0.0291443,0.00701904
30,7,10.0097,0.0012207,0.000457764,-2.42501,0.0565965,-0.0738423,0.0529073,0.0718859,-0.0922309,0.14776,-0.124546,-0.0816549,0.0139236,0.0255585,0.0219345,0.0120926,0.020256,0.00480652,0.0242996,0.0211334,-9.97986,0.00713348,-0.00137329,0.0301743,0.00591278,0.0120926,-0.0107193,-0.0296402,0.00747681
30,8,10.0097,0.00183105,0.000305176,-2.42501,0.0559862,-0.0741475,0.0544332,0.0715807,-0.090705,0.146844,-0.12363,-0.0810445,0.0141907,0.0232697,0.0168991,0.0111008,0.0177765,0.00629425,0.0188065,0.0229263,-9.97986,0.0112915,7.62939e-005,0.0351715,0.00553131,0.0150299,-0.00705719,-0.0317383,0.00499725
30,9,10.0097,-0.000915527,0.000152588,-2.42562,0.0547655,-0.0738423,0.0544332,0.0709703,-0.0916206,0.146539,-0.123325,-0.0813497,0.0120163,0.0225067,0.0188065,0.0124359,0.0207138,0.00801086,0.0221634,0.0203323,-9.97986,0.00823975,-0.00282288,0.0337601,0.00572205,0.00804901,-0.00915527,-0.0313568,0.00793457
31,0,10.0097,0.000610352,-0.00106812,-2.42684,0.0562914,-0.0741475,0.0547383,0.04442,-0.0952827,0.147455,-0.126682,-0.0819601,0.00892639,0.0276947,0.0168228,0.010376,0.0185394,0.00682831,0.0170898,0.0173569,-9.97986,0.00926971,-0.00102997,0.0311661,0.00480652,0.0118637,-0.0069046,-0.0341797,0.00751495
31,1,9.13594,0.000305176,-0.000915527,-2.4247,0.0565965,-0.0738423,0.054128,0.0480822,-0.0922309,0.144403,-0.126377,-0.0813497,0.0124741,0.0259018,0.0203705,0.0118637,0.0185776,0.01091,0.0179291,0.0173187,-9.97986,0.0106049,0.000419617,0.0337982,0.0110245,0.0102997,-0.00614166,-0.0331116,0.00747681
31,2,8.18196,0.00274658,-0.000915527,-2.42623,0.055681,-0.0747579,0.0532125,0.0593737,-0.0934516,0.147149,-0.126377,-0.0822652,0.0121689,0.0251007,0.0241852,0.0152206,0.0187302,0.00606537,0.0230026,0.0186539,-9.97986,0.0117111,0.00110626,0.0350571,0.0111008,0.0115967,-0.00621796,-0.0333786,0.00728607
31,3,8.10597,0.000915527,-0.000305176,-2.42653,0.0559862,-0.0744527,0.0553487,0.0657823,-0.0925361,0.144708,-0.125461,-0.0828756,0.00991821,0.0259781,0.0148392,0.0115204,0.0189972,0.00946045,0.027771,0.018692,-9.97986,0.0112152,0.000267029,0.0309372,0.00965118,0.0109482,-0.00694275,-0.0334549,0.00549316
31,4,8.4966,0.000610352,0.000457764,-2.42531,0.0547655,-0.0747579,0.054128,0.0752428,-0.0919257,0.145013,-0.125156,-0.0822652,0.0164413,0.022316,0.0215912,0.0114822,0.0204086,0.0114822,0.0178528,0.0232315,-9.97986,0.0102997,0.00110626,0.028801,0.0140381,0.0150681,-0.00343323,-0.0326157,0.00793457
31,5,10.0097,0.000610352,0.00137329,-2.42806,0.0562914,-0.0753682,0.0544332,0.106371,-0.0900947,0.145318,-0.123325,-0.0831808,0.0136566,0.0257492,0.0203705,0.0103378,0.0166702,0.0063324,0.0209045,0.0168991,-9.97986,0.00972748,0.000267029,0.0322342,0.0122452,0.0139999,0.00167847,-0.0352097,0.00648499
31,6,10.0097,-0.0012207,0.00167847,-2.42928,0.0538499,-0.0756734,0.0522969,0.0837877,-0.0943672,0.143792,-0.126682,-0.0862325,0.0133133,0.0217438,0.0205612,0.0184631,0.0199127,0.00991821,0.0258636,0.018158,-9.97986,0.0109863,-0.0019455,0.0291443,0.0139999,0.0102615,0.00038147,-0.0328827,0.00930786
31,7,10.0097,0.000610352,0.000305176,-2.42928,0.0547655,-0.0762837,0.0513814,0.0746324,-0.0952827,0.144403,-0.126072,-0.0862325,0.0140381,0.0193787,0.022316,0.0102997,0.0182724,0.00659943,0.0244141,0.0158691,-9.97986,0.0118256,-0.000495911,0.0301361,0.0159836,0.0114822,0.00385284,-0.0347519,0.00450134
31,8,10.0097,0.000610352,0.000152588,-2.4305,0.0547655,-0.0765889,0.0519917,0.0700548,-0.0952827,0.144098,-0.126987,-0.0871481,0.0138855,0.0246811,0.0206375,0.0127411,0.0177765,0.00640869,0.02285,0.019989,-9.97986,0.0112915,-0.00347137,0.0273514,0.0137711,0.0122452,0.00038147,-0.0321579,0.00663757
31,9,10.0097,0.000915527,-0.000457764,-2.42959,0.0544603,-0.0759786,0.0526021,0.0712755,-0.0961982,0.143792,-0.126987,-0.0868429,0.0108719,0.0193024,0.0217056,0.0137711,0.018959,0.011673,0.0255203,0.021553,-9.97986,0.00976563,-0.00160217,0.029335,0.0143051,0.0152969,0.0038147,-0.034256,0.0118637
32,0,10.0097,-0.000305176,-0.00106812,-2.42959,0.0544603,-0.0753682,0.0519917,0.0697496,-0.0955879,0.143182,-0.127292,-0.0868429,0.0119781,0.022583,0.0185013,0.0094223,0.0165939,0.0109863,0.0197601,0.0172424,-9.97986,0.00961304,-0.00205994,0.0322723,0.0177383,0.0161362,0.0102234,-0.034523,0.00720978
32,1,10.0097,0.000610352,-0.000152588,-2.42837,0.0544603,-0.0762837,0.0535176,0.0673082,-0.0946723,0.143792,-0.126682,-0.0862325,0.0156021,0.0211334,0.021553,0.0126266,0.0134277,0.00984192,0.0242615,0.0180054,-9.97986,0.0132751,-0.0019455,0.030098,0.0151825,0.00915527,0.00259399,-0.0297165,0.0114822
32,2,10.0097,0.000915527,-0.000305176,-2.42714,0.0535448,-0.0762837,0.0532125,0.0688341,-0.0937568,0.144403,-0.125461,-0.0847066,0.0130081,0.0244904,0.0218964,0.0124741,0.0141525,0.013504,0.0243378,0.0211334,-9.97986,0.00789642,-0.0043869,0.0310516,0.0108337,0.0141907,0.00389099,-0.0353241,0.0106049
32,3,10.0097,0.000610352,0.000152588,-2.42776,0.0547655,-0.0756734,0.0538228,0.0691393,-0.094062,0.144098,-0.126072,-0.0844015,0.0108337,0.023613,0.0183487,0.0133133,0.0166702,0.0112534,0.0234222,0.0178146,-9.97986,0.0104523,0.000343323,0.0320435,0.0136948,0.0164413,-0.00236511,-0.031395,0.00816345
32,4,10.0097,0.000610352,0.000305176,-2.42592,0.0541551,-0.0738423,0.0526021,0.07036,-0.0925361,0.145929,-0.125766,-0.0834859,0.0111389,0.0240707,0.0211716,0.0127792,0.0154877,0.0119019,0.0259781,0.0177002,-9.97986,0.00934601,0,0.0348282,0.011673,0.0135422,-0.00328064,-0.0337982,0.00804901
32,5,10.0097,0.0012207,0.000152588,-2.42501,0.0559862,-0.073232,0.0544332,0.0709703,-0.0922309,0.146844,-0.124241,-0.0819601,0.00896454,0.025444,0.0179291,0.00968933,0.0176239,0.0133133,0.0259018,0.0163269,-9.97986,0.0133514,-0.00278473,0.0326538,0.011673,0.0178146,-0.000991821,-0.0333786,0.0087738
32,6,10.0097,-0.00183105,-0.000152588,-2.4247,0.0562914,-0.0747579,0.0547383,0.072191,-0.0910102,0.147149,-0.123935,-0.0810445,0.00843048,0.0214767,0.0173187,0.0117493,0.0131226,0.0120926,0.0269318,0.0210953,-9.97986,0.0128174,-0.000686646,0.0376892,0.0120926,0.0130844,-0.00419617,-0.0331879,0.00926971
32,7,10.0097,0,-0.000152588,-2.42592,0.0559862,-0.0729268,0.0538228,0.0709703,-0.0910102,0.145624,-0.12363,-0.0807394,0.0128937,0.0218201,0.0193405,0.0106049,0.0189972,0.00999451,0.0259399,0.0189972,-9.97986,0.0112534,-0.00141144,0.0323105,0.0111008,0.0146866,-0.000457764,-0.0329208,0.0103378
32,8,10.0097,0,0.000152588,-2.42623,0.0572069,-0.0738423,0.0547383,0.0728014,-0.0916206,0.146234,-0.12363,-0.0810445,0.0117874,0.0251007,0.0195694,0.0105667,0.0162888,0.00831604,0.0236511,0.0160599,-9.97986,0.0143814,0.00038147,0.0357437,0.00606537,0.0156403,-0.00106812,-0.0337982,0.00965118
32,9,10.0097,0.00244141,0,-2.42562,0.0569017,-0.0735371,0.0562642,0.0700548,-0.0919257,0.145929,-0.123935,-0.0813497,0.0106049,0.0232697,0.0165558,0.0114441,0.0147247,0.011673,0.0254822,0.0130463,-9.97986,0.0158691,-0.000839233,0.033493,0.00778198,0.014267,-0.00350952,-0.0328064,0.00900269
33,0,10.0097,0.000915527,-0.000610352,-2.42562,0.0575121,-0.0738423,0.0535176,0.0438097,-0.0949775,0.146234,-0.126987,-0.0825704,0.00751495,0.0254059,0.0165558,0.0111771,0.0200653,0.0139999,0.0253677,0.0177383,-9.97986,0.020256,0.00217438,0.0353241,0.00965118,0.017395,0.00183105,-0.0343323,0.0107574
33,1,9.13472,-0.000305176,-0.000762939,-2.42531,0.0565965,-0.0735371,0.0538228,0.0489977,-0.0928413,0.146844,-0.126072,-0.0819601,0.0104523,0.0241089,0.0211334,0.0141525,0.0216675,0.0152588,0.0268173,0.0182343,-9.97986,0.0154495,0.000267029,0.0411987,0.00442505,0.0205231,0.00282288,-0.0363922,0.00854492
33,2,8.25063,0,-0.000762939,-2.42592,0.0544603,-0.0744527,0.0516866,0.0593737,-0.0931465,0.145929,-0.125461,-0.0819601,0.00881195,0.026474,0.0212479,0.0131607,0.020256,0.0170135,0.0269699,0.0181198,-9.97986,0.0138092,-0.00400543,0.0396729,0.00919342,0.0162125,0.00648499,-0.0336456,0.00686646
33,3,8.21095,0.000610352,0.000152588,-2.42653,0.0535448,-0.0747579,0.0544332,0.0666979,-0.0928413,0.145013,-0.125461,-0.0831808,0.0130081,0.024147,0.0177765,0.0107956,0.0174332,0.0127029,0.0199127,0.0144196,-9.97986,0.0122452,-0.000267029,0.0423813,0.0115967,0.0190735,0.00404358,-0.0338745,0.00846863
33,4,8.61562,0.000610352,0.000915527,-2.42684,0.0547655,-0.075063,0.0547383,0.0746324,-0.0900947,0.145013,-0.126072,-0.0828756,0.0123978,0.0279236,0.0201416,0.0150681,0.0183868,0.016098,0.0256729,0.0212097,-9.97986,0.0180435,-0.00144958,0.0438309,0.00865936,0.0203705,0.0044632,-0.0349808,0.00984192
33,5,10.0097,0.000610352,0.00106812,-2.42684,0.0541551,-0.0747579,0.0538228,0.105455,-0.088874,0.144708,-0.124241,-0.0834859,0.0104141,0.0247574,0.0179672,0.0109482,0.0213623,0.0182343,0.0230789,0.0226974,-9.97986,0.0161743,7.62939e-005,0.0519562,0.00583649,0.0169373,0.00110626,-0.0304794,0.00926971
33,6,10.0097,0.000915527,0.000762939,-2.42959,0.0541551,-0.0759786,0.0532125,0.082567,-0.0949775,0.143792,-0.125156,-0.0865377,0.0134659,0.0269699,0.0203323,0.00930786,0.0203323,0.0131989,0.0204086,0.0225449,-9.97986,0.0163651,-0.00320435,0.0463486,0.00198364,0.0201797,-0.00629425,-0.0331879,0.00827789
33,7,10.0097,0.000610352,-0.000305176,-2.42806,0.0541551,-0.0759786,0.0529073,0.0743273,-0.0952827,0.143182,-0.126682,-0.0874532,0.00843048,0.0298691,0.0191879,0.0149155,0.0211716,0.0200653,0.0265884,0.02285,-9.97986,0.0154495,0.000610352,0.0514221,0.00888824,0.0199127,-0.0114822,-0.0299835,0.00938416
33,8,10.0097,0.00152588,-0.000305176,-2.42959,0.0535448,-0.0765889,0.0538228,0.0709703,-0.0949775,0.144403,-0.127903,-0.0871481,0.0127792,0.0285339,0.0152969,0.0123596,0.0182343,0.0180817,0.023613,0.0233459,-9.97986,0.0143433,-0.00293732,0.0480652,0.00839233,0.0185013,-0.0110245,-0.0315475,0.0110626
33,9,10.0097,0.00152588,-0.000610352,-2.4302,0.0532396,-0.0759786,0.0510762,0.0706652,-0.0949775,0.144708,-0.127598,-0.0877584,-0.00167847,0.0299454,0.0191879,0.0124359,0.0193405,0.0163269,0.0209045,0.0201035,-9.97986,0.0162506,-0.00217438,0.0517654,0.0107956,0.0209427,-0.00801086,-0.0325775,0.0102997
34,0,10.0097,-0.000305176,-0.000152588,-2.42959,0.0535448,-0.0771993,0.0516866,0.0688341,-0.0949775,0.142877,-0.127598,-0.0874532,-0.00968933,0.0288773,0.0204086,0.0127792,0.0209427,0.0201035,0.0245285,0.0216675,-9.97986,0.0148392,-0.00267029,0.050087,0.00782013,0.0201035,-0.00850677,-0.031929,0.0101471
34,1,10.0097,0.000915527,-0.000305176,-2.42837,0.0541551,-0.0753682,0.054128,0.0697496,-0.0949775,0.144098,-0.127903,-0.0865377,-0.0136948,0.0295639,0.0207138,0.0101471,0.0152588,0.0178528,0.0211334,0.0214005,-9.97986,0.0148392,-0.000495911,0.0483704,0.00419617,0.022049,-0.00511169,-0.0296402,0.00827789
34,2,10.0097,-0.000610352,0,-2.42684,0.0541551,-0.075063,0.054128,0.0700548,-0.094062,0.145013,-0.126987,-0.085317,-0.0164795,0.0268173,0.017662,0.0120163,0.0218201,0.0231171,0.0214386,0.0231171,-9.97986,0.0118637,0.000457764,0.0512695,0.00694275,0.0225449,-0.000457764,-0.0337982,0.00701904
34,3,10.0097,0.000305176,0.000305176,-2.42776,0.0553758,-0.0753682,0.0538228,0.0691393,-0.094062,0.145318,-0.125461,-0.0844015,-0.0188065,0.0259018,0.0246048,0.014534,0.0195694,0.0229645,0.02491,0.0175095,-9.97986,0.0215149,0.00114441,0.0471878,0.0105667,0.0224304,0.00679016,-0.0312805,0.00801086
34,4,10.0097,0.000305176,0.000610352,-2.42562,0.0559862,-0.0747579,0.0571797,0.0709703,-0.0928413,0.145624,-0.126072,-0.0837911,-0.012207,0.0263596,0.0189972,0.0115585,0.0203323,0.0192261,0.0204849,0.018158,-9.97986,0.0196075,-0.00457764,0.0458145,0.00408173,0.0244904,0.00640869,-0.0317001,0.00766754
34,5,10.0097,-0.000305176,-0.000152588,-2.42531,0.0569017,-0.0738423,0.0547383,0.0706652,-0.0913154,0.146539,-0.12241,-0.0816549,0.0062561,0.0265121,0.019989,0.00583649,0.0204468,0.0210571,0.0216293,0.0230408,-9.97986,0.0194168,-0.0037384,0.0434494,0.0062561,0.0239563,0.00640869,-0.00930786,0.00846863
34,6,10.0097,-0.000305176,-0.000305176,-2.42531,0.0559862,-0.0747579,0.0550435,0.072191,-0.0919257,0.146539,-0.123935,-0.0810445,0.0226212,0.0273895,0.0198746,0.0127411,0.0152969,0.0206375,0.0213623,0.0198364,-9.97986,0.018158,-0.00335693,0.0444412,0.00705719,0.0229263,0.01297,0.00919342,0.0110245
34,7,10.0097,-0.000610352,0.000610352,-2.42623,0.0565965,-0.075063,0.0547383,0.072191,-0.0919257,0.146234,-0.124546,-0.0810445,0.0363159,0.0298691,0.0182343,0.0134277,0.018425,0.019989,0.0237656,0.0265884,-9.97986,0.0241852,-0.000495911,0.0413895,0.00724792,0.0228119,0.00663757,0.0280762,0.00843048
34,8,10.0097,0.000305176,-0.000610352,-2.4244,0.0572069,-0.0729268,0.0547383,0.0728014,-0.0928413,0.145624,-0.121799,-0.0819601,0.0460052,0.0267792,0.0176239,0.0119019,0.0187302,0.0219727,0.0198364,0.0275421,-9.97986,0.0252151,0.0019455,0.0395584,0.00938416,0.0198746,0.0130081,0.052948,0.00961304
34,9,10.0097,0.000610352,0.00106812,-2.42531,0.0572069,-0.0747579,0.0550435,0.0718859,-0.0919257,0.146234,-0.124546,-0.0819601,0.0511551,0.0273514,0.0208664,0.013237,0.0215912,0.0217056,0.0227356,0.0201035,-9.97986,0.0262451,7.62939e-005,0.0393677,0.00827789,0.0246048,0.014801,0.073967,0.00938416
35,0,10.0097,0,-0.000457764,-2.42653,0.0559862,-0.0738423,0.054128,0.0447252,-0.0952827,0.145624,-0.126072,-0.0825704,0.0321579,0.0260925,0.0214386,0.013237,0.0197983,0.0212097,0.0239944,0.0201035,-9.97986,0.0240707,-0.00179291,0.0380325,0.00556946,0.0241089,0.0113678,0.0906372,0.00934601
35,1,9.20186,-0.000610352,-0.000762939,-2.42653,0.0572069,-0.0744527,0.0535176,0.049608,-0.0934516,0.145929,-0.124546,-0.0819601,0.0132751,0.0282669,0.0207138,0.012207,0.0175858,0.0231171,0.022583,0.0220871,-9.97986,0.0174332,0.000495911,0.0348282,0.00816345,0.0253677,0.00709534,0.105362,0.00812531
35,2,8.27107,0.000915527,-0.00106812,-2.42592,0.055681,-0.0738423,0.0553487,0.0596788,-0.0922309,0.145929,-0.126072,-0.0831808,0.0105286,0.0265884,0.0209427,0.0131226,0.0178528,0.0233078,0.0243759,0.016861,-9.97986,0.0115585,0.00297546,0.0286484,0.00923157,0.0232315,0.0115204,0.114365,0.0107574
35,3,8.24086,-0.000305176,-0.000305176,-2.42592,0.0553758,-0.0741475,0.0547383,0.0673082,-0.0910102,0.147149,-0.125766,-0.0831808,0.00423431,0.0226974,0.0250626,0.0144958,0.0174713,0.0236893,0.0186539,0.00576019,-9.97986,0.0127411,-0.00301361,0.0287628,0.00518799,0.0244904,0.00526428,0.126228,0.00812531
35,4,8.64919,0.0012207,0.000915527,-2.42776,0.0550706,-0.0747579,0.054128,0.0764635,-0.0919257,0.145624,-0.130344,-0.0834859,0.00579834,0.0270844,0.0248718,0.018425,0.0135422,0.0260925,0.0193787,0.0110626,-9.97986,0.00297546,-0.00350952,0.0273132,0.0069046,0.0231552,0.00534058,0.133934,0.0128555
35,5,10.0097,0.000610352,0.000915527,-2.42562,0.0553758,-0.0747579,0.0553487,0.106981,-0.0891792,0.142877,-0.123325,-0.0840963,0.00709534,0.0255585,0.0209045,0.0191116,0.0135803,0.0205994,0.022583,0.00553131,-9.97986,0.00644684,-0.00148773,0.0198364,0.00213623,0.0220871,0.00148773,0.140572,0.0114822
35,6,10.0097,0.0012207,0.000305176,-2.4305,0.0535448,-0.0756734,0.0526021,0.0834825,-0.0946723,0.144098,-0.126682,-0.0859274,0.0101471,0.0246429,0.0201416,0.0123215,0.0141907,0.0260162,0.0206757,0.00419617,-9.97986,0.00812531,-0.00087738,0.0218964,0.00461578,0.026207,0.0025177,0.149612,0.00930786
35,7,10.0097,-0.000305176,-0.000457764,-2.42989,0.0529344,-0.0759786,0.0519917,0.0734117,-0.0946723,0.143182,-0.13126,-0.0871481,0.0227356,0.0271225,0.0201797,0.0137329,0.0222778,0.0226212,0.0236893,0.00713348,-9.97986,0.0107956,-0.0025177,0.0180817,0.0056839,0.0273514,0.000648499,0.15667,0.0117874
35,8,10.0097,-0.000305176,-0.000305176,-2.42989,0.0544603,-0.0753682,0.0522969,0.0715807,-0.0952827,0.142877,-0.127903,-0.0880636,0.027771,0.0184631,0.0180817,0.0164032,0.0159073,0.0217819,0.0199127,-0.00137329,-9.97986,0.00904083,-0.00270844,0.0139236,0.00377655,0.0220871,-0.00656128,0.15564,0.00988007
35,9,10.0097,0.000915527,-0.000152588,-2.42867,0.0544603,-0.0762837,0.0532125,0.0697496,-0.0946723,0.144403,-0.127292,-0.0877584,0.0276947,0.023613,0.0192261,0.0183487,0.0165558,0.0262451,0.021553,-0.00389099,-9.97986,0.0122833,-0.0012207,0.0123978,0.00648499,0.0258636,-0.0094986,0.161362,0.01091
36,0,10.0097,0.000610352,-0.000152588,-2.42898,0.0544603,-0.0762837,0.0519917,0.0691393,-0.0931465,0.143182,-0.127292,-0.0868429,0.0252533,0.0220871,0.0177383,0.0160599,0.0150299,0.0278091,0.0208282,-0.0062561,-9.97986,0.0153351,-0.00167847,0.00873566,0.0037384,0.0223923,-0.0106812,0.16655,0.0106049
36,1,10.0097,-0.000305176,-0.000305176,-2.42867,0.0544603,-0.0762837,0.0535176,0.0700548,-0.0925361,0.143792,-0.127292,-0.0868429,0.0162125,0.0189972,0.0194168,0.015831,0.0133133,0.02388,0.0167084,0.000534058,-9.97986,0.0202179,0.0018692,0.00862122,0.00614166,0.0193024,-0.00915527,0.168076,0.0116348
36,2,10.0097,-0.000915527,-0.000610352,-2.42837,0.0553758,-0.0756734,0.0522969,0.0691393,-0.0928413,0.145318,-0.126377,-0.0844015,0.0114822,0.0160599,0.0185776,0.0123978,0.0170135,0.0292587,0.0236893,0.00854492,-9.97986,0.0144577,-0.000686646,0.00667572,0.00572205,0.0222778,-0.0153351,0.174637,0.0140762
36,3,10.0097,-0.000305176,-0.000305176,-2.42714,0.0559862,-0.075063,0.0535176,0.07036,-0.0925361,0.144403,-0.124546,-0.0844015,0.0130081,0.0206375,0.0154114,0.0144577,0.0170135,0.0165558,0.0267792,0.0123596,-9.97986,0.00972748,-0.00225067,0.0031662,0.00324249,0.0248718,-0.0246429,0.172501,0.0109863
36,4,10.0097,-0.00152588,0.000305176,-2.42653,0.0562914,-0.0744527,0.054128,0.0706652,-0.0931465,0.144403,-0.126072,-0.0831808,0.0118256,0.0204086,0.0199127,0.0104523,0.0153732,0.0156784,0.0183487,0.0120926,-9.97986,0.00865936,-0.00362396,0.00133514,0.00125885,0.0218201,-0.0193787,0.175972,0.01091
36,5,10.0097,0,0.000457764,-2.42501,0.0559862,-0.0744527,0.0529073,0.0697496,-0.0910102,0.145929,-0.124546,-0.0825704,0.00267029,0.0182724,0.015564,0.0106812,0.0191498,0.0144577,0.0218964,0.0114059,-9.97986,0.0201797,-0.00679016,-0.00408173,0.000343323,0.0204086,-0.0220871,0.177612,0.0118637
36,6,10.0097,0.000610352,-0.000305176,-2.4247,0.0565965,-0.0747579,0.0550435,0.0724962,-0.0913154,0.146234,-0.12302,-0.0816549,0.00465393,0.0139999,0.0165939,0.0126648,0.0162506,0.0154114,0.0228882,0.0112534,-9.97986,0.0404358,-0.000686646,-0.00125885,0.00545502,0.0239563,-0.013237,0.180779,0.01194
36,7,10.0097,0.0012207,0,-2.42592,0.0562914,-0.073232,0.0550435,0.0706652,-0.0916206,0.146234,-0.12363,-0.0810445,0.0106812,0.0162125,0.0166321,0.0130463,0.0156784,0.00888824,0.0204849,0.0130081,-9.97986,0.0305557,0.00263214,-0.00278473,0.0025177,0.0249481,-0.00259399,0.18322,0.00930786
36,8,10.0097,0.000305176,0.000152588,-2.42562,0.0565965,-0.0738423,0.0544332,0.0697496,-0.0913154,0.147149,-0.12363,-0.0813497,0.00858307,0.0164413,0.0183105,0.0139236,0.0179672,0.0170517,0.0209427,0.0125122,-9.97986,0.0159836,-0.00205994,-0.00457764,0.00522614,0.0247955,0.00896454,0.181732,0.0113297
36,9,10.0097,0.000305176,-0.000457764,-2.42409,0.055681,-0.0735371,0.054128,0.0712755,-0.0913154,0.14776,-0.124851,-0.0813497,0.0112534,0.0221252,0.0184631,0.0112915,0.0166702,0.0100327,0.0191879,0.0162506,-9.97986,0.00667572,0.00320435,-0.0075531,-0.00190735,0.0228119,0.0122833,0.18425,0.0138474
37,0,10.0097,0.00152588,-0.0012207,-2.42592,0.0565965,-0.0744527,0.0532125,0.04442,-0.0955879,0.147149,-0.126987,-0.0819601,0.00926971,0.0200653,0.0152588,0.0139236,0.0147247,0.00900269,0.0192642,0.01297,-9.97986,-0.00270844,-0.000114441,-0.00808716,-0.00141144,0.0253296,0.0112152,0.183029,0.0104141
37,1,9.02333,-0.000305176,-0.00152588,-2.42501,0.0559862,-0.0741475,0.0538228,0.0493029,-0.094062,0.145929,-0.125766,-0.0813497,0.00606537,0.0177383,0.0189972,0.0129318,0.0198746,0.0154877,0.0201416,0.0143814,-9.97986,-0.00164032,0,-0.0100708,-0.00213623,0.0245285,0.00751495,0.181274,0.00873566
37,2,8.09011,0.000305176,-0.000152588,-2.42592,0.055681,-0.0741475,0.0547383,0.0572374,-0.0916206,0.145013,-0.126987,-0.0813497,0.00343323,0.0193024,0.0149155,0.0156403,0.0185394,0.0119781,0.021019,0.0181961,-9.97986,-0.000305176,-0.000953674,-0.015831,-0.00469208,0.0257492,0.00751495,0.182304,0.0107956
37,3,8.02602,0.0012207,0,-2.42562,0.0553758,-0.0747579,0.0544332,0.0645616,-0.0931465,0.144708,-0.125766,-0.0828756,0.00583649,0.0217438,0.0173187,0.00938416,0.0193405,0.00659943,0.020752,0.0172806,-9.97986,0.0031662,0.000534058,-0.0171661,-0.00400543,0.0218582,-0.000152588,0.178261,0.0110245
37,4,8.43282,-0.0012207,0.000762939,-2.42776,0.0550706,-0.0747579,0.0547383,0.0770738,-0.0897895,0.146234,-0.125461,-0.0834859,0.00682831,0.0214767,0.0153351,0.0107956,0.0148773,0.0105286,0.0209427,0.019455,-9.97986,0.0130081,-0.00141144,-0.0173187,-0.00480652,0.018959,-0.00522614,0.17601,0.00637054
37,5,10.0097,0.0012207,0.000457764,-2.42501,0.0544603,-0.0747579,0.0547383,0.10515,-0.0885688,0.144403,-0.124241,-0.0837911,0.00682831,0.02491,0.0185394,0.0119019,0.0138092,0.0121689,0.0209427,0.0220871,-9.97986,0.0144577,-0.00396729,-0.0229645,-0.00656128,0.0226593,-0.0104904,0.176201,0.00225067
37,6,10.0097,-0.00213623,0.000762939,-2.43081,0.0538499,-0.075063,0.0519917,0.0847032,-0.0949775,0.143792,-0.125766,-0.0874532,0.0121307,0.021019,0.0179672,0.0114441,0.0167084,0.013237,0.017395,0.0243378,-9.97986,0.0242615,0.000801086,-0.0232315,0.000953674,0.0221634,-0.00972748,0.16983,0.00694275
37,7,10.0097,0.000915527,0.000457764,-2.42959,0.0535448,-0.0762837,0.0519917,0.0749376,-0.0949775,0.143792,-0.127903,-0.0859274,0.00938416,0.0261307,0.019455,0.01194,0.0178909,0.013237,0.0235748,0.0222015,-9.97986,0.0170517,0.00198364,-0.0217056,-0.0043869,0.020256,-0.0102234,0.164413,0.0063324
37,8,10.0097,0.000305176,-0.000305176,-2.42867,0.0538499,-0.075063,0.0519917,0.0694445,-0.095893,0.142267,-0.126987,-0.0874532,0.00144958,0.0211334,0.019455,0.0087738,0.0154114,0.0148773,0.0190735,0.0299072,-9.97986,0.022316,-0.00179291,-0.0294495,-0.00221252,0.0191498,-0.00522614,0.159988,0.00621796
37,9,10.0097,0.000915527,-0.000762939,-2.42837,0.0532396,-0.0762837,0.0529073,0.0691393,-0.0946723,0.143792,-0.127903,-0.0871481,0.00289917,0.0190735,0.018425,0.00911713,0.0157928,0.0167847,0.0226593,0.0304413,-9.97986,0.0249863,-0.00320435,-0.025444,-0.00709534,0.0178146,-0.000572205,0.155334,0.00415802
38,0,10.0097,0.000610352,-0.000610352,-2.42898,0.0538499,-0.0765889,0.0538228,0.0685289,-0.0943672,0.143792,-0.127292,-0.0865377,0.00278473,0.0289154,0.0181198,0.00843048,0.0151062,0.0144577,0.0210953,0.0307083,-9.97986,0.0260544,0.0025177,-0.0166702,-0.00400543,0.0152969,0.00995636,0.150566,0.00335693
38,1,10.0097,0,0.000152588,-2.42806,0.0541551,-0.0753682,0.0513814,0.0694445,-0.0934516,0.142877,-0.126072,-0.0862325,0.00434875,0.0227737,0.0196838,0.01297,0.0163651,0.0177765,0.0225067,0.0389099,-9.97986,0.0209045,0,-0.018692,-0.00709534,0.0201416,0.0116348,0.14389,0.0044632
38,2,10.0097,-0.000610352,0.000152588,-2.42806,0.0538499,-0.075063,0.0532125,0.0700548,-0.0934516,0.145624,-0.126377,-0.0850118,-0.00270844,0.0266647,0.0209808,0.0124741,0.0178909,0.0153732,0.0196838,0.0378799,-9.97986,0.0238037,-0.00152588,-0.0119019,-0.00850677,0.0152206,0.0144958,0.141449,0.00270844
38,3,10.0097,-0.0012207,0.000152588,-2.42745,0.0550706,-0.0747579,0.0538228,0.0688341,-0.0943672,0.146234,-0.126072,-0.0844015,-0.01194,0.0296783,0.0232315,0.0123596,0.018959,0.0147629,0.0207901,0.0446701,-9.97986,0.0199127,-0.00312805,-0.00564575,-0.00988007,0.0133514,0.00495911,0.137215,0.000953674
38,4,10.0097,0.000915527,-0.000305176,-2.42623,0.0553758,-0.0741475,0.0538228,0.0700548,-0.0925361,0.145624,-0.124546,-0.0837911,-0.0204468,0.0255966,0.0264359,0.0139999,0.0183868,0.0201416,0.0215149,0.0424957,-9.97986,0.00713348,-0.0031662,-0.000343323,-0.010643,0.0159836,-0.00858307,0.130272,0.00160217
38,5,10.0097,0,0.000610352,-2.42562,0.0565965,-0.0738423,0.0544332,0.0697496,-0.0919257,0.146234,-0.125461,-0.0816549,-0.000991821,0.0281143,0.0315094,0.0141525,0.0172424,0.0161362,0.0220108,0.0370026,-9.97986,-0.000839233,-0.00236511,0.00778198,-0.0101089,0.0163269,-0.0137711,0.124702,0.00190735
38,6,10.0097,0,-0.000610352,-2.42562,0.0553758,-0.0735371,0.0547383,0.0724962,-0.0913154,0.146539,-0.125156,-0.0819601,0.0107574,0.0326538,0.0296783,0.0151443,0.0183105,0.0216293,0.0242615,0.0345612,-9.97986,-0.0133133,0,0.00335693,-0.0138474,0.0112152,-0.0192261,0.120354,-0.000495911
38,7,10.0097,0.000915527,-0.000305176,-2.42531,0.0565965,-0.0738423,0.0556539,0.0709703,-0.0916206,0.14776,-0.124241,-0.0813497,0.0126266,0.0336838,0.0336456,0.00991821,0.0183105,0.0197601,0.0206375,0.0238419,-9.97986,-0.0302505,-0.00217438,0.00923157,-0.0131989,0.0122833,-0.0251007,0.111465,-0.00038147
38,8,10.0097,0,0.000305176,-2.4244,0.0572069,-0.0738423,0.0544332,0.0697496,-0.0925361,0.146539,-0.123325,-0.080129,0.0107574,0.0374222,0.0318527,0.0156403,0.0166702,0.0125122,0.0201035,0.0133896,-9.97986,-0.038147,-0.0044632,0.0120544,-0.0101471,0.0117874,-0.0176239,0.0989151,-0.00175476
38,9,10.0097,0,0.000152588,-2.4247,0.055681,-0.0747579,0.055959,0.0676134,-0.0916206,0.14776,-0.124546,-0.0807394,0.00297546,0.0338745,0.0283432,0.0179672,0.0137329,0.0159836,0.0179672,0.00629425,-9.97986,-0.0550079,-0.000495911,0.0062561,-0.00793457,0.01297,-0.00915527,0.0868988,-0.00419617
39,0,10.0097,0.000610352,-0.00137329,-2.42562,0.0569017,-0.0753682,0.0538228,0.0431993,-0.0952827,0.147455,-0.126072,-0.0831808,0.0157928,0.0341797,0.0328064,0.0170517,0.0204468,0.0111771,0.0154114,0.00255585,-9.97986,-0.0608826,0.00106812,0.0063324,-0.0116348,0.0108719,-0.00102997,0.0784302,-0.00595093
39,1,8.91683,0.00213623,-0.000610352,-2.42409,0.0565965,-0.0738423,0.054128,0.0483873,-0.0934516,0.146844,-0.126072,-0.0813497,-0.0101089,0.0328445,0.0312424,0.0161362,0.0168991,0.0126648,0.0205612,-0.00953674,-9.97986,-0.0529099,0.00572205,0.00919342,-0.00328064,0.0113678,0.0160599,0.0712967,-0.00362396
39,2,8.03639,0.000610352,-0.000457764,-2.42714,0.0559862,-0.0738423,0.0532125,0.0554064,-0.0925361,0.145013,-0.126072,-0.0822652,-0.0105286,0.0304031,0.0287628,0.0112534,0.0154495,0.0115204,0.0219727,-0.0136566,-9.97986,-0.0487518,-0.0037384,0.00236511,-0.00720978,0.0069809,0.0128174,0.0579834,-0.0082016
39,3,7.94332,0.00152588,0.000305176,-2.42714,0.0569017,-0.0753682,0.054128,0.0657823,-0.0922309,0.145318,-0.125461,-0.0825704,0.0318527,0.0286865,0.0233078,0.013504,0.0205231,0.0136185,0.0258255,-0.00801086,-9.97986,-0.0301743,0.00133514,0.0120544,-0.000801086,0.0143051,0.0170517,0.0543976,-0.00328064
39,4,8.31838,-0.0012207,0,-2.42684,0.0550706,-0.0753682,0.0553487,0.0767687,-0.0910102,0.145318,-0.125766,-0.0840963,0.0340652,0.0265884,0.0209045,0.0128555,0.0135803,0.00740051,0.0198364,-0.0109482,-9.97986,-0.0197983,-0.00492096,0.0150681,0.000190735,0.0129318,0.00362396,0.0433731,-0.00957489
39,5,10.0097,-0.0012207,0.00152588,-2.42745,0.0550706,-0.0753682,0.0553487,0.107897,-0.0885688,0.145929,-0.124851,-0.0840963,0.0295258,0.0250626,0.0154495,0.0140381,0.0181961,0.00934601,0.0226593,-0.00492096,-9.97986,0.000343323,0.00301361,0.018158,-0.00278473,0.0124359,-0.00118256,0.0336838,-0.00522614
39,6,10.0097,0,0.000152588,-2.42928,0.0544603,-0.0765889,0.0519917,0.0853136,-0.0946723,0.143792,-0.126682,-0.0892843,0.0279617,0.0231934,0.00980377,0.01297,0.0163269,0.0101471,0.0165558,-0.00118256,-9.97986,0.0311661,-0.00259399,0.017128,-0.00198364,0.00892639,0.00225067,0.0201797,-0.00823975
39,7,10.0097,0.000305176,0.000610352,-2.42501,0.0529344,-0.0765889,0.0516866,0.0749376,-0.0952827,0.143487,-0.126987,-0.0868429,0.0248718,0.0136185,0.00759125,0.00778198,0.0149536,0.0106812,0.0133514,0.00175476,-9.97986,0.0458145,0.000228882,0.0203323,-0.000648499,0.0127411,0.00213623,0.014534,-0.00591278
39,8,10.0097,0,-0.000610352,-2.42806,0.0541551,-0.0762837,0.0522969,0.0737169,-0.095893,0.143182,-0.127292,-0.0868429,0.0281525,0.0151443,0.00728607,0.00434875,0.0143814,0.0151443,0.0185013,0.00183105,-9.97986,0.075531,-0.00114441,0.0230026,-0.00408173,0.00953674,-0.000953674,0.00549316,-0.00804901
39,9,10.0097,-0.000610352,-0.000305176,-2.42989,0.0538499,-0.0765889,0.0513814,0.0709703,-0.0961982,0.143182,-0.126377,-0.0883688,0.0165939,0.013504,0.00335693,0.00831604,0.0186157,0.00873566,0.0185013,0.00621796,-9.97986,0.0956726,0.000228882,0.0249863,-0.00247955,0.0101471,-0.00205994,-0.00141144,-0.00602722
40,0,10.0097,0.00183105,0,-2.42562,0.0529344,-0.0759786,0.0526021,0.0688341,-0.0955879,0.144098,-0.127598,-0.0871481,0.00980377,0.00808716,0.00617981,0.000343323,0.0204849,0.00583649,0.0150681,0.00984192,-9.97986,0.0834274,0.000839233,0.0282288,-0.00450134,0.00736237,-0.00682831,-0.00457764,-0.00450134
40,1,10.0097,-0.000305176,-0.000610352,-2.42867,0.0559862,-0.0753682,0.0532125,0.067003,-0.0943672,0.144098,-0.126987,-0.0865377,0.0157547,0.00804901,0.00236511,-0.00362396,0.0190353,0.00717163,0.0104523,0.0130463,-9.97986,0.0788116,0.00312805,0.0388718,-0.00427246,0.00167847,-0.00953674,-0.0105286,-0.00389099
40,2,10.0097,0.000305176,-0.000610352,-2.42776,0.0547655,-0.075063,0.0538228,0.0700548,-0.0952827,0.144708,-0.126072,-0.085317,0.0163269,0.00797272,0.00473022,-0.00408173,0.0193024,0.00293732,0.010376,0.013237,-9.97986,0.0683212,0.0031662,0.042038,-0.00797272,0.00743866,-0.00846863,-0.015831,-0.0043869
40,3,10.0097,0.0012207,0.000152588,-2.42898,0.0550706,-0.0747579,0.0532125,0.0691393,-0.0931465,0.146234,-0.126377,-0.0850118,0.0164032,0.00804901,0.0025177,-0.0101089,0.014801,0.00823975,0.00785828,0.0136185,-9.97986,0.0397873,0.0019455,0.0413895,0.00289917,0.00301361,-0.0133896,-0.0168991,-0.00202179
40,4,10.0097,0.0012207,-0.000152588,-2.42684,0.0550706,-0.0741475,0.0538228,0.0663927,-0.0928413,0.144708,-0.124851,-0.0831808,0.0138855,0.00827789,0.00343323,-0.0118637,0.0151443,0.00801086,0.00854492,0.0201797,-9.97986,0.0297928,0.000419617,0.0333023,0.000228882,0.00797272,-0.0116348,-0.0239944,-0.00205994
