
Devices
1200
,,BP Load cell - Voltage,String Length - Voltage,Clutch Active - Voltage,#7 iPecs - Voltage,,,,,,,,,EMG 1-8 Left - Voltage,,,,,,,,Pylon Force - Voltage,EMG 9-16 Right - Voltage,,,,,,,,
Frame,Sub Frame,BP Load Cell,String Length,From Arduino Logic,A45,A135,A225,A315,S0,S90,S180,S270,ZSum,EMG 1 Glut Max,EMG 2 Glut Med,EMG 3 Biceps Femoris Long,EMG 4 Rectus Femoris,EMG 5 Vastus Medialis,EMG 6 Tib Ant,EMG 7 Med Gas,EMG 8 Soleus,Pylon volts,EMG 9 Glut Max,EMG 10 Glut Med,EMG 11 Biceps Femoris Long,EMG 12 Rectus Femoris,EMG 13 Vastus Medialis,EMG 14 Tib Ant,EMG 15 Med Gas,EMG 16 Soleus
,,V,V,V,V,V,V,V,V,V,V,V,V,V,V,V,V,V,V,V,V,V,V,V,V,V,V,V,V,V
1,0,5.80983,-0.000305176,0.00442505,-2.42867,0.0550706,-0.0768941,0.0538228,0.154588,-0.0882636,0.142877,-0.12241,-0.0856222,0.0107574,0.0249863,0.0181198,0.00980377,0.0185013,0.0130463,0.0240326,0.0183105,-9.97986,0.018692,-0.00175476,0.0131226,0.00488281,0.0195694,0.0271988,0.0156021,0.00926971
1,1,10.0097,-0.000915527,0.00518799,-2.43081,0.0544603,-0.0775044,0.0519917,0.136278,-0.0946723,0.142267,-0.123935,-0.0880636,0.01297,0.0209808,0.0212097,0.00976563,0.0156403,0.00919342,0.0245667,0.0164795,-9.97986,0.0174332,0.000839233,0.0141907,0.0038147,0.0152206,0.0200272,0.0160217,0.00534058
1,2,10.0097,0.0012207,0.0012207,-2.42959,0.0538499,-0.0747579,0.0501607,0.0935533,-0.0971137,0.142877,-0.126072,-0.0889791,0.0062561,0.0247574,0.0192261,0.0121689,0.0183868,0.0128937,0.0191498,0.0175858,-9.97986,0.0140381,-0.00411987,0.0148392,0.00572205,0.0154114,0.0198746,0.0138855,0.00629425
1,3,10.0097,0.00183105,0.000152588,-2.42989,0.0544603,-0.0756734,0.0513814,0.0795153,-0.0971137,0.142877,-0.127903,-0.0880636,0.00946045,0.0238419,0.017395,0.00762939,0.0166702,0.00968933,0.02285,0.0171661,-9.97986,0.0148773,-0.00312805,0.0164032,0.0094223,0.0178528,0.018692,0.014534,0.00591278
1,4,10.0097,0.000305176,0,-2.42867,0.0535448,-0.0768941,0.0513814,0.0731066,-0.0952827,0.143182,-0.126682,-0.0865377,0.0128174,0.0221634,0.0197601,0.0119019,0.0190353,0.00511169,0.0239944,0.016098,-9.97986,0.0178528,-0.000839233,0.0162888,0.00648499,0.0135422,0.0111008,0.0115204,0.00511169
1,5,10.0097,0.00152588,-0.000457764,-2.42684,0.0547655,-0.0741475,0.0522969,0.0731066,-0.0946723,0.145013,-0.125766,-0.0850118,0.0118256,0.0226593,0.0163269,0.00968933,0.0159836,0.00659943,0.022049,0.0150299,-9.97986,0.0154495,-0.00354767,0.0136185,0.0082016,0.013504,0.0125504,0.0151062,0.00839233
1,6,10.0097,0.000915527,0.000152588,-2.42837,0.055681,-0.0741475,0.0532125,0.0715807,-0.0931465,0.145013,-0.126987,-0.0844015,0.0110626,0.0268936,0.0160217,0.0147247,0.0182343,0.00972748,0.0247574,0.0152969,-9.97986,0.0110245,-0.00171661,0.0156021,0.00705719,0.0160217,0.00205994,0.0149918,0.00812531
1,7,10.0097,0,0.000610352,-2.42714,0.055681,-0.0741475,0.0538228,0.0709703,-0.0922309,0.145013,-0.125461,-0.0837911,0.0123215,0.025444,0.0185013,0.0139236,0.0195694,0.00946045,0.02388,0.0202942,-9.97986,0.0156403,-7.62939e-005,0.0128555,0.00911713,0.014267,-0.00457764,0.0164413,0.00656128
1,8,10.0097,0.00152588,-0.000305176,-2.42592,0.055681,-0.0744527,0.0550435,0.0709703,-0.0922309,0.147149,-0.124241,-0.0819601,0.00637054,0.0219727,0.0162506,0.00953674,0.0181198,0.00991821,0.0207901,0.0166702,-9.97986,0.0166702,-0.00236511,0.0125504,0.00530243,0.0106812,-0.00934601,0.0147629,0.00537872
1,9,10.0097,0.0012207,0.000152588,-2.42531,0.0559862,-0.0741475,0.0553487,0.0712755,-0.0919257,0.146234,-0.124241,-0.0813497,0.0144958,0.0250626,0.0226593,0.0102997,0.0250626,0.0104141,0.0258636,0.0199127,-9.97986,0.0172806,-0.00213623,0.0168991,0.00598907,0.020256,-0.00469208,0.0164795,0.0063324
2,0,10.0097,0.000915527,-0.000457764,-2.42531,0.0562914,-0.0744527,0.0556539,0.072191,-0.0928413,0.146539,-0.124851,-0.0810445,0.00907898,0.0209045,0.0208664,0.0109482,0.0187302,0.00793457,0.0176239,0.017128,-9.97986,0.0172043,-0.00301361,0.0138474,0.00667572,0.0153732,-0.00347137,0.0151825,0.00541687
2,1,9.43959,0,-0.00274658,-2.42562,0.0553758,-0.0738423,0.0538228,0.0264147,-0.0974189,0.146234,-0.126987,-0.0828756,0.00728607,0.0291824,0.0185013,0.0104904,0.0185776,0.0120926,0.0249481,0.0170517,-9.97986,0.0145721,-0.00236511,0.0157928,0.00522614,0.0143433,-0.00431061,0.0180817,0.00663757
2,2,0.89345,0.0012207,-0.00549316,-2.42653,0.0559862,-0.073232,0.054128,-0.00532361,-0.0968086,0.146539,-0.128818,-0.0816549,0.0082016,0.0214767,0.0180435,0.00862122,0.0156021,0.0110626,0.0239944,0.0180817,-9.97986,0.0156784,-0.00232697,0.0131607,0.00579834,0.0213623,-0.0012207,0.018158,0.0082016
2,3,-6.04381,0,-0.00488281,-2.42501,0.0562914,-0.0738423,0.054128,-0.0126478,-0.0968086,0.145929,-0.130649,-0.0810445,0.0102234,0.0225449,0.0201035,0.0107574,0.0153351,0.00995636,0.0214005,0.0150299,-9.97986,0.0141144,-0.00457764,0.0154495,0.00473022,0.0178528,0.0050354,0.0154877,0.00812531
2,4,-9.99003,-0.00152588,-0.00289917,-2.4247,0.0559862,-0.0738423,0.0553487,0.00901965,-0.0931465,0.14776,-0.127598,-0.0810445,0.00900269,0.0263214,0.0199509,0.0127029,0.0163651,0.0141907,0.0178146,0.0192642,-9.97986,0.0147629,-0.00457764,0.0153351,0.00213623,0.0147247,0.00358582,0.0130463,0.00537872
2,5,-9.99003,0.000305176,-0.00167847,-2.42562,0.0569017,-0.0726216,0.055959,0.0395372,-0.0910102,0.146234,-0.128208,-0.0816549,0.00946045,0.0265121,0.0188828,0.0131607,0.0178909,0.00518799,0.022049,0.0202942,-9.97986,0.0191116,-0.00190735,0.0104141,0.00873566,-0.00389099,-0.00286102,0.0159073,0.00801086
2,6,-9.99003,-0.000610352,-0.000457764,-2.42592,0.0553758,-0.0747579,0.0553487,0.0566271,-0.090705,0.145624,-0.126987,-0.0810445,0.00968933,0.0239182,0.0211334,0.0152588,0.0169373,0.00606537,0.0188828,0.0166321,-9.97986,0.0182724,-0.000114441,0.0139236,0.00671387,-0.00991821,-0.000572205,0.0115585,0.00774384
2,7,-9.99003,0.000610352,0.000457764,-2.42623,0.0553758,-0.0759786,0.0550435,0.07036,-0.0903999,0.145929,-0.125156,-0.0822652,0.011673,0.0246048,0.0234604,0.00865936,0.021019,0.0111389,0.0179291,0.0157547,-9.97986,0.00900269,-0.0056076,0.0143051,0.00663757,-0.0075531,-0.00392914,0.0190353,0.00812531
2,8,-9.99003,0.00213623,0.00183105,-2.42531,0.0547655,-0.0738423,0.0565694,0.121935,-0.0870429,0.145624,-0.122104,-0.0828756,0.0116348,0.0243378,0.021286,0.00892639,0.0143814,0.0119781,0.0168991,0.0168228,-9.97986,0.0151443,0.00110626,0.0151443,0.00759125,0.0136948,0.00347137,0.0160217,0.00400543
2,9,-2.08293,0.0012207,0.00350952,-2.42745,0.0547655,-0.0759786,0.0544332,0.14055,-0.0876533,0.145624,-0.122715,-0.0844015,0.00766754,0.0231171,0.021019,0.00957489,0.0158691,0.00667572,0.022583,0.0209045,-9.97986,0.014267,-0.000152588,0.0114822,0.00911713,0.0141144,0.00183105,0.0170135,0.00629425
3,0,5.66335,0.000915527,0.00457764,-2.42745,0.0532396,-0.0753682,0.0538228,0.153063,-0.0900947,0.142572,-0.121799,-0.085317,0.0123978,0.0289154,0.0169754,0.00873566,0.0162888,0.00621796,0.0257874,0.0136185,-9.97986,0.0170898,0.00038147,0.0156784,0.00858307,0.0168228,0.00263214,0.0177383,0.00934601
3,1,10.0097,0.000915527,0.00457764,-2.4302,0.0526292,-0.0765889,0.0529073,0.137499,-0.094062,0.143792,-0.12363,-0.0886739,0.00797272,0.0253296,0.0217438,0.0125122,0.0189209,0.0111771,0.0195694,0.0165176,-9.97986,0.0172806,0.00190735,0.0155258,0.00709534,0.0138092,7.62939e-005,0.0161362,0.00488281
3,2,10.0097,0.00183105,0.000762939,-2.43142,0.0538499,-0.0775044,0.0501607,0.0932482,-0.0977241,0.142877,-0.126377,-0.0889791,0.00968933,0.0205994,0.0209808,0.01194,0.0188446,0.00938416,0.024147,0.0162888,-9.97986,0.0165176,-0.00495911,0.0130081,0.00659943,0.0147247,-0.00263214,0.0141907,0.00747681
3,3,10.0097,0.00305176,-0.000152588,-2.42898,0.0526292,-0.0756734,0.050771,0.0801256,-0.0971137,0.143487,-0.126072,-0.0877584,0.0131607,0.0183105,0.019722,0.00659943,0.0187683,0.00835419,0.0204468,0.0148773,-9.97986,0.0137711,-0.000267029,0.0133514,0.00556946,0.0152206,-0.00789642,0.0148392,0.00423431
3,4,10.0097,0.000610352,0.000152588,-2.4302,0.0535448,-0.0765889,0.0529073,0.0740221,-0.0955879,0.144403,-0.126682,-0.0859274,0.00991821,0.0269318,0.0235748,0.0134277,0.0107574,0.0117874,0.0210953,0.0133133,-9.97986,0.0151062,0.00350952,0.0180435,0.00724792,0.0146866,-0.0069046,0.0165558,0.0050354
3,5,10.0097,0.000610352,-0.000305176,-2.42928,0.0538499,-0.0756734,0.0529073,0.0724962,-0.0949775,0.144708,-0.126377,-0.0850118,0.00728607,0.0292969,0.0186539,0.0102997,0.0122833,0.00843048,0.0219345,0.021286,-9.97986,0.0173187,0.00133514,0.0123978,0.0111771,0.0149155,-0.00240326,0.017128,0.00682831
3,6,10.0097,0.0012207,0,-2.42714,0.0550706,-0.0756734,0.0532125,0.0724962,-0.0925361,0.144403,-0.126072,-0.0850118,0.00923157,0.0270081,0.0220871,0.0115967,0.0179672,0.00858307,0.0209427,0.0197601,-9.97986,0.0175858,-0.00190735,0.0125885,0.00476837,0.0152206,-0.00457764,0.017128,0.00514984
3,7,10.0097,0.000915527,0.000762939,-2.42684,0.0559862,-0.0747579,0.0535176,0.0706652,-0.0931465,0.144403,-0.125766,-0.0840963,0.0134659,0.0220108,0.0182343,0.0111389,0.0143814,0.0075531,0.0218201,0.0167847,-9.97986,0.0127792,0.00247955,0.0152206,0.00709534,0.0167084,-0.00411987,0.0164032,0.0050354
3,8,10.0097,0.000610352,0.000152588,-2.42501,0.0569017,-0.0744527,0.0544332,0.0718859,-0.0928413,0.146234,-0.125766,-0.0825704,0.00442505,0.0140381,0.0174713,0.0128937,0.0167084,0.0105286,0.0261307,0.0182724,-9.97986,0.0165939,-0.000762939,0.0146866,0.00717163,0.0146866,-0.00450134,0.0172043,0.0025177
3,9,10.0097,0.000610352,0.000152588,-2.42562,0.0562914,-0.073232,0.0553487,0.0724962,-0.0922309,0.146539,-0.124241,-0.0816549,0.0123215,0.0159836,0.0191879,0.00957489,0.0191116,0.0131989,0.0236511,0.0166321,-9.97986,0.0176239,0.00148773,0.0140762,0.00850677,0.018425,-0.00984192,0.0169373,0.00667572
4,0,10.0097,0.00244141,0.000457764,-2.42562,0.0572069,-0.0744527,0.054128,0.0712755,-0.0913154,0.145624,-0.123935,-0.0810445,0.0119781,0.0152206,0.0201035,0.0117874,0.0176239,0.00984192,0.0210571,0.018692,-9.97986,0.0178528,0.00141144,0.013504,0.00617981,0.0127792,-0.0120926,0.0148773,0.00564575
4,1,9.4753,0.000915527,-0.00259399,-2.42776,0.0562914,-0.0738423,0.0522969,0.0254991,-0.0949775,0.146539,-0.128208,-0.0834859,0.0101089,0.0199127,0.0233078,0.0110245,0.0165558,0.0133133,0.0232697,0.0173569,-9.97986,0.0174332,0.00118256,0.0141144,0.00816345,0.0152969,-0.00888824,0.0174332,0.00774384
4,2,0.931902,0.000305176,-0.00534058,-2.42501,0.0559862,-0.0738423,0.0547383,-0.00471326,-0.0968086,0.14837,-0.130039,-0.0819601,0.00965118,0.0209427,0.0224304,0.00602722,0.0180435,0.0113678,0.0205231,0.0140762,-9.97986,0.0190735,-0.00133514,0.0151443,0.00450134,0.016098,-0.00629425,0.0150681,0.00743866
4,3,-5.95805,0.000305176,-0.0050354,-2.42531,0.0572069,-0.0738423,0.0529073,-0.0135634,-0.095893,0.147149,-0.128818,-0.0819601,0.00907898,0.0187302,0.0172806,0.00869751,0.0168991,0.00991821,0.0224304,0.0191116,-9.97986,0.0188828,-0.00362396,0.0131989,0.00591278,0.0163651,-0.00656128,0.0159454,0.00953674
4,4,-9.99003,0.000610352,-0.00366211,-2.42531,0.0575121,-0.0744527,0.0544332,0.00993518,-0.0919257,0.147455,-0.128208,-0.0813497,0.00797272,0.0201416,0.0172043,0.0087738,0.013237,0.00732422,0.0193787,0.0162125,-9.97986,0.00965118,-0.00183105,0.00984192,0.00572205,0.0162506,-0.00671387,0.0159454,0.00514984
4,5,-9.99003,0.00152588,-0.00183105,-2.42501,0.0562914,-0.0735371,0.055959,0.0370958,-0.0903999,0.145624,-0.127292,-0.0810445,0.0104523,0.0244522,0.017662,0.0117493,0.0209045,0.0145721,0.0224686,0.0203705,-9.97986,0.0123215,-0.00228882,0.0170898,0.00766754,-0.00831604,-0.00320435,0.0162506,0.00217438
4,6,-9.99003,-0.000610352,-0.00106812,-2.42531,0.0544603,-0.0747579,0.0550435,0.0569322,-0.0910102,0.146234,-0.126377,-0.0822652,0.00522614,0.0246048,0.0218201,0.0104141,0.0177002,0.0102615,0.021553,0.0177383,-9.97986,0.0139618,0.0012207,0.0146103,0.0038147,-0.00843048,-0.0025177,0.0165176,0.00720978
4,7,-9.99003,-0.000610352,-0.000305176,-2.42592,0.055681,-0.075063,0.0556539,0.0712755,-0.0910102,0.146539,-0.124546,-0.0819601,0.00694275,0.020256,0.0166702,0.0120544,0.0170135,0.00858307,0.0250626,0.0191116,-9.97986,0.0119781,-0.000915527,0.0112152,0.00385284,-0.00320435,-0.00335693,0.019722,0.00675201
4,8,-9.99003,0.000305176,0.00152588,-2.42501,0.0550706,-0.0756734,0.0571797,0.121324,-0.0846015,0.145013,-0.121799,-0.0822652,0.0102615,0.0222015,0.0170135,0.0159454,0.0122833,0.00968933,0.0223923,0.0169373,-9.97986,0.0146484,-0.00183105,0.0110245,0.00873566,0.0150299,0.00087738,0.018158,0.00595093
4,9,-1.90684,0,0.0038147,-2.42714,0.0547655,-0.0753682,0.054128,0.141161,-0.088874,0.143792,-0.122715,-0.0847066,0.00648499,0.0261307,0.018959,0.01091,0.0165176,0.00766754,0.0249481,0.0175095,-9.97986,0.0148392,-0.0030899,0.0157166,0.0063324,0.0130081,-0.000534058,0.0145721,0.00614166
5,0,5.7546,0.00335693,0.00473022,-2.42867,0.0535448,-0.0759786,0.0538228,0.152757,-0.0879585,0.144098,-0.121494,-0.0847066,0.0120926,0.0278473,0.014267,0.0106812,0.0146484,0.0136566,0.0221634,0.0205612,-9.97986,0.017128,-0.00102997,0.0175858,0.00598907,0.0176239,-0.00118256,0.0128937,0.00579834
5,1,10.0097,0.000610352,0.00457764,-2.4302,0.0526292,-0.0775044,0.0516866,0.137499,-0.0943672,0.142572,-0.12302,-0.0880636,0.00896454,0.0231171,0.0159836,0.0120163,0.0154877,0.0143051,0.02285,0.0178146,-9.97986,0.0155258,-0.00190735,0.0179291,0.00419617,0.0172806,-0.00640869,0.0133896,0.00858307
5,2,10.0097,-0.000610352,0.000915527,-2.43172,0.0529344,-0.0756734,0.0495503,0.0932482,-0.0974189,0.143487,-0.125766,-0.0892843,0.0103378,0.0209808,0.0149155,0.00888824,0.0141144,0.00881195,0.0247574,0.0193405,-9.97986,0.0106812,-0.00236511,0.0158691,0.00671387,0.0166702,-0.0038147,0.017128,0.00720978
5,3,10.0097,0.0012207,0,-2.42928,0.0541551,-0.0762837,0.0504659,0.0801256,-0.0965034,0.142572,-0.125156,-0.0886739,0.0101852,0.0242996,0.0177383,0.0108719,0.0155258,0.0104141,0.0239944,0.0149536,-9.97986,0.0178909,-0.000343323,0.0116348,0.0075531,0.0203705,-0.00850677,0.0143051,0.00823975
5,4,10.0097,-0.000305176,-0.000152588,-2.42928,0.0541551,-0.075063,0.0522969,0.0740221,-0.0961982,0.144708,-0.126682,-0.0868429,0.00896454,0.0215912,0.0174332,0.0130081,0.0181961,0.00957489,0.0260162,0.0149155,-9.97986,0.0164413,-0.000953674,0.0177383,0.00953674,0.0138474,-0.0069046,0.0148392,0.00598907
5,5,10.0097,0.000610352,0.000152588,-2.42806,0.0559862,-0.075063,0.0529073,0.072191,-0.0949775,0.144708,-0.125766,-0.0844015,0.0126648,0.0216675,0.0217056,0.00934601,0.016098,0.0106049,0.0205612,0.0168228,-9.97986,0.00972748,-0.00110626,0.0144196,0.00640869,0.0139618,-0.00541687,0.0193024,0.00576019
5,6,10.0097,0.000610352,0.000152588,-2.42806,0.0553758,-0.0756734,0.0535176,0.0706652,-0.0952827,0.144708,-0.125766,-0.0844015,0.0139999,0.022583,0.0162506,0.0116348,0.0154114,0.00831604,0.0232697,0.0167465,-9.97986,0.016098,0.000495911,0.017395,0.00972748,0.0159454,-0.00232697,0.0190735,0.00583649
5,7,10.0097,0.000915527,0.000305176,-2.42684,0.0559862,-0.073232,0.0535176,0.07036,-0.0925361,0.145013,-0.126072,-0.0840963,0.0119781,0.021019,0.0181961,0.00972748,0.0193405,0.0117111,0.022583,0.0199127,-9.97986,0.0111389,-0.000190735,0.0155258,0.00286102,0.0115585,-0.00812531,0.0165558,0.00766754
5,8,10.0097,-0.0012207,0.000305176,-2.42531,0.055681,-0.0738423,0.0544332,0.0715807,-0.0910102,0.145013,-0.124851,-0.0819601,0.0141144,0.0242996,0.0194931,0.0118637,0.0217056,0.00984192,0.0196075,0.0183487,-9.97986,0.0170135,0.000991821,0.0125122,0.00709534,0.0146484,-0.00686646,0.0125885,0.00843048
5,9,10.0097,0,-0.000152588,-2.4244,0.0559862,-0.0735371,0.0547383,0.0728014,-0.090705,0.147149,-0.125461,-0.0819601,0.0125504,0.0208664,0.0173187,0.0141525,0.0146103,0.0101852,0.0265503,0.0204086,-9.97986,0.0107193,0.0012207,0.0151443,0.00747681,0.0138855,-0.00125885,0.017395,0.00869751
6,0,10.0097,0.000610352,-0.000457764,-2.42592,0.0562914,-0.0744527,0.0553487,0.0718859,-0.0928413,0.146234,-0.124546,-0.0804342,0.00907898,0.0190735,0.0202179,0.0154495,0.013237,0.0094223,0.02285,0.0229645,-9.97986,0.0138474,0.00102997,0.0142288,0.00667572,0.0130463,-0.00488281,0.0130844,0.00377655
6,1,9.45638,-0.000305176,-0.00228882,-2.42623,0.0559862,-0.0744527,0.0519917,0.027025,-0.0965034,0.145624,-0.127598,-0.0834859,0.0175858,0.0267029,0.0251389,0.0156784,0.0227737,0.0152206,0.0252914,0.0252533,-9.97986,0.0186539,0.00488281,0.0191116,0.00896454,0.0167847,-0.00331879,0.0176239,0.00923157
6,2,0.827532,0.000305176,-0.00549316,-2.4247,0.0575121,-0.073232,0.0532125,-0.0028822,-0.0971137,0.147149,-0.128513,-0.0825704,0.00396729,0.0177383,0.0162125,0.00854492,0.0150299,0.00507355,0.0172043,0.0137329,-9.97986,0.00782013,-0.00385284,0.0152588,0.00511169,0.012207,-0.00701904,0.0139618,0.00171661
6,3,-6.0377,-0.0012207,-0.00396729,-2.42501,0.0559862,-0.0738423,0.0544332,-0.0141737,-0.0965034,0.146539,-0.129429,-0.0822652,0.00743866,0.0268173,0.018158,0.0159454,0.0216293,0.0131607,0.0227737,0.0234222,-9.97986,0.0153732,-0.000953674,0.016861,0.00797272,0.0156403,-0.00743866,0.0177383,0.00671387
6,4,-9.99003,0.00213623,-0.00335693,-2.4244,0.0569017,-0.073232,0.0544332,0.0105455,-0.0919257,0.146844,-0.128513,-0.0819601,0.00968933,0.0207138,0.019455,0.00827789,0.0191879,0.0102234,0.0242615,0.0189209,-9.97986,0.0166702,0.00205994,0.0161362,0.0082016,0.0131989,-0.00526428,0.0171661,0.0043869
6,5,-9.99003,-0.000915527,-0.00198364,-2.4244,0.0553758,-0.0738423,0.055959,0.0392321,-0.0910102,0.145929,-0.126987,-0.0798238,0.00904083,0.0211334,0.0189972,0.0130844,0.0177383,0.00984192,0.0212479,0.0172806,-9.97986,0.0142288,-0.00038147,0.0135803,0.00843048,-0.00846863,-0.00526428,0.0163651,0.00797272
6,6,-9.99003,0.000305176,-0.000762939,-2.42531,0.0553758,-0.075063,0.0550435,0.0560167,-0.0913154,0.145624,-0.126072,-0.0822652,0.0103378,0.0202179,0.0162125,0.00640869,0.0236511,0.00926971,0.0190735,0.020256,-9.97986,0.0117874,-0.00362396,0.0120544,0.000457764,-0.0122452,-0.00881195,0.0160217,0.00705719
6,7,-9.99003,0.000915527,0,-2.42592,0.0553758,-0.0741475,0.054128,0.0706652,-0.0916206,0.146234,-0.124241,-0.0822652,0.0113297,0.019722,0.0204849,0.0133896,0.0214386,0.0104523,0.0209808,0.018158,-9.97986,0.0101852,0.00114441,0.0153732,0.00579834,-0.000572205,-0.0101852,0.0178909,0.00419617
6,8,-9.99003,0.00213623,0.00213623,-2.42501,0.0547655,-0.0747579,0.0562642,0.121935,-0.0852119,0.144708,-0.122715,-0.0819601,0.0136566,0.0219345,0.0193405,0.0139999,0.0172043,0.00614166,0.0195694,0.0204468,-9.97986,0.0128937,0.00137329,0.0154114,0.00740051,0.0179291,-0.0144958,0.0179672,0.00778198
6,9,-2.11955,-0.000305176,0.00366211,-2.42745,0.0541551,-0.0756734,0.0547383,0.141466,-0.0879585,0.145013,-0.121494,-0.0850118,0.0109482,0.0204086,0.0149918,0.0107574,0.0205231,0.0111771,0.018692,0.0226974,-9.97986,0.0115585,-0.00331879,0.0143051,0.00450134,0.0151062,-0.0192642,0.0199509,0.00427246
7,0,5.63314,0.0012207,0.00488281,-2.42745,0.0535448,-0.0762837,0.0532125,0.153063,-0.0897895,0.144708,-0.121799,-0.085317,0.00999451,0.0224686,0.0193787,0.0117874,0.0190353,0.0131989,0.0220871,0.0234222,-9.97986,0.0130463,0.000915527,0.0175858,0.00427246,0.0159454,-0.013504,0.018425,0.00297546
7,1,10.0097,0.000305176,0.00457764,-2.43081,0.0517137,-0.0768941,0.0519917,0.135973,-0.0943672,0.145013,-0.124546,-0.0877584,0.00926971,0.0183868,0.0232697,0.00823975,0.0192261,0.0140381,0.0215149,0.0249481,-9.97986,0.0161743,0.00236511,0.0159836,0.00762939,0.0177383,-0.00854492,0.0159073,0.0056076
7,2,10.0097,0.000610352,0.000457764,-2.43142,0.0538499,-0.0756734,0.0498555,0.0938585,-0.0971137,0.143182,-0.126682,-0.0886739,0.00965118,0.0206757,0.0226974,0.00968933,0.0181961,0.00747681,0.0191498,0.018959,-9.97986,0.0164413,-0.000610352,0.0155258,0.00919342,0.0133133,-0.00526428,0.0197601,0.0056839
7,3,10.0097,0.0012207,0.000457764,-2.42959,0.0538499,-0.0762837,0.0504659,0.0798204,-0.0965034,0.143182,-0.126377,-0.0874532,0.0141907,0.0244141,0.0230789,0.0094223,0.0179291,0.0122833,0.0216675,0.0178146,-9.97986,0.0138855,-0.001297,0.0133514,0.00652313,0.0149918,0.00484467,0.0165176,0.00804901
7,4,10.0097,-0.000610352,0,-2.42867,0.0547655,-0.0756734,0.0516866,0.0743273,-0.0955879,0.144403,-0.126987,-0.0880636,0.01091,0.0227356,0.0217056,0.00926971,0.0193787,0.00972748,0.0246048,0.0177383,-9.97986,0.0139618,-0.00110626,0.0167465,0.00793457,0.0177002,0.0107574,0.0188446,0.00896454
7,5,10.0097,0.0012207,0.000610352,-2.42714,0.055681,-0.075063,0.0532125,0.0724962,-0.0946723,0.145013,-0.126682,-0.0850118,0.0102615,0.0281906,0.0226593,0.0131989,0.016098,0.0119019,0.0197983,0.0148773,-9.97986,0.0141907,-0.00331879,0.0109863,0.00534058,0.0166702,0.0138855,0.0143814,0.00621796
7,6,10.0097,-0.00152588,0.000305176,-2.42806,0.0544603,-0.0756734,0.0529073,0.0706652,-0.0934516,0.145624,-0.125766,-0.0847066,0.0151825,0.0269318,0.0255585,0.0124741,0.0220871,0.0133896,0.0217056,0.0142288,-9.97986,0.0170517,0,0.0120544,0.00686646,0.0181198,0.00644684,0.0169373,0.00724792
7,7,10.0097,0.000305176,-0.000610352,-2.42714,0.0553758,-0.0738423,0.0532125,0.0712755,-0.0934516,0.144403,-0.126072,-0.0837911,0.0094986,0.0266647,0.0268936,0.00717163,0.0157928,0.00926971,0.0185013,0.0204468,-9.97986,0.0175095,-0.001297,0.0109863,0.00759125,0.0149155,0.00621796,0.0156403,0.00541687
7,8,10.0097,0.000305176,0.000457764,-2.42592,0.0562914,-0.0747579,0.0553487,0.0706652,-0.0919257,0.145624,-0.125156,-0.0828756,0.0113297,0.0350571,0.0205612,0.0134277,0.0170517,0.0113678,0.02285,0.0188446,-9.97986,0.017128,-0.000114441,0.0164795,0.00461578,0.0185394,0.0056839,0.0146103,0.00549316
7,9,10.0097,-0.0012207,0.000152588,-2.42623,0.0559862,-0.0744527,0.054128,0.072191,-0.0916206,0.145624,-0.124241,-0.0816549,0.0088501,0.032196,0.0195694,0.0136185,0.0199509,0.00835419,0.021553,0.0200272,-9.97986,0.0108719,-0.00217438,0.0143433,0.00526428,0.0141907,0.0025177,0.017128,0.00549316
8,0,10.0097,0.000610352,0,-2.42592,0.0559862,-0.0735371,0.0550435,0.0715807,-0.0931465,0.146234,-0.124241,-0.0816549,0.0106812,0.0296783,0.0169373,0.0104904,0.015564,0.00709534,0.0200272,0.0186157,-9.97986,0.0141144,0.000228882,0.0169754,0.00564575,0.0152588,0.00610352,0.0171661,0.00621796
8,1,9.58608,0.000915527,-0.00259399,-2.42745,0.0553758,-0.0738423,0.0529073,0.027025,-0.095893,0.146844,-0.127598,-0.0825704,0.0143051,0.0303268,0.0111771,0.0191498,0.0173569,0.00926971,0.0230408,0.0144196,-9.97986,0.0168228,0.00312805,0.011673,0.00675201,0.0149155,0.0112152,0.013237,0.00644684
8,2,1.05306,0.000305176,-0.00488281,-2.42531,0.0581224,-0.073232,0.0519917,-0.00501844,-0.0971137,0.146844,-0.129123,-0.0816549,0.00926971,0.0302505,0.00701904,0.0120926,0.0149155,0.00648499,0.0206375,0.00617981,-9.97986,0.0134277,-0.000991821,0.00900269,0.00259399,0.0151825,0.0082016,0.0205994,0.0075531
8,3,-5.90465,0.000610352,-0.00427246,-2.42623,0.0559862,-0.0735371,0.0544332,-0.0138685,-0.0965034,0.148065,-0.129734,-0.0816549,0.0127029,0.0330353,0.0135422,0.0123978,0.0191116,0.0108337,0.0219727,0.0160217,-9.97986,0.0153351,-0.001297,0.0126648,0.00946045,0.0189209,0.00667572,0.0177002,0.00465393
8,4,-9.99003,-0.00152588,-0.00350952,-2.4244,0.0562914,-0.0741475,0.0553487,0.0111559,-0.0916206,0.146234,-0.127903,-0.0795187,0.00736237,0.0387573,0.0111008,0.0134659,0.0165939,0.0104904,0.0218201,0.0133133,-9.97986,0.0169754,-0.00167847,0.0150681,0.00591278,0.018692,0.00331879,0.0169754,0.00541687
8,5,-9.99003,0,-0.00183105,-2.42562,0.0562914,-0.0741475,0.0562642,0.0377062,-0.0903999,0.146844,-0.127292,-0.0810445,0.00957489,0.0296783,0.00598907,0.0122833,0.0196838,0.0103378,0.0204086,0.016098,-9.97986,0.0187683,-0.00488281,0.0115585,0.00350952,-0.0121689,0.00320435,0.0169373,0.00484467
8,6,-9.99003,-0.000305176,-0.000305176,-2.42501,0.0553758,-0.0738423,0.0556539,0.0563219,-0.0913154,0.145624,-0.125766,-0.0813497,0.00705719,0.016098,0.00457764,0.0118256,0.0192642,0.0069809,0.0219727,0.0139999,-9.97986,0.0175095,-0.00152588,0.00991821,0.00389099,-0.00782013,-0.00389099,0.0188828,0.00900269
8,7,-9.99003,0.000305176,0.000152588,-2.42623,0.0532396,-0.0747579,0.0538228,0.0718859,-0.0897895,0.145624,-0.125766,-0.0825704,0.0118637,0.0163651,0.0105667,0.0123215,0.0178146,0.0117874,0.0234604,0.0178909,-9.97986,0.0159836,-0.00541687,0.0131989,0.0044632,0.000953674,-0.0038147,0.014534,0.0056839
8,8,-9.99003,0.000610352,0.00198364,-2.4247,0.0559862,-0.0747579,0.0562642,0.121935,-0.0858222,0.145929,-0.120884,-0.0819601,0.0134659,0.0191498,0.0170898,0.0141144,0.0162125,0.0151443,0.0228882,0.0158691,-9.97986,0.0183105,-0.00267029,0.016861,0.00808716,0.0144958,-0.00469208,0.0135422,0.0088501
8,9,-2.00572,0.00183105,0.00350952,-2.42684,0.0535448,-0.0753682,0.0544332,0.142381,-0.0879585,0.144708,-0.12241,-0.0847066,0.0122833,0.0253677,0.0170135,0.0107956,0.0172424,0.00923157,0.020256,0.0159073,-9.97986,0.018158,0.000343323,0.0154114,0.00740051,0.014801,-0.00671387,0.0132751,0.00408173
9,0,5.65114,-0.000915527,0.00427246,-2.42745,0.0535448,-0.0759786,0.0532125,0.152757,-0.0897895,0.144403,-0.121189,-0.085317,0.00915527,0.0268173,0.0178528,0.0100708,0.0185776,0.0138092,0.0225067,0.0120544,-9.97986,0.0143433,-0.00469208,0.0107193,0.00694275,0.0133896,-0.00682831,0.0169754,0.00480652
9,1,10.0097,0.00152588,0.00427246,-2.4305,0.0538499,-0.0765889,0.0510762,0.135057,-0.0937568,0.142877,-0.124241,-0.0868429,0.0149918,0.0275421,0.0204468,0.00679016,0.0180435,0.0119019,0.0187683,0.0151443,-9.97986,0.016098,0.000457764,0.0135422,0.00598907,0.0167465,-0.000762939,0.0130081,0.00804901
9,2,10.0097,0.00152588,0.0012207,-2.43111,0.0532396,-0.0762837,0.0501607,0.094774,-0.0965034,0.142877,-0.126072,-0.0883688,0.0104523,0.0152969,0.0178909,0.0087738,0.0190353,0.0117874,0.0190353,0.0100327,-9.97986,0.0130081,0.000495911,0.0155258,0.00743866,0.0139618,0.0012207,0.0170135,0.00564575
9,3,10.0097,0,0.000305176,-2.42928,0.0532396,-0.0753682,0.0510762,0.0795153,-0.0974189,0.143792,-0.126682,-0.0874532,0.01194,0.0151825,0.0191879,0.0138855,0.0189209,0.0116348,0.0234604,0.0128937,-9.97986,0.0181961,0.00125885,0.015831,0.00923157,0.0137711,0.00282288,0.0171661,0.00896454
9,4,10.0097,0.00152588,0,-2.42806,0.0544603,-0.0762837,0.0529073,0.0749376,-0.0955879,0.143182,-0.126377,-0.0862325,0.0144577,0.0168991,0.0200653,0.0119781,0.0207901,0.00923157,0.0213623,0.0117874,-9.97986,0.0169373,0.00209808,0.0130844,0.00843048,0.0165558,-0.00484467,0.0137329,0.00549316
9,5,10.0097,0,-0.000305176,-2.42776,0.0547655,-0.0747579,0.0535176,0.0731066,-0.095893,0.143182,-0.127292,-0.0850118,0.00911713,0.0212097,0.0159836,0.014534,0.0168991,0.0133514,0.021553,0.0155258,-9.97986,0.0133896,-0.00617981,0.01194,0.00511169,0.0165939,-0.00255585,0.0147247,0.00743866
9,6,10.0097,0.000305176,0.000457764,-2.42745,0.0550706,-0.075063,0.0535176,0.0706652,-0.0943672,0.144098,-0.126072,-0.085317,0.0120544,0.0195313,0.0198364,0.0114441,0.0143814,0.0135803,0.0218201,0.0168228,-9.97986,0.00946045,-0.00476837,0.0118637,0.0117111,0.0142288,-0.00549316,0.0156784,0.00469208
9,7,10.0097,-0.000610352,0.000457764,-2.42592,0.0550706,-0.0735371,0.0550435,0.0709703,-0.0925361,0.146844,-0.125766,-0.0837911,0.0119019,0.0141907,0.0186157,0.0135803,0.0167847,0.0136185,0.0214386,0.0189972,-9.97986,0.0160599,-0.00389099,0.0141525,0.00835419,0.0117874,-0.00198364,0.0186539,0.00377655
9,8,10.0097,0.000610352,0.000610352,-2.42592,0.055681,-0.0741475,0.0544332,0.0718859,-0.0925361,0.146234,-0.124851,-0.0819601,0.0112152,0.0156403,0.0183105,0.0180817,0.0123978,0.00843048,0.0237274,0.0151062,-9.97986,0.0199127,-0.0030899,0.0120926,0.0102615,0.0165176,-0.000152588,0.0182343,0.0105286
9,9,10.0097,0.000610352,0.000915527,-2.4244,0.0562914,-0.0747579,0.0547383,0.0706652,-0.090705,0.145624,-0.125156,-0.0816549,0.00869751,0.0121307,0.0197601,0.0141525,0.0186157,0.0119019,0.0207901,0.0149918,-9.97986,0.0141907,-0.00804901,0.0159836,0.0107193,0.0151443,-0.000953674,0.0118256,0.0063324
10,0,10.0097,0,0,-2.42562,0.0553758,-0.0738423,0.054128,0.0709703,-0.0910102,0.145318,-0.12363,-0.0816549,0.0136948,0.0159836,0.0162888,0.0125504,0.0178146,0.0136185,0.0223541,0.0149918,-9.97986,0.0175095,-0.00499725,0.0131226,0.00694275,0.018425,-0.00541687,0.0149155,0.00797272
10,1,9.50032,0.000305176,-0.00228882,-2.42776,0.0562914,-0.0744527,0.0513814,0.0264147,-0.0968086,0.145624,-0.127292,-0.0834859,0.00865936,0.0215149,0.0171661,0.0115204,0.0138855,0.00900269,0.0271606,0.0161743,-9.97986,0.0161362,-0.00415802,0.0159836,0.00595093,0.0159073,-0.000534058,0.0151443,0.00495911
10,2,0.825701,-0.000610352,-0.00518799,-2.42531,0.0572069,-0.0729268,0.0532125,-0.00562879,-0.0965034,0.146539,-0.128513,-0.0825704,0.00694275,0.0165176,0.0120926,0.0174332,0.0206375,0.0101089,0.0236511,0.0162888,-9.97986,0.0172043,-0.00293732,0.0123978,0.00705719,0.0118256,-0.00217438,0.0136948,0.00717163
10,3,-6.03709,0.0012207,-0.00442505,-2.42501,0.0575121,-0.0744527,0.0553487,-0.0135634,-0.0971137,0.145929,-0.130649,-0.0813497,0.00770569,0.0167847,0.0125504,0.0117111,0.0186539,0.00717163,0.0193787,0.0184631,-9.97986,0.0106049,-0.0025177,0.0128174,0.00915527,0.0141144,-0.00377655,0.0145721,0.00499725
10,4,-9.99003,0.00274658,-0.00366211,-2.42562,0.055681,-0.0741475,0.0556539,0.00963,-0.0925361,0.147455,-0.128208,-0.0804342,0.0125885,0.0183868,0.0151443,0.0124741,0.0161362,0.0121689,0.0229645,0.0243759,-9.97986,0.0139618,-0.00255585,0.0151825,0.00671387,0.0139618,-0.00328064,0.0152969,0.00843048
10,5,-9.99003,0.000915527,-0.00213623,-2.4244,0.055681,-0.0744527,0.0550435,0.0398424,-0.0894843,0.145929,-0.127292,-0.0810445,0.0125885,0.0156784,0.0175858,0.0149536,0.0204849,0.0134277,0.0217056,0.0205612,-9.97986,0.0131607,-0.00514984,0.0109482,0.00679016,-0.0105286,-0.000915527,0.0150681,0.00648499
10,6,-9.99003,0.00366211,-0.00106812,-2.42531,0.0562914,-0.075063,0.0556539,0.0569322,-0.090705,0.144708,-0.126987,-0.0822652,0.0155258,0.0205994,0.0196457,0.00579834,0.0195694,0.0124741,0.0242996,0.021019,-9.97986,0.0166321,-0.00770569,0.0133133,0.00862122,-0.00923157,-0.00225067,0.0163269,0.00370026
10,7,-9.99003,0.000305176,0.000152588,-2.42592,0.0550706,-0.0747579,0.0556539,0.0697496,-0.0900947,0.144098,-0.125766,-0.0831808,0.0127792,0.0197601,0.0196075,0.0111389,0.0154495,0.00881195,0.0250244,0.0209045,-9.97986,0.0165939,-0.00114441,0.0163269,0.00522614,-0.00335693,-0.00328064,0.0187302,0.00644684
10,8,-9.99003,0,0.00198364,-2.42623,0.0550706,-0.0741475,0.0550435,0.121019,-0.0858222,0.145624,-0.121799,-0.0819601,0.0127411,0.0222015,0.0214005,0.0149918,0.0203323,0.0102997,0.0209045,0.0193405,-9.97986,0.0175095,-0.0043869,0.01297,0.00476837,0.017128,-0.00312805,0.0147247,0.00411987
10,9,-2.11955,0,0.00320435,-2.42653,0.0544603,-0.0762837,0.0538228,0.13994,-0.088874,0.143792,-0.12302,-0.0831808,0.0120544,0.0199127,0.0182343,0.0100327,0.0221252,0.00789642,0.0217819,0.020256,-9.97986,0.014267,-0.000190735,0.0137329,0.00343323,0.020256,-0.00553131,0.0205231,0.00682831
11,0,5.51229,-0.000610352,0.0038147,-2.42898,0.0532396,-0.0756734,0.0522969,0.153673,-0.0894843,0.143182,-0.12241,-0.085317,0.0130844,0.0205994,0.0203705,0.0119019,0.018425,0.00816345,0.0226212,0.0206375,-9.97986,0.0149536,0.00331879,0.0138092,0.00789642,0.0134277,-0.00183105,0.0170898,0.00713348
11,1,10.0097,0.000610352,0.00411987,-2.4302,0.0529344,-0.0765889,0.050771,0.139025,-0.0928413,0.142877,-0.12363,-0.0871481,0.0110626,0.019722,0.0188828,0.0107956,0.0150681,0.00873566,0.0230789,0.0184631,-9.97986,0.0146484,-0.000343323,0.0146484,0.00869751,0.0154877,-0.00320435,0.0152206,0.00732422
11,2,10.0097,0.000305176,0.0012207,-2.4302,0.0544603,-0.0759786,0.0495503,0.094774,-0.0961982,0.143182,-0.125156,-0.0877584,0.0146484,0.0210953,0.0177765,0.0113297,0.0151825,0.0063324,0.0205231,0.0177765,-9.97986,0.0149155,-0.00118256,0.014534,0.00614166,0.0196075,-0.00705719,0.0162888,0.00762939
11,3,10.0097,0,-0.000152588,-2.4302,0.0544603,-0.0762837,0.0510762,0.0801256,-0.0955879,0.142572,-0.126682,-0.0877584,0.0082016,0.0238037,0.0178146,0.0114822,0.0161743,0.00888824,0.0245285,0.0183868,-9.97986,0.0111389,-0.00614166,0.0138092,0.00534058,0.0150299,-0.0122833,0.0152206,0.00522614
11,4,10.0097,0.00274658,0.000457764,-2.42837,0.0541551,-0.075063,0.0522969,0.0746324,-0.0934516,0.144098,-0.126377,-0.0868429,0.0100708,0.0239944,0.0199127,0.0153732,0.0160599,0.0133896,0.02388,0.0174713,-9.97986,0.0142288,-0.00522614,0.0151825,0.00610352,0.014267,-0.00801086,0.0154114,0.00667572
11,5,10.0097,0.000915527,0.000457764,-2.42684,0.0529344,-0.0744527,0.0535176,0.0728014,-0.0946723,0.143487,-0.127292,-0.0859274,0.0131226,0.0257111,0.0240707,0.0130844,0.0133133,0.0129318,0.022583,0.0209808,-9.97986,0.0105667,-0.000572205,0.015564,0.00785828,0.0128937,-0.00556946,0.0150299,0.00640869
11,6,10.0097,0,-0.000152588,-2.42806,0.0553758,-0.075063,0.054128,0.0715807,-0.0946723,0.146539,-0.126377,-0.0847066,0.0104141,0.0219727,0.0180435,0.0101852,0.0175476,0.00465393,0.0230026,0.0216293,-9.97986,0.011673,0.00152588,0.0101852,0.00499725,0.016861,-0.00354767,0.0154114,0.00526428
11,7,10.0097,0.000305176,0.000457764,-2.42776,0.0559862,-0.0744527,0.0526021,0.0715807,-0.0928413,0.146234,-0.126072,-0.0847066,0.0110626,0.0233078,0.0246811,0.0118256,0.0179291,0.00923157,0.0191879,0.0191498,-9.97986,0.0119019,-0.00190735,0.0165558,0.00808716,0.0168228,-0.00156403,0.0154877,0.00545502
11,8,10.0097,0.0012207,0.000610352,-2.42531,0.0553758,-0.0735371,0.0553487,0.0715807,-0.0913154,0.145013,-0.124546,-0.0822652,0.0147629,0.0205231,0.024147,0.00930786,0.0115204,0.00968933,0.0246811,0.0181961,-9.97986,0.0159454,-0.000610352,0.0137711,0.00587463,0.0125885,-0.000915527,0.0174713,0.00354767
11,9,10.0097,0.00152588,0.000152588,-2.42592,0.055681,-0.0735371,0.0553487,0.0712755,-0.0916206,0.147455,-0.124546,-0.0813497,0.00713348,0.0241852,0.0248337,0.014534,0.0187683,0.0094223,0.0233459,0.0172424,-9.97986,0.0114441,0.00171661,0.0133896,0.00629425,0.0177383,-0.000190735,0.0162125,0.00644684
12,0,10.0097,0.000305176,-0.000152588,-2.42592,0.0575121,-0.0735371,0.0550435,0.0718859,-0.0916206,0.145318,-0.123935,-0.0816549,0.0125504,0.0283432,0.0193405,0.0118256,0.0207138,0.0087738,0.0228119,0.023613,-9.97986,0.0156403,-0.00392914,0.0173187,0.00759125,0.019455,-0.000610352,0.0144958,0.00659943
12,1,9.46462,0.000915527,-0.00320435,-2.42623,0.0565965,-0.0741475,0.0526021,0.0264147,-0.0980293,0.146539,-0.127903,-0.0840963,0.0112152,0.0248337,0.0207138,0.0121689,0.0163269,0.0139236,0.0216293,0.018959,-9.97986,0.0154114,-0.00125885,0.0159454,0.00854492,0.0149155,-0.0075531,0.0133896,0.00621796
12,2,0.815935,0.000610352,-0.00457764,-2.4247,0.0565965,-0.0738423,0.0532125,-0.00532361,-0.0974189,0.147149,-0.129429,-0.0825704,0.0127029,0.0260925,0.0243378,0.0104904,0.0204849,0.00801086,0.021553,0.0210953,-9.97986,0.012207,-0.00335693,0.0136185,0.0143433,0.0154877,-0.0140762,0.0144958,0.00713348
12,3,-6.13231,0.000915527,-0.0050354,-2.42562,0.0569017,-0.0741475,0.0556539,-0.0141737,-0.0971137,0.147455,-0.129734,-0.0819601,0.00984192,0.0233841,0.0253677,0.01194,0.0149536,0.00961304,0.0238419,0.0218201,-9.97986,0.0120163,-0.00331879,0.0121689,0.00595093,0.0145721,-0.0165558,0.0138092,0.0056839
12,4,-9.99003,-0.000915527,-0.00320435,-2.42379,0.0584276,-0.0744527,0.0553487,0.0105455,-0.0925361,0.146539,-0.128818,-0.0810445,0.0112152,0.0246811,0.0239944,0.0127029,0.0144196,0.0122833,0.0218582,0.0157166,-9.97986,0.0164795,-0.00171661,0.0147629,0.0101089,0.0161362,-0.014801,0.0153351,0.00549316
12,5,-9.99003,0.00305176,-0.00228882,-2.4244,0.0559862,-0.0738423,0.055959,0.0392321,-0.090705,0.146844,-0.126377,-0.0813497,0.00370026,0.0208664,0.0204468,0.0111389,0.0166321,0.00770569,0.0249863,0.0106812,-9.97986,0.0160217,-0.00106812,0.0201797,0.00514984,-0.0115585,-0.0213623,0.0186157,0.00728607
12,6,-9.99003,0.00152588,-0.000762939,-2.42684,0.0553758,-0.0744527,0.0544332,0.058153,-0.0931465,0.145318,-0.125461,-0.0825704,0.00663757,0.0207901,0.0195694,0.0150299,0.0172424,0.0101089,0.0239182,0.0110626,-9.97986,0.0142288,-0.00209808,0.016861,0.00827789,-0.00953674,-0.0163269,0.0159836,0.00495911
12,7,-9.99003,0,0.000305176,-2.42592,0.0559862,-0.075063,0.0550435,0.0694445,-0.0900947,0.145929,-0.125156,-0.0816549,0.0109863,0.0288773,0.021019,0.00980377,0.0148773,0.00873566,0.0204086,0.0110626,-9.97986,0.0140381,-0.00434875,0.0167465,0.00389099,-0.0088501,-0.0114822,0.0169754,0.00778198
12,8,-9.99003,0.0012207,0.0012207,-2.42501,0.0547655,-0.0747579,0.0556539,0.120409,-0.0861274,0.144708,-0.122104,-0.0822652,0.0151825,0.0327301,0.0178909,0.0115585,0.0139236,0.00881195,0.021286,0.0117111,-9.97986,0.0151825,-0.0012207,0.0119781,0.00595093,0.0167847,-0.00747681,0.0163651,0.00728607
12,9,-2.23308,-0.000305176,0.00289917,-2.42806,0.0547655,-0.0738423,0.0535176,0.142381,-0.0885688,0.144708,-0.121799,-0.0840963,0.00984192,0.0395584,0.0198746,0.0129318,0.0162506,0.00865936,0.0252151,0.0136948,-9.97986,0.018692,-0.00465393,0.015564,0.00896454,0.0173187,0.00453949,0.0156021,0.00778198
13,0,5.5071,0.000915527,0.00411987,-2.42714,0.0544603,-0.0762837,0.0532125,0.154894,-0.0882636,0.143487,-0.121799,-0.0856222,0.00648499,0.0436401,0.0165176,0.00396729,0.0158691,0.0112915,0.019455,0.0149536,-9.97986,0.0165558,-0.00854492,0.0152588,0.00198364,0.0176239,0.00400543,0.0164413,0.00705719
13,1,10.0097,0.000915527,0.00457764,-2.42989,0.0538499,-0.075063,0.0516866,0.139635,-0.0931465,0.142267,-0.12363,-0.0877584,0.00671387,0.0352859,0.0148773,0.0100327,0.0182343,0.00869751,0.0222778,0.0127029,-9.97986,0.0118637,-0.00350952,0.0138474,0.00579834,0.0171661,0.0127792,0.0167465,0.00564575
13,2,10.0097,0.000915527,0.00137329,-2.43081,0.0535448,-0.0778096,0.0504659,0.0941637,-0.0983344,0.143182,-0.126072,-0.0889791,0.0113297,0.0191879,0.0158691,0.00846863,0.0112534,0.0108337,0.0200272,0.017662,-9.97986,0.0149536,-0.000991821,0.0135422,0.00759125,0.017395,0.0108719,0.0143051,0.00534058
13,3,10.0097,0.000610352,0.000305176,-2.42867,0.0535448,-0.0756734,0.0504659,0.0810411,-0.0965034,0.142877,-0.126072,-0.0874532,0.0102997,0.0109863,0.0165939,0.0102997,0.0142288,0.0114059,0.024147,0.0189972,-9.97986,0.0166702,-0.00469208,0.016098,0.00919342,0.015831,0.00354767,0.0140381,0.00732422
13,4,10.0097,-0.000610352,0,-2.42837,0.0535448,-0.075063,0.0519917,0.0743273,-0.0949775,0.144708,-0.126377,-0.0868429,0.0148773,0.0187683,0.0174332,0.0109482,0.0165939,0.0105667,0.026741,0.021286,-9.97986,0.0161743,-0.000839233,0.0156784,0.00709534,0.0172424,0.00724792,0.0175095,0.00526428
13,5,10.0097,0.000610352,0,-2.42867,0.0538499,-0.0756734,0.0522969,0.0709703,-0.0937568,0.143487,-0.126072,-0.0850118,0.00747681,0.0218201,0.0198364,0.0104141,0.0182343,0.0106812,0.0238037,0.0209808,-9.97986,0.0220108,-0.00782013,0.0126266,0.00968933,0.0148773,0.00740051,0.0144958,0.00675201
13,6,10.0097,0.000915527,0,-2.42776,0.0544603,-0.0753682,0.0532125,0.0709703,-0.0937568,0.144098,-0.126072,-0.0850118,0.0119781,0.0194931,0.0206757,0.0101852,0.0165939,0.00865936,0.0214767,0.0160599,-9.97986,0.0165939,-0.00442505,0.0172043,0.00362396,0.0156021,0.0019455,0.0136185,0.00720978
13,7,10.0097,0.000915527,0,-2.42653,0.0562914,-0.0759786,0.0538228,0.0709703,-0.0931465,0.145318,-0.125766,-0.0840963,0.0105667,0.0266266,0.0159073,0.00900269,0.0154877,0.00934601,0.0213242,0.0231552,-9.97986,0.0162506,-0.00358582,0.0188446,0.00354767,0.0174332,0.000228882,0.0149918,0.00759125
13,8,10.0097,-0.000305176,0,-2.42562,0.0553758,-0.0735371,0.0532125,0.0709703,-0.0919257,0.146844,-0.124546,-0.0822652,0.0117111,0.0237274,0.020256,0.0125885,0.0197601,0.00915527,0.0225067,0.0179672,-9.97986,0.0138474,-0.00293732,0.0138092,0.00659943,0.0162506,0.00244141,0.0156784,0.00518799
13,9,10.0097,0.000610352,0.000305176,-2.42623,0.0569017,-0.0747579,0.0550435,0.07036,-0.0919257,0.145624,-0.125156,-0.0810445,0.00980377,0.0229263,0.0152588,0.0111008,0.0210571,0.0108337,0.0201035,0.0157166,-9.97986,0.0153732,-0.00545502,0.01091,0.00549316,0.0162506,-0.001297,0.0157547,0.00736237
14,0,10.0097,-0.000305176,0.000305176,-2.42562,0.0565965,-0.0738423,0.0544332,0.0718859,-0.0916206,0.147455,-0.124241,-0.0810445,0.0124359,0.0224686,0.0154114,0.0114822,0.0168228,0.0141144,0.0230026,0.017395,-9.97986,0.0139999,-0.00530243,0.0177765,0.00774384,0.0167084,-0.00328064,0.0154877,0.00770569
14,1,9.35231,0.000915527,-0.00289917,-2.42745,0.0550706,-0.0747579,0.0519917,0.0267198,-0.0974189,0.146539,-0.127598,-0.0828756,0.0108337,0.0204468,0.0102234,0.00759125,0.0140762,0.00782013,0.020752,0.0148773,-9.97986,0.0143051,-0.00144958,0.014534,0.00751495,0.0126266,0.00038147,0.0154877,0.00896454
14,2,0.775652,0.0012207,-0.00442505,-2.42562,0.0572069,-0.0738423,0.054128,-0.00349256,-0.0961982,0.146234,-0.129429,-0.0813497,0.0094986,0.0240326,0.0139236,0.00556946,0.0210953,0.0115967,0.0209045,0.0132751,-9.97986,0.0184631,-0.00175476,0.0157166,0.00774384,0.0122833,-0.00209808,0.0170135,0.00671387
14,3,-6.13475,0.000610352,-0.00457764,-2.42501,0.0559862,-0.0747579,0.0547383,-0.0138685,-0.0955879,0.145318,-0.129734,-0.0810445,0.0117111,0.0220871,0.0160599,0.0141907,0.0151825,0.00736237,0.0200272,0.0214386,-9.97986,0.0178146,0.00190735,0.0143433,0.00110626,0.0214767,-0.00156403,0.0133514,0.0094223
14,4,-9.99003,-0.000305176,-0.00335693,-2.42409,0.0569017,-0.0741475,0.0556539,0.0120714,-0.0931465,0.146234,-0.128818,-0.0804342,0.0112152,0.0184631,0.0104141,0.0131226,0.0155258,0.0106812,0.0217438,0.0180435,-9.97986,0.0170898,-0.00156403,0.0148773,0.00434875,0.0167084,-0.000915527,0.0157928,0.00408173
14,5,-9.99003,0,-0.00198364,-2.42501,0.055681,-0.0735371,0.0547383,0.0383165,-0.0900947,0.146539,-0.125766,-0.0804342,0.0075531,0.0193405,0.017662,0.0117111,0.0164413,0.0115204,0.0182343,0.0121689,-9.97986,0.0164413,-0.000457764,0.0140762,0.00869751,-0.00537872,-0.00629425,0.0169754,0.00915527
14,6,-9.99003,0.000305176,0,-2.42562,0.0547655,-0.0738423,0.0553487,0.0557115,-0.0919257,0.144403,-0.125461,-0.0828756,0.0113678,0.0191879,0.0133514,0.0106049,0.0143433,0.00804901,0.0208282,0.0193024,-9.97986,0.0166321,0.00354767,0.0160599,0.0069809,-0.00953674,-0.0102615,0.013237,0.00831604
14,7,-9.99003,0,0.000610352,-2.42562,0.0547655,-0.0747579,0.0553487,0.0712755,-0.0900947,0.144403,-0.125766,-0.0822652,0.0135803,0.0212097,0.0165176,0.0157166,0.0201416,0.0141144,0.0214386,0.019722,-9.97986,0.0101852,0.00156403,0.0147629,0.00934601,-0.00488281,-0.00881195,0.0172424,0.00423431
14,8,-9.99003,0.000610352,0.0012207,-2.42531,0.0553758,-0.0741475,0.0562642,0.123155,-0.0867378,0.145624,-0.121494,-0.0819601,0.01091,0.0172424,0.019722,0.0109863,0.0145721,0.00778198,0.0217438,0.017128,-9.97986,0.0185013,-0.00324249,0.0152206,0.00305176,0.0176239,-0.0176239,0.0139618,0.00740051
14,9,-1.97947,0.000610352,0.0038147,-2.42745,0.0544603,-0.0744527,0.0544332,0.141161,-0.0894843,0.143792,-0.12241,-0.0847066,0.0110626,0.0158691,0.0162888,0.0156784,0.0192642,0.00740051,0.0219727,0.0177765,-9.97986,0.0150299,0.00232697,0.0143051,0.00473022,0.0189209,-0.0175095,0.0112915,0.00797272
15,0,5.71004,0.000610352,0.00442505,-2.42776,0.0538499,-0.0762837,0.0538228,0.152757,-0.0897895,0.144403,-0.121189,-0.0847066,0.0112915,0.0155258,0.0185394,0.0143814,0.0166321,0.0108337,0.0212479,0.0204086,-9.97986,0.0157928,0.00087738,0.01297,0.00587463,0.0162125,-0.014801,0.0154877,0.0056839
15,1,10.0097,-0.000610352,0.00488281,-2.42959,0.0529344,-0.0765889,0.0513814,0.137193,-0.0931465,0.142877,-0.12302,-0.0871481,0.0131226,0.0187683,0.0209045,0.0135422,0.0197601,0.00946045,0.0209045,0.0217438,-9.97986,0.0141525,-0.00263214,0.0139618,0.00537872,0.0154495,-0.00873566,0.0134659,0.00720978
15,2,10.0097,0,0.000457764,-2.43203,0.0535448,-0.0778096,0.050771,0.094774,-0.0971137,0.142572,-0.126072,-0.0883688,0.0113297,0.0206757,0.0285339,0.014801,0.0182724,0.0117493,0.0213242,0.0200653,-9.97986,0.0135422,0.00106812,0.0177383,0.00835419,0.0183868,-0.000648499,0.0172043,0.0069046
15,3,10.0097,0,0.000915527,-2.42959,0.0541551,-0.0765889,0.0510762,0.0785997,-0.0971137,0.142572,-0.126377,-0.0874532,0.00923157,0.0260162,0.0274658,0.00785828,0.0165558,0.0101471,0.0212479,0.0252533,-9.97986,0.0151825,0.00240326,0.0119019,0.000915527,0.0181961,0.00282288,0.0166702,0.00705719
15,4,10.0097,-0.000915527,0,-2.42898,0.0547655,-0.0753682,0.0532125,0.0740221,-0.0949775,0.142877,-0.126072,-0.0862325,0.00995636,0.017128,0.0209808,0.00343323,0.0127792,0.00556946,0.0164032,0.0199127,-9.97986,0.0135803,-0.000572205,0.010643,0.0063324,0.0159073,0.00102997,0.0145721,0.00671387
15,5,10.0097,0,-0.000305176,-2.42776,0.055681,-0.0753682,0.0532125,0.0724962,-0.0928413,0.145013,-0.127292,-0.0859274,0.0110245,0.018692,0.0237274,0.0075531,0.0151443,0.00743866,0.0251389,0.0233841,-9.97986,0.0175858,-0.000762939,0.0120163,0.00602722,0.0144577,0.00637054,0.0139999,0.00465393
15,6,10.0097,-0.000610352,0.000762939,-2.42776,0.0553758,-0.075063,0.0529073,0.072191,-0.094062,0.145624,-0.126377,-0.0847066,0.0107193,0.0242615,0.0212479,0.0103378,0.0127792,0.00778198,0.0240326,0.0228119,-9.97986,0.0131226,-0.000267029,0.0127029,0.00404358,0.0193024,0.0112152,0.0152588,0.00816345
15,7,10.0097,-0.000610352,0.000457764,-2.42684,0.0550706,-0.075063,0.0529073,0.072191,-0.0946723,0.143792,-0.126072,-0.0844015,0.0107193,0.0321198,0.0224686,0.00526428,0.0181198,0.00797272,0.0222015,0.0126266,-9.97986,0.0170517,-0.00244141,0.0128555,0.0108719,0.0157547,0.0148392,0.0135803,0.00534058
15,8,10.0097,-0.000305176,-0.000457764,-2.42501,0.0559862,-0.073232,0.0550435,0.0724962,-0.0928413,0.146234,-0.125461,-0.0822652,0.0056076,0.040741,0.0210953,0.0100327,0.0165176,0.0111389,0.0191498,0.0130844,-9.97986,0.010643,-0.000190735,0.0104523,0.00637054,0.0187683,0.00705719,0.0182724,0.00759125
15,9,10.0097,-0.000610352,0,-2.42562,0.0562914,-0.0738423,0.0547383,0.072191,-0.0919257,0.147149,-0.123325,-0.0807394,0.00988007,0.0365448,0.0189972,0.0112915,0.0193405,0.0101089,0.019455,0.0151062,-9.97986,0.00915527,0.00259399,0.0158691,0.00629425,0.0215912,0.0075531,0.0181961,0.00434875
16,0,10.0097,0.000610352,-0.000152588,-2.42562,0.0569017,-0.0741475,0.0544332,0.0718859,-0.0934516,0.145929,-0.123935,-0.0810445,0.00789642,0.0281143,0.0196075,0.00961304,0.0128937,0.00789642,0.0214386,0.011673,-9.97986,0.0135422,0.00484467,0.0115585,0.0121689,0.0185013,0.00370026,0.0167847,0.00534058
16,1,9.33187,0.000305176,-0.00259399,-2.42714,0.0559862,-0.0741475,0.0526021,0.0264147,-0.0965034,0.145013,-0.127598,-0.0834859,0.00675201,0.0272369,0.0227356,0.0128555,0.0154877,0.00965118,0.0256348,0.0177765,-9.97986,0.0177765,0.00377655,0.0115585,0.00801086,0.0167465,0.000305176,0.0138855,0.00415802
16,2,0.649004,0.000915527,-0.00442505,-2.42562,0.0562914,-0.0738423,0.0532125,-0.00562879,-0.0971137,0.146234,-0.129123,-0.0813497,0.011673,0.0313187,0.0216675,0.00812531,0.021019,0.00846863,0.0219727,0.0180054,-9.97986,0.0186539,0.00461578,0.0141525,0.00831604,0.0160599,0.00419617,0.0182343,0.00671387
16,3,-6.2382,0.0012207,-0.00442505,-2.42562,0.0562914,-0.0738423,0.054128,-0.0141737,-0.0961982,0.14837,-0.129734,-0.0813497,0.00980377,0.0243378,0.0220871,0.0102997,0.0134277,0.00930786,0.0199127,0.0188828,-9.97986,0.0164032,0.00240326,0.0111771,0.00701904,0.0151062,0.0075531,0.0172424,0.00511169
16,4,-9.99003,-0.00183105,-0.00350952,-2.42379,0.0565965,-0.0729268,0.055959,0.0102404,-0.0928413,0.146539,-0.129123,-0.0813497,0.0119781,0.0171661,0.0260925,0.0101471,0.017662,0.0134659,0.0212479,0.0194931,-9.97986,0.0160599,-0.000495911,0.0142288,0.00576019,0.0194168,0.00457764,0.0169754,0.00606537
16,5,-9.99003,0.000610352,-0.00167847,-2.4244,0.0565965,-0.073232,0.0565694,0.0404528,-0.0897895,0.145929,-0.127598,-0.0807394,0.00816345,0.014534,0.0230408,0.0115204,0.0165939,0.00782013,0.0220871,0.0159836,-9.97986,0.0181198,0.00263214,0.0125885,0.00419617,-0.00774384,0.00385284,0.0153732,0.00793457
16,6,-9.99003,0.000305176,-0.000610352,-2.42592,0.0559862,-0.0738423,0.0562642,0.0566271,-0.090705,0.145624,-0.125156,-0.0822652,0.00759125,0.0157547,0.00904083,0.0151443,0.0115967,0.0108337,0.0215149,0.0186539,-9.97986,0.0174332,0.00205994,0.0141525,0.00743866,-0.00595093,0.000762939,0.017662,0.0075531
16,7,-9.99003,-0.000915527,-0.000152588,-2.42562,0.0550706,-0.0747579,0.0562642,0.0700548,-0.0910102,0.145013,-0.125766,-0.0822652,0.00576019,0.0187683,0.00759125,0.0122833,0.0158691,0.0130463,0.0198746,0.0207138,-9.97986,0.0174713,0.000686646,0.0137329,0.00362396,-0.00274658,0.0012207,0.016098,0.00507355
16,8,-9.99003,0,0.00137329,-2.42531,0.0544603,-0.0753682,0.0562642,0.121019,-0.0870429,0.145318,-0.122104,-0.0822652,0.00965118,0.0207138,0.013237,0.00801086,0.0177002,0.014267,0.0222015,0.0224686,-9.97986,0.0180054,0.00232697,0.0155258,0.00957489,0.0193024,0.000801086,0.0165558,0.00682831
16,9,-2.29106,0.000305176,0.00366211,-2.42745,0.0547655,-0.0747579,0.0550435,0.141161,-0.0882636,0.143487,-0.122104,-0.0850118,0.0107956,0.0143814,0.0162125,0.00846863,0.018959,0.0131607,0.0223541,0.0186157,-9.97986,0.0152206,0.00106812,0.0154877,0.00362396,0.0193787,0.000305176,0.0162888,0.00812531
17,0,5.34413,-0.000305176,0.00427246,-2.42776,0.0538499,-0.0765889,0.0535176,0.152452,-0.0897895,0.144403,-0.120884,-0.0859274,0.0120163,0.0159073,0.0116348,0.00892639,0.0180435,0.0103378,0.0226974,0.0160599,-9.97986,0.0176239,-0.000991821,0.0148773,0.0062561,0.0117111,-0.0031662,0.0191498,0.00736237
17,1,10.0097,0.000610352,0.0050354,-2.42928,0.0517137,-0.0781148,0.0519917,0.141161,-0.094062,0.145013,-0.12302,-0.0871481,0.00995636,0.0193024,0.0165939,0.0138474,0.0183868,0.0156784,0.0250626,0.0162506,-9.97986,0.0178528,0.000495911,0.0133133,0.00606537,0.0165939,0.000343323,0.0166321,0.00888824
17,2,10.0097,-0.000915527,0.00106812,-2.43111,0.0535448,-0.0768941,0.0492452,0.0953844,-0.0980293,0.142267,-0.126072,-0.0892843,0.00808716,0.0230026,0.0163651,0.0112915,0.0178909,0.00873566,0.0209427,0.0156403,-9.97986,0.0131989,-0.00171661,0.0130081,0.00541687,0.0165176,-0.00400543,0.0161743,0.00488281
17,3,10.0097,-0.000305176,0.000305176,-2.42867,0.0535448,-0.0747579,0.0513814,0.0798204,-0.0971137,0.144403,-0.126072,-0.0874532,0.0122833,0.020752,0.0204086,0.00999451,0.016098,0.00831604,0.0237656,0.0154495,-9.97986,0.0158691,0.00232697,0.0138092,0.00598907,0.0218964,-0.00137329,0.0152588,0.00598907
17,4,10.0097,-0.0012207,0,-2.42837,0.0538499,-0.0747579,0.0513814,0.0731066,-0.0949775,0.143792,-0.126377,-0.0868429,0.0139236,0.0205231,0.0178528,0.0128555,0.0188446,0.012207,0.0227356,0.0134277,-9.97986,0.0146103,0.000839233,0.0131607,0.0056076,0.0183105,-0.00411987,0.0165558,0.00621796
17,5,10.0097,0.0012207,-0.000305176,-2.42898,0.0550706,-0.0753682,0.0513814,0.0740221,-0.0943672,0.144708,-0.126377,-0.085317,0.00762939,0.0224304,0.0163269,0.0138092,0.0119781,0.00812531,0.0230789,0.0148773,-9.97986,0.015564,-0.00274658,0.0120163,0.00263214,0.0203323,-0.00209808,0.0159073,0.00644684
17,6,10.0097,0,0,-2.42684,0.0553758,-0.0738423,0.0538228,0.0718859,-0.094062,0.143792,-0.126072,-0.0847066,0.0115585,0.0187302,0.0181961,0.01194,0.0162506,0.00747681,0.0200653,0.0129318,-9.97986,0.0153732,-0.00267029,0.0166702,0.0104904,0.0170898,-0.001297,0.0127029,0.00495911
17,7,10.0097,0.000305176,0.000610352,-2.42592,0.0547655,-0.073232,0.054128,0.0724962,-0.0925361,0.145929,-0.126377,-0.0834859,0.00644684,0.0244904,0.0197601,0.0109863,0.0133133,0.0198746,0.0215912,0.0139618,-9.97986,0.0156784,-0.00289917,0.0127029,0.00526428,0.0159454,-0.00385284,0.0148392,0.00476837
17,8,10.0097,-0.000305176,0,-2.42562,0.0565965,-0.0741475,0.0550435,0.0728014,-0.0922309,0.146844,-0.124851,-0.0822652,0.0121689,0.0375748,0.0157166,0.0120163,0.0157547,0.0111389,0.0211334,0.0191879,-9.97986,0.0106049,3.8147e-005,0.0147629,0.00461578,0.017395,-0.00450134,0.0154114,0.00179291
17,9,10.0097,-0.0012207,0.000305176,-2.42501,0.0562914,-0.0744527,0.0544332,0.0697496,-0.0931465,0.145929,-0.123935,-0.0825704,0.0114441,0.0360107,0.0175858,0.0100708,0.0170898,0.0104523,0.0193405,0.017395,-9.97986,0.0112152,0,0.0192642,0.00900269,0.0186157,0.000724792,0.0187683,0.0063324
18,0,10.0097,-0.000915527,0.000152588,-2.42501,0.0559862,-0.0735371,0.0544332,0.072191,-0.0913154,0.146844,-0.123935,-0.0813497,0.0119019,0.0268173,0.0216675,0.0152206,0.016861,0.0105667,0.0259781,0.0154114,-9.97986,0.0170517,0.00389099,0.0159454,0.00431061,0.0189972,-7.62939e-005,0.0168228,0.0043869
18,1,9.37032,0.000915527,-0.00305176,-2.42714,0.0562914,-0.0738423,0.0532125,0.0261095,-0.0961982,0.147149,-0.126987,-0.0825704,0.00980377,0.0297165,0.0183105,0.0101852,0.0163651,0.0094986,0.0233841,0.0163269,-9.97986,0.0145721,-0.000724792,0.0149155,0.00728607,0.0222397,-0.0019455,0.0169754,0.00785828
18,2,0.729266,0.000305176,-0.00427246,-2.42531,0.0559862,-0.0738423,0.0532125,-0.00562879,-0.0977241,0.145318,-0.128513,-0.0822652,0.0114822,0.0249863,0.0205231,0.0144958,0.0213623,0.0117493,0.0229263,0.0199127,-9.97986,0.0120544,-0.000419617,0.0120544,-0.000648499,0.0201035,-0.00659943,0.0149918,0.00263214
18,3,-6.18144,0.000610352,-0.00411987,-2.42623,0.0569017,-0.0744527,0.0535176,-0.0132582,-0.0968086,0.147149,-0.130649,-0.0810445,0.0134277,0.031929,0.0239182,0.0151825,0.0214005,0.015831,0.0285339,0.0234985,-9.97986,0.0232315,0.00473022,0.0137711,0.0131989,0.024147,0.0030899,0.0218964,0.0122833
18,4,-9.99003,0.00152588,-0.00366211,-2.42592,0.0562914,-0.0738423,0.0556539,0.00963,-0.0928413,0.147149,-0.128513,-0.0810445,0.0019455,0.0216675,0.0124741,0.00759125,0.0131226,0.00679016,0.0200272,0.0151825,-9.97986,0.00766754,-0.01091,0.00793457,-0.000839233,0.0119781,-0.00686646,0.0117874,0.00370026
18,5,-9.99003,-0.0012207,-0.00167847,-2.4244,0.0553758,-0.0741475,0.0547383,0.0410631,-0.090705,0.144708,-0.126072,-0.0807394,0.013237,0.0318146,0.0208282,0.0112915,0.0198746,0.0133133,0.0240326,0.022583,-9.97986,0.0167847,0.00202179,0.0168228,0.00785828,-0.000648499,-0.00476837,0.0196838,0.00965118
18,6,-9.99003,0.000610352,-0.000915527,-2.42562,0.0553758,-0.0756734,0.0544332,0.0575426,-0.0919257,0.145624,-0.126987,-0.0822652,0.00873566,0.0240707,0.015564,0.00774384,0.0144958,0.0131226,0.0252533,0.0190353,-9.97986,0.0164032,3.8147e-005,0.0154114,0.00453949,-0.00595093,-0.00183105,0.0183105,0.00637054
18,7,-9.99003,0.000610352,-0.000152588,-2.42714,0.0550706,-0.075063,0.0556539,0.0691393,-0.0910102,0.146234,-0.125766,-0.0825704,0.0118637,0.0208282,0.018425,0.0123215,0.0206757,0.0109482,0.019989,0.0176239,-9.97986,0.0135803,0.000534058,0.0146866,0.00621796,-0.00530243,-0.0087738,0.018158,0.00793457
18,8,-9.99003,0.00152588,0.00152588,-2.42592,0.0562914,-0.0744527,0.0562642,0.123155,-0.0870429,0.145929,-0.12241,-0.0825704,0.0122833,0.0262833,0.0203323,0.0138474,0.0206375,0.0124741,0.0253677,0.0160599,-9.97986,0.00961304,0.00339508,0.0136185,0.00850677,0.0177765,-0.00358582,0.0175858,0.00534058
18,9,-2.10124,0.000610352,0.00366211,-2.42745,0.0538499,-0.0753682,0.0553487,0.141161,-0.0885688,0.144403,-0.122715,-0.0840963,0.00968933,0.025177,0.0183105,0.0105667,0.0152206,0.00789642,0.0200272,0.018425,-9.97986,0.0151825,-0.000572205,0.0140762,0.00926971,0.0203705,-0.00171661,0.0175095,0.00751495
19,0,5.51015,0.000915527,0.00411987,-2.42837,0.0544603,-0.0762837,0.054128,0.152147,-0.0885688,0.143487,-0.122715,-0.0856222,0.00843048,0.0218201,0.0169754,0.0106049,0.0160599,0.0122833,0.0224304,0.0218582,-9.97986,0.0143051,-0.00221252,0.0152969,0.00686646,0.0243378,-0.00480652,0.0157928,0.00537872
19,1,10.0097,0.0012207,0.00411987,-2.4302,0.0538499,-0.0775044,0.0519917,0.138719,-0.0937568,0.145013,-0.122715,-0.0871481,0.00789642,0.0269318,0.0179672,0.0125885,0.0196838,0.0138855,0.0254822,0.0114441,-9.97986,0.0120544,0.00106812,0.0157928,0.00671387,0.0205994,-0.0087738,0.0169754,0.00694275
19,2,10.0097,-0.000915527,0.00152588,-2.43081,0.0535448,-0.0765889,0.0501607,0.0941637,-0.0977241,0.142572,-0.125766,-0.0889791,0.00930786,0.0230408,0.0175476,0.0111771,0.0190353,0.010376,0.0233459,0.011673,-9.97986,0.0138092,-0.00404358,0.00965118,0.00644684,0.0192261,-0.0177002,0.0159454,0.00507355
19,3,10.0097,-0.000305176,0.000305176,-2.42989,0.0538499,-0.0759786,0.050771,0.0804308,-0.0961982,0.143487,-0.127903,-0.0880636,0.0119781,0.0254059,0.0230026,0.00797272,0.0161743,0.0108719,0.0249481,0.0104141,-9.97986,0.0139618,-0.00305176,0.0169754,0.0050354,0.0210571,-0.0121689,0.0154114,0.00434875
19,4,10.0097,0.00152588,-0.000305176,-2.42867,0.0547655,-0.075063,0.0526021,0.0743273,-0.095893,0.143487,-0.126377,-0.0865377,0.0110626,0.0258255,0.0193405,0.0100708,0.0178146,0.0108719,0.0203323,0.0146103,-9.97986,0.0135422,-0.00465393,0.018425,0.00427246,0.017395,-0.0111008,0.0153351,0.00717163
19,5,10.0097,0.00305176,0.000305176,-2.42714,0.055681,-0.0759786,0.0516866,0.0724962,-0.0937568,0.145013,-0.126377,-0.0859274,0.014534,0.0242615,0.0239944,0.012207,0.015564,0.0107193,0.0172424,0.0175858,-9.97986,0.0141144,0.000114441,0.014267,0.00484467,0.0179672,-0.01091,0.0175095,0.0050354
19,6,10.0097,0.00152588,-0.000457764,-2.42714,0.0550706,-0.075063,0.0529073,0.0718859,-0.0946723,0.144708,-0.126072,-0.0844015,0.0123596,0.0250626,0.0164032,0.0133133,0.0186157,0.00968933,0.021286,0.0162506,-9.97986,0.0108719,-0.00431061,0.0174332,0.00270844,0.0179291,-0.00419617,0.0120544,0.00759125
19,7,10.0097,0.000305176,0.000305176,-2.42714,0.0538499,-0.075063,0.0538228,0.0718859,-0.0934516,0.145013,-0.125461,-0.0831808,0.011673,0.0265503,0.019455,0.0094986,0.018959,0.00831604,0.019722,0.0178909,-9.97986,0.0108337,0.000343323,0.0173187,0.00881195,0.0177002,-0.00289917,0.0124741,0.0062561
19,8,10.0097,0.000610352,0.000305176,-2.42562,0.055681,-0.0741475,0.054128,0.0715807,-0.0925361,0.145013,-0.125766,-0.0831808,0.0119019,0.0261307,0.017128,0.0118637,0.0211716,0.0131607,0.0171661,0.0205231,-9.97986,0.0125504,0.00339508,0.0154877,0.0062561,0.0191498,0.00286102,0.0146866,0.00640869
19,9,10.0097,-0.000305176,-0.000457764,-2.42623,0.0559862,-0.0738423,0.0556539,0.0718859,-0.0922309,0.146234,-0.124546,-0.0813497,0.0114059,0.025444,0.0217819,0.00843048,0.0161362,0.0111389,0.0209045,0.0193024,-9.97986,0.0127029,-0.000343323,0.0141144,0.00202179,0.0202942,0.00415802,0.0130463,0.0069809
20,0,10.0097,0.0012207,-0.000152588,-2.4247,0.0562914,-0.073232,0.054128,0.0724962,-0.0919257,0.146234,-0.124546,-0.0807394,0.0125504,0.02491,0.0202942,0.0117111,0.0135803,0.0108719,0.0221634,0.0129318,-9.97986,0.0131989,-0.000114441,0.0133133,0.00736237,0.017128,-0.00125885,0.0148773,0.00934601
20,1,9.43166,0,-0.00305176,-2.42745,0.0553758,-0.075063,0.0526021,0.0267198,-0.0977241,0.146234,-0.126987,-0.0825704,0.0100708,0.0227737,0.0188828,0.0113297,0.0188065,0.0118256,0.0180435,0.0183105,-9.97986,0.0115585,-0.00312805,0.0133514,0.0037384,0.0180054,0.000915527,0.0165558,0.00648499
20,2,0.655718,0.000915527,-0.0050354,-2.42562,0.0587328,-0.0738423,0.0532125,-0.00593396,-0.0971137,0.146844,-0.129123,-0.0822652,0.0106049,0.0224304,0.0156403,0.0122452,0.0169754,0.00991821,0.0199509,0.018959,-9.97986,0.0136185,0.00118256,0.0142288,0.0037384,0.0154495,0.00614166,0.0131607,0.0056839
20,3,-6.15977,0.000610352,-0.00473022,-2.42562,0.0565965,-0.0726216,0.054128,-0.0138685,-0.095893,0.148675,-0.129734,-0.0825704,0.00865936,0.0234985,0.0188065,0.00972748,0.0172806,0.0111008,0.0243378,0.0173187,-9.97986,0.0128174,0.00118256,0.0149918,0.00415802,0.0180054,0.00270844,0.0149155,0.00732422
20,4,-9.99003,0.000915527,-0.00366211,-2.4244,0.0562914,-0.0741475,0.0550435,0.0111559,-0.0931465,0.147455,-0.129429,-0.0813497,0.0144196,0.0196075,0.0222015,0.0108719,0.0156021,0.010376,0.019455,0.0191498,-9.97986,0.018425,0.000991821,0.0164032,0.00499725,0.0167847,0.000801086,0.0136948,0.00694275
20,5,-9.99003,0.00152588,-0.00167847,-2.4247,0.0562914,-0.0738423,0.0562642,0.0398424,-0.0903999,0.146539,-0.126682,-0.0819601,0.00823975,0.0211716,0.0195313,0.00923157,0.0180054,0.00835419,0.0215149,0.0197983,-9.97986,0.0146866,-0.000991821,0.0168228,0.00747681,-0.00968933,-0.00389099,0.0154877,0.00606537
20,6,-9.99003,0,-0.000152588,-2.42592,0.0553758,-0.0738423,0.0550435,0.0563219,-0.090705,0.145013,-0.126682,-0.0819601,0.0105286,0.0201035,0.0165939,0.0104141,0.0156021,0.0101852,0.0201797,0.0180817,-9.97986,0.0104904,-0.00366211,0.0161362,0.00549316,-0.00953674,-0.00343323,0.0138855,0.00511169
20,7,-9.99003,-0.000305176,0.000152588,-2.42653,0.0550706,-0.0753682,0.0562642,0.0740221,-0.0897895,0.145318,-0.124241,-0.0828756,0.0117111,0.0164795,0.0199509,0.0100708,0.0180054,0.00873566,0.0196838,0.0168991,-9.97986,0.0168991,-0.00152588,0.0175476,0.00705719,0.00431061,-0.00499725,0.0165176,0.00732422
20,8,-9.99003,0.00213623,0.00167847,-2.42592,0.0535448,-0.0741475,0.0562642,0.123155,-0.0864326,0.145624,-0.121189,-0.0825704,0.00980377,0.0179291,0.0206375,0.0112534,0.0169754,0.0139999,0.021553,0.0161743,-9.97986,0.0186539,-0.00591278,0.0150299,0.00801086,0.0167847,-0.00614166,0.0138092,0.00984192
20,9,-1.90349,0.000305176,0.00335693,-2.42714,0.0553758,-0.075063,0.0544332,0.141771,-0.0885688,0.145013,-0.121494,-0.0834859,0.00610352,0.0180435,0.018425,0.0105667,0.0150681,0.00923157,0.021553,0.0210571,-9.97986,0.0161362,-0.000915527,0.017662,0.00888824,0.0183487,-0.00286102,0.0143051,0.00801086
21,0,5.81105,0.000610352,0.00396729,-2.42806,0.0532396,-0.0768941,0.0532125,0.153368,-0.0885688,0.142267,-0.121494,-0.0856222,0.0123215,0.0248718,0.0209427,0.00732422,0.0221252,0.00797272,0.0234604,0.0182724,-9.97986,0.014534,-0.000991821,0.0188828,0.00259399,0.0144958,-0.0012207,0.0133514,0.0082016
21,1,10.0097,0,0.00457764,-2.42989,0.0538499,-0.0768941,0.0510762,0.135362,-0.0943672,0.142877,-0.123935,-0.0883688,0.0127792,0.0302505,0.0158691,0.0143433,0.0194931,0.0127411,0.0217819,0.0183487,-9.97986,0.0136948,-0.00484467,0.0167465,0.00465393,0.0165558,-0.00385284,0.0138092,0.00411987
21,2,10.0097,0.0012207,0.00106812,-2.43111,0.0541551,-0.0765889,0.050771,0.0941637,-0.0971137,0.143792,-0.125766,-0.0880636,0.0131607,0.0284958,0.0162888,0.0106049,0.014534,0.00904083,0.0267792,0.0191116,-9.97986,0.0202179,-0.00289917,0.018158,0.00377655,0.0180435,-0.00175476,0.0188446,0.00682831
21,3,10.0097,0.0012207,0,-2.42989,0.0535448,-0.0768941,0.0516866,0.0795153,-0.095893,0.143182,-0.126987,-0.0883688,0.00846863,0.0228882,0.0180817,0.00789642,0.0161362,0.00499725,0.02388,0.0181961,-9.97986,0.0178146,-0.00331879,0.016861,0.00465393,0.0188828,-0.0025177,0.0167465,0.00572205
21,4,10.0097,0.000915527,-0.000152588,-2.42928,0.0541551,-0.0747579,0.0529073,0.0746324,-0.0952827,0.145013,-0.126072,-0.0865377,0.0114059,0.0213242,0.0167465,0.0130081,0.0167084,0.00793457,0.0211334,0.0195313,-9.97986,0.0146103,-0.00240326,0.0164795,0.00457764,0.0161743,0.000457764,0.0146484,0.00545502
21,5,10.0097,-0.000610352,0.000305176,-2.42745,0.0550706,-0.0747579,0.0532125,0.0728014,-0.0946723,0.145013,-0.125461,-0.0850118,0.0123978,0.0231552,0.0165558,0.00801086,0.0134659,0.00804901,0.0208282,0.0149536,-9.97986,0.0193405,-0.00293732,0.0161743,0.00701904,0.0170135,0.000152588,0.0143814,0.00671387
21,6,10.0097,-0.000610352,0.000152588,-2.42714,0.0541551,-0.075063,0.0532125,0.0712755,-0.0946723,0.146539,-0.124851,-0.0844015,0.0137711,0.0241089,0.0221252,0.0120544,0.01091,0.00686646,0.0204849,0.0168228,-9.97986,0.0189972,-0.00602722,0.0149536,0.00873566,0.0151825,0.00164032,0.0153351,0.00778198
21,7,10.0097,0.00183105,0.000457764,-2.42776,0.0550706,-0.0738423,0.0529073,0.0709703,-0.0937568,0.143792,-0.126072,-0.0844015,0.0123978,0.0204086,0.017128,0.0119781,0.0179672,0.00793457,0.0179291,0.019455,-9.97986,0.0160599,0.000457764,0.0175476,0.00541687,0.0181198,-0.00442505,0.0177765,0.00804901
21,8,10.0097,0.000610352,0.000305176,-2.42531,0.0559862,-0.0738423,0.0538228,0.0712755,-0.090705,0.147149,-0.124241,-0.0822652,0.014267,0.027771,0.0205612,0.0124741,0.0157166,0.0126266,0.0200653,0.0183487,-9.97986,0.0152969,0.00289917,0.0188065,0.0056076,0.0162125,-0.00228882,0.014801,0.0101089
21,9,10.0097,0.0012207,0,-2.42592,0.0569017,-0.0738423,0.0550435,0.0709703,-0.0928413,0.146539,-0.124241,-0.0816549,0.0094223,0.0212479,0.0144196,0.0111008,0.0154495,0.00740051,0.0196457,0.0149918,-9.97986,0.0100327,-0.000152588,0.0104523,0.00087738,0.0161362,-0.00366211,0.0146866,0.00293732
22,0,10.0097,0.000915527,0.000305176,-2.42501,0.0562914,-0.0741475,0.054128,0.0715807,-0.0925361,0.146234,-0.124546,-0.0822652,0.0130463,0.0250626,0.0201797,0.0146866,0.017662,0.00961304,0.0225067,0.0165558,-9.97986,0.0144577,0.000915527,0.0100327,0.00667572,0.0214386,-0.00656128,0.0172424,0.00495911
22,1,9.56166,0.0012207,-0.00228882,-2.42745,0.0553758,-0.0735371,0.0526021,0.0264147,-0.0961982,0.146539,-0.128513,-0.0822652,0.0117111,0.026741,0.0192261,0.0118256,0.0164795,0.00724792,0.025177,0.0181198,-9.97986,0.0147247,0.00320435,0.0149536,0.00434875,0.0186539,-0.0126648,0.0210953,0.00495911
22,2,0.92824,0.000610352,-0.00518799,-2.42531,0.0575121,-0.0741475,0.054128,-0.00379773,-0.095893,0.147149,-0.129123,-0.0819601,0.00915527,0.0246811,0.0209045,0.0134277,0.0148392,0.0111008,0.0222778,0.0195694,-9.97986,0.0164413,-0.00389099,0.0119781,0.00862122,0.0178528,-0.0105667,0.0195694,0.00675201
22,3,-5.93333,0,-0.00473022,-2.4244,0.0562914,-0.0735371,0.0532125,-0.0135634,-0.0971137,0.146844,-0.129734,-0.0819601,0.0101089,0.0231552,0.0189209,0.0142288,0.0156784,0.0139999,0.0202179,0.0177002,-9.97986,0.0153732,-0.00179291,0.0144196,0.00614166,0.0190353,-0.00934601,0.0160217,0.00564575
22,4,-9.99003,0.00152588,-0.00289917,-2.42501,0.055681,-0.0741475,0.0562642,0.0108507,-0.0922309,0.146234,-0.128513,-0.0813497,0.00911713,0.0231171,0.0180435,0.00961304,0.0209427,0.0112152,0.0267792,0.0190353,-9.97986,0.0148392,0.000801086,0.0143433,0.00617981,0.0181961,-0.00549316,0.0165939,0.00831604
22,5,-9.99003,0.000305176,-0.00198364,-2.42531,0.0572069,-0.0735371,0.0562642,0.0377062,-0.0916206,0.144708,-0.126682,-0.0816549,0.010643,0.0269318,0.0161362,0.0104904,0.0191879,0.00907898,0.0257111,0.0210953,-9.97986,0.011673,-0.00232697,0.0110245,0.00526428,-0.00770569,-0.00545502,0.0192642,0.00663757
22,6,-9.99003,-0.0012207,-0.000305176,-2.42592,0.055681,-0.0744527,0.0556539,0.0563219,-0.0913154,0.145929,-0.126072,-0.0822652,0.0112915,0.0243378,0.022049,0.0128937,0.0183105,0.0130463,0.0251007,0.0199127,-9.97986,0.0142288,0.00457764,0.0153351,0.00659943,-0.00663757,0.00293732,0.0177002,0.0101852
22,7,-9.99003,0.0012207,-0.000152588,-2.42562,0.0553758,-0.0738423,0.0547383,0.0715807,-0.0903999,0.146234,-0.125461,-0.0831808,0.00930786,0.0200653,0.016098,0.00991821,0.0144958,0.00873566,0.0222397,0.0120926,-9.97986,0.0131226,-0.0044632,0.0120163,0.00476837,-0.00343323,0.00038147,0.0146866,0.00816345
22,8,-9.99003,0,0.00183105,-2.42653,0.0547655,-0.0756734,0.0562642,0.123155,-0.0861274,0.145929,-0.122715,-0.0813497,0.0152969,0.0269318,0.0165176,0.0119781,0.014534,0.0109863,0.0217819,0.0171661,-9.97986,0.0169373,0.00087738,0.0152969,0.00606537,0.0207138,0.00240326,0.0168228,0.00705719
22,9,-1.94041,0.000610352,0.00320435,-2.42776,0.0532396,-0.075063,0.0547383,0.141161,-0.088874,0.143792,-0.120273,-0.0844015,0.0133514,0.021553,0.0183868,0.0143433,0.0156784,0.0114441,0.0210953,0.0168991,-9.97986,0.0124741,-0.00469208,0.0152969,0.00507355,0.0185394,0.000228882,0.0204468,0.00492096
23,0,5.67586,-0.000610352,0.00442505,-2.42867,0.0544603,-0.0762837,0.0538228,0.151232,-0.0891792,0.141656,-0.12302,-0.085317,0.0152969,0.0145721,0.0194168,0.010643,0.0176239,0.00614166,0.0218201,0.0154877,-9.97986,0.0143814,-0.000419617,0.0141907,0.00675201,0.0200272,-0.000228882,0.018425,0.00709534
23,1,10.0097,0.000610352,0.00488281,-2.4305,0.0526292,-0.0759786,0.0513814,0.137804,-0.0934516,0.141351,-0.121799,-0.0871481,0.0150681,0.0202942,0.0180054,0.0129318,0.0170898,0.0087738,0.0226974,0.0186539,-9.97986,0.0157928,0,0.0157547,0.00423431,0.0203705,-0.000228882,0.0170135,0.00686646
23,2,10.0097,0.000305176,0.00106812,-2.43111,0.0550706,-0.0759786,0.0498555,0.0944689,-0.0974189,0.142877,-0.127292,-0.0880636,0.0101089,0.020256,0.0210953,0.0102997,0.0175858,0.010643,0.0226212,0.0162506,-9.97986,0.0147247,0.00164032,0.0120163,0.00762939,0.0172043,-0.00370026,0.0180817,0.00434875
23,3,10.0097,0,0.0012207,-2.42928,0.0535448,-0.0765889,0.0526021,0.0789049,-0.0961982,0.143487,-0.126072,-0.0880636,0.00694275,0.0213623,0.0224686,0.00598907,0.0152206,0.0122833,0.0231934,0.019989,-9.97986,0.0159836,-0.00350952,0.0165939,0.00408173,0.0144958,-0.00270844,0.0135422,0.00732422
23,4,10.0097,0.000305176,-0.000915527,-2.42898,0.0547655,-0.0753682,0.0504659,0.0737169,-0.0955879,0.143792,-0.126682,-0.0868429,0.00892639,0.0195694,0.0192642,0.00934601,0.0151825,0.00995636,0.0211716,0.0148773,-9.97986,0.0139236,-0.00526428,0.0142288,0.00495911,0.0163269,-0.00202179,0.0164032,0.00511169
23,5,10.0097,0.000610352,0,-2.42684,0.0541551,-0.0756734,0.0522969,0.0728014,-0.0952827,0.144403,-0.126072,-0.0856222,0.00972748,0.0223923,0.0172424,0.013237,0.0187683,0.00984192,0.0217056,0.0177383,-9.97986,0.0152206,-0.00427246,0.0139236,0.0117493,0.0123215,-0.00110626,0.0159454,0.00671387
23,6,10.0097,0.000305176,0.000610352,-2.42714,0.0547655,-0.0747579,0.0522969,0.0718859,-0.0934516,0.145318,-0.126072,-0.0850118,0.0121689,0.022049,0.0187302,0.0107193,0.0173569,0.00797272,0.0258255,0.0186539,-9.97986,0.0146484,-0.00179291,0.0171661,0.00736237,0.0177383,-0.000228882,0.0146866,0.0056076
23,7,10.0097,0.00213623,0.000152588,-2.42806,0.0550706,-0.0741475,0.0529073,0.0728014,-0.0928413,0.144708,-0.126072,-0.0844015,0.00938416,0.0212479,0.0126266,0.0114822,0.0178146,0.0100327,0.0192261,0.0198364,-9.97986,0.0146103,0.00102997,0.0165558,0.00911713,0.0174713,-0.00183105,0.0139999,0.00576019
23,8,10.0097,0.000610352,0.000305176,-2.42592,0.055681,-0.0744527,0.0544332,0.0715807,-0.0913154,0.146539,-0.125156,-0.0822652,0.0112915,0.022049,0.0193787,0.0127029,0.0185394,0.012207,0.0244904,0.0190353,-9.97986,0.0144196,-0.00415802,0.0162506,0.00354767,0.020752,0.00267029,0.0174332,0.00972748
23,9,10.0097,-0.00152588,0.000152588,-2.42501,0.0565965,-0.0729268,0.0544332,0.0715807,-0.0925361,0.147149,-0.12363,-0.0813497,0.0122833,0.0211716,0.015564,0.0123215,0.0170135,0.010643,0.0233841,0.0214005,-9.97986,0.0157928,-0.00389099,0.0112152,0.00694275,0.0165176,0.00038147,0.0168228,0.00335693
24,0,10.0097,0.000305176,-0.000457764,-2.42501,0.0565965,-0.0744527,0.0532125,0.0718859,-0.0919257,0.146234,-0.123935,-0.0807394,0.0120544,0.0224304,0.0188065,0.0101852,0.0195694,0.0123215,0.0223541,0.0187683,-9.97986,0.0165176,-0.00286102,0.0128174,0.00892639,0.0188065,-0.00366211,0.0160217,0.00679016
24,1,9.4048,0.00244141,-0.00274658,-2.42745,0.055681,-0.0741475,0.0529073,0.0258043,-0.0974189,0.146234,-0.127903,-0.0825704,0.0075531,0.0209427,0.0185394,0.0105286,0.0162506,0.01091,0.0214386,0.017128,-9.97986,0.0181961,-0.00205994,0.0156021,0.00495911,0.0166702,-0.00923157,0.0146484,0.00732422
24,2,0.697222,0.000305176,-0.00549316,-2.42623,0.0569017,-0.0726216,0.0538228,-0.00623914,-0.0961982,0.147149,-0.129123,-0.0810445,0.00968933,0.0227737,0.018692,0.0130463,0.0203323,0.0141907,0.0242615,0.0178909,-9.97986,0.0146866,-0.00190735,0.0149918,0.00553131,0.0157928,-0.0185013,0.0131226,0.00766754
24,3,-6.17412,0.000305176,-0.00442505,-2.42501,0.0572069,-0.0738423,0.0547383,-0.0135634,-0.0961982,0.147149,-0.130039,-0.0810445,0.00980377,0.0229263,0.0174332,0.01091,0.0177383,0.014534,0.0199127,0.0149918,-9.97986,0.0165558,-0.000991821,0.0164032,0.0110626,0.0158691,-0.0187302,0.0130081,0.00499725
24,4,-9.99003,0.0012207,-0.00335693,-2.4244,0.0569017,-0.0738423,0.0550435,0.00993518,-0.0922309,0.145624,-0.128513,-0.0810445,0.01194,0.0241852,0.0231934,0.0123596,0.0172424,0.00892639,0.0247955,0.0152588,-9.97986,0.0211716,0.000114441,0.0147629,0.00743866,0.0137329,-0.014267,0.0131226,0.00400543
24,5,-9.99003,0,-0.00167847,-2.4244,0.0550706,-0.075063,0.0556539,0.0398424,-0.0903999,0.146234,-0.126072,-0.0813497,0.0102615,0.021019,0.0183868,0.0168228,0.0205612,0.0125504,0.0256348,0.0160599,-9.97986,0.0143051,0.00038147,0.015831,0.0123215,-0.00759125,-0.0138855,0.0164032,0.00595093
24,6,-9.99003,0.0012207,-0.000457764,-2.42653,0.055681,-0.0753682,0.0547383,0.0569322,-0.0900947,0.145624,-0.126682,-0.0816549,0.0125122,0.0252914,0.0209427,0.0128937,0.0195694,0.00995636,0.0217438,0.0136566,-9.97986,0.014801,-0.00205994,0.0126266,0.00900269,-0.00385284,-0.00946045,0.0175476,0.00629425
24,7,-9.99003,0.000305176,0,-2.42592,0.0553758,-0.0744527,0.0547383,0.0691393,-0.0910102,0.145318,-0.125461,-0.0834859,0.0149536,0.0268173,0.0205612,0.0147247,0.0204849,0.00965118,0.0220108,0.0148392,-9.97986,0.0154495,0.00205994,0.0146484,0.0104141,-0.00659943,-0.00583649,0.0190735,0.00617981
24,8,-9.99003,0.00244141,0.00198364,-2.4247,0.0550706,-0.0735371,0.0580953,0.120104,-0.0870429,0.145929,-0.122104,-0.0810445,0.0105667,0.0200272,0.0178528,0.00812531,0.0206375,0.00995636,0.0244904,0.0151825,-9.97986,0.0182724,-0.000419617,0.0142288,0.00480652,0.0178146,0.00213623,0.0172043,0.00537872
24,9,-2.13695,0.00183105,0.00335693,-2.42806,0.0553758,-0.0756734,0.055959,0.143602,-0.0879585,0.143792,-0.12241,-0.0840963,0.00804901,0.0212479,0.0176239,0.00816345,0.0187683,0.0125885,0.022583,0.0153732,-9.97986,0.0188828,0.000228882,0.0130463,0.00347137,0.0157166,-0.000419617,0.0166321,0.00453949
25,0,5.48329,0.000305176,0.00411987,-2.42714,0.0541551,-0.0762837,0.0535176,0.154894,-0.0885688,0.144403,-0.120884,-0.0850118,0.0107193,0.0237656,0.019989,0.0143051,0.019722,0.0114441,0.0244904,0.014801,-9.97986,0.0156403,-0.0056076,0.0138092,0.00598907,0.0159836,0.00534058,0.0156021,0.00518799
25,1,10.0097,0.000915527,0.00473022,-2.4302,0.0535448,-0.0768941,0.050771,0.138414,-0.0943672,0.143487,-0.123325,-0.0868429,0.00915527,0.0238419,0.0195313,0.0165558,0.018158,0.0123596,0.0198364,0.0183487,-9.97986,0.0143051,0.000610352,0.0135422,0.00534058,0.0193405,0.00400543,0.01297,0.00385284
25,2,10.0097,0.00183105,0.0012207,-2.4305,0.0532396,-0.0753682,0.0498555,0.0935533,-0.0983344,0.142877,-0.125766,-0.0886739,0.0105667,0.0240326,0.0178146,0.013504,0.0205612,0.0133896,0.0230026,0.0167084,-9.97986,0.0174713,-0.00118256,0.0147247,0.00888824,0.0181961,0.00797272,0.0154495,0.00701904
25,3,10.0097,-0.000305176,0.000305176,-2.43081,0.0532396,-0.0762837,0.0513814,0.0816515,-0.0961982,0.142572,-0.126377,-0.0883688,0.00823975,0.0198364,0.0186157,0.0140381,0.0124359,0.00598907,0.0196075,0.0152206,-9.97986,0.0144958,-0.00228882,0.0104141,0.0050354,0.0162125,0.00595093,0.015831,0.00534058
25,4,10.0097,0.000305176,-0.000152588,-2.42837,0.0553758,-0.0756734,0.0516866,0.0743273,-0.0961982,0.142572,-0.126377,-0.0859274,0.00732422,0.0218582,0.022583,0.00797272,0.0179672,0.00778198,0.0186157,0.0214386,-9.97986,0.0177002,-0.00244141,0.0124359,0.00846863,0.0205612,0.00370026,0.0186157,0.00293732
25,5,10.0097,0.000610352,-0.000152588,-2.42837,0.0547655,-0.0753682,0.0532125,0.0734117,-0.0943672,0.143182,-0.126987,-0.085317,0.00980377,0.0247955,0.0221252,0.0109482,0.0160217,0.00793457,0.0216293,0.0153732,-9.97986,0.016098,0.00358582,0.0121689,0.00579834,0.0153732,0.00545502,0.0183105,0.00667572
25,6,10.0097,0,0.000457764,-2.42776,0.0553758,-0.0747579,0.0526021,0.0712755,-0.0931465,0.145318,-0.126377,-0.0837911,0.0130463,0.0232315,0.0189972,0.0113678,0.0151443,0.0102997,0.0223541,0.0145721,-9.97986,0.013504,-0.000648499,0.0142288,0.00740051,0.017395,0.00118256,0.0154495,0.00637054
25,7,10.0097,0.000610352,0.000305176,-2.42592,0.0550706,-0.0756734,0.0529073,0.0718859,-0.0934516,0.145013,-0.125461,-0.0831808,0.0105286,0.0213623,0.0198364,0.00736237,0.0158691,0.0104141,0.0197601,0.0185394,-9.97986,0.0150681,0.00370026,0.0112534,0.00610352,0.0167084,-0.00167847,0.0154877,0.00545502
25,8,10.0097,0,0,-2.42562,0.0572069,-0.0741475,0.0544332,0.0712755,-0.0934516,0.146844,-0.124546,-0.0822652,0.0118637,0.0251007,0.0208664,0.00999451,0.0179672,0.00869751,0.0222015,0.015564,-9.97986,0.0158691,-0.00358582,0.00946045,0.00770569,0.0173569,-0.00480652,0.0157928,0.00701904
25,9,10.0097,0.000915527,-0.000610352,-2.42531,0.0565965,-0.0720113,0.0553487,0.0706652,-0.0913154,0.146844,-0.123935,-0.0813497,0.0120544,0.0211334,0.0220871,0.00934601,0.0141525,0.0063324,0.0216675,0.0160599,-9.97986,0.0148392,-0.000267029,0.0156403,0.00717163,0.0177383,-0.00286102,0.0161743,0.00793457
26,0,10.0097,0.00152588,0,-2.42592,0.0559862,-0.0738423,0.0553487,0.0712755,-0.0925361,0.146844,-0.125461,-0.0816549,0.0131607,0.0242996,0.0209427,0.0119019,0.0149155,0.00919342,0.0212097,0.0160217,-9.97986,0.014534,0.000953674,0.0142288,0.00694275,0.0138474,-0.00183105,0.0165176,0.00591278
26,1,9.43471,0.000610352,-0.00244141,-2.42653,0.0562914,-0.075063,0.0529073,0.025194,-0.0961982,0.146844,-0.127598,-0.0831808,0.0139618,0.0214005,0.0180054,0.0116348,0.0127029,0.0130463,0.0182343,0.0178528,-9.97986,0.0147247,-0.00297546,0.0148392,0.00377655,0.0149536,0.000305176,0.0190735,0.00495911
26,2,0.687762,0.0012207,-0.00488281,-2.42623,0.0569017,-0.075063,0.0535176,-0.00532361,-0.0971137,0.147149,-0.128513,-0.0813497,0.00846863,0.0208664,0.0163651,0.00938416,0.0162506,0.0114441,0.02388,0.0227737,-9.97986,0.0144196,0.000953674,0.0146484,0.00862122,0.0133896,0.000152588,0.0171661,0.00396729
26,3,-6.21043,-0.000305176,-0.00427246,-2.42653,0.0565965,-0.0735371,0.0538228,-0.0126478,-0.0961982,0.147149,-0.128818,-0.0819601,0.00770569,0.0239563,0.0164032,0.0146484,0.0190353,0.0127792,0.018692,0.0141907,-9.97986,0.0133133,-0.00171661,0.0128174,0.00614166,0.0141525,-0.00385284,0.0148773,0.0019455
26,4,-9.99003,0.00213623,-0.00289917,-2.42379,0.0569017,-0.0735371,0.0556539,0.00932483,-0.0922309,0.145318,-0.128513,-0.0804342,0.0105286,0.0218964,0.0186157,0.0108337,0.0161362,0.00831604,0.0189972,0.017395,-9.97986,0.0135422,0.00320435,0.0156021,0.00583649,0.0138474,-0.00804901,0.0160599,0.00473022
26,5,-9.99003,0.00152588,-0.00137329,-2.42531,0.0562914,-0.073232,0.0550435,0.0404528,-0.090705,0.145624,-0.126987,-0.0804342,0.00930786,0.021286,0.0170135,0.0124741,0.0172806,0.0114822,0.0210953,0.0154114,-9.97986,0.01194,0.000305176,0.0146866,0.00762939,-0.010376,-0.00514984,0.0154495,0.00545502
26,6,-9.99003,0.000610352,-0.000152588,-2.42562,0.0550706,-0.0744527,0.0553487,0.0563219,-0.090705,0.144708,-0.127292,-0.0816549,0.0104904,0.0250626,0.0159836,0.0132751,0.0174332,0.0119781,0.0237274,0.015564,-9.97986,0.0150299,-3.8147e-005,0.0131226,0.00797272,-0.00988007,0.000228882,0.0149536,0.00576019
26,7,-9.99003,0.0012207,-0.000152588,-2.42562,0.0553758,-0.0744527,0.0562642,0.0715807,-0.0916206,0.144708,-0.126072,-0.0828756,0.0130463,0.0218582,0.0173187,0.0130844,0.0170898,0.00801086,0.0180435,0.0202179,-9.97986,0.0140762,0.0030899,0.0143814,0.00556946,-0.00213623,0.000228882,0.0181961,0.00976563
26,8,-9.99003,0.000610352,0.00106812,-2.42531,0.0553758,-0.0753682,0.055959,0.12285,-0.0855171,0.145624,-0.121799,-0.0828756,0.0105286,0.0235367,0.0162125,0.0120163,0.0172806,0.00907898,0.0232315,0.0175858,-9.97986,0.0149536,-0.00205994,0.0178528,0.00774384,0.014267,-0.000762939,0.0164032,0.00507355
26,9,-1.58763,-0.000610352,0.00457764,-2.42837,0.0547655,-0.0747579,0.0547383,0.137193,-0.088874,0.142572,-0.121799,-0.0844015,0.0118637,0.0213242,0.0196075,0.0128555,0.0188446,0.0102234,0.0206375,0.0214386,-9.97986,0.0157547,-0.00167847,0.0136566,0.0069046,0.0192642,-0.0169373,0.015831,0.00652313
27,0,5.60048,0,0.00442505,-2.42745,0.0535448,-0.0765889,0.0550435,0.152452,-0.0891792,0.144708,-0.121799,-0.085317,0.0127029,0.0206375,0.017395,0.0138855,0.0196457,0.00858307,0.0217438,0.0154877,-9.97986,0.0133133,-0.00160217,0.018158,0.00911713,0.0164795,-0.0149155,0.0154114,0.00572205
27,1,10.0097,0.000305176,0.00442505,-2.4302,0.0535448,-0.0765889,0.0529073,0.137193,-0.0943672,0.143487,-0.122715,-0.0874532,0.0124741,0.0224304,0.014534,0.00801086,0.0156021,0.0087738,0.0241852,0.017128,-9.97986,0.0131226,-0.0031662,0.0142288,0.00602722,0.0160599,-0.0120163,0.010376,0.0062561
27,2,10.0097,0,0.000762939,-2.4305,0.0532396,-0.0768941,0.0504659,0.094774,-0.0971137,0.141046,-0.125766,-0.0889791,0.0125885,0.0254059,0.0168991,0.0118637,0.0189972,0.0111771,0.016861,0.0141907,-9.97986,0.0114822,0.0038147,0.0159454,0.00656128,0.0160599,-0.00545502,0.016861,0.00785828
27,3,10.0097,0.000305176,-0.000152588,-2.42867,0.0547655,-0.0771993,0.0510762,0.0801256,-0.0971137,0.143182,-0.126377,-0.0880636,0.0107193,0.0229263,0.0144577,0.00915527,0.0182343,0.00938416,0.0252533,0.0165558,-9.97986,0.010643,0.000801086,0.0129318,0.00869751,0.015831,0.00209808,0.0160217,0.00488281
27,4,10.0097,-0.000610352,-0.000305176,-2.4305,0.0541551,-0.075063,0.0532125,0.0746324,-0.0949775,0.144098,-0.126072,-0.0859274,0.00946045,0.0193787,0.0188446,0.0108337,0.0178146,0.0122452,0.0261307,0.0152206,-9.97986,0.0147247,0.00125885,0.0108337,0.00461578,0.0182343,0.00751495,0.0162888,0.00701904
27,5,10.0097,0.000610352,-0.000305176,-2.42837,0.0544603,-0.0744527,0.0532125,0.0728014,-0.0955879,0.143792,-0.125766,-0.0862325,0.00934601,0.0191498,0.018692,0.0152588,0.0156021,0.0109482,0.0209427,0.017662,-9.97986,0.0122452,-0.00137329,0.0150299,0.00556946,0.0151825,0.0114441,0.0141144,0.00709534
27,6,10.0097,0.000915527,0.000152588,-2.42745,0.055681,-0.075063,0.0529073,0.0700548,-0.094062,0.146539,-0.125156,-0.0847066,0.00747681,0.0184631,0.0156403,0.0154114,0.0174713,0.00785828,0.02285,0.018425,-9.97986,0.0151062,-0.000915527,0.0170135,0.00938416,0.0174713,0.0139999,0.0167847,0.00530243
27,7,10.0097,0.000610352,0.000305176,-2.42714,0.0553758,-0.0747579,0.0532125,0.07036,-0.0919257,0.145318,-0.124546,-0.0834859,0.0088501,0.0196075,0.0187302,0.0139999,0.0156784,0.00816345,0.0230408,0.0173187,-9.97986,0.0140381,-0.00411987,0.0127029,0.00850677,0.0161743,0.00717163,0.0159454,0.00831604
27,8,10.0097,-0.000610352,0.000152588,-2.42562,0.0559862,-0.0747579,0.0562642,0.0715807,-0.0931465,0.146234,-0.124851,-0.0831808,0.0112915,0.0226974,0.0160217,0.0105667,0.0137329,0.0118637,0.0233078,0.0192261,-9.97986,0.011673,-0.00305176,0.0156021,0.00465393,0.018959,0.00450134,0.0192261,0.00812531
27,9,10.0097,0,0.000152588,-2.4247,0.0562914,-0.0729268,0.0544332,0.0706652,-0.0925361,0.145929,-0.125156,-0.0810445,0.0102615,0.021286,0.0160217,0.0118637,0.0179291,0.0115967,0.0207901,0.019722,-9.97986,0.00865936,-0.00534058,0.0170135,0.0063324,0.0163651,0.00209808,0.0156403,0.0075531
28,0,10.0097,0.00183105,0,-2.42623,0.0569017,-0.0735371,0.054128,0.0715807,-0.0910102,0.146234,-0.12363,-0.0810445,0.0123215,0.0270462,0.0187683,0.0147247,0.0194931,0.011673,0.0224304,0.0196838,-9.97986,0.010643,-0.00190735,0.0153351,0.00476837,0.0173187,-0.00278473,0.0178909,0.00617981
28,1,9.32637,0.00244141,-0.00274658,-2.42623,0.055681,-0.0744527,0.0529073,0.0239733,-0.0971137,0.145624,-0.127598,-0.0834859,0.0126648,0.0270081,0.0193024,0.0106812,0.0177383,0.00869751,0.0201797,0.0178528,-9.97986,0.0159073,-0.00522614,0.0170898,0.0118637,0.0172043,-0.00400543,0.0144196,0.00843048
28,2,0.669756,0.000305176,-0.00396729,-2.42562,0.0575121,-0.0735371,0.0532125,-0.00349256,-0.0952827,0.146234,-0.128513,-0.0822652,0.00843048,0.0242996,0.0165558,0.0155258,0.0195313,0.0115585,0.0230789,0.0161743,-9.97986,0.014801,0.00106812,0.0135803,0.00801086,0.0181961,-0.00740051,0.0177002,0.00812531
28,3,-6.16984,-0.000610352,-0.00427246,-2.42501,0.0572069,-0.073232,0.0529073,-0.012953,-0.0965034,0.145929,-0.130344,-0.0819601,0.00679016,0.0255585,0.0206757,0.0119019,0.0173569,0.00778198,0.0214005,0.0141144,-9.97986,0.0203705,-0.000762939,0.0149918,0.00495911,0.0164413,-0.00431061,0.0151443,0.00701904
28,4,-9.99003,0,-0.00320435,-2.42531,0.0569017,-0.0744527,0.0547383,0.0084093,-0.0913154,0.146234,-0.128818,-0.0816549,0.0103378,0.0235748,0.019455,0.0115204,0.0140762,0.0124359,0.0215149,0.0173187,-9.97986,0.0125885,0.00366211,0.0130463,0.00770569,0.0178146,-0.00320435,0.0154495,0.00789642
28,5,-9.99003,0.000305176,-0.00167847,-2.42379,0.0562914,-0.073232,0.055959,0.0395372,-0.0897895,0.145929,-0.126682,-0.0822652,0.0123596,0.0239182,0.0185013,0.0136185,0.0172806,0.0110245,0.0239563,0.0174332,-9.97986,0.0130463,0.00404358,0.0164032,0.00442505,-0.014267,-0.0038147,0.0155258,0.00576019
28,6,-9.99003,-0.000305176,0,-2.42653,0.0547655,-0.0747579,0.054128,0.0572374,-0.0916206,0.145624,-0.126682,-0.0810445,0.010376,0.0254059,0.0193787,0.0161362,0.0189972,0.0125885,0.0238419,0.0193405,-9.97986,0.0149536,0.000801086,0.0149918,0.00610352,-0.0102234,-0.0037384,0.0159454,0.00846863
28,7,-9.99003,0.000305176,-0.000457764,-2.42623,0.0547655,-0.075063,0.0550435,0.0691393,-0.0897895,0.144403,-0.125766,-0.0822652,0.00946045,0.0192261,0.0123596,0.00583649,0.0130844,0.0101471,0.0211334,0.0154114,-9.97986,0.0150681,0.00106812,0.0136948,0.00324249,-0.00717163,-0.00347137,0.0164795,0.00762939
28,8,-9.99003,0.000915527,0.00137329,-2.4247,0.0544603,-0.075063,0.0568746,0.122545,-0.0852119,0.144403,-0.122715,-0.0831808,0.0117874,0.0234985,0.0172424,0.00835419,0.0167084,0.0101471,0.0217819,0.0157166,-9.97986,0.0167465,-0.00141144,0.0164413,0.00747681,0.0151062,-0.00495911,0.0170135,0.00671387
28,9,-2.29259,0.0012207,0.00350952,-2.42714,0.0541551,-0.0765889,0.0538228,0.142076,-0.0861274,0.144098,-0.122104,-0.0844015,0.0109482,0.0270081,0.0166321,0.0100327,0.0198746,0.0110626,0.0233078,0.0180817,-9.97986,0.0150299,-0.00175476,0.0140381,0.00789642,0.0188446,-0.00614166,0.0147247,0.00804901
29,0,5.65053,-0.000305176,0.00473022,-2.42806,0.0541551,-0.0759786,0.0544332,0.154283,-0.088874,0.143182,-0.120578,-0.0850118,0.0127029,0.0218582,0.0193405,0.0103378,0.0171661,0.0142288,0.0157547,0.0188065,-9.97986,0.0136566,0.000724792,0.0164413,0.00488281,0.0143814,-0.00408173,0.0119781,0.00579834
29,1,10.0097,0.00244141,0.00442505,-2.42989,0.0538499,-0.0759786,0.0519917,0.138109,-0.0922309,0.144403,-0.123325,-0.0871481,0.0109482,0.0245667,0.0135422,0.0128937,0.0144577,0.00564575,0.021553,0.0149155,-9.97986,0.0141907,-0.00278473,0.0124359,0.00587463,0.0147629,-0.00617981,0.0151443,0.00465393
29,2,10.0097,-0.000305176,0.00167847,-2.42989,0.0535448,-0.0771993,0.0516866,0.0938585,-0.0965034,0.142267,-0.126072,-0.0877584,0.0148773,0.0262833,0.0201416,0.0127029,0.0177383,0.0107193,0.0204086,0.0196838,-9.97986,0.0135422,-0.000762939,0.0136566,0.00858307,0.0153732,-0.00312805,0.0161743,0.00888824
29,3,10.0097,0,0.000610352,-2.42928,0.0532396,-0.0762837,0.0495503,0.0798204,-0.0974189,0.144098,-0.125766,-0.0880636,0.0141144,0.0261307,0.015831,0.0117493,0.0178909,0.0116348,0.0194931,0.0110245,-9.97986,0.0150299,0.00164032,0.0142288,0.00396729,0.0146484,-0.0025177,0.0205994,0.00541687
29,4,10.0097,0,0.000305176,-2.42928,0.0550706,-0.0759786,0.0529073,0.0737169,-0.0955879,0.145318,-0.127292,-0.0868429,0.0132751,0.0266266,0.0205231,0.0139236,0.0180817,0.0146866,0.0163269,0.0180817,-9.97986,0.0148392,-0.00637054,0.0167084,0.00778198,0.0164032,-0.00377655,0.0145721,0.00335693
29,5,10.0097,0.00152588,-0.000305176,-2.42806,0.0541551,-0.0744527,0.0529073,0.0734117,-0.0943672,0.145624,-0.126377,-0.085317,0.0115204,0.0244141,0.020256,0.0118637,0.0138092,0.0094223,0.0217819,0.0163269,-9.97986,0.00995636,0.00133514,0.0155258,0.0112152,0.0158691,-0.00312805,0.0177765,0.00743866
29,6,10.0097,-0.000305176,-0.000457764,-2.42653,0.055681,-0.075063,0.0529073,0.072191,-0.0937568,0.144098,-0.126682,-0.0850118,0.010376,0.02388,0.0204849,0.00965118,0.0183868,0.00827789,0.0204086,0.0159073,-9.97986,0.0147247,-0.00377655,0.0117874,0.00659943,0.0175858,0.000228882,0.0163651,0.00499725
29,7,10.0097,0.000305176,0.000762939,-2.42653,0.0559862,-0.0738423,0.0532125,0.0706652,-0.0934516,0.145929,-0.125766,-0.0837911,0.00965118,0.0260544,0.0204468,0.00930786,0.0152969,0.00991821,0.0186157,0.0212097,-9.97986,0.0164032,-3.8147e-005,0.00946045,0.00900269,0.0144958,-0.00415802,0.0173569,0.00370026
29,8,10.0097,0.000610352,0.000305176,-2.42592,0.0553758,-0.0744527,0.0550435,0.0724962,-0.0922309,0.146844,-0.124241,-0.0816549,0.0121307,0.0217438,0.020256,0.0143433,0.0204849,0.0120544,0.0244522,0.0205612,-9.97986,0.0181198,-0.00198364,0.0143433,0.00957489,0.0195694,-0.00339508,0.0168991,0.00923157
29,9,10.0097,0.000305176,-0.000152588,-2.4244,0.0569017,-0.0738423,0.0544332,0.0715807,-0.0916206,0.146539,-0.123935,-0.0825704,0.0101471,0.02491,0.0192261,0.00873566,0.0218582,0.00988007,0.0224304,0.0159454,-9.97986,0.0190735,-0.00167847,0.0130081,0.0102234,0.0155258,-0.00377655,0.0185013,0.00675201
30,0,10.0097,0.000305176,0.000305176,-2.4247,0.0559862,-0.0738423,0.0550435,0.0712755,-0.0919257,0.145318,-0.124851,-0.0816549,0.0121689,0.0208664,0.0192261,0.0122452,0.0136185,0.00980377,0.0226593,0.0200272,-9.97986,0.0146484,-0.00389099,0.0105286,0.00556946,0.0144577,-0.00259399,0.0179291,0.00606537
30,1,9.4698,0.000610352,-0.00213623,-2.42684,0.0562914,-0.073232,0.0529073,0.0273302,-0.0965034,0.146234,-0.127598,-0.0831808,0.0121307,0.0199127,0.0232315,0.0111008,0.0154114,0.0114441,0.0197983,0.0146484,-9.97986,0.0123978,0.00202179,0.0115585,0.00926971,0.0162506,-0.0056076,0.0170898,0.0056839
30,2,0.731707,0.0012207,-0.00549316,-2.4247,0.0562914,-0.0744527,0.054128,-0.00532361,-0.0965034,0.14776,-0.128513,-0.0822652,0.0147629,0.0233459,0.0151443,0.0121689,0.0197601,0.0112915,0.0191879,0.0161362,-9.97986,0.0151825,0.00110626,0.0110245,0.00904083,0.0169754,-0.00411987,0.0172424,0.00537872
30,3,-6.18449,-0.000305176,-0.00457764,-2.42592,0.0565965,-0.0738423,0.0535176,-0.0138685,-0.0961982,0.147455,-0.128818,-0.0813497,0.00881195,0.0202942,0.0166321,0.00881195,0.0193787,0.00953674,0.0212097,0.0177765,-9.97986,0.0156021,-0.000343323,0.0135422,0.00827789,0.0128937,-0.00102997,0.0156021,0.00747681
30,4,-9.99003,-0.000305176,-0.00350952,-2.42562,0.0581224,-0.0744527,0.0550435,0.00963,-0.0919257,0.146539,-0.129123,-0.0810445,0.00980377,0.0260544,0.0185013,0.0134659,0.013504,0.00701904,0.0234985,0.0169373,-9.97986,0.0130081,0.000114441,0.017128,0.00782013,0.0167465,0.000190735,0.015564,0.0069046
30,5,-9.99003,0.000915527,-0.00183105,-2.42379,0.0565965,-0.073232,0.0562642,0.0395372,-0.0897895,0.147455,-0.126987,-0.0813497,0.013504,0.0235367,0.0202942,0.0125504,0.018959,0.0125885,0.0248718,0.0186157,-9.97986,0.0133133,0.000839233,0.0146484,0.00816345,-0.00946045,0.00267029,0.0173187,0.0102615
30,6,-9.99003,-0.000915527,-0.000610352,-2.42531,0.055681,-0.0747579,0.0553487,0.0572374,-0.0903999,0.145624,-0.125766,-0.0810445,0.0115585,0.0222015,0.0193405,0.0125504,0.0169754,0.0094986,0.022049,0.0185394,-9.97986,0.00778198,-0.000419617,0.0148392,0.0038147,-0.00667572,0.00305176,0.017662,0.00782013
30,7,-9.99003,0,0.000305176,-2.42653,0.0553758,-0.0747579,0.0538228,0.0685289,-0.0922309,0.145318,-0.125461,-0.0834859,0.0130844,0.0247574,0.0222778,0.0139236,0.0197983,0.0115967,0.0236511,0.0263214,-9.97986,0.0112534,0.0012207,0.0157547,0.00888824,-0.00858307,0.00263214,0.0175476,0.0075531
30,8,-9.99003,0.00244141,0.00152588,-2.4247,0.0559862,-0.0741475,0.0568746,0.126512,-0.0846015,0.145624,-0.122715,-0.0825704,0.0115585,0.0212479,0.0169754,0.0120544,0.0130463,0.0087738,0.0188828,0.0178528,-9.97986,0.0120544,-0.000152588,0.0138092,0.00995636,0.0174332,0.000915527,0.0177383,0.0112915
30,9,-2.00877,0.00183105,0.00396729,-2.42745,0.0535448,-0.0762837,0.0538228,0.141466,-0.0879585,0.144708,-0.12241,-0.0844015,0.00667572,0.0244141,0.0195313,0.0112152,0.0151443,0.00991821,0.0226974,0.0125122,-9.97986,0.013237,-0.00198364,0.0134277,0.00808716,0.0177765,0.00286102,0.0154114,0.00843048
31,0,5.51503,0.000305176,0.00442505,-2.42714,0.0535448,-0.0771993,0.0526021,0.151842,-0.0903999,0.143487,-0.121799,-0.0847066,0.00900269,0.0239563,0.0199127,0.00999451,0.0202179,0.010643,0.0157547,0.0185776,-9.97986,0.0161362,-0.00247955,0.0151443,0.00682831,0.014801,-0.000267029,0.013504,0.00747681
31,1,10.0097,0.000915527,0.0050354,-2.42928,0.0544603,-0.0759786,0.0516866,0.13933,-0.0928413,0.141656,-0.123325,-0.0874532,0.0146484,0.0256729,0.0194931,0.0104523,0.0177765,0.0146484,0.0208664,0.0202942,-9.97986,0.0145721,0.000610352,0.0185394,0.011673,0.0179291,0.00411987,0.0151825,0.00671387
31,2,10.0097,0,0.00106812,-2.42989,0.0535448,-0.0765889,0.0516866,0.0959947,-0.095893,0.143792,-0.125766,-0.0889791,0.00919342,0.0268936,0.0144196,0.0109863,0.0102615,0.00911713,0.0209808,0.0192261,-9.97986,0.015831,-0.00537872,0.0134277,0.00598907,0.0159454,0.000572205,0.0173187,0.00671387
31,3,10.0097,-0.000610352,0.000152588,-2.42959,0.0538499,-0.0768941,0.0519917,0.0795153,-0.0974189,0.141351,-0.126987,-0.0874532,0.00904083,0.0265503,0.0219727,0.0118256,0.0191879,0.00415802,0.0218582,0.0180435,-9.97986,0.0115204,-0.0037384,0.0149536,0.00930786,0.0159836,-0.0037384,0.0192261,0.0056076
31,4,10.0097,0.000305176,0.000305176,-2.42928,0.0538499,-0.0756734,0.0526021,0.0746324,-0.0952827,0.144403,-0.126682,-0.0859274,0.0130463,0.0251389,0.0187683,0.0126266,0.017128,0.00770569,0.0174713,0.0151825,-9.97986,0.0136566,-0.00114441,0.0156784,0.00598907,0.0143814,-0.00404358,0.0139236,0.00366211
31,5,10.0097,0.000305176,0,-2.42837,0.0547655,-0.0744527,0.0526021,0.072191,-0.0943672,0.143792,-0.126377,-0.0859274,0.0110245,0.0257874,0.0206757,0.0117874,0.0176239,0.0125885,0.0205231,0.0190353,-9.97986,0.0105286,-0.00190735,0.0123596,0.00846863,0.017395,-0.0038147,0.0164032,0.00545502
31,6,10.0097,0.000915527,0,-2.42714,0.055681,-0.0753682,0.0532125,0.0712755,-0.094062,0.144403,-0.125461,-0.0840963,0.0144577,0.0240326,0.0211716,0.0104141,0.0169754,0.010643,0.0152588,0.0186157,-9.97986,0.0141525,-0.00228882,0.0136948,0.00499725,0.0154877,-0.00244141,0.0165176,0.00881195
31,7,10.0097,-0.000305176,0.000457764,-2.42745,0.0559862,-0.0741475,0.0532125,0.0712755,-0.0928413,0.146234,-0.125156,-0.0834859,0.0128174,0.0268936,0.0219345,0.0131226,0.019455,0.00961304,0.0189972,0.0159073,-9.97986,0.0151825,-0.00236511,0.00846863,0.0115585,0.0180817,-0.00514984,0.0150299,0.00549316
31,8,10.0097,0.000305176,0.000457764,-2.42531,0.0553758,-0.0747579,0.0544332,0.07036,-0.0934516,0.146234,-0.124241,-0.0816549,0.0128555,0.0260544,0.0224304,0.0109482,0.0172806,0.00896454,0.0242615,0.0170898,-9.97986,0.0143433,-0.00457764,0.0173187,0.00713348,0.0138855,-0.0030899,0.0133896,0.00801086
31,9,10.0097,-0.000915527,0.000152588,-2.42653,0.055681,-0.0744527,0.0553487,0.0709703,-0.0913154,0.146234,-0.12363,-0.0810445,0.01194,0.0268173,0.0182343,0.00827789,0.0133896,0.00953674,0.0175095,0.0174332,-9.97986,0.0133514,-0.000724792,0.0112534,0.00328064,0.0165939,-0.0101471,0.0163269,0.00602722
32,0,10.0097,0.00183105,0.000610352,-2.42531,0.0565965,-0.0735371,0.0556539,0.07036,-0.0919257,0.145624,-0.124241,-0.0810445,0.0094223,0.0281143,0.0221252,0.0135803,0.0171661,0.0107574,0.0210953,0.0185776,-9.97986,0.0152969,0.00499725,0.0185776,0.00675201,0.0147629,-0.0100327,0.0175095,0.0120926
32,1,9.15303,0.000305176,-0.00244141,-2.42623,0.0553758,-0.0735371,0.0529073,0.0233629,-0.095893,0.145318,-0.127292,-0.0822652,0.00865936,0.0174713,0.0205612,0.00976563,0.0141907,0.00938416,0.0204849,0.018158,-9.97986,0.0136948,-0.000762939,0.00961304,0.00377655,0.0149155,-0.0124359,0.0123596,0.00694275
32,2,0.47719,0.00152588,-0.00442505,-2.42531,0.0565965,-0.0738423,0.0532125,-0.00379773,-0.0974189,0.146539,-0.128513,-0.0825704,0.0117111,0.0185776,0.0233459,0.0130844,0.0180817,0.0100327,0.0199127,0.0149536,-9.97986,0.0145721,0.00270844,0.0130081,0.00659943,0.0161743,-0.00514984,0.0172043,0.00984192
32,3,-6.43748,0.000610352,-0.0050354,-2.42531,0.0559862,-0.0729268,0.0535176,-0.0147841,-0.0968086,0.147149,-0.130039,-0.0825704,0.00843048,0.015564,0.0183487,0.0118637,0.0159836,0.00736237,0.0188065,0.0157547,-9.97986,0.0162888,-0.00183105,0.0141144,0.0110245,0.0147629,-0.00518799,0.0121689,0.00740051
32,4,-9.99003,0.000915527,-0.00305176,-2.42531,0.0565965,-0.073232,0.055959,0.0105455,-0.0922309,0.146234,-0.129429,-0.0810445,0.0125885,0.0187302,0.0186157,0.0149536,0.0185013,0.00919342,0.0213623,0.0175476,-9.97986,0.0152588,-0.00347137,0.0125122,0.00869751,0.0142288,-0.00587463,0.015564,0.00457764
32,5,-9.99003,0.000305176,-0.00137329,-2.42623,0.055681,-0.0738423,0.0565694,0.0401476,-0.0903999,0.147149,-0.126072,-0.0798238,0.0101471,0.0186539,0.0190735,0.00980377,0.0204086,0.0121689,0.0192261,0.0156021,-9.97986,0.0147247,-0.00160217,0.0158691,0.00514984,-0.0100708,-0.00846863,0.0152969,0.0069809
32,6,-9.99003,0.00152588,-0.000305176,-2.42531,0.0547655,-0.0756734,0.0562642,0.0578478,-0.0916206,0.145929,-0.125461,-0.0825704,0.00904083,0.021019,0.0172806,0.00991821,0.0204086,0.0101852,0.0193024,0.0169373,-9.97986,0.0175476,3.8147e-005,0.0149155,0.00930786,-0.0117111,-0.00522614,0.0144958,0.00827789
32,7,-9.99003,0.00213623,0,-2.42592,0.0547655,-0.0744527,0.054128,0.0706652,-0.0913154,0.145318,-0.124851,-0.0822652,0.00865936,0.0205231,0.0219345,0.0138474,0.0160217,0.0101089,0.0230789,0.0155258,-9.97986,0.0137711,-0.00442505,0.0180435,0.00602722,-0.00587463,-0.00244141,0.0186157,0.00579834
32,8,-9.99003,-0.000610352,0.00183105,-2.42531,0.0547655,-0.0747579,0.0565694,0.118273,-0.0873481,0.145318,-0.12302,-0.0822652,0.00980377,0.0209427,0.0185776,0.0105667,0.0191498,0.00579834,0.024147,0.0187302,-9.97986,0.0163269,-0.00534058,0.0162506,0.00522614,0.0170517,-0.00274658,0.0187302,0.00896454
32,9,-2.1345,-0.000305176,0.00396729,-2.42745,0.0526292,-0.075063,0.0550435,0.141161,-0.0891792,0.142877,-0.122104,-0.085317,0.0114059,0.0209427,0.0172043,0.00892639,0.0194931,0.0105286,0.0224304,0.0145721,-9.97986,0.0150299,0.00087738,0.0140381,0.00720978,0.0182724,-0.00591278,0.0188828,0.00671387
33,0,5.51351,-0.000915527,0.00427246,-2.42776,0.0541551,-0.0744527,0.0535176,0.152147,-0.0897895,0.144708,-0.121494,-0.0850118,0.00728607,0.0317764,0.0183105,0.0119019,0.0193024,0.00923157,0.0246048,0.0179291,-9.97986,0.0126266,-0.000495911,0.0161362,0.0075531,0.0183105,-0.0106812,0.0171661,0.00747681
33,1,10.0097,0.00213623,0.00457764,-2.4302,0.0535448,-0.0771993,0.0516866,0.140856,-0.0922309,0.142877,-0.12241,-0.0868429,0.00713348,0.0328064,0.0130463,0.0117111,0.0173569,0.0107956,0.0200272,0.0167465,-9.97986,0.0153732,-0.00385284,0.0152588,0.00419617,0.0187683,-0.00312805,0.0180817,0.00915527
33,2,10.0097,0,0.00137329,-2.4305,0.0529344,-0.0753682,0.0504659,0.0944689,-0.0983344,0.142267,-0.125461,-0.0895895,0.0121307,0.0324631,0.0219727,0.0143433,0.0176239,0.0117493,0.0231552,0.0159454,-9.97986,0.0139618,-0.00267029,0.0118256,0.00488281,0.0168228,-0.00038147,0.0164795,0.00930786
33,3,10.0097,0.000915527,0.000762939,-2.42959,0.0532396,-0.0765889,0.0510762,0.0795153,-0.0974189,0.142877,-0.126682,-0.0883688,0.0103378,0.0287247,0.019722,0.0139236,0.014267,0.0117493,0.0250244,0.0174713,-9.97986,0.0136566,0.00347137,0.0125504,0.00476837,0.0172806,-0.00343323,0.0174713,0.00843048
33,4,10.0097,0.000305176,0,-2.42898,0.0544603,-0.0762837,0.0529073,0.0740221,-0.0946723,0.144708,-0.126987,-0.0868429,0.00988007,0.0278854,0.0265884,0.0121689,0.0203323,0.0137711,0.0201797,0.0152969,-9.97986,0.0189209,-0.00469208,0.0114441,0.00450134,0.0170898,-0.000648499,0.0138474,0.00556946
33,5,10.0097,0.0012207,-0.000457764,-2.42806,0.0553758,-0.0738423,0.0532125,0.0712755,-0.0946723,0.144403,-0.126682,-0.085317,0.00724792,0.0270081,0.016098,0.0101852,0.019722,0.0094986,0.0223541,0.0155258,-9.97986,0.0157928,-0.00324249,0.013237,0.0044632,0.0194931,0.00221252,0.0165558,0.00484467
33,6,10.0097,0.000305176,-0.000152588,-2.42684,0.0541551,-0.0741475,0.0535176,0.0718859,-0.0928413,0.144403,-0.125461,-0.0850118,0.00717163,0.0246429,0.0168991,0.010376,0.017128,0.0123596,0.0230789,0.0153732,-9.97986,0.0137711,-0.00419617,0.0138092,0.00419617,0.0166702,0.00419617,0.0163651,0.00671387
33,7,10.0097,-0.000305176,0.000152588,-2.42623,0.0553758,-0.075063,0.0532125,0.0712755,-0.0928413,0.146844,-0.125156,-0.0834859,0.01297,0.0264359,0.0147247,0.017395,0.0164032,0.00938416,0.0254822,0.0159073,-9.97986,0.0188446,0.00156403,0.0123978,0.00473022,0.0179291,0.00450134,0.0144196,0.00476837
33,8,10.0097,0,-0.000152588,-2.42562,0.0575121,-0.0753682,0.0535176,0.0724962,-0.0925361,0.146539,-0.125766,-0.0816549,0.0133514,0.0247192,0.0177765,0.013504,0.0188065,0.0112534,0.0215912,0.0128937,-9.97986,0.0141525,-0.00347137,0.00904083,0.00190735,0.0141525,-0.00137329,0.0160217,0.00320435
33,9,10.0097,-0.000305176,-0.000152588,-2.42501,0.0569017,-0.0744527,0.055959,0.072191,-0.0925361,0.145624,-0.12363,-0.0822652,0.00816345,0.0243759,0.0197983,0.012207,0.0196075,0.0128174,0.022049,0.0185013,-9.97986,0.0206375,-0.000991821,0.0101089,0.00183105,0.0211716,0.00148773,0.0153732,0.00705719
34,0,10.0097,-0.000305176,-0.000152588,-2.4247,0.0565965,-0.0741475,0.054128,0.0712755,-0.0931465,0.146234,-0.124546,-0.0810445,0.00991821,0.0252533,0.0108337,0.00957489,0.0156021,0.0063324,0.019455,0.0114822,-9.97986,0.0110245,-0.00450134,0.0154495,0.00816345,0.017662,0.00301361,0.0128937,0.00694275
34,1,9.2809,0.000610352,-0.00183105,-2.42714,0.0553758,-0.0747579,0.0522969,0.0248888,-0.0968086,0.146539,-0.127292,-0.0822652,0.0109863,0.0244522,0.0151062,0.0115967,0.0213242,0.00957489,0.0210571,0.0166321,-9.97986,0.00976563,-0.00400543,0.0147629,0.00537872,0.017128,-0.00102997,0.0163269,0.00736237
34,2,0.498247,0.000610352,-0.00518799,-2.4247,0.0575121,-0.073232,0.054128,-0.00410291,-0.0971137,0.145624,-0.128818,-0.0825704,0.0102234,0.0244522,0.0151443,0.0104904,0.0148392,0.00759125,0.0198364,0.0184631,-9.97986,0.0160217,-0.00408173,0.0142288,0.00202179,0.0161743,0.00137329,0.0153732,0.00522614
34,3,-6.29161,0.000610352,-0.00457764,-2.42501,0.0575121,-0.073232,0.0556539,-0.0135634,-0.0968086,0.146844,-0.130954,-0.0822652,0.0106049,0.0253677,0.0183105,0.0123978,0.0178909,0.0075531,0.0218201,0.0191879,-9.97986,0.0159836,-0.000419617,0.0159836,0.00267029,0.0173187,-0.00160217,0.0117874,0.00720978
34,4,-9.99003,0.00274658,-0.00305176,-2.42501,0.0547655,-0.0738423,0.0565694,0.0102404,-0.0919257,0.146539,-0.128208,-0.0807394,0.00911713,0.021019,0.0202942,0.0131226,0.0188828,0.00984192,0.0216293,0.0139999,-9.97986,0.0164413,-0.00602722,0.0100708,0.00244141,0.0181198,-0.000610352,0.0149155,0.00701904
34,5,-9.99003,0.0012207,-0.00228882,-2.4244,0.0553758,-0.0738423,0.0553487,0.0401476,-0.0903999,0.146844,-0.126987,-0.080129,0.00652313,0.0192261,0.0185394,0.0102234,0.0125885,0.0105667,0.0201797,0.0154114,-9.97986,0.0135422,-0.0038147,0.0134277,0.0062561,-0.00957489,-0.00511169,0.0123596,0.00389099
34,6,-9.99003,0.0012207,-0.000305176,-2.42653,0.055681,-0.0744527,0.0556539,0.0563219,-0.0900947,0.145929,-0.125461,-0.0816549,0.00530243,0.0226593,0.0203705,0.0120163,0.0178528,0.0069046,0.0267792,0.0170898,-9.97986,0.0183487,-0.00648499,0.015564,0.00427246,-0.00270844,-0.00110626,0.0150299,0.00595093
34,7,-9.99003,0.000305176,0.000305176,-2.42592,0.0562914,-0.0744527,0.0547383,0.0706652,-0.0916206,0.145318,-0.12363,-0.0831808,0.0110626,0.0254059,0.0148773,0.0128937,0.014801,0.0115967,0.0248337,0.0164413,-9.97986,0.0104141,-0.00648499,0.0145721,0.00385284,-0.00175476,-0.00213623,0.0146103,0.00507355
34,8,-9.99003,0.0012207,0.00183105,-2.42531,0.0550706,-0.075063,0.0574849,0.123155,-0.0852119,0.145013,-0.122104,-0.0816549,0.00930786,0.0237656,0.015564,0.0105667,0.0128937,0.00850677,0.022049,0.014267,-9.97986,0.0132751,-0.00679016,0.00858307,0.00637054,0.0156784,-0.00679016,0.0159454,0.00762939
34,9,-2.12504,0.00183105,0.00320435,-2.42684,0.0538499,-0.0765889,0.0547383,0.140245,-0.088874,0.146234,-0.122104,-0.0840963,0.00858307,0.019455,0.0172043,0.0148392,0.0213623,0.00606537,0.0247192,0.0200272,-9.97986,0.015564,-0.00492096,0.0156784,0.00858307,0.0214386,-0.00743866,0.0175858,0.00850677
35,0,5.52419,0.000610352,0.00427246,-2.42867,0.0535448,-0.0756734,0.0532125,0.153063,-0.0903999,0.143487,-0.120884,-0.0856222,0.00804901,0.0197601,0.0156403,0.0123215,0.022316,0.00797272,0.0233841,0.0139236,-9.97986,0.0158691,-0.00888824,0.0162125,0.00370026,0.0202179,-0.00953674,0.0167084,0.00919342
35,1,10.0097,0.000610352,0.00488281,-2.42959,0.0541551,-0.0768941,0.0519917,0.13994,-0.0934516,0.141961,-0.122715,-0.0871481,0.0100708,0.0241852,0.0198364,0.0100708,0.0173569,0.00915527,0.0218201,0.0182724,-9.97986,0.0151825,0.00289917,0.0122833,0.00469208,0.0188828,-0.00434875,0.0154495,0.00526428
35,2,10.0097,0.000915527,0.00152588,-2.43111,0.0541551,-0.0762837,0.0501607,0.0938585,-0.0980293,0.143487,-0.125766,-0.0886739,0.0128555,0.0249481,0.0214005,0.0153732,0.0185394,0.0108719,0.0226212,0.0180817,-9.97986,0.0126648,0.00141144,0.0138855,0.0018692,0.0178909,-0.00286102,0.0148392,0.00598907
35,3,10.0097,-0.000610352,0,-2.4302,0.0541551,-0.075063,0.0519917,0.0792101,-0.0974189,0.143487,-0.126682,-0.0877584,0.0127792,0.0239944,0.0198364,0.0157547,0.0136185,0.00701904,0.0209427,0.0167084,-9.97986,0.0126648,-0.0031662,0.0146484,-0.00114441,0.0175095,-0.00156403,0.0161743,0.00640869
35,4,10.0097,0.0012207,0.000152588,-2.42867,0.0550706,-0.0744527,0.0522969,0.0734117,-0.0952827,0.142877,-0.127292,-0.0871481,0.0143433,0.0235748,0.0188065,0.0127029,0.0163269,0.00495911,0.022049,0.0172424,-9.97986,0.0159073,-0.00377655,0.0161362,0.00423431,0.0187683,0.00598907,0.0169373,0.00648499
35,5,10.0097,-0.0012207,0,-2.42867,0.0559862,-0.0744527,0.0522969,0.0724962,-0.0943672,0.144403,-0.125461,-0.0859274,0.0088501,0.0234222,0.0197601,0.0113678,0.0203705,0.0123215,0.0241852,0.0159454,-9.97986,0.0143051,0.00267029,0.0152969,0.00984192,0.018425,0.00221252,0.0170135,0.0063324
35,6,10.0097,-0.000915527,0,-2.42776,0.0544603,-0.0753682,0.0532125,0.072191,-0.094062,0.145624,-0.125766,-0.0847066,0.011673,0.0231552,0.0205994,0.0127029,0.0189972,0.0094223,0.0202179,0.0138092,-9.97986,0.0182343,-0.00171661,0.0150681,0.00293732,0.0185776,0.00778198,0.0131989,0.00488281
35,7,10.0097,0.000610352,0.000305176,-2.42562,0.0553758,-0.075063,0.0538228,0.0728014,-0.0925361,0.144708,-0.127292,-0.0847066,0.00694275,0.0235748,0.0195694,0.012207,0.0185776,0.00911713,0.0229263,0.0192642,-9.97986,0.0180435,0.00137329,0.0127029,0.00175476,0.0133133,0.0133896,0.0196838,0.00453949
35,8,10.0097,0.000610352,0.000152588,-2.42623,0.0562914,-0.0741475,0.0538228,0.0715807,-0.0922309,0.145624,-0.124546,-0.0822652,0.00854492,0.0210953,0.0149536,0.00980377,0.0157547,0.00629425,0.0191879,0.017395,-9.97986,0.0153351,0.00461578,0.0132751,0.00305176,0.0176239,0.00553131,0.0187683,0.00701904
35,9,10.0097,-0.00152588,0.000152588,-2.42592,0.0559862,-0.0735371,0.0553487,0.0712755,-0.0913154,0.145624,-0.124241,-0.0807394,0.0106812,0.0223541,0.0187302,0.0133133,0.0182343,0.0102615,0.0213242,0.0162888,-9.97986,0.0123596,-0.00190735,0.0131989,0.00427246,0.0153732,0.0056839,0.0133133,0.00770569
36,0,10.0097,-0.000915527,0.000152588,-2.4244,0.0553758,-0.0735371,0.0544332,0.0706652,-0.0910102,0.146539,-0.124241,-0.0813497,0.0120163,0.023613,0.0175858,0.0153732,0.0168228,0.00888824,0.0213623,0.0172424,-9.97986,0.018158,0.00171661,0.0125885,0.00240326,0.0144577,0.00324249,0.0139618,0.00537872
36,1,9.4222,0.00244141,-0.00244141,-2.42562,0.0565965,-0.0738423,0.0529073,0.0254991,-0.0971137,0.146539,-0.127903,-0.0834859,0.00774384,0.0214386,0.0223541,0.0120163,0.0182724,0.0104523,0.025444,0.0196457,-9.97986,0.017128,-0.00125885,0.0136185,0.00576019,0.0167847,-0.00259399,0.0153732,0.0050354
36,2,0.72896,0.00213623,-0.00473022,-2.42592,0.0565965,-0.0726216,0.0532125,-0.00471326,-0.0974189,0.146539,-0.129123,-0.0819601,0.00873566,0.0178146,0.0172043,0.0117493,0.0133896,0.0094986,0.0221252,0.0180054,-9.97986,0.0134277,-0.00442505,0.0141144,0.00770569,0.0190353,0.00160217,0.0163651,0.00751495
36,3,-6.15519,-0.000305176,-0.00442505,-2.42592,0.0569017,-0.0738423,0.0535176,-0.0141737,-0.0965034,0.146844,-0.130649,-0.0810445,0.00736237,0.0212479,0.0189972,0.0110626,0.0170517,0.0107193,0.0234985,0.0171661,-9.97986,0.0144958,-0.000724792,0.0151062,0.00587463,0.0219345,-0.000572205,0.0177765,0.00579834
36,4,-9.99003,0.000915527,-0.00350952,-2.42501,0.0562914,-0.073232,0.0556539,0.00963,-0.0916206,0.145929,-0.128818,-0.0804342,0.0113678,0.0208282,0.0179672,0.0104523,0.0125885,0.0111008,0.0188828,0.0191116,-9.97986,0.0111771,-0.00225067,0.0107193,0.00457764,0.0146866,-0.00507355,0.0148392,0.00816345
36,5,-9.99003,0,-0.00198364,-2.42501,0.0553758,-0.0738423,0.055959,0.0398424,-0.090705,0.145929,-0.126682,-0.0819601,0.00907898,0.0209045,0.0181198,0.0135422,0.0194931,0.0114441,0.0223923,0.0201416,-9.97986,0.0175858,-0.00205994,0.0141144,0.00823975,-0.0106812,0.000343323,0.0188446,0.0069809
36,6,-9.99003,-0.000305176,-0.000305176,-2.42592,0.0565965,-0.0738423,0.0550435,0.0572374,-0.0903999,0.146844,-0.126072,-0.0822652,0.0102234,0.0206757,0.0225067,0.0133133,0.0119781,0.010376,0.0223923,0.0169373,-9.97986,0.017395,-0.000648499,0.0191498,0.00724792,-0.00659943,0.00358582,0.0148773,0.00881195
36,7,-9.99003,0.000610352,0.000152588,-2.42653,0.0559862,-0.0747579,0.0547383,0.0697496,-0.090705,0.145013,-0.125156,-0.0831808,0.00972748,0.0225449,0.0193024,0.01194,0.0170135,0.0113678,0.0182343,0.020752,-9.97986,0.0168228,-0.00411987,0.0139618,0.00606537,-0.00263214,0.000572205,0.0146103,0.00675201
36,8,-9.99003,0.000305176,0.00167847,-2.4244,0.0550706,-0.0738423,0.0565694,0.12163,-0.0858222,0.145318,-0.12302,-0.0822652,0.00797272,0.0211334,0.0170898,0.00999451,0.0135803,0.0104904,0.0200653,0.0149918,-9.97986,0.0170135,-0.00164032,0.0178909,0.00602722,0.0209427,-0.00217438,0.0167084,0.0082016
36,9,-2.0811,-0.000305176,0.00350952,-2.42745,0.0538499,-0.0753682,0.0553487,0.142076,-0.0876533,0.145318,-0.12241,-0.0840963,0.0112152,0.0231552,0.014534,0.0112915,0.0150681,0.00999451,0.0209808,0.0172043,-9.97986,0.0114441,-0.000686646,0.0151825,0.00465393,0.0167847,-0.00518799,0.0140762,0.00484467
37,0,5.62215,0.000305176,0.00518799,-2.42806,0.0550706,-0.075063,0.0535176,0.152757,-0.0894843,0.145013,-0.121494,-0.085317,0.012207,0.0223923,0.0194931,0.0144577,0.0169754,0.00957489,0.0183868,0.0205994,-9.97986,0.0142288,-0.00278473,0.0146484,0.00709534,0.0210953,-0.00473022,0.0141144,0.00812531
37,1,10.0097,0.00152588,0.00473022,-2.4305,0.0529344,-0.0768941,0.0510762,0.136888,-0.0937568,0.141656,-0.12302,-0.0868429,0.0114441,0.0226593,0.0164413,0.0106812,0.0148773,0.00846863,0.0214005,0.0164413,-9.97986,0.0174713,-3.8147e-005,0.0141525,0.00537872,0.018425,-0.0056839,0.0149918,0.00576019
37,2,10.0097,0,0.00152588,-2.4302,0.0535448,-0.075063,0.0510762,0.0944689,-0.0974189,0.142877,-0.126377,-0.0874532,0.0114822,0.0241852,0.0162888,0.00907898,0.0172806,0.0120544,0.026207,0.0143814,-9.97986,0.0167847,-0.000495911,0.0165939,0.00743866,0.0177765,-0.00415802,0.0121689,0.00656128
37,3,10.0097,-0.00183105,0.000305176,-2.42959,0.0541551,-0.0756734,0.0513814,0.0795153,-0.095893,0.144708,-0.127292,-0.0865377,0.0127411,0.0246429,0.0170135,0.0113678,0.0159836,0.0117493,0.0209045,0.0208282,-9.97986,0.0172043,-0.001297,0.0125122,0.00270844,0.0148773,-0.00366211,0.0133133,0.00823975
37,4,10.0097,0.000915527,0.000457764,-2.42867,0.0550706,-0.0762837,0.0513814,0.0746324,-0.095893,0.143792,-0.127598,-0.0865377,0.0111771,0.026207,0.0170898,0.0102615,0.0157166,0.00915527,0.0221252,0.0214767,-9.97986,0.0136185,0.000915527,0.0125122,0.00617981,0.0199127,-0.0063324,0.0137329,0.00492096
37,5,10.0097,-0.000610352,-0.000305176,-2.42806,0.0544603,-0.075063,0.0535176,0.0718859,-0.0937568,0.144708,-0.126072,-0.085317,0.0105667,0.0271606,0.0182343,0.0134659,0.0145721,0.0101089,0.0229263,0.0168991,-9.97986,0.0162125,-0.00320435,0.012207,0.0115967,0.0190353,-0.00480652,0.0139618,0.00782013
37,6,10.0097,0.0012207,-0.000305176,-2.42776,0.0547655,-0.0747579,0.0535176,0.0712755,-0.0949775,0.144708,-0.125766,-0.0844015,0.0108337,0.0266647,0.0198364,0.0107574,0.0160599,0.0148392,0.021019,0.0154495,-9.97986,0.0164032,-0.00293732,0.0183868,0.00530243,0.0164032,-0.00148773,0.0141525,0.00522614
37,7,10.0097,-0.000305176,0.000610352,-2.42623,0.0544603,-0.075063,0.0535176,0.07036,-0.0931465,0.145318,-0.125766,-0.0834859,0.0128937,0.0249481,0.0193787,0.0123215,0.0133133,0.00785828,0.0214005,0.0157928,-9.97986,0.0120544,-0.00156403,0.0123978,0.00801086,0.0183105,-0.00385284,0.0146103,0.00644684
37,8,10.0097,0.00183105,0.000457764,-2.42562,0.0559862,-0.0738423,0.0547383,0.0715807,-0.0919257,0.145929,-0.12363,-0.0825704,0.00926971,0.0206375,0.0201416,0.0102997,0.0180054,0.00724792,0.0222015,0.0202179,-9.97986,0.0168991,0.00389099,0.017662,0.00911713,0.0199127,-0.00411987,0.0160217,0.00518799
37,9,10.0097,0.00183105,0.000305176,-2.42562,0.0565965,-0.0741475,0.0547383,0.072191,-0.0931465,0.146234,-0.125156,-0.0816549,0.0104904,0.0256729,0.0177002,0.0104523,0.0162125,0.00946045,0.0258636,0.017128,-9.97986,0.0131989,-0.00366211,0.0138092,0.00614166,0.0210953,-0.00247955,0.0157547,0.00869751
38,0,10.0097,-0.0012207,0.000152588,-2.4244,0.0562914,-0.0738423,0.054128,0.0706652,-0.0919257,0.145929,-0.124241,-0.0819601,0.0101471,0.0247955,0.0178528,0.0121689,0.0177765,0.0122452,0.0230026,0.0181198,-9.97986,0.0112915,7.62939e-005,0.0113297,0.0025177,0.018959,-0.00457764,0.0154495,0.00743866
38,1,9.38405,0.000305176,-0.00213623,-2.42714,0.0559862,-0.0747579,0.0519917,0.0264147,-0.095893,0.145929,-0.127292,-0.0828756,0.00743866,0.0239944,0.0172806,0.00873566,0.0136185,0.010376,0.0251007,0.0182724,-9.97986,0.0139999,-0.00144958,0.0124741,0.0069046,0.0191116,-0.00526428,0.0168228,0.00705719
38,2,0.628863,0.000610352,-0.00488281,-2.4244,0.0565965,-0.0741475,0.0538228,-0.00532361,-0.0977241,0.146844,-0.127598,-0.0825704,0.0101089,0.0202179,0.0195313,0.010376,0.0159454,0.00858307,0.0213242,0.0190353,-9.97986,0.0165558,-0.000267029,0.0119781,0.00640869,0.0182724,-0.00644684,0.0160599,0.00610352
38,3,-6.22416,0.000610352,-0.00488281,-2.42653,0.0559862,-0.0735371,0.054128,-0.0150892,-0.0971137,0.147149,-0.128818,-0.0819601,0.0132751,0.0237274,0.0217438,0.0101852,0.0185394,0.00900269,0.0221634,0.0185776,-9.97986,0.017662,-0.00106812,0.0116348,0.00801086,0.0198364,-0.00595093,0.0163651,0.00675201
38,4,-9.99003,0.00244141,-0.00335693,-2.4247,0.0562914,-0.0744527,0.0556539,0.00932483,-0.0922309,0.147455,-0.127598,-0.0792135,0.010643,0.0245285,0.0206375,0.0144958,0.0191116,0.010376,0.0268555,0.0214005,-9.97986,0.0156784,0.0018692,0.0162888,0.00591278,0.0180054,-0.00411987,0.0171661,0.00591278
38,5,-9.99003,0.0012207,-0.00228882,-2.4247,0.0559862,-0.075063,0.0562642,0.0383165,-0.0900947,0.145929,-0.127598,-0.0819601,0.0123978,0.022049,0.0181961,0.0111389,0.0172806,0.00961304,0.0192642,0.0147247,-9.97986,0.0161362,-0.00156403,0.0155258,0.00431061,-0.00366211,-0.00965118,0.0164413,0.00465393
38,6,-9.99003,0,-0.000305176,-2.42501,0.0553758,-0.0747579,0.0556539,0.0572374,-0.0919257,0.145624,-0.126072,-0.0825704,0.0159454,0.0221634,0.0204468,0.0111389,0.0203323,0.0127792,0.0245285,0.014801,-9.97986,0.0157547,-0.000724792,0.0143433,0.00862122,-0.00545502,-0.00740051,0.0165558,0.00663757
38,7,-9.99003,0.00183105,-0.000305176,-2.42623,0.0565965,-0.0744527,0.0550435,0.0724962,-0.090705,0.146539,-0.124241,-0.0825704,0.00984192,0.0223923,0.0154114,0.0138855,0.0165558,0.0123215,0.0276947,0.018692,-9.97986,0.0173187,-0.00343323,0.0128937,0.00808716,0.00801086,-0.00915527,0.0139999,0.00671387
38,8,-9.99003,0.00152588,0.00106812,-2.42531,0.0547655,-0.0741475,0.0562642,0.120714,-0.0858222,0.145013,-0.122715,-0.0813497,0.0121307,0.0187302,0.0198364,0.010643,0.0170135,0.0112152,0.0226212,0.024147,-9.97986,0.0157547,-0.00263214,0.0123596,0.00846863,0.0159454,-0.00499725,0.015831,0.00305176
38,9,-2.15556,0.00152588,0.00320435,-2.42684,0.0520189,-0.0762837,0.0547383,0.143297,-0.088874,0.143792,-0.12302,-0.0834859,0.0102615,0.0168228,0.0179672,0.0101852,0.0143051,0.0108719,0.0194168,0.0212097,-9.97986,0.0154877,-0.00102997,0.0131989,0.00125885,0.0196457,-0.00595093,0.0167084,0.00453949
39,0,5.60597,0.000610352,0.0050354,-2.42837,0.0535448,-0.0756734,0.0529073,0.153673,-0.0894843,0.144098,-0.121494,-0.085317,0.01091,0.0210953,0.0206757,0.00873566,0.0162125,0.0101471,0.02388,0.0181198,-9.97986,0.0162506,0.000648499,0.018692,0.00770569,0.017128,-0.000228882,0.0164795,0.00610352
39,1,10.0097,-0.0012207,0.00457764,-2.42928,0.0529344,-0.0753682,0.0513814,0.138719,-0.0934516,0.143487,-0.12302,-0.0865377,0.0127411,0.0227356,0.0209427,0.0105667,0.0165939,0.0102234,0.0189209,0.0167084,-9.97986,0.0155258,0.0056839,0.0141144,0.00892639,0.0184631,0.000648499,0.0140381,0.0069809
39,2,10.0097,-0.000610352,0.000915527,-2.4302,0.0541551,-0.0762837,0.050771,0.0941637,-0.0971137,0.141961,-0.125766,-0.0883688,0.00961304,0.0244141,0.0186539,0.00782013,0.0186539,0.0108719,0.0234985,0.0181961,-9.97986,0.0123596,0.00583649,0.0139618,0.00812531,0.0188446,-0.00148773,0.0153351,0.00541687
39,3,10.0097,0.00213623,0.000305176,-2.42959,0.0529344,-0.0753682,0.0510762,0.0792101,-0.0949775,0.142877,-0.126682,-0.0877584,0.00850677,0.0246811,0.0159454,0.0136185,0.0188065,0.0173569,0.0218201,0.0201416,-9.97986,0.017128,0.00362396,0.0160599,0.00881195,0.0197983,-0.000152588,0.0173569,0.00263214
39,4,10.0097,0.00213623,0.000152588,-2.42867,0.0541551,-0.0765889,0.0513814,0.0743273,-0.0952827,0.145013,-0.126682,-0.0862325,0.0087738,0.0215912,0.0182343,0.00801086,0.0171661,0.0155258,0.0239944,0.0150299,-9.97986,0.0170135,-0.00236511,0.015831,0.00911713,0.0192261,-0.00541687,0.0147629,0.00404358
39,5,10.0097,0,0.000305176,-2.42776,0.0550706,-0.0756734,0.0532125,0.0706652,-0.0946723,0.145318,-0.126377,-0.0859274,0.00999451,0.0244904,0.0150299,0.0101089,0.015564,0.00789642,0.0232697,0.0185013,-9.97986,0.014801,-0.000495911,0.0142288,0.00644684,0.0168991,0.0038147,0.0175858,0.00724792
39,6,10.0097,-0.000305176,0,-2.42684,0.0550706,-0.0756734,0.0529073,0.0697496,-0.0943672,0.143182,-0.125461,-0.0844015,0.0100327,0.0203323,0.015831,0.00946045,0.0140381,0.0101471,0.0206757,0.0185776,-9.97986,0.0181198,0.00289917,0.0161362,0.00984192,0.0184631,-0.00469208,0.0165939,0.0044632
39,7,10.0097,-0.000915527,0.000610352,-2.42653,0.0565965,-0.0744527,0.054128,0.07036,-0.0937568,0.144708,-0.125461,-0.0840963,0.00804901,0.0282288,0.0170898,0.0107574,0.0157547,0.0112152,0.0196075,0.0163269,-9.97986,0.0150681,-0.00286102,0.0106049,0.0101089,0.0188446,0.00114441,0.0140381,0.00499725
39,8,10.0097,-0.000305176,0.000610352,-2.42562,0.0562914,-0.075063,0.0556539,0.0712755,-0.0916206,0.145929,-0.124241,-0.0822652,0.00663757,0.0232697,0.0215912,0.00858307,0.0136566,0.0105667,0.0217819,0.0172806,-9.97986,0.0136566,0.00339508,0.0165939,0.00934601,0.0178909,0.000686646,0.0164032,0.0069046
39,9,10.0097,0,0,-2.4247,0.0572069,-0.0738423,0.0529073,0.072191,-0.0913154,0.146234,-0.124546,-0.0816549,0.0104523,0.0252151,0.0248337,0.0112152,0.0203323,0.0171661,0.0233078,0.0180054,-9.97986,0.0170517,0.000762939,0.0167084,0.00892639,0.0197983,-0.0012207,0.0128174,0.00415802
40,0,10.0097,0.000915527,-0.000305176,-2.42562,0.0559862,-0.073232,0.0547383,0.0715807,-0.0928413,0.147455,-0.123935,-0.0813497,0.0134659,0.0286102,0.018425,0.01194,0.0141907,0.00865936,0.02285,0.0208664,-9.97986,0.0172043,0.00324249,0.0119781,0.00350952,0.0175476,-0.00164032,0.0149536,0.00713348
40,1,9.35079,-0.000610352,-0.00274658,-2.42592,0.055681,-0.075063,0.0529073,0.0264147,-0.0968086,0.144708,-0.126987,-0.0822652,0.0117874,0.0267792,0.0202942,0.0127792,0.0167084,0.01194,0.0285721,0.0174332,-9.97986,0.0195313,-0.00175476,0.0144196,0.00450134,0.0189972,-0.00549316,0.0147247,0.00694275
40,2,0.736285,-0.0012207,-0.0050354,-2.42592,0.0569017,-0.0735371,0.0532125,-0.00471326,-0.0971137,0.146539,-0.129123,-0.0822652,0.0109482,0.0258255,0.019722,0.0130463,0.015831,0.0130844,0.0257111,0.013237,-9.97986,0.0162888,0.00118256,0.0154877,0.00648499,0.0189972,-0.00717163,0.0160217,0.00286102
40,3,-6.10911,0.000610352,-0.00442505,-2.42531,0.0575121,-0.0735371,0.0532125,-0.012953,-0.0968086,0.147149,-0.129429,-0.0825704,0.0100708,0.0175476,0.0194168,0.013237,0.0188446,0.0120926,0.0239563,0.0172806,-9.97986,0.0184631,0.0012207,0.0111771,0.00953674,0.0139236,-0.00133514,0.0147629,0.00701904
40,4,-9.99003,0.00152588,-0.00335693,-2.4247,0.055681,-0.0738423,0.0547383,0.0102404,-0.0922309,0.14776,-0.128513,-0.0813497,0.0102615,0.0181198,0.0215912,0.0157928,0.0197601,0.0159836,0.0228119,0.0218201,-9.97986,0.0149155,0.00255585,0.0138474,0.00907898,0.0187302,-0.00274658,0.0149918,0.00720978
40,5,-9.99003,0.00183105,-0.00198364,-2.4247,0.055681,-0.0738423,0.055959,0.0389269,-0.0910102,0.146539,-0.126987,-0.080129,0.0112915,0.0180054,0.0183868,0.0104523,0.0199509,0.0100708,0.0222015,0.0180054,-9.97986,0.016861,0.00167847,0.0118637,0.00762939,-0.00854492,0.00102997,0.0149918,0.00679016
40,6,-9.99003,0.0012207,-0.000305176,-2.42623,0.0553758,-0.0741475,0.054128,0.0563219,-0.090705,0.145929,-0.125766,-0.0822652,0.00324249,0.0164795,0.018692,0.0130463,0.0175858,0.0147247,0.0242996,0.0170517,-9.97986,0.0137329,0.00339508,0.0134277,0.00980377,-0.00904083,-0.00217438,0.0171661,0.00682831
