
Devices
1200
,,BP Load cell - Voltage,String Length - Voltage,Clutch Active - Voltage,#7 iPecs - Voltage,,,,,,,,,EMG 1-8 Left - Voltage,,,,,,,,Pylon Force - Voltage,EMG 9-16 Right - Voltage,,,,,,,,
Frame,Sub Frame,BP Load Cell,String Length,From Arduino Logic,A45,A135,A225,A315,S0,S90,S180,S270,ZSum,EMG 1 Glut Max,EMG 2 Glut Med,EMG 3 Biceps Femoris Long,EMG 4 Rectus Femoris,EMG 5 Vastus Medialis,EMG 6 Tib Ant,EMG 7 Med Gas,EMG 8 Soleus,Pylon volts,EMG 9 Glut Max,EMG 10 Glut Med,EMG 11 Biceps Femoris Long,EMG 12 Rectus Femoris,EMG 13 Vastus Medialis,EMG 14 Tib Ant,EMG 15 Med Gas,EMG 16 Soleus
,,V,V,V,V,V,V,V,V,V,V,V,V,V,V,V,V,V,V,V,V,V,V,V,V,V,V,V,V,V
1,0,10.0097,-0.000915527,0.000762939,-2.42531,0.0565965,-0.0744527,0.0550435,0.072191,-0.0916206,0.145318,-0.124851,-0.0819601,-0.00259399,0.029068,0.0191498,0.0101471,0.0331116,0.0456619,0.0499344,0.0115967,-9.97986,0.0123596,-0.00766754,-0.0334167,-0.10643,0.0143814,-0.0239563,-0.0405121,0.0188828
1,1,10.0097,0.0012207,0,-2.42531,0.055681,-0.0747579,0.0556539,0.0715807,-0.0919257,0.147149,-0.124851,-0.0810445,0.0208282,0.0297165,0.0185013,0.0123215,0.0310898,0.0500488,0.0512695,0.013504,-9.97986,0.0307846,-0.00766754,-0.0275421,-0.1091,0.01194,-0.02388,-0.042038,0.0163651
1,2,10.0097,0.00152588,-0.000762939,-2.42501,0.0553758,-0.0741475,0.0544332,0.0728014,-0.0922309,0.143792,-0.124241,-0.0807394,0.0419235,0.0318146,0.0183868,0.0120926,0.0287247,0.0537491,0.0537109,0.0141144,-9.97986,0.0638199,-0.00293732,-0.0272369,-0.10601,0.0147629,-0.0244141,-0.0380325,0.0269318
1,3,10.0097,0.000610352,0.0012207,-2.4244,0.0559862,-0.0738423,0.0544332,0.0724962,-0.0916206,0.14776,-0.12363,-0.0810445,0.0432587,0.0272751,0.0172424,0.0115967,0.0273514,0.0610733,0.0562668,0.00850677,-9.97986,0.0798035,-0.0075531,-0.0258636,-0.10498,0.0137329,-0.028801,-0.0364304,0.0341797
1,4,10.0097,-0.000915527,0.000762939,-2.42623,0.0565965,-0.0686543,0.0544332,0.0544908,-0.0946723,0.146234,-0.125461,-0.0822652,0.0452805,0.0322342,0.0160599,0.0094223,0.0251389,0.0634384,0.0595093,0.00919342,-9.97986,0.0669098,-0.00267029,-0.0304413,-0.104179,0.0159836,-0.028038,-0.0313568,0.044136
1,5,9.60286,0.00152588,-0.00167847,-2.42592,0.0550706,-0.0735371,0.0544332,0.04442,-0.0949775,0.146234,-0.126072,-0.0819601,0.0467682,0.0348282,0.0160599,0.0122833,0.021553,0.0664139,0.0568771,0.00934601,-9.97986,0.0432205,-0.00457764,-0.0238419,-0.102997,0.0128174,-0.0382996,-0.0333023,0.0479126
1,6,8.308,0.000610352,-0.00152588,-2.42623,0.0550706,-0.073232,0.0553487,0.0532701,-0.0931465,0.146844,-0.126072,-0.0816549,0.0415039,0.027504,0.0175476,0.0123215,0.0263214,0.0699615,0.0557709,0.0191116,-9.97986,0.0355148,0.000953674,-0.0154877,-0.100632,0.0155258,-0.0442886,-0.0311661,0.0510025
1,7,7.84139,0.000305176,-0.000152588,-2.42745,0.0559862,-0.0768941,0.054128,0.0621202,-0.0928413,0.145013,-0.126377,-0.0819601,0.0282669,0.0313568,0.0191879,0.0130463,0.0241852,0.0636673,0.0556946,0.0144958,-9.97986,0.027504,0.000915527,-0.0117111,-0.0965881,0.0197601,-0.0541306,-0.0287628,0.0609589
1,8,7.95583,0,-0.000152588,-2.42714,0.0565965,-0.0744527,0.054128,0.0691393,-0.0919257,0.143792,-0.125461,-0.0831808,-0.0106812,0.0284576,0.0166321,0.00984192,0.0204086,0.069809,0.0559616,0.0149918,-9.97986,0.0244141,-0.00354767,-0.0148773,-0.0962067,0.0115967,-0.0553894,-0.0247192,0.06073
1,9,9.28914,0.000610352,0.00106812,-2.42592,0.0550706,-0.0762837,0.0556539,0.0932482,-0.0891792,0.145013,-0.123325,-0.0831808,-0.030098,0.0333786,0.020256,0.0167084,0.0222397,0.072403,0.059433,0.00530243,-9.97986,0.0239944,-0.00370026,-0.00717163,-0.0906754,0.0139618,-0.056839,-0.0175095,0.0665665
2,0,10.0097,0.000305176,0.00198364,-2.42867,0.0532396,-0.0793355,0.0535176,0.0975206,-0.0937568,0.144098,-0.125156,-0.0862325,-0.0304413,0.0315857,0.0199509,0.0143433,0.0196075,0.0699997,0.06073,0.00434875,-9.97986,0.0128174,-0.000495911,-0.00526428,-0.0909805,0.0148392,-0.0600433,-0.0151825,0.0725937
2,1,10.0097,0.0012207,0.000915527,-2.42989,0.0538499,-0.0768941,0.0519917,0.0789049,-0.0961982,0.150201,-0.126987,-0.0877584,-0.00679016,0.0313568,0.02491,0.00793457,0.018959,0.069313,0.0610352,0.0143814,-9.97986,0.00831604,-0.00087738,-0.00461578,-0.0909805,0.00892639,-0.0545502,-0.00743866,0.0793076
2,2,10.0097,0.000610352,-0.000762939,-2.42959,0.0535448,-0.0762837,0.0519917,0.0724962,-0.0943672,0.143792,-0.126682,-0.0874532,0.016098,0.0305557,0.0209427,0.00865936,0.0152588,0.0682449,0.062027,0.0159073,-9.97986,-0.00164032,-0.00476837,3.8147e-005,-0.0893021,0.0131989,-0.054245,-0.0112152,0.0829315
2,3,10.0097,0.000610352,-0.000457764,-2.4302,0.0532396,-0.0778096,0.050771,0.07036,-0.0937568,0.142572,-0.128208,-0.0877584,0.00770569,0.0307083,0.0201035,0.0123215,0.0152969,0.0675964,0.063858,0.0215149,-9.97986,0.00629425,-0.00732422,-0.00442505,-0.0902176,0.011673,-0.0517273,-0.00896454,0.0893784
2,4,10.0097,0.0012207,-0.000457764,-2.42837,0.0535448,-0.0759786,0.0526021,0.0697496,-0.0949775,0.144708,-0.127598,-0.0877584,0.00293732,0.0287247,0.021286,0.00976563,0.0108719,0.0600052,0.064888,0.0151062,-9.97986,0.0148773,-0.00312805,0.00457764,-0.0891113,0.00614166,-0.0511932,-0.00823975,0.0893784
2,5,10.0097,0.000610352,-0.000610352,-2.42959,0.0550706,-0.0759786,0.0522969,0.07036,-0.0943672,0.143792,-0.127903,-0.0871481,0.0262451,0.0278473,0.0215149,0.0111771,0.0153351,0.0601578,0.0595474,0.0177765,-9.97986,0.0198364,-0.00286102,0.00720978,-0.0886154,0.00953674,-0.0483704,-0.00717163,0.0896454
2,6,10.0097,-0.000610352,-0.000152588,-2.42837,0.0550706,-0.0714009,0.0529073,0.0694445,-0.094062,0.144098,-0.127292,-0.0862325,0.0322723,0.0284195,0.0210953,0.0130463,0.0137329,0.0557709,0.0560379,0.0164032,-9.97986,0.0145721,-0.00526428,0.00427246,-0.089035,0.0056839,-0.0522232,-0.00286102,0.0922775
2,7,10.0097,0.00183105,-0.000152588,-2.42714,0.0553758,-0.0738423,0.0538228,0.0694445,-0.0934516,0.142877,-0.127292,-0.0844015,0.0270081,0.0233841,0.0214386,0.0110245,0.0115585,0.0492096,0.0537872,0.0184631,-9.97986,0.00839233,0.000419617,0.000686646,-0.0867462,0.00160217,-0.0587463,-0.0038147,0.0934982
2,8,10.0097,-0.000915527,-0.000610352,-2.42714,0.0550706,-0.0753682,0.0532125,0.0694445,-0.094062,0.144098,-0.125766,-0.0850118,0.0227356,0.0310135,0.0263596,0.0152206,0.014267,0.0497818,0.0462723,0.0220108,-9.97986,0.0121689,-0.00389099,0.00434875,-0.0838852,-0.000724792,-0.0538254,0.000305176,0.0936508
2,9,10.0097,0,0,-2.42684,0.055681,-0.0723164,0.0547383,0.07036,-0.0934516,0.147149,-0.124546,-0.0837911,-0.0205994,0.0269699,0.0197601,0.00919342,0.00556946,0.0438309,0.0419998,0.0104523,-9.97986,0.0234604,-0.00434875,0.00553131,-0.0832367,-0.00289917,-0.0613022,-0.00152588,0.088501
3,0,10.0097,-0.000610352,0.000152588,-2.4247,0.055681,-0.0744527,0.0544332,0.0709703,-0.0925361,0.14013,-0.124851,-0.0819601,-0.0265121,0.0329971,0.0232697,0.0132751,0.00961304,0.0516129,0.0419235,0.00984192,-9.97986,0.0218582,0.00221252,0.00221252,-0.083313,-0.00217438,-0.0611496,-0.00331879,0.0888443
3,1,10.0097,0.0012207,-0.000152588,-2.42562,0.0575121,-0.073232,0.054128,0.0718859,-0.0919257,0.147455,-0.124546,-0.0822652,0.0229645,0.0291824,0.0175095,0.0129318,0.00537872,0.0458527,0.0366974,0.0105286,-9.97986,0.0143814,-0.0025177,0.00602722,-0.0786591,-0.00858307,-0.0662231,-0.000572205,0.08564
3,2,10.0097,0.000305176,0.000457764,-2.42501,0.0559862,-0.0778096,0.055959,0.072191,-0.0916206,0.147149,-0.123935,-0.0816549,0.0312424,0.0312042,0.0205231,0.0111771,0.00583649,0.042572,0.0367737,0.00999451,-9.97986,-0.0050354,-0.00492096,0.00419617,-0.0802612,-0.00812531,-0.0735474,-0.0025177,0.085144
3,3,10.0097,0.000915527,0,-2.42562,0.0562914,-0.0726216,0.0547383,0.0709703,-0.0903999,0.14776,-0.12363,-0.0804342,0.0315094,0.0267029,0.0186539,0.0116348,0.00152588,0.0415039,0.032959,0.0157928,-9.97986,-0.0127411,-0.00106812,0.00156403,-0.0823593,-0.00816345,-0.0731659,-0.00205994,0.0846481
3,4,10.0097,0.000915527,0.00198364,-2.42592,0.0553758,-0.0747579,0.0544332,0.0544908,-0.0934516,0.146234,-0.126072,-0.0810445,0.0501251,0.0231934,0.0227737,0.0136566,0.00705719,0.038681,0.0339508,0.0179291,-9.97986,-0.000190735,0.00205994,0.0031662,-0.0750351,-0.00659943,-0.0772858,-0.001297,0.0857162
3,5,9.62697,0.000305176,-0.0012207,-2.42592,0.055681,-0.0729268,0.0544332,0.04442,-0.0925361,0.145318,-0.126072,-0.0819601,0.0481796,0.0187302,0.0185394,0.0087738,0.000343323,0.0302505,0.029068,0.0162506,-9.97986,0.00331879,0.000495911,-0.00396729,-0.0772858,-0.00911713,-0.084343,-0.0050354,0.084343
3,6,8.27535,0.000305176,-0.000762939,-2.42684,0.0572069,-0.0741475,0.054128,0.0526598,-0.0922309,0.146234,-0.126072,-0.0813497,0.0384903,0.022316,0.0135803,0.0108337,0.000190735,0.0262833,0.0326157,0.0182343,-9.97986,0.0185776,0.000915527,0.000114441,-0.0746155,-0.0125885,-0.0774384,-0.00778198,0.0826263
3,7,7.85634,0.000915527,-0.000152588,-2.42684,0.055681,-0.0738423,0.0550435,0.0618151,-0.0922309,0.145013,-0.126072,-0.0825704,0.0159454,0.0172806,0.0142288,0.00930786,0.00453949,0.0187302,0.0325394,0.0180435,-9.97986,0.0217056,-0.000762939,-0.00480652,-0.0648117,-0.013504,-0.0720215,-0.00976563,0.0810242
3,8,8.02114,0.00152588,0.000305176,-2.42684,0.055681,-0.0790303,0.0538228,0.0700548,-0.0922309,0.145013,-0.124851,-0.0828756,0.00171661,0.0140762,0.0150299,0.00850677,0.00671387,0.0170898,0.0365067,0.0181961,-9.97986,0.0114441,0.00209808,0.00350952,-0.062294,-0.00911713,-0.0640869,-0.0107574,0.0807953
3,9,9.3694,0.00152588,0.0012207,-2.42653,0.0547655,-0.0741475,0.055959,0.0938585,-0.0894843,0.145318,-0.124546,-0.0828756,-0.0108719,0.0140762,0.00934601,0.00846863,0.00240326,0.0119781,0.0400162,0.0169754,-9.97986,0.0126266,0.00198364,0.0030899,-0.0589371,-0.0155258,-0.0620651,-0.0164032,0.0752258
4,0,10.0097,0.00152588,0.00198364,-2.42928,0.0550706,-0.0765889,0.0544332,0.0969103,-0.0925361,0.142877,-0.125766,-0.0856222,-0.0149536,0.0143433,0.011673,0.00801086,0.00675201,0.00038147,0.042572,0.0179291,-9.97986,0.00839233,-0.0056076,0.00370026,-0.0574875,-0.0112915,-0.0616837,-0.0182724,0.0746536
4,1,10.0097,0.000915527,0.000152588,-2.42928,0.0538499,-0.07842,0.0522969,0.0782946,-0.095893,0.143182,-0.128208,-0.0868429,-0.0168991,0.018959,0.0174713,0.0075531,0.00827789,-0.00988007,0.0352097,0.0149918,-9.97986,-0.00957489,-0.00114441,0.00610352,-0.0530243,-0.0127029,-0.0663376,-0.0216675,0.062294
4,2,10.0097,-0.000610352,0.000762939,-2.42928,0.0547655,-0.0759786,0.0522969,0.0718859,-0.095893,0.145929,-0.128208,-0.0877584,-0.0287628,0.014801,0.0132751,0.00545502,0.00576019,-0.00305176,0.0255585,0.0101852,-9.97986,-0.0134659,0.000991821,0.00465393,-0.0539398,-0.0117874,-0.0689316,-0.0289536,0.0546646
4,3,10.0097,0.00183105,-0.00106812,-2.42959,0.0526292,-0.0759786,0.0513814,0.0688341,-0.0952827,0.143182,-0.128818,-0.0859274,-0.0297165,0.0139618,0.0185776,0.00640869,0.00843048,0.00114441,0.0248337,0.0152588,-9.97986,-0.0101089,-7.62939e-005,0.0104141,-0.0502396,-0.0109482,-0.0693893,-0.0332642,0.0565338
4,4,10.0097,-0.0012207,-0.000610352,-2.43172,0.0535448,-0.073232,0.0510762,0.0712755,-0.0961982,0.143792,-0.127598,-0.0874532,-0.0263596,0.0114059,0.0106049,0.00839233,0.0111008,0.0019455,0.0183868,0.0165939,-9.97986,0.0025177,-0.00774384,0.00713348,-0.0533295,-0.016098,-0.0770569,-0.0362396,0.0585938
4,5,10.0097,-0.000610352,0.000762939,-2.42928,0.0532396,-0.0759786,0.0526021,0.0700548,-0.0931465,0.145013,-0.127292,-0.0859274,-0.0172043,0.0156403,0.0120926,0.010376,0.00907898,0.00518799,0.0139618,0.0156784,-9.97986,0.0196075,-0.000114441,0.0131226,-0.0429535,-0.0162125,-0.0812912,-0.0352478,0.062294
4,6,10.0097,0.000915527,-0.000152588,-2.42684,0.0547655,-0.0753682,0.0532125,0.0697496,-0.0946723,0.142877,-0.127292,-0.0859274,0.0135803,0.0153351,0.0123978,0.00652313,0.00831604,0.00228882,0.0196075,0.0157547,-9.97986,0.0196838,-0.00431061,0.0139999,-0.0402451,-0.0124741,-0.0807953,-0.0391388,0.0588608
4,7,10.0097,0.000915527,0.00106812,-2.4247,0.0550706,-0.0778096,0.0538228,0.0706652,-0.0943672,0.144403,-0.126377,-0.0834859,0.0543213,0.0122452,0.0136948,0.00770569,0.00843048,0.00919342,0.0251007,0.010643,-9.97986,0.0288391,-0.00457764,0.0163269,-0.0338364,-0.0138855,-0.078392,-0.0435638,0.0568008
4,8,10.0097,0.00152588,0.000305176,-2.42806,0.0547655,-0.0744527,0.0535176,0.0691393,-0.0922309,0.141961,-0.125461,-0.0840963,0.100021,0.0125122,0.0175858,0.00850677,0.00434875,0.00839233,0.0270462,0.0144196,-9.97986,0.0276184,-0.00267029,0.0146484,-0.0242233,-0.010376,-0.0704193,-0.0447845,0.056572
4,9,10.0097,-0.000305176,0.000915527,-2.42653,0.0559862,-0.0744527,0.0538228,0.07036,-0.0925361,0.145318,-0.125156,-0.085317,0.100021,0.0206375,0.0174332,0.00926971,0.00354767,0.0162888,0.0185394,0.0173187,-9.97986,0.00675201,-0.00400543,0.0175095,-0.0168228,-0.00972748,-0.0659943,-0.0445175,0.0590515
5,0,10.0097,0.0012207,0.00106812,-2.42348,0.0553758,-0.0744527,0.0556539,0.0685289,-0.0931465,0.146539,-0.123935,-0.0816549,0.0719452,0.0185776,0.0184631,0.00896454,0.00217438,0.0128937,0.0204086,0.017662,-9.97986,-0.0170898,-0.00370026,0.025177,-0.0117111,-0.00541687,-0.0576019,-0.0470734,0.051384
5,1,10.0097,0,0.00106812,-2.42501,0.0559862,-0.0741475,0.055959,0.0666979,-0.0928413,0.147455,-0.124546,-0.0804342,0.0373077,0.0156403,0.0177383,0.00980377,0.00549316,0.0177765,0.0181961,0.0163651,-9.97986,-0.0293732,-0.00331879,0.0252533,0.00038147,-0.00682831,-0.0610352,-0.0500107,0.0449753
5,2,10.0097,0.000305176,0.000457764,-2.42623,0.0569017,-0.0738423,0.0547383,0.07036,-0.0913154,0.146539,-0.124546,-0.0816549,0.00305176,0.0181961,0.0210953,0.0108719,0.00267029,0.0104523,0.0152588,0.0189972,-9.97986,-0.0300217,-0.00530243,0.0201035,0.00610352,-0.00205994,-0.0649261,-0.0496674,0.0396347
5,3,10.0097,-0.000305176,0.0012207,-2.42623,0.055681,-0.0744527,0.0562642,0.0718859,-0.0903999,0.146234,-0.12363,-0.080129,-0.00286102,0.0198364,0.0181198,0.0131226,0.00591278,0.00934601,0.0187683,0.0144196,-9.97986,-0.00114441,-0.00328064,0.0284195,0.0136185,-0.00324249,-0.059967,-0.0485992,0.033989
5,4,10.0097,-0.000305176,0.000762939,-2.42776,0.0562914,-0.0741475,0.0535176,0.052965,-0.0943672,0.146539,-0.125156,-0.0819601,0.00255585,0.0201797,0.0206757,0.0125504,0.00648499,0.00961304,0.0164413,0.0174713,-9.97986,0.0416183,-0.00545502,0.0356674,0.0249481,0.00171661,-0.0579071,-0.0529099,0.0324631
5,5,9.40022,0,-0.000457764,-2.42501,0.0572069,-0.0738423,0.054128,0.0450304,-0.094062,0.145929,-0.125461,-0.0813497,-0.00999451,0.0200272,0.019455,0.0136185,0.00541687,0.00106812,0.0149536,0.0102234,-9.97986,0.069809,-0.0031662,0.0466919,0.036087,0.00793457,-0.0666046,-0.0461578,0.0240326
5,6,8.08827,0.00152588,-0.000305176,-2.42806,0.0559862,-0.0738423,0.0550435,0.052965,-0.0928413,0.145318,-0.125461,-0.0825704,-0.0257492,0.0247955,0.0220108,0.0137711,0.00473022,-0.00133514,0.0144577,0.0043869,-9.97986,0.0960159,-0.00259399,0.0509644,0.0400925,0.010643,-0.0718689,-0.0460434,0.0187683
5,7,7.5768,0.00183105,0.000305176,-2.42592,0.0547655,-0.075063,0.0553487,0.0679186,-0.0928413,0.146539,-0.125766,-0.0825704,0.0128174,0.0214767,0.0233841,0.0143051,0.000991821,-0.0056076,0.0156021,0.0110245,-9.97986,0.116234,-0.0037384,0.0529099,0.0452042,0.0152588,-0.0688934,-0.0430679,0.0127029
5,8,7.73671,-0.000305176,0.000915527,-2.42714,0.0550706,-0.0741475,0.0535176,0.0697496,-0.0913154,0.145013,-0.125461,-0.0825704,0.0556946,0.0207901,0.0215912,0.0114441,0.000991821,-0.0143814,0.017395,0.0157166,-9.97986,0.125732,-0.00320435,0.0544357,0.050621,0.0128174,-0.0643158,-0.0423431,0.00663757
5,9,9.04622,0.000610352,0.0012207,-2.42776,0.0550706,-0.0753682,0.0538228,0.0843981,-0.0919257,0.145013,-0.125461,-0.0847066,0.0707626,0.0189972,0.0229263,0.00915527,0.00305176,-0.00816345,0.0128937,0.0168228,-9.97986,0.11013,-0.00331879,0.0548935,0.0554657,0.0180435,-0.0571823,-0.0431061,0.00205994
6,0,10.0097,0.00213623,0.00289917,-2.42837,0.0541551,-0.0759786,0.0532125,0.0969103,-0.0928413,0.142877,-0.124851,-0.0862325,0.0550461,0.0224686,0.0200272,0.0107574,0.00610352,-0.0115585,0.0138092,0.0282288,-9.97986,0.0759506,-0.0025177,0.059433,0.0617981,0.0140762,-0.0482941,-0.0423431,-0.0018692
6,1,10.0097,-0.000915527,0.00137329,-2.4305,0.0535448,-0.0762837,0.0522969,0.0776842,-0.0949775,0.141351,-0.127598,-0.0874532,0.0141907,0.0209045,0.0202942,0.0082016,0.00854492,-0.013237,0.0149918,0.0292969,-9.97986,0.0426102,-0.00541687,0.0672913,0.0658798,0.0165558,-0.0456619,-0.0373459,-0.00923157
6,2,10.0097,0.00152588,0.000305176,-2.4302,0.0532396,-0.0747579,0.0526021,0.0712755,-0.0961982,0.141961,-0.127292,-0.0862325,-0.0156021,0.0184631,0.0213242,0.00919342,0.00850677,-0.0161743,0.0130081,0.0284958,-9.97986,0.010643,-0.000991821,0.0785446,0.0707626,0.0177383,-0.0428391,-0.0387573,-0.00808716
6,3,10.0097,0.000915527,0.000152588,-2.42898,0.0538499,-0.0768941,0.0529073,0.0718859,-0.0955879,0.141656,-0.127598,-0.0874532,-0.0159836,0.0172806,0.025444,0.0138855,0.00457764,-0.0195313,0.0167847,0.0161362,-9.97986,-0.00331879,-0.00747681,0.0871658,0.0741196,0.0210571,-0.0381851,-0.0368881,-0.00846863
6,4,10.0097,-0.00183105,0.000305176,-2.42959,0.0535448,-0.0756734,0.0510762,0.0691393,-0.094062,0.143487,-0.127292,-0.0859274,-0.0141144,0.0276566,0.0240707,0.01091,0.00797272,-0.0157547,0.0225449,0.0101471,-9.97986,-0.00358582,-0.00541687,0.0796509,0.0751114,0.0193405,-0.036087,-0.0333405,-0.0166321
6,5,10.0097,0.00183105,0,-2.42928,0.0550706,-0.0771993,0.0522969,0.0694445,-0.094062,0.142877,-0.126987,-0.0862325,-0.00377655,0.0269318,0.0271225,0.0157928,0.0137711,-0.0157928,0.0234985,0.00751495,-9.97986,0.00778198,-0.0037384,0.0772858,0.0812912,0.0189209,-0.0391388,-0.0320816,-0.0128174
6,6,10.0097,0,-0.000305176,-2.42776,0.0550706,-0.075063,0.0529073,0.0731066,-0.0946723,0.142572,-0.127292,-0.085317,0.0140381,0.0235748,0.0265884,0.00965118,0.0135803,-0.0190353,0.0128174,0.00968933,-9.97986,0.0175476,-0.00823975,0.068512,0.0794601,0.0191879,-0.0460434,-0.0350571,-0.018158
6,7,10.0097,0,-0.00106812,-2.42898,0.0541551,-0.0741475,0.0526021,0.0700548,-0.0949775,0.144098,-0.126072,-0.085317,0.0331879,0.0233841,0.0217056,0.0158691,0.0169373,-0.0142288,0.0154495,0.021286,-9.97986,0.0223541,-0.000686646,0.0654984,0.079155,0.020256,-0.0476074,-0.0310898,-0.0182724
6,8,10.0097,-0.000305176,0.000762939,-2.42684,0.0553758,-0.0771993,0.0526021,0.0685289,-0.0919257,0.144403,-0.126072,-0.0834859,0.0155258,0.0186157,0.021286,0.0104141,0.014534,-0.0164032,0.00919342,0.030098,-9.97986,0.0128937,-0.00663757,0.0667572,0.083847,0.0225449,-0.0437164,-0.0289917,-0.0144196
6,9,10.0097,-0.000915527,0.000457764,-2.42684,0.0553758,-0.0747579,0.0529073,0.0712755,-0.0934516,0.146234,-0.125461,-0.0834859,-0.0151062,0.0175095,0.0222015,0.0128174,0.0208282,-0.0151443,0.00648499,0.0250626,-9.97986,-0.0125504,-0.0050354,0.0701904,0.0839996,0.0200272,-0.0434494,-0.0291443,-0.0209427
7,0,10.0097,-0.000305176,-0.000305176,-2.42501,0.0559862,-0.075063,0.0544332,0.0694445,-0.0925361,0.146234,-0.124546,-0.0825704,-0.029335,0.0181961,0.0195694,0.012207,0.0183868,-0.0202179,-0.000953674,0.0165176,-9.97986,-0.0428391,-0.00232697,0.0674057,0.0862122,0.0225449,-0.0411224,-0.0241852,-0.0244522
7,1,10.0097,0,0.000152588,-2.4247,0.0553758,-0.0747579,0.0532125,0.0709703,-0.0910102,0.145318,-0.124546,-0.0813497,-0.00926971,0.0239563,0.0202179,0.0128555,0.0161362,-0.0222015,-0.000152588,0.0118256,-9.97986,-0.0542831,-0.00267029,0.0653458,0.0852203,0.0222778,-0.0432205,-0.0276184,-0.0278854
7,2,10.0097,0.00152588,0.000152588,-2.42653,0.055681,-0.075063,0.0544332,0.0679186,-0.0925361,0.14776,-0.124851,-0.0810445,-0.00713348,0.0202942,0.0214767,0.0087738,0.0223923,-0.0234222,7.62939e-005,0.0162125,-9.97986,-0.059166,0.000991821,0.0630951,0.085907,0.0235748,-0.0435638,-0.0259781,-0.0293732
7,3,10.0097,-0.0012207,0.000305176,-2.4244,0.0559862,-0.0741475,0.0556539,0.0715807,-0.0922309,0.146539,-0.124241,-0.080129,-0.00579834,0.0189972,0.0167084,0.00785828,0.0204849,-0.0202179,0.0119781,0.0204086,-9.97986,-0.0449753,-3.8147e-005,0.0594711,0.0798798,0.0194931,-0.0455475,-0.0260544,-0.0313568
7,4,10.0097,-0.000305176,0.000457764,-2.42653,0.0547655,-0.0741475,0.0535176,0.0551012,-0.0943672,0.145929,-0.126377,-0.0816549,0.0104904,0.019455,0.0118256,0.0108337,0.0269318,-0.0168228,0.0328445,0.0201035,-9.97986,-0.00980377,-0.00167847,0.0634384,0.0793839,0.0220871,-0.043602,-0.0201797,-0.0270844
7,5,9.54396,0.00183105,-0.00183105,-2.42623,0.0565965,-0.0741475,0.0532125,0.04442,-0.0952827,0.147149,-0.125766,-0.0810445,0.00728607,0.016098,0.0133896,0.0125122,0.0222015,-0.025177,0.0374985,0.0101089,-9.97986,0.00873566,0.000686646,0.0626755,0.0807953,0.0195694,-0.0387192,-0.0223541,-0.0258255
7,6,8.20577,-0.000915527,-0.000915527,-2.4244,0.0553758,-0.0744527,0.0550435,0.0511339,-0.0925361,0.145929,-0.126682,-0.0828756,0.00164032,0.0111771,0.0115204,0.00778198,0.0255203,-0.0234222,0.0301743,0.0108719,-9.97986,0.014534,-0.000228882,0.0559616,0.075798,0.0222015,-0.0371933,-0.018959,-0.0216293
7,7,7.75807,0,-0.000915527,-2.42653,0.0550706,-0.0717061,0.054128,0.0615099,-0.0925361,0.145929,-0.126072,-0.0828756,-0.0201416,0.0113678,0.0118637,0.0123978,0.030365,-0.0244141,0.0178909,0.0118637,-9.97986,0.00507355,-0.00270844,0.051384,0.0741577,0.018425,-0.0337219,-0.0152588,-0.0167847
7,8,7.88564,0,0.000305176,-2.42684,0.0553758,-0.0747579,0.0538228,0.0682238,-0.0910102,0.144708,-0.124851,-0.0831808,-0.0230026,0.0168228,0.0107574,0.00827789,0.0337219,-0.0229645,0.0012207,0.00801086,-9.97986,-0.0149155,-0.00385284,0.0479889,0.0797272,0.0211334,-0.0252151,-0.0110626,-0.0159454
7,9,9.20033,-0.000305176,0.00137329,-2.42776,0.0541551,-0.0753682,0.0538228,0.0834825,-0.0913154,0.144708,-0.125461,-0.0834859,-0.0167084,0.0148773,0.0133133,0.00724792,0.0258636,-0.0255585,-0.0193787,0.01297,-9.97986,-0.01194,-0.00205994,0.0437927,0.0758743,0.0190735,-0.0258636,-0.010643,-0.018158
8,0,10.0097,-0.0012207,0.00228882,-2.42898,0.0547655,-0.0762837,0.0532125,0.0993517,-0.0910102,0.144098,-0.125156,-0.0856222,-0.0263214,0.0104523,0.0105286,0.00995636,0.0360107,-0.0279617,-0.0377274,0.0166702,-9.97986,0.00801086,-0.00282288,0.0426865,0.0787354,0.0164413,-0.0162888,-0.00679016,-0.0196457
8,1,10.0097,-0.000610352,0.000305176,-2.42928,0.0538499,-0.0756734,0.0538228,0.0798204,-0.0937568,0.142572,-0.127292,-0.0868429,-0.0377274,0.0102997,0.00766754,0.00766754,0.0342941,-0.0241089,-0.0482178,0.013237,-9.97986,0.0588226,-0.00656128,0.0497437,0.0760269,0.0166702,-0.0185013,-0.00392914,-0.0178909
8,2,10.0097,0.000305176,0.000305176,-2.4302,0.0535448,-0.0765889,0.0522969,0.075548,-0.0952827,0.143792,-0.127292,-0.0871481,-0.0128937,0.0143051,0.0137711,0.00957489,0.0315475,-0.0230789,-0.0342178,0.00854492,-9.97986,0.115776,-0.00434875,0.0581741,0.0799561,0.021286,-0.0142288,-0.00247955,-0.0230789
8,3,10.0097,0.000305176,0.000152588,-2.4302,0.0529344,-0.0765889,0.050771,0.0718859,-0.095893,0.142572,-0.127292,-0.0883688,0.0217438,0.0139618,0.0156784,0.00953674,0.0354385,-0.0251389,-0.0161743,0.0160599,-9.97986,0.129356,-0.0031662,0.0590897,0.0813675,0.0214386,-0.0114822,0.00240326,-0.0220871
8,4,10.0097,0,0,-2.42867,0.0535448,-0.0756734,0.0529073,0.07036,-0.0937568,0.143792,-0.127903,-0.0862325,0.0542831,0.0189209,0.0166702,0.00518799,0.0302124,-0.018692,-0.00839233,0.0152588,-9.97986,0.133667,-0.00553131,0.0604248,0.0815964,0.0167465,-0.0126648,0.000572205,-0.0196075
8,5,10.0097,-0.000610352,0,-2.42867,0.0541551,-0.0756734,0.0522969,0.0700548,-0.0952827,0.143792,-0.127292,-0.0859274,0.0865173,0.0149918,0.0163269,0.00816345,0.0351715,-0.0178146,-0.00278473,0.019455,-9.97986,0.121613,-0.00537872,0.0571442,0.080986,0.0163651,-0.00556946,0.00289917,-0.0183868
8,6,10.0097,-0.000610352,-0.000457764,-2.42898,0.0550706,-0.0756734,0.0516866,0.0688341,-0.0937568,0.143792,-0.126072,-0.0847066,0.0737,0.0148392,0.0180435,0.0112915,0.0348282,-0.0159073,-0.00358582,0.013237,-9.97986,0.10498,-0.00179291,0.0666428,0.0786209,0.0187683,-0.00427246,0.00473022,-0.0178146
8,7,10.0097,-0.000915527,-0.000152588,-2.42776,0.0541551,-0.0747579,0.0516866,0.0679186,-0.094062,0.146234,-0.127598,-0.0847066,0.0345612,0.0148392,0.0191116,0.0112915,0.0357056,-0.0094223,-0.0019455,0.0115204,-9.97986,0.0785065,-0.00431061,0.0662994,0.0762177,0.0198746,-0.00423431,0.00259399,-0.0216675
8,8,10.0097,-0.000610352,0,-2.42653,0.055681,-0.0753682,0.0529073,0.0691393,-0.094062,0.143792,-0.125461,-0.0840963,0.022049,0.0182343,0.0169373,0.0117111,0.0351715,-0.00484467,-0.00572205,0.017662,-9.97986,0.051918,-0.00133514,0.0666428,0.0727463,0.0172043,-0.00118256,0.00278473,-0.0256729
8,9,10.0097,0.000610352,0,-2.42562,0.055681,-0.0756734,0.0535176,0.0694445,-0.0937568,0.145624,-0.124851,-0.0828756,0.0192642,0.0125122,0.0170898,0.0127029,0.0327682,-0.00453949,-0.00980377,0.019989,-9.97986,0.0374985,-0.00579834,0.0737,0.0755692,0.0147629,0.00514984,0.00232697,-0.0249863
9,0,10.0097,0.000915527,0,-2.42653,0.0553758,-0.0738423,0.0544332,0.0694445,-0.0928413,0.145318,-0.124851,-0.0819601,0.0307465,0.0121689,0.0165939,0.0116348,0.0346756,0.000572205,-0.00972748,0.0179291,-9.97986,0.0225449,-0.00183105,0.0731659,0.0774002,0.0173569,0.00865936,0.00610352,-0.0226974
9,1,10.0097,-0.000610352,0.000152588,-2.42531,0.0581224,-0.0735371,0.0547383,0.0709703,-0.0919257,0.145624,-0.123935,-0.0819601,0.00972748,0.0112915,0.0176239,0.0114822,0.030365,-0.0031662,-0.00717163,0.0138092,-9.97986,0.0105667,-0.00408173,0.0752258,0.0741959,0.0125885,0.0088501,0.00431061,-0.0206375
9,2,10.0097,-0.000305176,0.000457764,-2.4247,0.0553758,-0.073232,0.0550435,0.07036,-0.0916206,0.145624,-0.124241,-0.0813497,-0.0145721,0.0120163,0.0204468,0.0138092,0.0373459,0.00202179,0.00602722,0.0167465,-9.97986,-0.00339508,-0.00629425,0.0777817,0.073967,0.0142288,0.0136185,0.00598907,-0.0234604
9,3,10.0097,0.000305176,-0.000305176,-2.4247,0.0575121,-0.0738423,0.0544332,0.0731066,-0.0891792,0.148065,-0.123935,-0.0804342,-0.0238037,0.0094223,0.0120544,0.00904083,0.0303268,-0.00415802,0.014534,0.0174332,-9.97986,-0.0150299,-0.00675201,0.0745773,0.0695419,0.0122452,0.0176239,0.0101471,-0.025444
9,4,10.0097,0.000915527,0.000762939,-2.42684,0.0565965,-0.0747579,0.0535176,0.054796,-0.0943672,0.145318,-0.126072,-0.0828756,-0.0241089,0.0173187,0.0196457,0.0117874,0.0300598,-0.00293732,0.0268936,0.0260162,-9.97986,-0.0170135,-0.00469208,0.079155,0.074501,0.0139236,0.02388,0.0172043,-0.0221634
9,5,9.52382,-0.00152588,-0.00152588,-2.42592,0.0565965,-0.0723164,0.054128,0.0441149,-0.0937568,0.145929,-0.127598,-0.0822652,-0.0417709,0.0159836,0.0178146,0.00850677,0.0338364,-0.0062561,0.0397491,0.0337601,-9.97986,-0.0136566,-0.00492096,0.0840378,0.0737762,0.0158691,0.0231171,0.021286,-0.0230789
9,6,8.21645,0.00152588,-0.00152588,-2.42623,0.0569017,-0.0744527,0.0556539,0.0523546,-0.0916206,0.146844,-0.126987,-0.0807394,-0.0622559,0.0146484,0.0152206,0.011673,0.0307465,-0.0159836,0.0483704,0.0361252,-9.97986,0.00629425,-0.00804901,0.0836945,0.0637817,0.00888824,0.0231552,0.016861,-0.032692
9,7,7.79378,-0.000610352,-0.000457764,-2.42714,0.0550706,-0.0744527,0.0556539,0.0627306,-0.0934516,0.145318,-0.126072,-0.0831808,-0.0405502,0.0219727,0.0230408,0.011673,0.030098,-0.0195694,0.0563431,0.0270081,-9.97986,0.0282669,-0.00736237,0.0887299,0.0684738,0.0110626,0.0269318,0.0155258,-0.0318909
9,8,7.99459,-0.000305176,0.000305176,-2.42653,0.0553758,-0.075063,0.054128,0.0697496,-0.0919257,0.144708,-0.125156,-0.0834859,-0.00995636,0.0214386,0.0229645,0.0127411,0.0250244,-0.0212479,0.0468063,0.0120544,-9.97986,0.0318146,-0.00743866,0.0842285,0.0740433,0.0143814,0.0320816,0.0130844,-0.0282669
9,9,9.35353,-0.0012207,0.00106812,-2.42653,0.0553758,-0.0753682,0.0532125,0.0853136,-0.090705,0.143792,-0.125766,-0.0844015,0.0173187,0.0293732,0.0237656,0.0126648,0.0221252,-0.0160217,0.0399399,0.00782013,-9.97986,0.0194168,-0.00968933,0.0722122,0.0721741,0.0094986,0.026474,0.00782013,-0.0297928
10,0,10.0097,0,0.00244141,-2.42806,0.0529344,-0.0756734,0.0526021,0.0972155,-0.0928413,0.143792,-0.124851,-0.0859274,0.0743866,0.0257874,0.0287628,0.0149536,0.0246811,-0.0146866,0.0335693,0.00751495,-9.97986,0.00526428,-0.00732422,0.0651169,0.0706863,0.0159073,0.0331879,-0.00137329,-0.0287628
10,1,10.0097,-0.000915527,0.000305176,-2.42928,0.0529344,-0.0765889,0.0516866,0.0785997,-0.0946723,0.144098,-0.126682,-0.0856222,0.0865936,0.0257111,0.0282288,0.0162125,0.0241089,-0.0140762,0.030365,0.0158691,-9.97986,-0.0118256,-0.0120544,0.0509262,0.071373,0.0101471,0.0337601,-0.00389099,-0.0247574
10,2,10.0097,-0.00183105,0,-2.42867,0.0541551,-0.0753682,0.050771,0.072191,-0.0946723,0.143487,-0.126987,-0.0871481,0.0584793,0.0242996,0.0287628,0.0139236,0.0268936,-0.0196075,0.0196457,0.0194931,-9.97986,-0.0330353,-0.00991821,0.0425339,0.0825119,0.00846863,0.0324249,-0.0101089,-0.0210953
10,3,10.0097,-0.000305176,0.000305176,-2.42959,0.0535448,-0.0759786,0.0526021,0.0694445,-0.0955879,0.143182,-0.128513,-0.0874532,0.0520706,0.0213623,0.0237656,0.0138855,0.026474,-0.00930786,0.00537872,0.0248718,-9.97986,-0.0643158,-0.00900269,0.0285339,0.0847626,0.0113678,0.0343704,-0.00823975,-0.0227356
10,4,10.0097,-0.000305176,0.000305176,-2.42837,0.0541551,-0.0756734,0.0510762,0.0679186,-0.0952827,0.143792,-0.127292,-0.0868429,0.0143814,0.0192642,0.0252151,0.013237,0.0287247,-0.00865936,0.000801086,0.013504,-9.97986,-0.0611496,-0.00656128,0.0241852,0.0894165,0.0109863,0.0341797,-0.0114059,-0.0169373
10,5,10.0097,-0.0012207,0.000152588,-2.42837,0.0544603,-0.0756734,0.0519917,0.0697496,-0.0952827,0.143792,-0.126987,-0.0856222,-0.0196457,0.0208282,0.0177765,0.0102615,0.0297546,-0.0109482,0.00484467,0.0112915,-9.97986,-0.0379944,-0.00556946,0.0157166,0.0931168,0.00843048,0.0354767,-0.0148773,-0.015831
10,6,10.0097,0.000915527,0.000152588,-2.42776,0.0547655,-0.0747579,0.054128,0.0697496,-0.094062,0.143792,-0.127292,-0.0850118,-0.015564,0.0207138,0.0167847,0.0140381,0.0312805,-0.00244141,0.00659943,0.0025177,-9.97986,-0.0144577,-0.00640869,0.00118256,0.104942,0.0101471,0.0325012,-0.0166702,-0.0157928
10,7,10.0097,-0.000915527,0.000457764,-2.42714,0.0541551,-0.0759786,0.0526021,0.0697496,-0.0937568,0.145318,-0.126072,-0.0847066,-0.00778198,0.0192261,0.0195313,0.0100708,0.0296783,0.00705719,0.00247955,0.00392914,-9.97986,-0.00137329,-0.00659943,-0.0124359,0.11467,0.0165558,0.0307465,-0.0142288,-0.0199127
10,8,10.0097,0,0.00137329,-2.42745,0.0550706,-0.0744527,0.0535176,0.07036,-0.0943672,0.143792,-0.126072,-0.0850118,-0.00572205,0.0161743,0.0124741,0.0114822,0.0288391,0.00854492,0.00205994,0.0120926,-9.97986,0.0112534,-0.0123978,-0.0312424,0.121956,0.0162888,0.0276566,-0.0139236,-0.0225449
10,9,10.0097,0.000915527,0.000915527,-2.42592,0.0559862,-0.075063,0.0535176,0.0712755,-0.0928413,0.145929,-0.125461,-0.0834859,0.00621796,0.00843048,0.00686646,0.0102234,0.0292969,0.0141144,0.00846863,0.0208664,-9.97986,0.0178146,-0.0151062,-0.0442123,0.126572,0.0169373,0.0323486,-0.0151825,-0.0190353
11,0,10.0097,0.0012207,0.000915527,-2.42592,0.0562914,-0.0729268,0.0544332,0.0709703,-0.0928413,0.145929,-0.124241,-0.0819601,0.00171661,0.00728607,0.00419617,0.00896454,0.0263214,0.0208282,0.0117874,0.0200272,-9.97986,0.0352859,-0.00553131,-0.042305,0.137634,0.0248718,0.0340271,-0.0139999,-0.0119019
11,1,10.0097,-0.000610352,0.00137329,-2.42501,0.0559862,-0.0738423,0.0538228,0.0706652,-0.0916206,0.146539,-0.12363,-0.0807394,-0.0418854,0.0088501,0.000915527,0.00499725,0.0212097,0.0250244,0.0161743,0.0237656,-9.97986,0.0642776,-0.0139618,-0.0480652,0.146599,0.0217056,0.031929,-0.0123215,-0.0138855
11,2,10.0097,0.000610352,0.000762939,-2.42653,0.0562914,-0.0744527,0.0556539,0.0700548,-0.0913154,0.147149,-0.123325,-0.080129,-0.0528717,0.00968933,0.0031662,0.00686646,0.0247955,0.0214386,0.0162506,0.0253296,-9.97986,0.0563049,-0.00389099,-0.0408936,0.151443,0.0248718,0.0393677,-0.00968933,-0.0111771
11,3,10.0097,-0.000610352,0.000762939,-2.4247,0.0569017,-0.0729268,0.0547383,0.072191,-0.0922309,0.14837,-0.12363,-0.080129,-0.0132751,0.0100708,0.0031662,0.00850677,0.0203705,0.0125504,0.018692,0.0218201,-9.97986,0.0291061,-0.00705719,-0.0405121,0.153732,0.025444,0.0439835,-0.00766754,-0.00846863
11,4,10.0097,0.0012207,0.000610352,-2.42714,0.0565965,-0.0744527,0.0532125,0.0544908,-0.0955879,0.146539,-0.126377,-0.0822652,0.0104904,0.00679016,-7.62939e-005,0.0082016,0.0209427,0.00751495,0.0195313,0.0185013,-9.97986,0.0123215,-0.00392914,-0.0452042,0.153389,0.0255966,0.0399017,0.00232697,-0.00896454
11,5,9.60347,0.000610352,-0.00198364,-2.42592,0.0562914,-0.0747579,0.0538228,0.0450304,-0.0919257,0.146539,-0.126072,-0.0804342,0.0408554,0.00598907,0.00286102,0.00675201,0.0191116,0.0162506,0.0274658,0.0134277,-9.97986,0.00709534,-0.000839233,-0.0485611,0.149117,0.0212097,0.0413513,0.0108337,-0.00629425
11,6,8.28053,0.0012207,-0.000915527,-2.42623,0.0559862,-0.0747579,0.0547383,0.0538805,-0.0919257,0.145929,-0.125156,-0.0822652,0.0614166,0.00656128,0.00328064,0.00740051,0.0133514,0.0226974,0.0349045,0.0153732,-9.97986,0.0167465,-0.00312805,-0.057373,0.150681,0.017395,0.0396729,0.00827789,-0.00778198
11,7,7.8362,0.000610352,-0.000610352,-2.42684,0.0553758,-0.0729268,0.0547383,0.0621202,-0.0925361,0.145929,-0.125156,-0.0831808,0.0462341,0.00930786,-0.000114441,0.00465393,0.0166702,0.0230789,0.0320435,0.0161743,-9.97986,0.0256348,-0.00427246,-0.0585938,0.151978,0.0179672,0.0396729,0.00553131,-0.0126266
11,8,8.02052,-0.000305176,0,-2.42684,0.0538499,-0.0741475,0.0553487,0.0688341,-0.0910102,0.144708,-0.124851,-0.0834859,0.05867,0.0102615,0.00717163,0.01091,0.0160599,0.0253677,0.0272369,0.0181961,-9.97986,0.0223541,-0.00888824,-0.0547791,0.14698,0.0174332,0.0419235,0.00354767,-0.0156784
11,9,9.40419,0.000305176,0.00106812,-2.42745,0.0544603,-0.0762837,0.0547383,0.0843981,-0.0910102,0.145929,-0.124546,-0.0825704,0.0475693,0.0153732,0.0110245,0.00846863,0.0177383,0.0279999,0.0257874,0.0228119,-9.97986,0.0274658,-0.00469208,-0.0484085,0.151596,0.0188065,0.0437546,0.00526428,-0.0183105
12,0,10.0097,0.000915527,0.00213623,-2.42806,0.0535448,-0.0759786,0.0553487,0.0956896,-0.0925361,0.143792,-0.126072,-0.0856222,0.0328445,0.0146103,0.0102997,0.00549316,0.0143814,0.0240326,0.0196838,0.0166321,-9.97986,0.0306702,-0.00286102,-0.042305,0.150337,0.0133133,0.042572,0.00907898,-0.0209808
12,1,10.0097,-0.000610352,0.000457764,-2.42989,0.0529344,-0.0756734,0.0513814,0.0792101,-0.0965034,0.142877,-0.126072,-0.0859274,0.0300598,0.0194168,0.0126648,0.00537872,0.0104141,0.0275421,0.00740051,0.0201416,-9.97986,0.0403595,-0.00247955,-0.039978,0.142593,0.0138092,0.0416183,0.0115204,-0.025177
12,2,10.0097,0.00152588,0.000305176,-2.42867,0.0517137,-0.0765889,0.0522969,0.0728014,-0.0949775,0.143792,-0.127292,-0.0862325,0.0159073,0.0164795,0.00972748,0.00591278,0.0107574,0.0281525,0.00453949,0.0223923,-9.97986,0.0408173,-0.00274658,-0.0289917,0.145493,0.0181198,0.0450897,0.014801,-0.0267029
12,3,10.0097,0.000305176,-0.000610352,-2.4302,0.0529344,-0.0762837,0.0519917,0.0691393,-0.0949775,0.141351,-0.129123,-0.0871481,0.0170135,0.0203323,0.0177002,0.00789642,0.0112915,0.0338745,0.00198364,0.0227356,-9.97986,0.0406647,-0.00541687,-0.0255585,0.141144,0.0141144,0.0383759,0.0125122,-0.0273132
12,4,10.0097,-0.000610352,-0.000762939,-2.42928,0.0541551,-0.0768941,0.0519917,0.0688341,-0.0946723,0.143792,-0.128513,-0.0871481,0.00900269,0.0196838,0.0196838,0.00984192,0.0117493,0.0299835,0.00675201,0.0234604,-9.97986,0.0335312,0.000114441,-0.0183868,0.13485,0.0176239,0.0376129,0.00926971,-0.0310516
12,5,10.0097,0.000610352,-0.00167847,-2.42776,0.0584276,-0.075063,0.0532125,0.0688341,-0.0949775,0.143182,-0.126682,-0.0865377,-0.00404358,0.018959,0.0205612,0.00926971,0.0163651,0.0333405,0.0164795,0.0259399,-9.97986,0.0302887,0.000152588,-0.0154877,0.120049,0.0158691,0.0351334,0.00900269,-0.0333405
12,6,10.0097,0.000610352,-0.00152588,-2.42776,0.0541551,-0.0762837,0.0526021,0.0709703,-0.0934516,0.143792,-0.126987,-0.0856222,0.000419617,0.0244141,0.014534,0.0121689,0.020752,0.040741,0.0110245,0.0299454,-9.97986,0.0235367,-0.00144958,-0.01194,0.111237,0.0189972,0.0278091,0.0136185,-0.0392914
12,7,10.0097,0.00244141,0,-2.42745,0.0553758,-0.075063,0.0529073,0.0694445,-0.0922309,0.145318,-0.126987,-0.0847066,0.0120926,0.0234604,0.0174713,0.00980377,0.0194931,0.0375366,0.00976563,0.0306702,-9.97986,0.0226593,-0.00263214,-0.0044632,0.107574,0.0250244,0.0305939,0.0150299,-0.0351334
12,8,10.0097,-0.00244141,-0.000610352,-2.42776,0.0526292,-0.0744527,0.0535176,0.0709703,-0.0931465,0.144403,-0.125461,-0.0844015,0.0235367,0.0230408,0.0188828,0.0107193,0.0201797,0.0353241,0.0165176,0.0341415,-9.97986,0.0229645,0.000686646,0.000305176,0.104523,0.0255203,0.0314331,0.0188065,-0.0285721
12,9,10.0097,0.00183105,-0.000915527,-2.42592,0.0562914,-0.075063,0.0550435,0.0715807,-0.0900947,0.145318,-0.125156,-0.0837911,0.00823975,0.0262451,0.0206757,0.00774384,0.0180817,0.0315094,0.0134659,0.0298309,-9.97986,0.0246429,0.0019455,0.00038147,0.0860214,0.0254822,0.0346756,0.0243378,-0.0233078
13,0,10.0097,-0.0012207,-0.00137329,-2.42562,0.0550706,-0.0741475,0.054128,0.07036,-0.0919257,0.146234,-0.126072,-0.0816549,0.0169373,0.0312042,0.0248718,0.0154877,0.0203323,0.0358582,0.0165939,0.0255203,-9.97986,0.0260925,0.00164032,0.00175476,0.0629425,0.0345612,0.0413513,0.0277328,-0.0154877
13,1,10.0097,-0.000915527,-0.00137329,-2.42531,0.0575121,-0.0738423,0.0544332,0.0712755,-0.0931465,0.146539,-0.124851,-0.0825704,0.0224686,0.0331116,0.0246429,0.0115967,0.019989,0.0328445,0.0164032,0.0167084,-9.97986,0.0241089,-0.000953674,0.00328064,0.0430679,0.0382614,0.0428391,0.0312042,-0.00965118
13,2,10.0097,0.000610352,-0.00183105,-2.42562,0.0572069,-0.0747579,0.0562642,0.07036,-0.0891792,0.147149,-0.124546,-0.0816549,0.00831604,0.0335312,0.0288391,0.0127792,0.0178146,0.0346375,0.0168228,0.00770569,-9.97986,0.0235367,7.62939e-005,0.00106812,0.0104523,0.0349045,0.0421906,0.030899,-0.00411987
13,3,10.0097,0.000305176,-0.00320435,-2.4244,0.0578172,-0.0735371,0.0553487,0.072191,-0.0913154,0.146234,-0.122715,-0.0810445,0.00328064,0.0366592,0.0283432,0.0130081,0.0163269,0.03479,0.019722,0.00526428,-9.97986,0.0229263,-0.000610352,-0.00156403,-0.0197983,0.0364685,0.0465393,0.0424576,-0.00350952
13,4,10.0097,0.000610352,-0.00213623,-2.42501,0.0578172,-0.0738423,0.0538228,0.0532701,-0.094062,0.146234,-0.126072,-0.0825704,-0.00278473,0.0376129,0.0307083,0.0139618,0.0158691,0.0315857,0.0184631,0.0157928,-9.97986,0.00831604,-0.00576019,0.00274658,-0.0418091,0.0397873,0.0485611,0.0569916,-0.0208664
13,5,9.55098,-0.00183105,-0.00396729,-2.42623,0.0572069,-0.0744527,0.0532125,0.0435045,-0.0980293,0.146234,-0.126377,-0.0825704,-0.0126648,0.031662,0.0269318,0.0102997,0.0154114,0.0252914,0.0114822,0.0268555,-9.97986,-0.0102234,-0.00320435,0.00423431,-0.0806808,0.0350952,0.0411987,0.0649261,-0.0284195
13,6,8.21675,-0.000610352,-0.00427246,-2.42592,0.0562914,-0.0744527,0.0544332,0.0523546,-0.0934516,0.146234,-0.125766,-0.0837911,-0.0407028,0.0352097,0.0215912,0.0151062,0.0133133,0.0318527,0.00873566,0.0302887,-9.97986,-0.0268936,-0.00183105,0.00476837,-0.113068,0.0402832,0.0310135,0.0751495,-0.0222397
13,7,7.79531,0.0012207,-0.00305176,-2.42684,0.0572069,-0.075063,0.054128,0.0636461,-0.090705,0.145318,-0.125156,-0.0837911,-0.0509262,0.0311661,0.0289536,0.0117874,0.0152588,0.0284195,0.0103378,0.0297546,-9.97986,-0.0426865,-0.00659943,0.00644684,-0.143051,0.0377274,0.0260162,0.090332,-0.0118256
13,8,7.9424,0.000610352,-0.00289917,-2.42562,0.0541551,-0.075063,0.0550435,0.07036,-0.0946723,0.146234,-0.125766,-0.0840963,-0.0104904,0.0323105,0.0276947,0.00907898,0.0121689,0.0240326,0.00556946,0.0265503,-9.97986,-0.046196,-0.00682831,0.00476837,-0.172691,0.0366974,0.0327301,0.101891,0.000801086
13,9,9.34011,0.000305176,-0.00106812,-2.42684,0.0541551,-0.0753682,0.0544332,0.0847032,-0.0903999,0.145624,-0.125156,-0.0837911,0.0214767,0.0281525,0.0272751,0.0166321,0.0130844,0.031662,0.00232697,0.0274658,-9.97986,-0.0382614,-0.00320435,0.0044632,-0.202217,0.0330353,0.0370789,0.117836,0.0137711
14,0,10.0097,0,-0.0012207,-2.42928,0.0535448,-0.0753682,0.0529073,0.0972155,-0.0910102,0.144098,-0.125766,-0.0862325,0.0446701,0.0334549,0.0280762,0.0146103,0.0138855,0.0431061,0.00270844,0.0269318,-9.97986,-0.0383759,-0.00656128,0.00591278,-0.228882,0.0370407,0.0443268,0.123978,0.0273514
14,1,10.0097,0.000305176,-0.00198364,-2.42928,0.0532396,-0.0759786,0.0516866,0.0792101,-0.0974189,0.143487,-0.126377,-0.0883688,0.0474548,0.0328064,0.0252533,0.0125885,0.0082016,0.0394058,-0.00671387,0.02491,-9.97986,-0.0256348,-0.000991821,0.00457764,-0.247917,0.0338364,0.0400162,0.128899,0.0386429
14,2,10.0097,0.0012207,-0.00167847,-2.42959,0.0532396,-0.0753682,0.0513814,0.0731066,-0.0952827,0.144708,-0.126072,-0.0874532,0.0276566,0.0323105,0.0243759,0.0125885,0.00988007,0.0447083,-0.00434875,0.0269699,-9.97986,-0.00873566,-0.000114441,0.00911713,-0.267792,0.0405884,0.0482941,0.131874,0.0512695
14,3,10.0097,0,-0.00259399,-2.42989,0.0538499,-0.0768941,0.050771,0.0691393,-0.0961982,0.142267,-0.127598,-0.0886739,0.0087738,0.0271225,0.0254059,0.0134659,0.00865936,0.0458527,-0.00682831,0.0243378,-9.97986,-0.0152588,-0.00293732,0.00743866,-0.283852,0.0337601,0.0492859,0.139771,0.0455475
14,4,10.0097,-0.0012207,-0.00228882,-2.42928,0.0535448,-0.0762837,0.0513814,0.0694445,-0.0974189,0.142877,-0.127598,-0.0868429,0.00102997,0.026474,0.0212479,0.0105667,0.00617981,0.0398254,-0.00911713,0.0191879,-9.97986,-0.0356293,0.00175476,0.0050354,-0.301437,0.0397491,0.0485992,0.144119,0.0429153
14,5,10.0097,0,-0.00167847,-2.42959,0.0544603,-0.0759786,0.0522969,0.0691393,-0.0946723,0.144098,-0.127292,-0.0865377,-0.00270844,0.0239944,0.0245285,0.0139618,0.00457764,0.0451279,-0.0102997,0.0138855,-9.97986,-0.0419617,0.00354767,0.0104523,-0.312004,0.0429535,0.0444031,0.149269,0.0416565
14,6,10.0097,0.000915527,-0.00167847,-2.42714,0.0550706,-0.0747579,0.0529073,0.0700548,-0.0949775,0.143182,-0.126377,-0.0856222,-0.0117111,0.0257874,0.0189209,0.0109863,0.00339508,0.0473022,-0.0188065,0.0140381,-9.97986,-0.0407028,-0.00141144,0.00839233,-0.32692,0.0399399,0.0388336,0.151176,0.0334167
14,7,10.0097,0.00183105,-0.00167847,-2.42714,0.0550706,-0.0756734,0.0544332,0.0724962,-0.0952827,0.144708,-0.125766,-0.0844015,-0.00301361,0.0246429,0.0151443,0.0101852,0.0018692,0.0535202,-0.0188828,0.0196457,-9.97986,-0.0292206,0.000801086,0.013504,-0.341949,0.0412369,0.0349426,0.160904,0.0327301
14,8,10.0097,0.000305176,-0.0012207,-2.42745,0.055681,-0.075063,0.0529073,0.0700548,-0.0928413,0.143792,-0.127292,-0.0847066,0.0109863,0.0171661,0.0119781,0.00919342,-0.00457764,0.0534058,-0.010643,0.0214386,-9.97986,-0.00804901,-0.00202179,0.0101471,-0.350151,0.039444,0.0337219,0.161133,0.0297546
14,9,10.0097,0.000305176,-0.00137329,-2.42592,0.0544603,-0.0738423,0.054128,0.0712755,-0.0922309,0.145624,-0.125156,-0.0834859,0.017128,0.0161362,0.012207,0.00591278,-0.00484467,0.0510025,-0.00831604,0.0248718,-9.97986,0.0238037,0.001297,0.0038147,-0.354347,0.0374222,0.0272751,0.16304,0.0251007
15,0,10.0097,0,-0.000152588,-2.42501,0.0559862,-0.0741475,0.0538228,0.07036,-0.0897895,0.145929,-0.124546,-0.0813497,0.0117493,0.0206375,0.0156784,0.0135803,0.00282288,0.0570679,0.00534058,0.0283051,-9.97986,0.0514984,0.00125885,0.00118256,-0.352707,0.0455093,0.0289154,0.170975,0.0211334
15,1,10.0097,0.000610352,-0.000610352,-2.4244,0.0553758,-0.0744527,0.0535176,0.0715807,-0.0919257,0.147455,-0.123935,-0.0813497,0.00137329,0.01091,0.00156403,0.00507355,-0.00652313,0.0483322,-0.00183105,0.0189972,-9.97986,0.0450897,-0.00617981,-0.00999451,-0.356598,0.0355148,0.0270081,0.161781,0.0130844
15,2,10.0097,-0.000305176,-0.000457764,-2.42562,0.0553758,-0.0741475,0.0565694,0.0718859,-0.0916206,0.147149,-0.124241,-0.0822652,0.0347137,0.0190735,0.0107193,0.0063324,0.00202179,0.0560379,0.00843048,0.0210571,-9.97986,0.0456619,0.000686646,-0.00488281,-0.35099,0.0392914,0.0265121,0.164337,0.0146484
15,3,10.0097,0.000305176,-0.000152588,-2.4244,0.0569017,-0.0738423,0.0556539,0.0737169,-0.0913154,0.146234,-0.123935,-0.0810445,0.0458908,0.0152206,0.00965118,0.0075531,-0.000495911,0.0434494,0.00892639,0.0172806,-9.97986,0.0587082,0.001297,-0.00038147,-0.350189,0.0436401,0.028038,0.159874,0.0174332
15,4,10.0097,0.00244141,0.000762939,-2.42623,0.055681,-0.0738423,0.0532125,0.0557115,-0.0943672,0.146539,-0.126072,-0.0822652,0.0476837,0.0151062,0.00976563,0.00854492,-0.00240326,0.0405121,0.0139999,0.0150681,-9.97986,0.0610733,0.00202179,7.62939e-005,-0.342331,0.0461197,0.0255203,0.156403,0.0206757
15,5,9.58791,-0.000610352,-0.000610352,-2.42592,0.0575121,-0.0747579,0.0538228,0.0447252,-0.0943672,0.145929,-0.126072,-0.0816549,0.0367737,0.0198746,0.0111771,0.00968933,0.00209808,0.0434113,0.0206375,0.0173187,-9.97986,0.0621033,0.00106812,0.00175476,-0.335655,0.0453949,0.0252914,0.156174,0.0236893
15,6,8.28389,0.000915527,-0.000610352,-2.42592,0.0559862,-0.075063,0.0538228,0.052965,-0.0928413,0.145318,-0.125766,-0.0819601,0.0137711,0.0195313,0.0146866,0.00587463,0.000762939,0.0416183,0.0237656,0.0170898,-9.97986,0.0592422,-0.00114441,-0.00221252,-0.328674,0.0408936,0.0239563,0.150833,0.0276566
15,7,7.86733,0.00274658,0,-2.42653,0.0550706,-0.0738423,0.0544332,0.0630358,-0.0922309,0.146844,-0.124546,-0.0828756,0.0103378,0.0182343,0.0148392,0.00473022,-0.00301361,0.0345612,0.0241089,0.0222015,-9.97986,0.0524902,-0.00453949,-0.00839233,-0.32711,0.0377274,0.0236511,0.139275,0.0213623
15,8,8.0306,0.000915527,0.000915527,-2.42684,0.0550706,-0.0747579,0.0547383,0.0688341,-0.0925361,0.145929,-0.126072,-0.0828756,0.0175476,0.0196838,0.0161362,0.00823975,-0.00457764,0.026474,0.0359344,0.0204086,-9.97986,0.0572205,0.00293732,-0.0115967,-0.318451,0.0402451,0.0224304,0.138168,0.0219345
15,9,9.40328,0,0.000915527,-2.42837,0.0532396,-0.0753682,0.0544332,0.0853136,-0.090705,0.145318,-0.125766,-0.0828756,0.0152206,0.0192642,0.0108719,0.0106049,-0.00759125,0.0232315,0.0334549,0.0214005,-9.97986,0.0645828,-0.00167847,-0.0190735,-0.32093,0.0385284,0.0200653,0.129204,0.0195694
16,0,10.0097,-0.000305176,0.00274658,-2.42898,0.0538499,-0.0771993,0.0529073,0.0966051,-0.0934516,0.143487,-0.125766,-0.0859274,0.0166702,0.0247955,0.0170517,0.01297,-0.00339508,0.0165176,0.0397491,0.0235367,-9.97986,0.0613785,0.00370026,-0.0160217,-0.314903,0.0462341,0.0244522,0.127296,0.021286
16,1,10.0097,0.000915527,0.00137329,-2.42837,0.0538499,-0.0765889,0.0519917,0.0792101,-0.0949775,0.142572,-0.127292,-0.0859274,0.0156403,0.0223541,0.0120163,0.00919342,-0.00564575,-0.00240326,0.0335693,0.0216293,-9.97986,0.0674438,0.000686646,-0.0182343,-0.301781,0.0483704,0.0207138,0.121765,0.0259399
16,2,10.0097,-0.00152588,0.000915527,-2.42928,0.0541551,-0.0759786,0.0504659,0.0724962,-0.095893,0.143182,-0.127598,-0.0874532,0.0121307,0.0210571,0.0131607,0.00862122,-0.00617981,-0.0141907,0.0317764,0.0239944,-9.97986,0.0732803,0.0019455,-0.0222015,-0.296249,0.0470352,0.0167465,0.11322,0.024147
16,3,10.0097,0.000915527,0,-2.42989,0.0532396,-0.0762837,0.0516866,0.0688341,-0.0961982,0.143182,-0.127292,-0.0880636,0.00839233,0.0236511,0.0206757,0.0082016,-0.00423431,-0.0244141,0.030365,0.0208282,-9.97986,0.0695038,0.00190735,-0.0166321,-0.298424,0.0463104,0.0165558,0.108833,0.0286484
16,4,10.0097,0.000305176,0.000610352,-2.4302,0.0535448,-0.0768941,0.0516866,0.0697496,-0.0949775,0.142877,-0.126682,-0.0859274,0.0115967,0.0226212,0.0202179,0.00930786,-0.00904083,-0.0345993,0.0300217,0.0227356,-9.97986,0.062027,-0.000190735,-0.0166321,-0.291634,0.0450516,0.0159836,0.100594,0.0230789
16,5,10.0097,-0.000305176,-0.000305176,-2.42776,0.0526292,-0.075063,0.0529073,0.0685289,-0.0931465,0.144403,-0.127903,-0.0847066,0.0117874,0.0246048,0.0205612,0.00858307,-0.0062561,-0.045929,0.0285339,0.0253296,-9.97986,0.0517654,0.0019455,-0.0206375,-0.284233,0.0426865,0.0108719,0.0932693,0.0274658
16,6,10.0097,0.000610352,0.00152588,-2.42776,0.0544603,-0.0759786,0.054128,0.0685289,-0.0943672,0.144708,-0.127292,-0.0850118,0.0146484,0.0281143,0.022049,0.0107193,-0.00827789,-0.0550079,0.0246429,0.0244904,-9.97986,0.0489426,0.00358582,-0.0181198,-0.263481,0.0402069,0.00648499,0.0854874,0.0275421
16,7,10.0097,-0.000915527,0.00198364,-2.42776,0.0547655,-0.0753682,0.0529073,0.0700548,-0.094062,0.145318,-0.126377,-0.0847066,0.0331497,0.0278473,0.0212479,0.00644684,-0.0087738,-0.0632095,0.0297165,0.0228882,-9.97986,0.0362015,-0.000991821,-0.0127029,-0.240669,0.0358963,0.00411987,0.0766754,0.026741
16,8,10.0097,0.000915527,0.00183105,-2.42776,0.0562914,-0.0747579,0.0538228,0.0691393,-0.0934516,0.145013,-0.125766,-0.0825704,0.0625992,0.0263977,0.0192642,0.0131989,-0.00656128,-0.0719833,0.0286102,0.0342178,-9.97986,0.0234985,0.00343323,-0.0139236,-0.219688,0.0393295,-0.000839233,0.0679779,0.026207
16,9,10.0097,0.000305176,0.00305176,-2.42653,0.0572069,-0.073232,0.0532125,0.0688341,-0.0931465,0.144098,-0.126377,-0.0834859,0.0524139,0.0265121,0.0242233,0.00476837,-0.00549316,-0.0765991,0.0256348,0.0402832,-9.97986,0.0247955,-0.00114441,-0.0138855,-0.194016,0.0378799,-0.00576019,0.0629044,0.0286865
17,0,10.0097,0.00244141,0.00274658,-2.42531,0.055681,-0.0747579,0.0538228,0.07036,-0.0943672,0.145929,-0.123935,-0.0813497,0.0298309,0.0260925,0.0218201,0.00537872,-0.00827789,-0.0801468,0.0276566,0.040741,-9.97986,0.0237274,0.00217438,-0.0139999,-0.16346,0.0373077,-0.00347137,0.0544357,0.0259399
17,1,10.0097,-0.000915527,0.00305176,-2.42562,0.0565965,-0.075063,0.0544332,0.0715807,-0.0922309,0.146539,-0.124546,-0.0798238,0.01091,0.0250626,0.0259018,0.00930786,-0.00587463,-0.0714111,0.026741,0.0409698,-9.97986,0.0260544,-0.000343323,-0.0110626,-0.128403,0.0342941,-0.00408173,0.0464249,0.0233459
17,2,10.0097,0,0.00320435,-2.4244,0.0562914,-0.0741475,0.055959,0.07036,-0.0922309,0.146539,-0.123325,-0.080129,-0.0104904,0.0283051,0.0273132,0.0104523,-0.00701904,-0.0688934,0.0327301,0.0351715,-9.97986,0.0321579,-0.00247955,-0.00663757,-0.0959015,0.0341415,-0.00644684,0.0444412,0.0248718
17,3,10.0097,-0.000610352,0.00274658,-2.4247,0.0575121,-0.0735371,0.0556539,0.0712755,-0.0922309,0.14776,-0.122715,-0.0795187,-0.0289154,0.0330353,0.0279236,0.0100708,-0.0118256,-0.0678253,0.0286865,0.0178146,-9.97986,0.026741,0.000228882,0.00232697,-0.0666046,0.0354385,-0.0123978,0.0408554,0.0245667
17,4,10.0097,0.000610352,0.00289917,-2.42684,0.055681,-0.0744527,0.0532125,0.054796,-0.0946723,0.146234,-0.126072,-0.0813497,-0.0595093,0.0421143,0.0337219,0.0172043,-0.00850677,-0.059433,0.0296402,-0.000419617,-9.97986,0.0401306,0.000457764,0.000953674,-0.0385666,0.032959,-0.0140381,0.0314331,0.0211334
17,5,9.76705,0,0.00137329,-2.42684,0.0575121,-0.0744527,0.054128,0.0459459,-0.0922309,0.147149,-0.124546,-0.0810445,-0.0487518,0.051918,0.0385666,0.0191498,-0.00915527,-0.0577545,0.0308609,-0.000648499,-9.97986,0.0469208,0.0012207,0.00190735,-0.0160217,0.0289536,-0.0108719,0.0276566,0.0251007
17,6,8.44319,0.000915527,0.00152588,-2.42592,0.055681,-0.0735371,0.054128,0.0532701,-0.0934516,0.145624,-0.125766,-0.0810445,-0.0272751,0.0518417,0.0368118,0.0186157,-0.00865936,-0.0562286,0.0263977,0.0102997,-9.97986,0.0453568,0.000495911,-0.00125885,0.00659943,0.0235367,-0.0172424,0.0187683,0.0296783
17,7,8.01137,0.000915527,0.00198364,-2.42714,0.0553758,-0.0747579,0.0544332,0.0633409,-0.0928413,0.145318,-0.124851,-0.0816549,-0.0216675,0.0392532,0.0314331,0.0189972,-0.013237,-0.0532532,0.024147,0.0279236,-9.97986,0.0317764,-0.001297,-0.000839233,0.0265121,0.0241852,-0.0139999,0.0164413,0.0325775
17,8,8.16701,0.00213623,0.00213623,-2.42684,0.0553758,-0.0747579,0.0556539,0.0691393,-0.0931465,0.145013,-0.126987,-0.0822652,-0.00926971,0.0333023,0.0339508,0.0141907,-0.00953674,-0.0544739,0.0182343,0.038147,-9.97986,0.014267,-0.00598907,-0.000762939,0.0517273,0.0149155,-0.0126648,0.0113297,0.0354385
17,9,9.59676,-0.00305176,0.00289917,-2.42898,0.0547655,-0.0747579,0.0544332,0.0840929,-0.090705,0.145013,-0.124851,-0.0834859,-0.0533676,0.034523,0.031395,0.0134659,-0.00473022,-0.0538635,0.0170135,0.0293732,-9.97986,-0.00411987,-0.00408173,0.0088501,0.062561,0.0145721,-0.0133514,0.00793457,0.0338364
18,0,10.0097,0.000915527,0.00350952,-2.42837,0.0523241,-0.0756734,0.0529073,0.0941637,-0.094062,0.142877,-0.125766,-0.085317,-0.0961304,0.0334549,0.0307083,0.016098,-0.0082016,-0.0411606,0.018158,0.0088501,-9.97986,-0.0238419,-0.00144958,0.00259399,0.0744247,0.00579834,-0.0127411,0.00278473,0.0289154
18,1,10.0097,0.0012207,0.00213623,-2.42867,0.0535448,-0.0756734,0.0526021,0.0782946,-0.0943672,0.143792,-0.126987,-0.0859274,-0.0506973,0.0326538,0.0331116,0.0185776,-0.00305176,-0.0372696,0.021286,0.00869751,-9.97986,-0.0361633,-0.000534058,0.000762939,0.0960541,0.00686646,-0.00709534,0.00247955,0.0342941
18,2,10.0097,0.000915527,0.00106812,-2.42898,0.0550706,-0.0759786,0.0529073,0.0734117,-0.0949775,0.143487,-0.127903,-0.0865377,0.0145721,0.0260162,0.0269699,0.0164413,-0.00785828,-0.0379181,0.018959,0.0112152,-9.97986,-0.0490189,-0.00259399,0.00469208,0.09758,0.00247955,-0.0122833,0.00339508,0.0347519
18,3,10.0097,0.00152588,0.000762939,-2.42959,0.0529344,-0.0768941,0.0510762,0.0697496,-0.0952827,0.142877,-0.126682,-0.0874532,0.0931168,0.0261688,0.0243378,0.0137711,-0.00278473,-0.0417328,0.0162888,0.0292587,-9.97986,-0.0537491,-0.00686646,0.00812531,0.106125,0.00343323,-0.0136566,0.000762939,0.0361252
18,4,10.0097,-0.000305176,0.000762939,-2.42898,0.0535448,-0.0762837,0.0516866,0.0679186,-0.0943672,0.143487,-0.128208,-0.0859274,0.0985718,0.0227356,0.0233078,0.0100327,-0.001297,-0.0378036,0.0226593,0.0326157,-9.97986,-0.0530624,-0.00816345,0.00831604,0.118027,0.00404358,-0.0187302,-0.00427246,0.0378799
18,5,10.0097,0,0.0012207,-2.42837,0.0538499,-0.0756734,0.0526021,0.0685289,-0.0949775,0.143487,-0.127292,-0.0859274,0.0389481,0.0175476,0.0179672,0.00789642,0.00110626,-0.0437164,0.0236893,0.036087,-9.97986,-0.0544739,-0.000305176,0.0154495,0.128708,0.00232697,-0.0237656,-0.00652313,0.0304413
18,6,10.0097,0.000305176,0.000305176,-2.42776,0.0550706,-0.0756734,0.0553487,0.0691393,-0.0943672,0.144403,-0.126377,-0.0856222,0.015831,0.0104141,0.0127792,0.0075531,-0.00171661,-0.0444794,0.0163269,0.0224304,-9.97986,-0.055542,-0.00709534,0.0120926,0.137215,-0.00221252,-0.0287628,-0.0146484,0.0214767
18,7,10.0097,-0.000915527,0.000762939,-2.42745,0.0544603,-0.0762837,0.0529073,0.0691393,-0.0934516,0.144708,-0.125766,-0.0847066,0.0170898,0.0144577,0.0150681,0.00839233,0.000534058,-0.0418091,0.0164032,0.0202942,-9.97986,-0.0474167,-0.00137329,0.0147247,0.140533,-0.00133514,-0.0310898,-0.0235748,0.0160599
18,8,10.0097,0.000305176,-0.000152588,-2.42745,0.0547655,-0.0744527,0.0538228,0.0706652,-0.094062,0.143792,-0.126987,-0.0847066,0.0206375,0.00629425,0.00652313,0.0044632,-0.00175476,-0.043335,0.016098,0.0182343,-9.97986,-0.0299835,-7.62939e-005,0.00461578,0.138741,-0.00514984,-0.0352097,-0.0284958,0.0101089
18,9,10.0097,0.000610352,0.000305176,-2.42592,0.055681,-0.0741475,0.0535176,0.0706652,-0.0922309,0.146234,-0.126377,-0.0825704,0.0370026,0.0056076,0.0130081,0.00522614,0.000305176,-0.0331116,0.0146484,0.0146866,-9.97986,-0.00293732,-0.00274658,-0.00331879,0.13443,-0.0062561,-0.0383377,-0.0264359,0.0137329
19,0,10.0097,-0.000305176,-0.000152588,-2.42501,0.0575121,-0.0744527,0.054128,0.0718859,-0.0916206,0.147149,-0.124241,-0.0813497,0.038147,0.00598907,0.00301361,0.00957489,-0.00282288,-0.0230026,0.0183868,0.00415802,-9.97986,0.050354,-0.00358582,-0.0082016,0.135574,-0.00301361,-0.0372696,-0.0204849,0.0127029
19,1,10.0097,0.000610352,0.000457764,-2.42531,0.0559862,-0.075063,0.0544332,0.0715807,-0.0919257,0.145318,-0.124546,-0.0813497,0.0281525,0.0111008,0.00930786,0.00850677,-0.00270844,-0.0251007,0.0177383,-0.000190735,-9.97986,0.0936508,-0.00114441,-0.0124741,0.131149,-0.000610352,-0.0320053,-0.020752,0.0140762
19,2,10.0097,-0.000305176,0.000610352,-2.4247,0.0581224,-0.0741475,0.0550435,0.0697496,-0.0913154,0.147455,-0.126377,-0.0807394,0.0305176,0.0125122,0.0131989,0.00869751,-0.00286102,-0.0243378,0.0215912,0.00274658,-9.97986,0.0922394,0.000267029,-7.62939e-005,0.135422,0.00617981,-0.0263977,-0.0109863,0.0106049
19,3,10.0097,0.000305176,-0.000305176,-2.4244,0.055681,-0.0735371,0.0562642,0.07036,-0.0910102,0.147455,-0.124851,-0.080129,0.0278473,0.00778198,0.0100708,0.00587463,-0.00518799,-0.0304031,0.019722,0.00347137,-9.97986,0.0611115,-0.00522614,0.00339508,0.131454,-0.00167847,-0.0363541,-0.0157928,-0.00312805
19,4,10.0097,-0.0012207,0.00167847,-2.42623,0.055681,-0.075063,0.054128,0.0535753,-0.094062,0.145013,-0.124241,-0.0804342,0.0348663,0.0160599,0.0144958,0.0125504,7.62939e-005,-0.0326157,0.0244904,0.0115204,-9.97986,0.0402832,-0.001297,0.0218582,0.141144,0.0100327,-0.0269699,-0.000495911,-0.00343323
19,5,9.47072,0.00152588,-0.000610352,-2.42501,0.0562914,-0.0738423,0.0550435,0.0435045,-0.0931465,0.147149,-0.126987,-0.0819601,0.0185776,0.0131607,0.0175476,0.0137329,-0.000343323,-0.0327301,0.0301361,0.0159073,-9.97986,0.0301361,0.00335693,0.0153351,0.148849,0.00865936,-0.0291443,0.0117111,-0.0138474
19,6,8.15694,-0.000610352,-0.000305176,-2.42562,0.0553758,-0.0741475,0.0553487,0.0526598,-0.0925361,0.145318,-0.125156,-0.0816549,0.00400543,0.0119781,0.0120544,0.00873566,0.00415802,-0.0435257,0.0252914,0.0115967,-9.97986,0.0223923,-0.00198364,0.00751495,0.147514,0.00144958,-0.0323486,0.00450134,-0.0181961
19,7,7.74648,0.000610352,0.00106812,-2.42592,0.0553758,-0.0738423,0.0550435,0.0633409,-0.0903999,0.145318,-0.125461,-0.0825704,0.00576019,0.0149155,0.0186539,0.0118637,0.00801086,-0.0413513,0.0336838,0.0180817,-9.97986,0.0174332,0.00465393,0.0286484,0.159721,0.00785828,-0.0232697,0.00675201,-0.0112915
19,8,7.93294,0,0.000457764,-2.42684,0.0550706,-0.0747579,0.054128,0.0688341,-0.0928413,0.144708,-0.128208,-0.0844015,0.00480652,0.00686646,0.0151825,0.00713348,0.00453949,-0.0457001,0.0298691,0.0124741,-9.97986,0.0147247,-0.000343323,0.0205994,0.162888,0.000534058,-0.0330353,-0.00640869,-0.0168228
19,9,9.29891,0.000610352,0.000610352,-2.42684,0.0535448,-0.075063,0.0538228,0.0853136,-0.0913154,0.144708,-0.125461,-0.0834859,0.0134277,0.0163651,0.0182343,0.0101852,0.0188065,-0.042305,0.0354004,0.0214005,-9.97986,0.00785828,0.00545502,0.0259781,0.174255,0.00892639,-0.0286484,-0.00968933,-0.00644684
20,0,10.0097,0.000915527,0.00305176,-2.42898,0.0541551,-0.0747579,0.0544332,0.0962999,-0.0931465,0.143792,-0.125461,-0.085317,0.0139618,0.0157928,0.0141144,0.00865936,0.0264359,-0.0312042,0.0328445,0.0192261,-9.97986,-0.00976563,-3.8147e-005,0.0284958,0.177956,3.8147e-005,-0.0292206,-0.0133896,-0.00862122
20,1,10.0097,0.00213623,0.000915527,-2.42928,0.0535448,-0.0759786,0.0516866,0.0792101,-0.0971137,0.143792,-0.125766,-0.0871481,0.0165939,0.01297,0.0179672,0.00694275,0.0312042,-0.0329208,0.034256,0.0259781,-9.97986,-0.00484467,-0.0037384,0.0298309,0.185547,-0.000419617,-0.0294113,-0.0222397,-0.00389099
20,2,10.0097,-0.000305176,0.00198364,-2.42867,0.0547655,-0.0762837,0.0516866,0.0728014,-0.095893,0.142572,-0.126682,-0.0868429,0.00686646,0.0209808,0.0188065,0.0108337,0.0269318,-0.032959,0.0347519,0.0314713,-9.97986,0.00110626,-0.00362396,0.0296783,0.19043,-0.00144958,-0.0318146,-0.0271606,-0.00556946
20,3,10.0097,0.000305176,0.000152588,-2.42989,0.0535448,-0.0710957,0.0516866,0.0700548,-0.0952827,0.144098,-0.127598,-0.0874532,0.001297,0.0218964,0.021286,0.00720978,0.0365067,-0.0291061,0.0356293,0.0350571,-9.97986,0.0172043,0.000152588,0.0234985,0.197678,-0.00816345,-0.0369263,-0.0281525,-0.00507355
20,4,10.0097,0.000610352,0.000305176,-2.4302,0.0532396,-0.0759786,0.0519917,0.0691393,-0.0968086,0.142572,-0.126072,-0.0874532,-0.0117111,0.0213623,0.0211716,0.0117874,0.037117,-0.0242615,0.0379944,0.038414,-9.97986,0.0272751,-0.00167847,0.0230026,0.20462,-0.00709534,-0.0347519,-0.0285339,-0.00587463
20,5,10.0097,0.000610352,-0.000152588,-2.42959,0.0532396,-0.0753682,0.0532125,0.0694445,-0.0949775,0.143182,-0.127598,-0.0859274,-0.0318146,0.0254059,0.0241852,0.00999451,0.0379562,-0.0261688,0.0375748,0.0265121,-9.97986,0.0148392,0.000343323,0.0233459,0.207062,-0.00595093,-0.0383759,-0.0348282,-0.00614166
20,6,10.0097,0.000610352,0,-2.42776,0.0553758,-0.0765889,0.0519917,0.0679186,-0.0934516,0.144708,-0.126377,-0.0856222,-0.033493,0.0299835,0.0271225,0.0119781,0.0400162,-0.018959,0.0424576,0.0297928,-9.97986,0.00782013,-0.00110626,0.0232315,0.20256,-0.00946045,-0.0420761,-0.0329208,-0.00465393
20,7,10.0097,-0.00244141,-0.000152588,-2.42806,0.0550706,-0.0753682,0.0538228,0.0688341,-0.0931465,0.143792,-0.127903,-0.0840963,-0.0518799,0.0299835,0.0252151,0.0104141,0.0381851,-0.0198746,0.0360489,0.0266266,-9.97986,-0.00118256,0.000495911,0.0197601,0.20649,-0.0094986,-0.0460052,-0.0402069,-0.00892639
20,8,10.0097,0,0,-2.42684,0.0547655,-0.0762837,0.0544332,0.0700548,-0.0934516,0.145013,-0.125766,-0.0850118,-0.0432968,0.0383377,0.0301743,0.0157547,0.0449371,-0.0111008,0.0439453,0.020752,-9.97986,0.00293732,0.00411987,0.0182724,0.201797,-0.0122452,-0.0478745,-0.0433731,-0.0114059
20,9,10.0097,0.000610352,0,-2.42501,0.0553758,-0.0729268,0.0571797,0.07036,-0.0922309,0.146234,-0.125766,-0.0831808,0.018425,0.0462341,0.0310135,0.0198746,0.0486755,-0.0153351,0.0403976,0.0102234,-9.97986,0.00644684,0.00137329,0.0180435,0.196915,-0.0139999,-0.048027,-0.0431824,-0.00888824
21,0,10.0097,0.000610352,0.000610352,-2.42592,0.0559862,-0.0741475,0.0556539,0.07036,-0.0913154,0.147149,-0.120578,-0.0813497,0.0489044,0.0427628,0.0392914,0.0185394,0.0490952,-0.0125885,0.03582,0.00572205,-9.97986,0.00213623,0.00350952,0.0156784,0.199471,-0.0187683,-0.0509644,-0.0496674,-0.00919342
21,1,10.0097,0.000610352,-0.000457764,-2.42531,0.055681,-0.0729268,0.0553487,0.0706652,-0.0919257,0.146539,-0.124241,-0.0813497,0.0515747,0.0408554,0.037384,0.0185776,0.0544739,-0.0173569,0.0413513,0.00652313,-9.97986,-0.0172806,0.00221252,0.0137711,0.200462,-0.0131226,-0.0440979,-0.0502777,-0.00354767
21,2,10.0097,0,-0.000457764,-2.4247,0.0559862,-0.0729268,0.0577901,0.07036,-0.0919257,0.148065,-0.124241,-0.0810445,0.0385284,0.0408554,0.0312042,0.0169754,0.0514603,-0.0152588,0.0402069,0.00350952,-9.97986,-0.0355148,-0.000267029,0.00946045,0.192909,-0.0136566,-0.0394821,-0.0547791,-0.00137329
21,3,10.0097,0.000305176,-0.000457764,-2.42592,0.0572069,-0.073232,0.054128,0.0712755,-0.0916206,0.151117,-0.127598,-0.0810445,0.0110626,0.0413132,0.0404739,0.0177765,0.0532532,-0.00946045,0.0395584,0.000648499,-9.97986,-0.0399399,0.000953674,0.013504,0.194435,-0.0169373,-0.0375748,-0.0532913,0.00453949
21,4,10.0097,-0.00274658,-0.000152588,-2.42776,0.0553758,-0.0741475,0.0538228,0.0563219,-0.094062,0.146844,-0.124851,-0.0822652,0.032692,0.0373459,0.0334549,0.0170135,0.0582123,-0.0121689,0.0406265,0.0101471,-9.97986,-0.0556946,0.000457764,0.0114441,0.190239,-0.0142288,-0.0344849,-0.0585938,0.0107193
21,5,9.64955,0.000915527,-0.00183105,-2.42501,0.0559862,-0.0753682,0.0504659,0.0441149,-0.0925361,0.145929,-0.125461,-0.0816549,0.0573349,0.0365448,0.0358582,0.0172806,0.0573349,-0.00465393,0.0346375,0.0140381,-9.97986,-0.0682449,-0.000305176,0.0139999,0.188599,-0.016098,-0.0328445,-0.0595093,0.0111771
21,6,8.38429,-0.000610352,-0.00106812,-2.42562,0.0553758,-0.075063,0.054128,0.052965,-0.0931465,0.150506,-0.128513,-0.0816549,0.03479,0.0280762,0.0271606,0.0131989,0.0562286,-0.00534058,0.0353241,0.00865936,-9.97986,-0.0617981,-0.000572205,0.0180435,0.180664,-0.0187302,-0.0260162,-0.060997,0.0199509
21,7,7.95522,0.00152588,-0.000457764,-2.42714,0.0565965,-0.0747579,0.0556539,0.0630358,-0.0925361,0.145624,-0.125461,-0.0822652,0.0189209,0.0263596,0.0223541,0.0170517,0.0606155,-0.00335693,0.0306702,0.0115585,-9.97986,-0.0443649,-0.00541687,0.0217819,0.181885,-0.0125122,-0.0270462,-0.0643158,0.0227356
21,8,8.14015,0.00183105,0,-2.42684,0.0550706,-0.0741475,0.0516866,0.0709703,-0.0913154,0.144708,-0.124851,-0.0828756,0.00961304,0.0214386,0.0131989,0.0128174,0.0654602,-0.000267029,0.0295258,0.0056076,-9.97986,-0.0121689,-0.00225067,0.0261688,0.171432,-0.0138474,-0.0258636,-0.0648499,0.0221634
21,9,9.5641,0.000915527,0.000305176,-2.42623,0.0553758,-0.0759786,0.0538228,0.0856188,-0.0919257,0.143487,-0.126987,-0.0831808,0.00278473,0.0185013,0.0113297,0.0146866,0.0735855,-0.00400543,0.0263977,0.00953674,-9.97986,0.0149536,-0.00305176,0.0289917,0.173531,-0.0151825,-0.0265503,-0.0606537,0.0215149
22,0,10.0097,-0.000915527,0.00213623,-2.42837,0.0538499,-0.0765889,0.0532125,0.0941637,-0.0928413,0.141961,-0.124851,-0.0862325,0.0125885,0.0196838,0.0111771,0.0139999,0.0662231,-0.00183105,0.0322723,0.00797272,-9.97986,0.0272369,-0.00225067,0.031395,0.167084,-0.00873566,-0.0315857,-0.0610733,0.022316
22,1,10.0097,-0.000915527,0.000152588,-2.42959,0.0538499,-0.0765889,0.0568746,0.0770738,-0.0949775,0.144403,-0.126377,-0.0865377,0.00865936,0.0160217,0.0102234,0.0138092,0.0691605,0.00137329,0.0384903,0.0056839,-9.97986,-0.00148773,-0.00156403,0.0299835,0.161057,-0.0056839,-0.0323486,-0.0675583,0.0205231
22,2,10.0097,-0.000305176,-0.000762939,-2.4302,0.0532396,-0.0753682,0.0522969,0.0712755,-0.0946723,0.141961,-0.121799,-0.0874532,-0.00926971,0.00976563,0.00583649,0.0094986,0.0674438,0.00236511,0.0321198,0.0128174,-9.97986,-0.0160599,-0.00164032,0.0327301,0.152016,-0.00518799,-0.0382233,-0.068779,0.0209427
22,3,10.0097,-0.000305176,-0.000610352,-2.42837,0.0541551,-0.0759786,0.0516866,0.0697496,-0.0949775,0.142267,-0.127598,-0.0880636,-0.00370026,0.00728607,0.0037384,0.00988007,0.0673294,0.00209808,0.0339508,0.00572205,-9.97986,-0.0274277,-0.00259399,0.0334167,0.145454,-0.00240326,-0.0362778,-0.0643158,0.02491
22,4,10.0097,-0.000305176,-0.000305176,-2.42989,0.0550706,-0.0747579,0.0553487,0.0685289,-0.0946723,0.144098,-0.127598,-0.0871481,0.0122452,0.00980377,-0.00106812,0.0110245,0.0642776,0.0125885,0.0344849,-0.00087738,-9.97986,-0.0364685,0.00106812,0.0276566,0.14431,-0.00789642,-0.0337982,-0.0627136,0.0212479
22,5,10.0097,0.000305176,-0.000915527,-2.42806,0.0547655,-0.0756734,0.0516866,0.0706652,-0.0949775,0.145013,-0.123935,-0.0862325,0.0284195,-0.000457764,0.000762939,0.0135422,0.0654602,0.0241852,0.0268173,0.00587463,-9.97986,-0.0168228,0.00366211,0.0174713,0.136185,-0.00682831,-0.0365448,-0.0577927,0.017662
22,6,10.0097,0.000305176,-0.000457764,-2.42745,0.0547655,-0.0747579,0.0522969,0.0709703,-0.0928413,0.143792,-0.127292,-0.0850118,0.0265121,0.00610352,0.00141144,0.00743866,0.0644302,0.0270081,0.031662,0.00732422,-9.97986,0.0166321,-0.00476837,0.0112915,0.124817,-0.00350952,-0.0308228,-0.0471497,0.0176239
22,7,10.0097,0.000305176,-0.000610352,-2.42684,0.0553758,-0.0756734,0.0565694,0.07036,-0.0937568,0.144708,-0.126987,-0.085317,0.00610352,0.0111389,0.00263214,0.0163269,0.0603867,0.031395,0.0350571,0.00499725,-9.97986,0.0377655,7.62939e-005,0.00171661,0.11425,-0.00144958,-0.0351715,-0.0401306,0.0114822
22,8,10.0097,-0.000915527,-0.000305176,-2.42714,0.0553758,-0.0744527,0.0532125,0.0700548,-0.0934516,0.145318,-0.129734,-0.0850118,0.0296402,0.00701904,0.00289917,0.0118256,0.0601196,0.0257111,0.0365829,0.0100708,-9.97986,0.0493622,0.000534058,-0.00190735,0.113258,0.00221252,-0.0349045,-0.0424194,0.00545502
22,9,10.0097,0.000915527,-0.000152588,-2.42714,0.0550706,-0.0744527,0.0535176,0.0715807,-0.0922309,0.146234,-0.124546,-0.0825704,0.0419617,0.00473022,0.0037384,0.00816345,0.0528336,0.0253296,0.0318146,0.00896454,-9.97986,0.0626755,0.00350952,-0.00144958,0.107307,0.00370026,-0.031662,-0.0433731,-0.00358582
23,0,10.0097,0.0012207,-0.000610352,-2.42379,0.0565965,-0.0735371,0.0553487,0.07036,-0.0919257,0.145318,-0.124241,-0.0816549,0.0188065,0.0102615,0.00339508,0.00602722,0.0551605,0.0338364,0.0338745,0.0138474,-9.97986,0.0600433,0.00278473,0.00125885,0.0989914,0.00617981,-0.0280762,-0.0330734,-0.00534058
23,1,10.0097,0.00183105,-0.000305176,-2.42501,0.0547655,-0.0744527,0.0544332,0.0718859,-0.0922309,0.145624,-0.125766,-0.0819601,0.0127792,0.00762939,0.00198364,0.0121689,0.0475311,0.0331497,0.031395,0.0137329,-9.97986,0.0737,0.00289917,0.00328064,0.0857925,0.0115967,-0.0271606,-0.0291824,0.0012207
23,2,10.0097,0.000610352,-0.000305176,-2.4244,0.0559862,-0.0738423,0.0544332,0.0712755,-0.0925361,0.147149,-0.124241,-0.0816549,0.0149918,0.0118256,0.00743866,0.016861,0.0457764,0.0313568,0.0300217,0.00911713,-9.97986,0.0942993,0.00228882,0.00495911,0.0791168,0.00904083,-0.0214767,-0.0242233,0.00339508
23,3,10.0097,-0.000610352,-0.000915527,-2.42501,0.0572069,-0.0729268,0.0516866,0.0731066,-0.0910102,0.146234,-0.124851,-0.0810445,0.0179291,0.0177002,0.00553131,0.015564,0.0429153,0.0296402,0.0283432,0.0125122,-9.97986,0.096283,-0.000495911,0.01194,0.072403,0.0103378,-0.0162888,-0.0219727,0.00377655
23,4,10.0097,0.000610352,-0.000457764,-2.42501,0.0559862,-0.0738423,0.054128,0.0541857,-0.094062,0.145318,-0.126377,-0.0825704,0.0172043,0.0180435,0.00923157,0.0164795,0.0388718,0.0339127,0.0315857,0.0139236,-9.97986,0.100441,-0.00148773,0.0183105,0.0653839,0.0180435,-0.0149918,-0.0151443,0.00358582
23,5,9.48079,0.000610352,-0.00213623,-2.42531,0.0569017,-0.0744527,0.0547383,0.0453356,-0.0937568,0.146539,-0.126682,-0.0825704,0.00854492,0.0157928,0.0119019,0.0159454,0.0342941,0.0331497,0.0310516,0.0151443,-9.97986,0.103798,-0.00240326,0.0230026,0.0580215,0.0166702,-0.0146484,-0.00938416,0.00225067
23,6,8.21584,0.000305176,-0.00228882,-2.42623,0.0559862,-0.0744527,0.0599263,0.0517443,-0.0922309,0.145624,-0.125766,-0.0834859,0.0139236,0.018158,0.01194,0.0148392,0.0336075,0.0361252,0.0310898,0.0180054,-9.97986,0.106926,-0.000305176,0.0203705,0.0531769,0.021553,-0.0123596,-0.0107574,-0.00171661
23,7,7.81789,0.00152588,-0.000915527,-2.42623,0.0559862,-0.0747579,0.0550435,0.0633409,-0.0919257,0.146844,-0.126682,-0.0831808,0.0136566,0.021553,0.0143814,0.0165176,0.0309753,0.0378036,0.0289536,0.0159836,-9.97986,0.0944519,0.00125885,0.0201416,0.0482941,0.0207901,-0.0120163,-0.00644684,-0.00125885
23,8,8.03761,0.00152588,0.000610352,-2.42714,0.0550706,-0.0744527,0.0538228,0.0700548,-0.0919257,0.145013,-0.126377,-0.0825704,0.00968933,0.0215912,0.0147629,0.0161362,0.0327682,0.0365829,0.0263977,0.018425,-9.97986,0.0777817,0.000305176,0.0159073,0.0476074,0.0201797,-0.0184631,-0.00682831,-0.000534058
23,9,9.45729,0.00183105,0.000152588,-2.42592,0.0547655,-0.0747579,0.0516866,0.0840929,-0.0913154,0.145013,-0.126072,-0.0834859,0.00904083,0.0182724,0.017662,0.0143433,0.0276947,0.0383759,0.025177,0.0159836,-9.97986,0.0629807,0.000419617,0.0150299,0.0478363,0.0193787,-0.0172424,-0.0056839,0.00198364
24,0,10.0097,0.00244141,0.00152588,-2.42898,0.0544603,-0.0768941,0.0519917,0.094774,-0.0931465,0.143487,-0.126682,-0.0859274,0.0141907,0.0233841,0.0162888,0.014534,0.0276184,0.039978,0.0204468,0.0169373,-9.97986,0.049057,-0.00106812,0.0136948,0.0403976,0.0201416,-0.0138474,-0.00259399,0.00389099
24,1,10.0097,-0.0012207,-0.000152588,-2.42989,0.0535448,-0.0747579,0.0513814,0.0789049,-0.0952827,0.143792,-0.125766,-0.0868429,0.0106049,0.0244904,0.0171661,0.0145721,0.0238037,0.0428772,0.022049,0.0158691,-9.97986,0.0401688,-0.00152588,0.0145721,0.0382996,0.0216675,-0.0133896,-0.00137329,0.00610352
24,2,10.0097,-0.000610352,-0.000610352,-2.42928,0.0541551,-0.0759786,0.0526021,0.0715807,-0.0946723,0.143792,-0.126987,-0.0859274,0.0082016,0.0269318,0.0185394,0.0174713,0.0182724,0.0431442,0.0246429,0.015564,-9.97986,0.0294876,0.00312805,0.0131989,0.0315857,0.0205231,-0.0141907,-0.00289917,0.00640869
24,3,10.0097,-0.000915527,-0.000610352,-2.42959,0.0535448,-0.0765889,0.0535176,0.0691393,-0.095893,0.144098,-0.126987,-0.0880636,0.0104904,0.026741,0.0201035,0.0162125,0.023613,0.0419998,0.026741,0.0131607,-9.97986,0.0261307,-0.00259399,0.0138092,0.0297928,0.0179672,-0.0136566,0.00350952,0.00587463
24,4,10.0097,0.000610352,-0.000610352,-2.42867,0.0535448,-0.0759786,0.0519917,0.0691393,-0.0949775,0.144098,-0.127598,-0.0865377,0.00778198,0.0276184,0.0182343,0.0165939,0.0271225,0.0399017,0.0302124,0.0146866,-9.97986,0.0204468,-0.00408173,0.00823975,0.0220871,0.0177765,-0.0102615,-0.000495911,0.00385284
24,5,10.0097,0.000610352,-0.000610352,-2.42745,0.0547655,-0.0768941,0.0538228,0.0691393,-0.0946723,0.142877,-0.128208,-0.0868429,0.00640869,0.0274277,0.0185776,0.0166321,0.0182343,0.044136,0.0255966,0.0164795,-9.97986,0.0163651,-0.00221252,0.00823975,0.0193787,0.0220108,-0.0109863,0.00244141,0.00534058
24,6,10.0097,0.000305176,-0.000457764,-2.42776,0.0550706,-0.0753682,0.0526021,0.0688341,-0.0937568,0.144403,-0.128513,-0.0850118,0.00793457,0.0294876,0.0175858,0.0176239,0.0214386,0.0481033,0.0260162,0.015564,-9.97986,0.0125885,0.00114441,0.0123596,0.0173187,0.0215149,-0.0038147,0.00217438,0.00629425
24,7,10.0097,-0.000915527,-0.000457764,-2.42714,0.0547655,-0.0753682,0.0529073,0.0706652,-0.0934516,0.144403,-0.127598,-0.0850118,0.0106812,0.0297928,0.0203705,0.0186157,0.0241089,0.0437546,0.0291824,0.0170517,-9.97986,0.0120544,7.62939e-005,0.0101852,0.0143433,0.0143051,-0.00259399,0.00244141,0.0043869
24,8,10.0097,0.000305176,0,-2.42806,0.0547655,-0.0747579,0.0516866,0.0691393,-0.0934516,0.145624,-0.126987,-0.0847066,0.00324249,0.0329971,0.0184631,0.0137329,0.0222778,0.0382233,0.0269318,0.0195313,-9.97986,0.0115204,-0.00370026,0.016098,0.0138092,0.0205994,0.00274658,0.00347137,0.00572205
24,9,10.0097,-0.000610352,-0.000152588,-2.42684,0.0562914,-0.0744527,0.0553487,0.0694445,-0.0928413,0.145318,-0.127598,-0.0828756,0.00473022,0.0270462,0.0189972,0.0210571,0.0207901,0.0386429,0.0259781,0.0177765,-9.97986,0.00747681,-0.00534058,0.0128937,0.0162125,0.0177383,-0.0037384,0.00335693,0.0113678
25,0,10.0097,0.000305176,0,-2.4247,0.0553758,-0.0744527,0.054128,0.0700548,-0.0919257,0.147149,-0.125461,-0.0822652,0.00900269,0.030632,0.02285,0.0166321,0.0192261,0.042305,0.0184631,0.0158691,-9.97986,0.00404358,-0.00667572,0.0160599,0.0137329,0.0163651,-0.00846863,0.00705719,0.0139999
25,1,10.0097,-0.000610352,-0.000152588,-2.4247,0.055681,-0.0741475,0.0568746,0.0706652,-0.0910102,0.146234,-0.124546,-0.0810445,0.00728607,0.0290298,0.0189972,0.0123215,0.0160599,0.0392532,0.013504,0.0199127,-9.97986,0.0025177,-0.00427246,0.0140762,0.00873566,0.0110626,-0.00667572,0.00423431,0.0128937
25,2,10.0097,-0.000305176,-0.000305176,-2.4247,0.0565965,-0.0735371,0.0547383,0.072191,-0.0931465,0.147455,-0.123325,-0.0816549,0.00564575,0.0266266,0.0195313,0.0145721,0.0226974,0.0460434,0.015564,0.0215149,-9.97986,0.00205994,-0.00209808,0.0180435,0.0141144,0.0124359,0.000801086,0.00488281,0.00972748
25,3,10.0097,-0.000915527,0,-2.4247,0.0575121,-0.0738423,0.0556539,0.0709703,-0.090705,0.146539,-0.12363,-0.080129,0.0056076,0.0308609,0.019989,0.0147247,0.0206375,0.0458145,0.0164795,0.020256,-9.97986,-7.62939e-005,0.000267029,0.0183868,0.00736237,0.0125504,-0.00160217,0.00926971,0.0120544
25,4,10.0097,-0.000610352,0,-2.42837,0.0575121,-0.073232,0.0547383,0.0538805,-0.0934516,0.145013,-0.125461,-0.0816549,0.00606537,0.033493,0.022316,0.0154877,0.0148392,0.0474548,0.0184631,0.0229645,-9.97986,-0.00087738,0.000495911,0.0168228,0.0105667,0.0105286,0.00320435,0.00728607,0.0111008
25,5,9.66298,0.000610352,-0.00167847,-2.42623,0.0565965,-0.0747579,0.0550435,0.0465563,-0.0937568,0.14776,-0.125156,-0.0813497,0.00728607,0.0302124,0.0203705,0.0147629,0.0191116,0.0492477,0.019722,0.0191879,-9.97986,-0.00347137,-0.000572205,0.0205231,0.00736237,0.0127029,0.0133896,0.0119781,0.0151825
25,6,8.35805,-0.0012207,-0.000915527,-2.42501,0.0565965,-0.075063,0.0544332,0.052965,-0.0943672,0.147149,-0.126377,-0.0828756,0.0094986,0.0294495,0.0171661,0.0168228,0.0242233,0.052681,0.0172043,0.0174713,-9.97986,0.00125885,0.0030899,0.0211716,0.00923157,0.0146866,0.0175858,0.0112152,0.0130081
25,7,7.94332,0.000305176,-0.000610352,-2.4247,0.0559862,-0.0738423,0.0519917,0.0645616,-0.0913154,0.144708,-0.125156,-0.0819601,0.0120544,0.0335312,0.0245285,0.0164032,0.0251389,0.0572586,0.0186157,0.019989,-9.97986,-0.00663757,0.00148773,0.0170898,0.00465393,0.0139236,0.0263214,0.0141525,0.0108719
25,8,8.14107,0.000305176,0.000305176,-2.42653,0.0553758,-0.0747579,0.0544332,0.07036,-0.0910102,0.146844,-0.126377,-0.0834859,0.0117874,0.0350189,0.0321198,0.0145721,0.0200272,0.0572586,0.0206757,0.0120163,-9.97986,-0.00507355,-0.000457764,0.0183105,0.00312805,0.0111008,0.0318527,0.0159073,0.0126266
25,9,9.51741,-0.000305176,0.00106812,-2.42714,0.0553758,-0.0744527,0.0538228,0.0850084,-0.0913154,0.144403,-0.125461,-0.0844015,0.0110245,0.0293732,0.0220871,0.0157166,0.0237656,0.0592041,0.0179672,0.0233841,-9.97986,-0.00404358,0.00484467,0.0187683,0.00701904,0.00637054,0.0236511,0.0249863,0.00995636
26,0,10.0097,0.0012207,0.00152588,-2.42867,0.0532396,-0.0762837,0.050771,0.094774,-0.0931465,0.142877,-0.125766,-0.085317,0.00980377,0.0323105,0.0230789,0.0172806,0.0230026,0.0599289,0.0244904,0.0205994,-9.97986,-0.00530243,0.00465393,0.0157166,0.00404358,0.0123596,0.0208282,0.0254059,0.00747681
26,1,10.0097,0.00213623,0.0012207,-2.42898,0.0532396,-0.0759786,0.0526021,0.0789049,-0.0955879,0.143487,-0.126377,-0.0865377,0.013237,0.0352478,0.0250626,0.0184631,0.0277328,0.0655365,0.0267029,0.0165558,-9.97986,-0.00102997,0.00488281,0.014801,0.00461578,0.013237,0.0309372,0.0307846,0.0112152
26,2,10.0097,-0.00152588,-0.000152588,-2.42959,0.0526292,-0.0762837,0.0526021,0.0712755,-0.0955879,0.142572,-0.127292,-0.0871481,0.0127411,0.0256729,0.0244141,0.0163651,0.025177,0.0597763,0.0267792,0.0175095,-9.97986,-0.00751495,0.00495911,0.00926971,0.00473022,0.00671387,0.0331879,0.0272751,0.00423431
26,3,10.0097,0.000610352,-0.0012207,-2.42959,0.0529344,-0.0771993,0.0538228,0.0697496,-0.0949775,0.144403,-0.127292,-0.0871481,0.00785828,0.0359726,0.0244522,0.00988007,0.0260162,0.0621033,0.0312424,0.0152206,-9.97986,-0.000419617,0.0136948,0.00549316,0.00289917,0.00831604,0.0331879,0.0291824,0.00682831
26,4,10.0097,0.00244141,-0.000610352,-2.42989,0.0547655,-0.0759786,0.0519917,0.07036,-0.0949775,0.143792,-0.126072,-0.0865377,0.00110626,0.0340652,0.0219345,0.0135422,0.0300217,0.0641632,0.0292206,0.0191498,-9.97986,-0.00205994,0.00427246,0.00431061,0.00282288,0.0125885,0.0287247,0.0292969,0.00579834
26,5,10.0097,0.000915527,-0.000457764,-2.42837,0.0559862,-0.075063,0.0526021,0.07036,-0.0946723,0.142267,-0.126682,-0.0862325,-0.000686646,0.0279999,0.0235748,0.0145721,0.0284958,0.0603104,0.0346756,0.0216675,-9.97986,-0.00362396,0.00789642,0.00205994,0.000114441,0.0196457,0.0312042,0.0301743,0.00278473
26,6,10.0097,-0.000915527,-0.000305176,-2.42837,0.0550706,-0.0753682,0.0532125,0.0691393,-0.0937568,0.144708,-0.127292,-0.0844015,0.00152588,0.0317383,0.0222778,0.0164032,0.0285339,0.0510788,0.0356674,0.0189209,-9.97986,-0.00862122,0.00545502,0.00709534,-0.00976563,0.025177,0.0306702,0.034523,-0.0043869
26,7,10.0097,0.00152588,-0.000610352,-2.42806,0.0544603,-0.075063,0.0544332,0.07036,-0.0925361,0.145318,-0.126682,-0.0850118,0.00331879,0.031395,0.0226593,0.0146866,0.0276947,0.0471878,0.0379562,0.0172806,-9.97986,-0.00148773,0.00751495,0.0117493,-0.00610352,0.021553,0.0337601,0.0354767,-0.0025177
26,8,10.0097,-0.000610352,0,-2.42653,0.0550706,-0.0759786,0.0538228,0.0694445,-0.0922309,0.146234,-0.125766,-0.0834859,0.00911713,0.0305176,0.0186539,0.0144196,0.0343323,0.0408173,0.0379944,0.017662,-9.97986,-0.00164032,0.00488281,0.0183487,-0.0044632,0.0234985,0.0299072,0.0346756,-0.00320435
26,9,10.0097,0.000610352,-0.000305176,-2.42653,0.0565965,-0.0747579,0.0553487,0.0700548,-0.0922309,0.145624,-0.125766,-0.0822652,0.00801086,0.0286484,0.0219345,0.0136566,0.0333405,0.0405121,0.0337601,0.0165558,-9.97986,0.000228882,0.00255585,0.019455,-0.0120926,0.0250626,0.0245285,0.0345612,0.000572205
27,0,10.0097,-0.000305176,0,-2.42623,0.0544603,-0.0744527,0.0547383,0.0712755,-0.0913154,0.146539,-0.124241,-0.0816549,0.0101852,0.0274658,0.0243378,0.0118256,0.0336456,0.0358963,0.039978,0.0152588,-9.97986,0.000343323,0.00541687,0.0234604,-0.0111008,0.0234222,0.0218582,0.0320816,-0.00408173
27,1,10.0097,0.000305176,-0.000457764,-2.42501,0.0547655,-0.0726216,0.0550435,0.07036,-0.0925361,0.147455,-0.124241,-0.0810445,0.00923157,0.0326157,0.0201035,0.0141144,0.0323486,0.0310516,0.0371552,0.019455,-9.97986,-0.00087738,0.00537872,0.0276947,-0.0139618,0.0202179,0.0203705,0.0351334,-0.00289917
27,2,10.0097,0.00213623,0.000305176,-2.42562,0.055681,-0.0738423,0.0544332,0.0712755,-0.0903999,0.146539,-0.125156,-0.0816549,0.0117874,0.0305557,0.0244141,0.0153732,0.0387192,0.0335312,0.0410843,0.0242615,-9.97986,0.00205994,0.0101852,0.0332642,-0.00957489,0.0300217,0.0230408,0.0416565,0.00343323
27,3,10.0097,0,-0.000762939,-2.42501,0.0572069,-0.0738423,0.0553487,0.0718859,-0.0922309,0.146234,-0.122715,-0.0798238,0.0018692,0.0219727,0.0230026,0.0087738,0.0279236,0.0237274,0.0265884,0.0112915,-9.97986,-0.00652313,0.000114441,0.0257874,-0.0189972,0.0163651,0.0056076,0.0351715,-0.00740051
27,4,10.0097,0,0.000305176,-2.42623,0.0559862,-0.0744527,0.0544332,0.0523546,-0.0952827,0.146234,-0.126987,-0.0828756,0.00984192,0.0345612,0.0273514,0.0148392,0.0337601,0.0253296,0.0337601,0.0191116,-9.97986,0.0031662,0.00640869,0.0397491,-0.0127029,0.0227356,0.0130081,0.043335,-0.00190735
27,5,9.46645,0.000610352,-0.00167847,-2.42501,0.0565965,-0.0735371,0.054128,0.0456407,-0.0931465,0.146844,-0.126377,-0.0822652,0.00762939,0.0308228,0.0225449,0.00953674,0.0387955,0.0267792,0.0294113,0.014534,-9.97986,0.001297,0.00591278,0.0305557,-0.0164413,0.0183105,0.00667572,0.0361252,-0.00743866
27,6,8.21004,0.000610352,-0.00167847,-2.42592,0.0559862,-0.0753682,0.0544332,0.0520494,-0.0925361,0.147455,-0.125766,-0.0816549,0.00843048,0.0300598,0.021553,0.0109863,0.0374985,0.0226974,0.0278473,0.0128174,-9.97986,-0.000762939,0.000228882,0.0325775,-0.0112915,0.0231934,0.00640869,0.0404739,-0.0056076
27,7,7.8185,-0.00213623,0.000305176,-2.42562,0.0550706,-0.0744527,0.0556539,0.0630358,-0.0913154,0.144708,-0.125156,-0.0819601,0.0115204,0.0374985,0.0246811,0.014267,0.0376892,0.0201416,0.0244904,0.0141907,-9.97986,0.00541687,0.00720978,0.0366592,-0.00988007,0.0190735,0.00656128,0.0393677,-0.00679016
27,8,7.97414,0.000610352,0.000305176,-2.42714,0.0550706,-0.0747579,0.050771,0.0700548,-0.0913154,0.145624,-0.126072,-0.0834859,0.00762939,0.0362396,0.0218201,0.011673,0.0358582,0.0156784,0.0289917,0.0170517,-9.97986,0.0056076,0.00286102,0.0386047,-0.0104523,0.0199509,0.00492096,0.0403976,-0.00736237
27,9,9.39443,0.000610352,0.00137329,-2.42623,0.0553758,-0.075063,0.0547383,0.0847032,-0.0913154,0.144708,-0.126682,-0.0834859,0.0056076,0.0331879,0.0181198,0.0102997,0.0353622,0.0165558,0.0243378,0.0140381,-9.97986,0.00648499,0.00221252,0.041008,-0.00530243,0.0202942,0.00110626,0.0404739,-0.00846863
28,0,10.0097,-0.00244141,0.00259399,-2.42867,0.0532396,-0.0756734,0.0526021,0.094774,-0.0928413,0.142877,-0.125766,-0.0850118,0.00946045,0.0282288,0.0205994,0.00785828,0.033493,0.0146866,0.0257111,0.0190735,-9.97986,0.00427246,0.00442505,0.0368118,-0.00240326,0.0247574,0.00789642,0.0417709,-0.00850677
28,1,10.0097,0,0.000305176,-2.42776,0.0544603,-0.0771993,0.0532125,0.0779894,-0.0952827,0.143182,-0.127292,-0.0859274,0.00808716,0.0286484,0.0225449,0.00782013,0.0345993,0.00766754,0.0251389,0.0126266,-9.97986,0.00743866,0.00396729,0.0435638,0.00339508,0.0235367,0.0110245,0.0396347,-0.00831604
28,2,10.0097,-0.000305176,0.000305176,-2.42989,0.0541551,-0.0756734,0.0526021,0.0715807,-0.095893,0.143182,-0.128208,-0.0877584,0.00812531,0.0290298,0.0156784,0.0118256,0.0349808,0.00667572,0.0253677,0.0191116,-9.97986,0.0109482,0.00450134,0.0432968,0.00209808,0.0193024,0.0104141,0.0388336,-0.0105286
28,3,10.0097,0.0012207,0.000152588,-2.42898,0.0535448,-0.0762837,0.0510762,0.07036,-0.0961982,0.143487,-0.127903,-0.0880636,0.0037384,0.0262451,0.0198746,0.0139618,0.0370407,-0.00152588,0.0220871,0.0156403,-9.97986,0.0075531,-0.0012207,0.042305,0.00728607,0.0227356,0.00812531,0.0365829,-0.00930786
28,4,10.0097,0.0012207,-0.000457764,-2.42898,0.0544603,-0.0762837,0.0504659,0.0688341,-0.0952827,0.143792,-0.127598,-0.0856222,0.00339508,0.0309372,0.018425,0.0127411,0.0353622,7.62939e-005,0.0200272,0.0149536,-9.97986,0.0082016,0.000534058,0.0437164,0.00865936,0.0232315,0.00415802,0.0375748,-0.00679016
28,5,10.0097,0,-0.000610352,-2.42837,0.0547655,-0.0756734,0.0532125,0.0700548,-0.0943672,0.142572,-0.126377,-0.0868429,0.00526428,0.0312424,0.017662,0.00724792,0.0314713,-0.00526428,0.0180435,0.0165558,-9.97986,0.00938416,0.00350952,0.0462723,0.001297,0.0202179,0.0088501,0.0370789,-0.00835419
28,6,10.0097,-0.0012207,-0.00106812,-2.42867,0.0550706,-0.0753682,0.0532125,0.0694445,-0.0943672,0.144708,-0.126987,-0.085317,0.00869751,0.0291824,0.0202942,0.0094986,0.0338745,-0.0121689,0.0182724,0.0170898,-9.97986,0.00934601,0.00244141,0.0450897,0.0113678,0.0217056,0.00972748,0.0390244,-0.0125504
28,7,10.0097,0.000305176,0.000610352,-2.42837,0.0544603,-0.075063,0.0510762,0.0697496,-0.0946723,0.144708,-0.127292,-0.0850118,0.0119781,0.0292969,0.0209427,0.0140762,0.0354767,-0.0110626,0.0123596,0.0213242,-9.97986,0.0143433,0.00144958,0.0381851,0.0202179,0.0162888,0.00617981,0.0403595,-0.0181198
28,8,10.0097,0.000305176,0.000610352,-2.42623,0.0553758,-0.0756734,0.0526021,0.0709703,-0.0928413,0.144403,-0.122104,-0.0837911,0.00839233,0.0250626,0.013504,0.00720978,0.0340652,-0.0163651,0.00858307,0.0120926,-9.97986,0.0087738,-0.00293732,0.0417709,0.0240707,0.020256,0.00190735,0.0338364,-0.0197601
28,9,10.0097,0.000305176,0.00106812,-2.42562,0.0565965,-0.0741475,0.0544332,0.0706652,-0.0897895,0.145318,-0.125766,-0.0831808,0.0224686,0.0259399,0.018692,0.0105667,0.0378418,-0.0172424,0.0122833,0.0212097,-9.97986,0.0135803,-0.00133514,0.0374985,0.0259018,0.0162125,0.0025177,0.0320816,-0.0152969
29,0,10.0097,0.000610352,-0.000305176,-2.42592,0.0565965,-0.0741475,0.0556539,0.0706652,-0.090705,0.146234,-0.124851,-0.0810445,0.0227737,0.0305557,0.015831,0.0104141,0.0329208,-0.0144958,0.0140762,0.0160599,-9.97986,0.0122833,0.00282288,0.0363159,0.0235748,0.0180435,-0.000190735,0.032959,-0.0137711
29,1,10.0097,0,-0.000305176,-2.42501,0.0562914,-0.0729268,0.0547383,0.072191,-0.0928413,0.148065,-0.126682,-0.0813497,0.0193024,0.0299835,0.0190353,0.01091,0.0320435,-0.0164795,0.0142288,0.0193787,-9.97986,0.01091,0.000839233,0.0374222,0.022049,0.0208664,-0.00282288,0.0330353,-0.0174713
29,2,10.0097,0.000610352,0,-2.42562,0.0559862,-0.0741475,0.0553487,0.0712755,-0.0922309,0.146539,-0.124241,-0.0810445,0.0144958,0.0187683,0.0173187,0.0144196,0.027504,-0.0160599,0.0247955,0.0224686,-9.97986,0.0150681,-0.000648499,0.0358963,0.0195313,0.0159454,-0.00240326,0.0288773,-0.0128555
29,3,10.0097,-0.000305176,0.000305176,-2.4247,0.0572069,-0.0741475,0.0565694,0.0712755,-0.0919257,0.146844,-0.124546,-0.0810445,0.0128937,0.00930786,0.0151443,0.00869751,0.0260925,-0.0165176,0.0261688,0.0256729,-9.97986,0.0170517,-0.00511169,0.028038,0.0171661,0.0195694,-0.00190735,0.0260162,-0.00556946
29,4,10.0097,0.000610352,0.000152588,-2.4247,0.0559862,-0.0747579,0.0535176,0.0538805,-0.0952827,0.145929,-0.129123,-0.0828756,0.0109863,0.00881195,0.017395,0.0107574,0.0248337,-0.022316,0.0223541,0.02491,-9.97986,0.0151443,-0.00286102,0.0254822,0.0153732,0.0160217,-0.000572205,0.0214386,-0.0205994
29,5,9.53237,0,-0.00244141,-2.42562,0.055681,-0.0744527,0.0538228,0.0447252,-0.0928413,0.146234,-0.125766,-0.0810445,0.00926971,0.00980377,0.0189972,0.0137711,0.0231934,-0.0141144,0.0214005,0.0291443,-9.97986,0.0124359,-0.00305176,0.0162506,0.0135422,0.0194931,-0.00202179,0.0213623,-0.0447083
29,6,8.18654,0.0012207,-0.00106812,-2.42501,0.0562914,-0.0738423,0.0535176,0.052965,-0.0931465,0.146539,-0.126072,-0.0822652,0.0130463,0.0115204,0.0214005,0.0157547,0.0247574,-0.0169373,0.0359344,0.0283432,-9.97986,0.0159454,-0.000190735,0.00236511,0.00553131,0.0170898,-0.00724792,0.0264359,-0.0524521
29,7,7.78646,0.000610352,-0.000915527,-2.42623,0.0541551,-0.0747579,0.0550435,0.0621202,-0.0931465,0.146234,-0.124241,-0.0828756,0.0149536,0.0175476,0.023613,0.0149536,0.0212479,-0.0101471,0.0369263,0.0352097,-9.97986,0.00854492,0,-0.00259399,-0.00709534,0.019455,-0.00831604,0.0321198,-0.051651
29,8,7.99275,-0.000610352,-0.000457764,-2.42684,0.0553758,-0.0747579,0.0538228,0.0697496,-0.0922309,0.145624,-0.126072,-0.0831808,0.0149155,0.0225067,0.0326538,0.017128,0.0180054,-0.0122833,0.0212097,0.0322342,-9.97986,0.0117111,-0.00579834,-0.0115967,-0.00915527,0.0191116,-0.00469208,0.0383759,-0.0424576
29,9,9.40084,-0.0012207,0.000762939,-2.42714,0.0538499,-0.0738423,0.0529073,0.0847032,-0.090705,0.146234,-0.125461,-0.0831808,0.0147247,0.0312042,0.0393677,0.0213242,0.0160217,-0.0147247,0.0217056,0.0324249,-9.97986,0.0106049,-0.0203705,-0.0101471,-0.00782013,0.0234604,-0.00270844,0.0466156,-0.0336838
30,0,10.0097,-0.000915527,0.00320435,-2.42837,0.0532396,-0.0768941,0.0535176,0.0966051,-0.0922309,0.145318,-0.130954,-0.0859274,0.0121307,0.0299835,0.0415802,0.018158,0.00976563,-0.0263977,0.0176239,0.0315094,-9.97986,0.0115204,-0.0212479,0.015564,-0.00762939,0.0281143,0.000534058,0.0531387,-0.024147
30,1,10.0097,-0.00183105,-0.000762939,-2.42928,0.0538499,-0.0753682,0.0529073,0.0782946,-0.095893,0.143792,-0.127903,-0.0862325,0.00919342,0.0323486,0.0409698,0.0127029,0.0043869,-0.0304794,0.00297546,0.0213623,-9.97986,0.00831604,-0.018959,0.0240707,-0.016861,0.0204086,-0.00530243,0.0542831,-0.0244522
30,2,10.0097,0.000915527,0.000610352,-2.42837,0.0553758,-0.0759786,0.0529073,0.0737169,-0.095893,0.144403,-0.126987,-0.0862325,0.0159836,0.0497818,0.0555038,0.020752,0.0115585,-0.0201035,0.000190735,0.0181198,-9.97986,0.0169754,-0.00247955,0.0331116,-0.0157928,0.025177,0.00648499,0.0662994,-0.0119781
30,3,10.0097,0.000610352,-0.000610352,-2.42928,0.0523241,-0.0759786,0.0501607,0.0697496,-0.0955879,0.141656,-0.128818,-0.0877584,0.00904083,0.0489044,0.0467682,0.0116348,0.00202179,-0.033493,-0.0106812,0.00614166,-9.97986,0.00808716,0,0.0263214,-0.0169754,0.0243378,-0.000495911,0.0579834,-0.0222778
30,4,10.0097,-0.000305176,0,-2.42928,0.0535448,-0.0759786,0.0522969,0.0694445,-0.0946723,0.142267,-0.127292,-0.0868429,0.0127411,0.071907,0.0522995,0.0150299,0.00717163,-0.0294113,0.00823975,0.00617981,-9.97986,0.0135422,-0.000839233,0.0382996,-0.00980377,0.0319672,0.00656128,0.0582504,-0.0204086
30,5,10.0097,0.000305176,0,-2.42959,0.0550706,-0.0759786,0.0532125,0.0679186,-0.0937568,0.143792,-0.127292,-0.0865377,0.00465393,0.0803757,0.0517273,0.00556946,0.0162506,-0.0261688,0.00549316,0.00961304,-9.97986,0.0114822,-0.0109482,0.0400162,-0.00953674,0.0305557,0.00564575,0.0538635,-0.0185394
30,6,10.0097,0.0012207,-0.000457764,-2.42714,0.0547655,-0.0738423,0.0522969,0.0706652,-0.0946723,0.145013,-0.124546,-0.0862325,0.0108719,0.0825119,0.0492096,0.00263214,0.00713348,-0.0319672,0.0111389,0.00423431,-9.97986,0.0125885,-0.01194,0.0457001,-0.00740051,0.0299454,0.00759125,0.0550079,-0.0185776
30,7,10.0097,-0.00274658,0,-2.42714,0.0538499,-0.075063,0.054128,0.0694445,-0.0949775,0.145013,-0.126072,-0.0844015,0.0159073,0.0999451,0.0520706,0.00423431,0.0130081,-0.0334549,0.0175476,0.00850677,-9.97986,0.0119781,-0.00499725,0.0494766,-0.0124359,0.0341034,0.00892639,0.0557709,-0.0105286
30,8,10.0097,-0.000305176,-0.000305176,-2.42776,0.0553758,-0.075063,0.0532125,0.0700548,-0.0925361,0.145624,-0.125156,-0.0837911,0.0146484,0.108833,0.0413513,-0.00259399,0.0114059,-0.0349426,0.0152588,0.00431061,-9.97986,0.0148773,-0.00434875,0.047226,-0.0170898,0.0299835,0.00865936,0.0481415,-0.0131989
30,9,10.0097,0.000305176,0.000305176,-2.42501,0.0565965,-0.075063,0.054128,0.0697496,-0.0931465,0.144708,-0.12363,-0.0831808,0.0120926,0.089798,0.0323868,0.00423431,0.0128555,-0.0269318,0.0122833,0.00350952,-9.97986,0.0172043,0.00305176,0.034256,-0.014801,0.0271988,0.0124741,0.0484467,-0.0202942
31,0,10.0097,-0.000305176,0,-2.42562,0.0569017,-0.075063,0.0550435,0.0715807,-0.0928413,0.144403,-0.124546,-0.0813497,0.0105667,0.0636673,0.0132751,0.00350952,0.00907898,-0.018158,0.0142288,0.00839233,-9.97986,0.0209427,0.00595093,0.0317001,-0.0234985,0.0190353,0.00705719,0.0469971,-0.0190353
31,1,10.0097,0.00152588,-0.000457764,-2.42501,0.0550706,-0.0744527,0.0547383,0.0715807,-0.0916206,0.145318,-0.124851,-0.0816549,0.0110245,0.0434875,-0.0030899,0.00774384,0.0160599,-0.00846863,0.0114059,0.00541687,-9.97986,0.0247955,-0.000267029,0.0263214,-0.0324249,0.0205231,0.0107574,0.0448227,-0.0230789
31,2,10.0097,0.000610352,-0.00106812,-2.4247,0.0572069,-0.075063,0.0550435,0.0700548,-0.0928413,0.146539,-0.125461,-0.0810445,0.013237,0.0295258,-0.0220871,0.00751495,0.0239563,-0.00228882,0.0126648,0.0109482,-9.97986,0.0267792,0.00404358,0.0185013,-0.0463486,0.0201035,0.0157547,0.0407791,-0.0371552
31,3,10.0097,0.000610352,-0.000305176,-2.42379,0.0572069,-0.0735371,0.0556539,0.0712755,-0.0919257,0.147455,-0.124851,-0.0813497,0.00514984,0.0117111,-0.0315857,0.00297546,0.0239944,0.00671387,0.013504,0.00785828,-9.97986,0.0257111,0.00125885,0.00843048,-0.0588608,0.0157166,0.0107193,0.0442886,-0.0402451
31,4,10.0097,0,-0.000610352,-2.42684,0.0553758,-0.0753682,0.0526021,0.0560167,-0.094062,0.145318,-0.126377,-0.0822652,0.0118637,-0.0107956,-0.0299454,0.0112915,0.0344467,0.0150681,0.0178909,0.0124359,-9.97986,0.0315094,-0.000762939,0.00366211,-0.0556183,0.0152969,0.00865936,0.0458527,-0.0212479
31,5,9.7112,-0.000915527,-0.00152588,-2.42623,0.0562914,-0.0738423,0.0544332,0.0459459,-0.0925361,0.145013,-0.128208,-0.0816549,0.0125504,-0.0481796,-0.024147,0.0151062,0.0329971,0.0172806,0.0187683,0.00701904,-9.97986,0.0316238,-0.0025177,0.0019455,-0.0688171,0.0162888,0.00686646,0.0453949,-0.00827789
31,6,8.43617,0.000305176,-0.00106812,-2.42623,0.0550706,-0.0744527,0.0550435,0.0526598,-0.0919257,0.145929,-0.125766,-0.0822652,0.00679016,-0.0687027,-0.0238419,0.00984192,0.0288391,0.020256,0.0128555,0.00831604,-9.97986,0.0291061,-0.00141144,0.00679016,-0.0735855,0.020752,0.00392914,0.044632,0.00190735
31,7,8.02419,0,-0.000762939,-2.42837,0.055681,-0.0738423,0.054128,0.0627306,-0.0922309,0.145929,-0.126987,-0.0816549,0.0127411,-0.0470352,-0.018158,0.0120163,0.0268555,0.0210953,0.022049,0.0136566,-9.97986,0.0293732,-0.0056076,0.0114822,-0.0767517,0.025444,0.0037384,0.0439835,0.0104904
31,8,8.16976,-0.000915527,-0.000457764,-2.42684,0.0541551,-0.0747579,0.0535176,0.0700548,-0.0922309,0.146234,-0.125766,-0.0825704,0.0128555,-0.039711,-0.0137329,0.0120926,0.00900269,0.0249481,0.0180054,0.0179291,-9.97986,0.0320435,-0.00461578,0.00366211,-0.0868607,0.0232697,0.00827789,0.0336838,0.0144196
31,9,9.60805,0,0.000305176,-2.42714,0.0535448,-0.0744527,0.0547383,0.0853136,-0.0910102,0.145624,-0.125461,-0.0834859,0.00675201,-0.031662,-0.00911713,0.0106812,-0.00972748,0.0353241,0.0247955,0.0177765,-9.97986,0.032959,-0.00534058,-0.00431061,-0.0959778,0.0222015,0.00720978,0.0314713,0.0193024
32,0,10.0097,0.0012207,0.00152588,-2.42867,0.0538499,-0.0765889,0.0522969,0.0950792,-0.0931465,0.145318,-0.125766,-0.0868429,0.0122833,-0.0120163,0.00473022,0.00812531,-0.0255966,0.043869,0.0230408,0.0178909,-9.97986,0.0368881,0.000724792,-0.0157166,-0.101662,0.0248718,0.0142288,0.039978,0.0200272
32,1,10.0097,0.00183105,-0.000457764,-2.42867,0.0532396,-0.0765889,0.0519917,0.0776842,-0.094062,0.144403,-0.126377,-0.0868429,0.0115967,0.0188446,0.0115204,0.00873566,-0.0367737,0.0500107,0.022316,0.0114441,-9.97986,0.0325394,0.0019455,-0.0413895,-0.115623,0.0240326,0.0111008,0.0454712,0.0157166
32,2,10.0097,0.000915527,-0.00167847,-2.42898,0.0535448,-0.075063,0.0526021,0.0715807,-0.0949775,0.144403,-0.127598,-0.0868429,0.00762939,0.0330353,0.0116348,0.00328064,-0.0477219,0.0646591,0.0261307,0.01091,-9.97986,0.030365,0.00038147,-0.0527191,-0.132904,0.0285721,0.0123215,0.0420761,0.000343323
32,3,10.0097,0.000305176,-0.00152588,-2.42928,0.0538499,-0.0765889,0.0513814,0.0682238,-0.0949775,0.142572,-0.128208,-0.0874532,0.00892639,0.0277328,0.0117874,0.00576019,-0.0511169,0.0747299,0.029335,0.0137329,-9.97986,0.026741,-0.00038147,-0.0481033,-0.146408,0.0398254,0.0177002,0.0485611,-0.0156784
32,4,10.0097,-0.000305176,-0.00183105,-2.42989,0.0541551,-0.075063,0.0532125,0.0697496,-0.0943672,0.143792,-0.127903,-0.0874532,0.00679016,0.0223541,0.0114822,-0.00118256,-0.0561523,0.0678635,0.0328827,0.0107574,-9.97986,0.0281525,-0.00427246,-0.0356674,-0.147591,0.0395203,0.0209045,0.0531006,-0.025177
32,5,10.0097,0.00152588,-0.000610352,-2.42867,0.0541551,-0.0744527,0.0538228,0.0694445,-0.0937568,0.142572,-0.127903,-0.0871481,0.00881195,0.00507355,0.0148392,0.0087738,-0.050621,0.0546646,0.0353241,0.00850677,-9.97986,0.0340652,-0.0111389,-0.00965118,-0.149689,0.0402451,0.0186539,0.0600052,-0.0294876
32,6,10.0097,-0.000915527,-0.000915527,-2.42684,0.0547655,-0.075063,0.0550435,0.0688341,-0.0934516,0.143792,-0.126682,-0.0859274,0.0140762,-0.0178146,0.00480652,0.00652313,-0.0516891,0.0456238,0.03479,0.01194,-9.97986,0.0294113,-0.0143814,0.0189209,-0.163307,0.0369263,0.0177765,0.0655365,-0.0263214
32,7,10.0097,0,-0.000915527,-2.42653,0.0559862,-0.0744527,0.0535176,0.0700548,-0.0937568,0.145318,-0.126987,-0.0850118,0.00843048,-0.00892639,-0.00679016,0.0115967,-0.0471115,0.0417328,0.0373459,0.00968933,-9.97986,0.0265121,-0.0152969,0.028801,-0.171127,0.0374603,0.0133896,0.0676727,-0.0314331
32,8,10.0097,0.000610352,-0.000457764,-2.42714,0.0553758,-0.0753682,0.0544332,0.0697496,-0.0931465,0.145318,-0.125461,-0.0847066,0.00801086,-0.00164032,-0.0108719,0.0146484,-0.034256,0.0356293,0.0378799,0.00934601,-9.97986,0.031662,-0.0139618,0.0351334,-0.177193,0.0380325,0.0112534,0.0557327,-0.027504
32,9,10.0097,0.000915527,-0.000457764,-2.42714,0.055681,-0.0735371,0.0535176,0.0694445,-0.0916206,0.145318,-0.125156,-0.0831808,0.00938416,-0.0137711,-0.014267,0.0114822,-0.0228119,0.030899,0.0391388,0.0187683,-9.97986,0.0338745,-0.0101471,0.03479,-0.178337,0.0341034,0.0104904,0.0469589,-0.0205231
33,0,10.0097,0,0.000305176,-2.42592,0.0559862,-0.073232,0.0544332,0.0712755,-0.0922309,0.146539,-0.125156,-0.0810445,0.0125885,-0.0209808,-0.0140762,0.0131989,-0.0178528,0.0221634,0.0365448,0.0177765,-9.97986,0.0328827,-0.00827789,0.0242233,-0.174866,0.0256729,0.0125885,0.043335,-0.0151062
33,1,10.0097,0,0,-2.42531,0.0550706,-0.0747579,0.0550435,0.0709703,-0.0916206,0.146234,-0.124546,-0.0807394,0.0137329,-0.033493,-0.00442505,0.00972748,-0.00579834,0.0173569,0.0321198,0.0212097,-9.97986,0.030365,-0.0122452,0.0157166,-0.173645,0.023613,0.00873566,0.0371552,-0.00663757
33,2,10.0097,-0.000305176,-0.000457764,-2.42562,0.0575121,-0.0744527,0.0556539,0.0712755,-0.0931465,0.146234,-0.12363,-0.0810445,0.00587463,-0.0296021,-0.00312805,0.0088501,0.000114441,0.0257111,0.0350952,0.0210571,-9.97986,0.0266266,-0.00984192,0.0063324,-0.167961,0.0259018,0.0100327,0.0350571,7.62939e-005
33,3,10.0097,0,0.000152588,-2.4244,0.0581224,-0.0747579,0.0550435,0.0706652,-0.0925361,0.147149,-0.123325,-0.0804342,0.0138092,-0.0254822,-0.00255585,0.0146866,0.00606537,0.0293732,0.0295258,0.0238419,-9.97986,0.0234604,-0.00465393,-0.000953674,-0.172119,0.0226212,0.0122452,0.0299454,0.000839233
33,4,10.0097,-0.000610352,0.000152588,-2.42592,0.055681,-0.0738423,0.0532125,0.0538805,-0.0952827,0.145013,-0.126377,-0.0816549,0.0101471,-0.0172424,0.00244141,0.015831,0.00583649,0.034523,0.0284195,0.028038,-9.97986,0.0268555,-0.00606537,-0.0163269,-0.171776,0.0212479,0.00595093,0.0303268,0.00144958
33,5,9.57356,0,-0.00183105,-2.42562,0.0569017,-0.0744527,0.0547383,0.0450304,-0.0946723,0.147149,-0.126377,-0.0810445,0.0124359,-0.0075531,-0.000686646,0.01091,0.00907898,0.0422287,0.0242615,0.0328064,-9.97986,0.0295639,-0.00694275,-0.0283813,-0.163765,0.0246811,0.00545502,0.0276947,0.00141144
33,6,8.27748,0.0012207,-0.000305176,-2.42714,0.0562914,-0.0738423,0.0556539,0.0541857,-0.0925361,0.146539,-0.126072,-0.0816549,0.0114441,-0.00267029,0.00934601,0.0167084,0.0139236,0.0428391,0.0200272,0.0322342,-9.97986,0.0235367,-0.00797272,-0.0330353,-0.159531,0.0250244,0.00663757,0.0229645,0.000610352
33,7,7.89235,0,-0.000305176,-2.42592,0.0550706,-0.0747579,0.0544332,0.0621202,-0.0925361,0.147149,-0.124546,-0.0822652,0.00892639,0.00541687,0.0171661,0.014801,0.014534,0.0403214,0.011673,0.0307083,-9.97986,0.0222015,-0.0075531,-0.0336075,-0.158615,0.022583,0.001297,0.0164795,-0.011673
33,8,8.05959,-0.000915527,0.000762939,-2.42623,0.0544603,-0.0756734,0.0535176,0.0700548,-0.0913154,0.145929,-0.125461,-0.0822652,0.0125885,0.0136185,0.0286484,0.0147629,0.0171661,0.0402069,0.0208664,0.0266266,-9.97986,0.0200272,-0.0025177,-0.0185394,-0.152359,0.0242233,0.00972748,0.0232315,-0.00869751
33,9,9.48598,0.000305176,0.00152588,-2.42653,0.0553758,-0.075063,0.0556539,0.0843981,-0.0922309,0.144403,-0.124851,-0.0828756,0.0082016,0.0168228,0.0323486,0.0117493,0.0162506,0.0275421,0.0214386,0.0286865,-9.97986,0.0191498,-0.00782013,0.00205994,-0.146599,0.0181198,0.00976563,0.018425,-0.0056839
34,0,10.0097,0.000305176,0.00198364,-2.42867,0.0541551,-0.0759786,0.0535176,0.0966051,-0.0925361,0.143487,-0.125156,-0.0850118,0.00904083,0.0204468,0.0382996,0.0171661,0.0183487,0.026741,0.0231934,0.0205612,-9.97986,0.0181961,-0.0110245,0.0149536,-0.144272,0.0222778,0.00965118,0.0173569,-0.00164032
34,1,10.0097,0,0.000915527,-2.42898,0.0538499,-0.0756734,0.0522969,0.0779894,-0.0955879,0.144098,-0.126072,-0.0868429,0.0141525,0.0249481,0.0415802,0.0130081,0.0117874,0.023613,0.0211334,0.0222397,-9.97986,0.0179291,-0.00644684,0.0244522,-0.14225,0.021553,0.00778198,0.0167847,0.0044632
34,2,10.0097,-0.0012207,0.0012207,-2.42959,0.0538499,-0.0756734,0.0529073,0.0715807,-0.0955879,0.143792,-0.126987,-0.0877584,0.0102615,0.036087,0.036087,0.01091,0.0119781,0.0211716,0.0236511,0.0292969,-9.97986,0.0175858,-0.00957489,0.0303268,-0.135422,0.0212479,0.0108337,0.0102997,0.00244141
34,3,10.0097,0,0,-2.4305,0.0538499,-0.0768941,0.0519917,0.0697496,-0.095893,0.143792,-0.127598,-0.0883688,0.00843048,0.0502396,0.0381851,0.00812531,0.0150299,0.0219727,0.0307465,0.0384903,-9.97986,0.0166321,-0.0120544,0.0297928,-0.12188,0.0232315,0.0124359,0.00411987,0.0109482
34,4,10.0097,0.000610352,-0.000152588,-2.42867,0.0544603,-0.0759786,0.0535176,0.0694445,-0.0955879,0.143792,-0.127598,-0.0862325,0.0128937,0.0473022,0.0288773,0.00900269,0.0207138,0.0269699,0.0247192,0.0403976,-9.97986,0.015831,-0.0063324,0.0289536,-0.118713,0.0197601,0.00858307,-0.00164032,0.0146103
34,5,10.0097,0.000305176,-0.000305176,-2.42898,0.0535448,-0.0762837,0.0526021,0.07036,-0.0952827,0.144098,-0.127292,-0.0865377,0.0128174,0.033493,0.0286484,0.0111008,0.0291824,0.0247955,0.0282288,0.0416946,-9.97986,0.0152588,-0.00946045,0.0327301,-0.116463,0.0156021,0.00663757,-0.00328064,0.0159836
34,6,10.0097,-0.000610352,0.000610352,-2.42714,0.0541551,-0.075063,0.0538228,0.0697496,-0.0937568,0.144708,-0.126987,-0.085317,0.0109863,0.0149536,0.0221634,0.01091,0.0294113,0.0261688,0.0335312,0.0405502,-9.97986,0.0179291,-0.0182343,0.0325012,-0.109482,0.00930786,0.00839233,-0.00102997,0.0200272
34,7,10.0097,0.000610352,0.000762939,-2.42776,0.0562914,-0.0747579,0.0535176,0.0688341,-0.0928413,0.144098,-0.126377,-0.0850118,0.00961304,0.0127411,0.0216293,0.00862122,0.0384903,0.0285339,0.0351715,0.0305939,-9.97986,0.0204849,-0.0165558,0.0397873,-0.0987625,0.00946045,0.00843048,-0.00831604,0.0170517
34,8,10.0097,-0.0012207,0.000762939,-2.42837,0.0559862,-0.0756734,0.0532125,0.0697496,-0.0934516,0.144403,-0.126072,-0.0837911,0.0113297,0.0117111,0.0192642,0.00984192,0.0334549,0.026474,0.0258255,0.0156403,-9.97986,0.018158,-0.0163269,0.0381851,-0.0891113,0.0128174,0.00892639,-0.00659943,0.0263977
34,9,10.0097,0,0.00183105,-2.42653,0.0553758,-0.0747579,0.0532125,0.0709703,-0.0922309,0.145624,-0.124546,-0.0822652,0.0125122,0.0157928,0.0201035,0.00816345,0.0301361,0.0240326,0.0283051,-0.00320435,-9.97986,0.0211334,-0.0203323,0.0333023,-0.077858,0.00873566,0.00831604,-0.012207,0.0274277
35,0,10.0097,-0.000610352,0.000762939,-2.42501,0.0572069,-0.0744527,0.0544332,0.0712755,-0.0910102,0.147455,-0.125766,-0.0810445,0.0130463,0.00621796,0.0178909,0.01091,0.0239944,0.0261688,0.0282669,-0.0110245,-9.97986,0.0203323,-0.0229645,0.0344849,-0.0728226,0.0134659,0.0123978,-0.0105286,0.0263214
35,1,10.0097,0.000305176,0.00106812,-2.42501,0.0569017,-0.075063,0.0556539,0.0706652,-0.0925361,0.147149,-0.124546,-0.080129,0.0146103,0.00110626,0.0170898,0.0102997,0.0152969,0.0258255,0.0244141,-0.00404358,-9.97986,0.0218582,-0.0201797,0.0378036,-0.0598145,0.0138855,0.00999451,-0.0137329,0.0321579
35,2,10.0097,0.000610352,0.00152588,-2.42623,0.0572069,-0.073232,0.0538228,0.0724962,-0.0925361,0.146234,-0.123325,-0.0810445,0.0154495,0.0126648,0.00835419,0.00778198,0.0124741,0.0224686,0.0119781,-0.00267029,-9.97986,0.0220108,-0.0112152,0.041008,-0.0501251,0.0195694,0.0138474,-0.0167847,0.0323105
35,3,10.0097,0.000610352,0.00137329,-2.42409,0.0550706,-0.0729268,0.0544332,0.072191,-0.0913154,0.147455,-0.123325,-0.0804342,0.00648499,0.0128174,0.00534058,0.0124741,0.00774384,0.025177,0.00789642,-0.0118256,-9.97986,0.0247955,-0.0109482,0.0430679,-0.0412369,0.0232697,0.0128555,-0.0161362,0.0344467
35,4,10.0097,0.000610352,0.000915527,-2.42531,0.0553758,-0.0744527,0.0544332,0.0532701,-0.0946723,0.145624,-0.125461,-0.0816549,0.0108337,0.00354767,0.00534058,0.0130463,0.00286102,0.0210953,-0.00347137,-0.0180817,-9.97986,0.0262451,0.00125885,0.0474548,-0.0331879,0.0297165,0.0114441,-0.0168228,0.0362396
35,5,9.59126,0.00183105,-0.000305176,-2.42623,0.0569017,-0.0744527,0.0556539,0.0459459,-0.0937568,0.146539,-0.126072,-0.0813497,0.00801086,0.00499725,0.00480652,0.00366211,-0.00659943,0.0216293,-0.00495911,-0.018158,-9.97986,0.028038,0.0152588,0.0527191,-0.0133133,0.0315475,0.0138474,-0.0226974,0.0365829
35,6,8.37392,0.0012207,0.0012207,-2.42562,0.0562914,-0.0738423,0.0550435,0.0541857,-0.0922309,0.146234,-0.125766,-0.0825704,0.010376,0.0168228,0.0107193,0.0044632,-0.00461578,0.0299835,0.00537872,-0.0104904,-9.97986,0.0238037,0.0101471,0.0587082,-0.000419617,0.0353241,0.0134659,-0.0230026,0.0385284
35,7,8.01625,-0.0012207,0.00106812,-2.42562,0.0553758,-0.0762837,0.0556539,0.0630358,-0.0913154,0.145929,-0.125766,-0.0825704,0.0069046,0.0214767,0.0114822,0.00297546,-0.00968933,0.0223923,0.00595093,0.000839233,-9.97986,0.0242996,0.0291824,0.0559998,0.0143814,0.0362778,0.00938416,-0.0257492,0.0385666
35,8,8.20363,0.00183105,0.00152588,-2.42562,0.0562914,-0.0747579,0.0547383,0.0709703,-0.0928413,0.146844,-0.126072,-0.0831808,0.00843048,0.0302505,0.0159836,0.00469208,-0.00785828,0.0243378,0.0110245,0.00553131,-9.97986,0.023613,0.0387192,0.0514603,0.0275803,0.0392151,0.00671387,-0.0268936,0.0370407
35,9,9.66359,0,0.00350952,-2.42684,0.0559862,-0.075063,0.0544332,0.0847032,-0.0913154,0.144708,-0.123325,-0.0834859,0.0147247,0.0330353,0.0233841,0.00900269,-0.0141525,0.0252533,0.0169754,0.0126648,-9.97986,0.0208664,0.0415039,0.0503922,0.0465393,0.039444,0.00980377,-0.0291443,0.0376129
36,0,10.0097,0.000610352,0.00366211,-2.42928,0.0544603,-0.0762837,0.0529073,0.0944689,-0.0931465,0.143792,-0.125156,-0.0856222,0.0136948,0.0325775,0.0178528,0.0106049,-0.00812531,0.0224304,0.0125122,0.0128555,-9.97986,0.0230789,0.0970078,0.0485992,0.0680161,0.0428009,0.00904083,-0.0282669,0.0395203
36,1,10.0097,0.000610352,0.00244141,-2.42989,0.0535448,-0.0765889,0.0513814,0.0779894,-0.0946723,0.145318,-0.127292,-0.0859274,0.0117874,0.0328064,0.0158691,0.0112534,-0.00923157,0.0183868,0.00892639,0.0153732,-9.97986,0.0252151,0.114174,0.0436783,0.0831985,0.0429153,0.0063324,-0.0287247,0.0419998
36,2,10.0097,0.000610352,0.00183105,-2.42806,0.0535448,-0.0756734,0.0519917,0.0709703,-0.0946723,0.144098,-0.127292,-0.0862325,0.00858307,0.029335,0.0162125,0.0107193,-0.0107956,0.0226212,0.0117493,0.0175858,-9.97986,0.0239182,0.0619888,0.0421906,0.103493,0.0465012,0.0160599,-0.0288773,0.041275
36,3,10.0097,-0.000915527,0.000915527,-2.4302,0.0541551,-0.0762837,0.050771,0.0697496,-0.0955879,0.143487,-0.127903,-0.0868429,0.00682831,0.0319672,0.0174713,0.0114059,-0.0182343,0.0159836,0.00705719,0.0111771,-9.97986,0.0213242,-0.0285721,0.0387192,0.113373,0.0430679,0.00476837,-0.0275421,0.0381088
36,4,10.0097,0,0.00137329,-2.43111,0.0538499,-0.0756734,0.0522969,0.0697496,-0.0934516,0.143792,-0.126682,-0.0862325,0.0130081,0.0356293,0.0211716,0.00938416,-0.020752,0.0177383,0.0144958,0.0189972,-9.97986,0.0205994,-0.0696182,0.0461578,0.12867,0.0431442,0.0101852,-0.0304031,0.0418854
36,5,10.0097,0.000610352,0.000915527,-2.42837,0.0538499,-0.0759786,0.0526021,0.0657823,-0.0949775,0.142877,-0.127598,-0.0859274,0.00988007,0.0344467,0.0180435,0.00858307,-0.0231552,0.0118256,0.00988007,0.0158691,-9.97986,0.018425,-0.0310516,0.0407791,0.14389,0.044136,0.00930786,-0.0312042,0.0460815
36,6,10.0097,0.000915527,0.000915527,-2.42776,0.0553758,-0.0759786,0.0522969,0.07036,-0.094062,0.144708,-0.127292,-0.0825704,0.0101471,0.0344467,0.018959,0.0102615,-0.0350189,0.00999451,0.00900269,0.0205231,-9.97986,0.0202942,0.0082016,0.0385284,0.1577,0.0458908,0.0120926,-0.0343323,0.0452042
36,7,10.0097,0.00152588,0.00167847,-2.42684,0.0538499,-0.075063,0.0532125,0.0679186,-0.0937568,0.145013,-0.125766,-0.0844015,0.0161743,0.0390244,0.0213623,0.0117874,-0.0314713,0.00926971,0.00862122,0.0151443,-9.97986,0.0203705,0.0372314,0.0334167,0.167542,0.044632,0.0138474,-0.0329208,0.044632
36,8,10.0097,0.000915527,0.000915527,-2.42653,0.0553758,-0.0747579,0.0535176,0.0691393,-0.094062,0.145013,-0.126682,-0.0840963,0.0134277,0.0402069,0.0226974,0.0104141,-0.0344086,0.00843048,0.00473022,0.0171661,-9.97986,0.0218201,0.042305,0.0337982,0.172119,0.0397873,0.0056839,-0.0315094,0.0440598
36,9,10.0097,0.00183105,0.00106812,-2.42653,0.0559862,-0.0741475,0.0544332,0.0709703,-0.0928413,0.145929,-0.125461,-0.0856222,0.00904083,0.0417328,0.0243378,0.0112152,-0.034523,0.0130844,0.00511169,0.0198364,-9.97986,0.0186157,0.0122452,0.0278473,0.176468,0.0432205,0.000495911,-0.0319672,0.0526428
37,0,10.0097,0.000610352,0.0012207,-2.42165,0.0547655,-0.0741475,0.054128,0.0694445,-0.0925361,0.146844,-0.124546,-0.0822652,0.0106812,0.0433731,0.0227737,0.0138092,-0.0345993,0.0210571,0.00679016,0.0209808,-9.97986,0.0188065,-0.00579834,0.021286,0.192337,0.0394058,0.00389099,-0.0332642,0.0579834
37,1,10.0097,0.000915527,0.000457764,-2.4247,0.0572069,-0.0738423,0.054128,0.0724962,-0.090705,0.146844,-0.124546,-0.0795187,0.0128937,0.0391769,0.0245285,0.0107574,-0.0365448,0.0210953,0.00492096,0.0193787,-9.97986,0.0160217,-0.00946045,0.0162506,0.195694,0.0381851,0.00495911,-0.0320435,0.0608826
37,2,10.0097,-0.00183105,0.0012207,-2.42531,0.0547655,-0.0729268,0.055959,0.0706652,-0.0916206,0.146539,-0.124546,-0.078298,0.0116348,0.0373077,0.0266266,0.0124741,-0.0385666,0.0193405,0.0109863,0.0217056,-9.97986,0.0107956,-0.0150681,0.022049,0.201683,0.033989,0.0069046,-0.0331116,0.0637817
37,3,10.0097,0.000610352,0.000610352,-2.42776,0.0575121,-0.0741475,0.0562642,0.0724962,-0.0913154,0.147149,-0.12363,-0.080129,0.0159454,0.0358582,0.0279617,0.0133514,-0.0369263,0.0191116,0.00469208,0.0243378,-9.97986,0.00797272,-0.0195694,0.0164413,0.201721,0.0310898,0.0159836,-0.0318146,0.0639725
37,4,10.0097,-0.000610352,0.000457764,-2.42623,0.0559862,-0.0741475,0.0535176,0.0551012,-0.0952827,0.145624,-0.125461,-0.0822652,0.0131226,0.0360107,0.028801,0.0114822,-0.0370789,0.0128174,0.00778198,0.0197983,-9.97986,0.00675201,-0.0203323,0.0232697,0.198746,0.0338364,0.0124359,-0.0315094,0.0638962
37,5,9.66878,0.000610352,-0.00106812,-2.42531,0.055681,-0.0744527,0.0553487,0.0471666,-0.0925361,0.145318,-0.125461,-0.0810445,0.0119781,0.0354004,0.0301361,0.00915527,-0.0388718,0.0142288,0.00431061,0.0214767,-9.97986,0.00751495,-0.013504,0.0352859,0.204506,0.0319672,0.0203705,-0.0263596,0.0589371
37,6,8.41023,0.00152588,-0.000915527,-2.42257,0.0565965,-0.0744527,0.055959,0.0526598,-0.0928413,0.146234,-0.126072,-0.0819601,0.0114441,0.0401306,0.0274277,0.0131607,-0.0308609,0.0205231,0.00545502,0.0237656,-9.97986,0.00102997,-0.0143051,0.0461578,0.196991,0.0273514,0.0268555,-0.0283813,0.0479889
37,7,8.03548,0.000610352,-0.000457764,-2.42653,0.0553758,-0.0741475,0.0538228,0.0636461,-0.0916206,0.145624,-0.126987,-0.0822652,0.0111008,0.0322342,0.0268936,0.0102615,-0.0243378,0.0253296,0.00606537,0.0246429,-9.97986,-0.000114441,-0.00572205,0.0486755,0.195198,0.0278473,0.0235748,-0.0242615,0.0447464
37,8,8.21462,0.00183105,-0.000457764,-2.42745,0.0544603,-0.0744527,0.054128,0.07036,-0.0916206,0.145929,-0.126377,-0.0856222,0.0130463,0.034523,0.0273514,0.0135422,-0.0320435,0.0283051,0.00087738,0.0293732,-9.97986,-0.00324249,0.000801086,0.0341797,0.189133,0.0262833,0.0205994,-0.0189209,0.0406647
37,9,9.64772,0.000915527,0.00106812,-2.4247,0.0553758,-0.0747579,0.0547383,0.0862291,-0.0916206,0.145318,-0.125156,-0.0840963,0.0124741,0.0333405,0.0190735,0.0138474,-0.0306702,0.0313568,0.00431061,0.0305176,-9.97986,-0.00492096,-0.00167847,0.0307465,0.176697,0.0264359,0.0205612,-0.00850677,0.0352478
38,0,10.0097,0.000610352,0.00167847,-2.42837,0.0541551,-0.075063,0.0526021,0.0941637,-0.0928413,0.143182,-0.125766,-0.0856222,0.0102234,0.032959,0.026741,0.0167847,-0.0301743,0.0380707,0.00934601,0.0377655,-9.97986,-0.00747681,-0.0012207,0.0237274,0.177002,0.0328445,0.0186157,-0.000152588,0.0326538
38,1,10.0097,0.000610352,-0.000762939,-2.42898,0.0544603,-0.0762837,0.0510762,0.077379,-0.0961982,0.143792,-0.128208,-0.0874532,0.00720978,0.0301743,0.0257111,0.0156403,-0.0320435,0.0299835,0.00999451,0.0400162,-9.97986,-0.0094223,-0.00587463,0.0298309,0.167618,0.0386429,0.0136185,-0.0025177,0.0243759
38,2,10.0097,0.000610352,-0.000762939,-2.42592,0.0547655,-0.0762837,0.0522969,0.0734117,-0.0946723,0.143487,-0.127292,-0.0871481,0.0117493,0.032196,0.0236893,0.0138855,-0.0291443,0.0271988,0.0115967,0.0443268,-9.97986,-0.00591278,-0.0133514,0.0418854,0.160294,0.0375748,0.00896454,0.0012207,0.0204086
38,3,10.0097,0.000305176,-0.000305176,-2.42959,0.0532396,-0.0765889,0.0529073,0.0706652,-0.0946723,0.142877,-0.127598,-0.0883688,0.00812531,0.030899,0.02491,0.0133514,-0.0294113,0.030365,0.0117493,0.0492859,-9.97986,-0.0124359,-0.0122833,0.0540161,0.155106,0.0337219,0.0105667,0.00961304,0.018425
38,4,10.0097,0,-0.000915527,-2.42806,0.0532396,-0.0762837,0.0522969,0.0706652,-0.0955879,0.144098,-0.127598,-0.0880636,0.00991821,0.0336456,0.0283813,0.0144958,-0.0284958,0.0217438,0.0111771,0.053978,-9.97986,-0.0131226,-0.0146103,0.0534058,0.145378,0.0316238,0.0094223,0.0168991,0.0181198
38,5,10.0097,0.00152588,-0.000762939,-2.42928,0.0538499,-0.0759786,0.0526021,0.0697496,-0.0952827,0.143487,-0.127292,-0.0862325,0.0105667,0.0379944,0.0317001,0.0123596,-0.0297928,0.0295639,0.0115204,0.0523758,-9.97986,-0.00965118,-0.0170135,0.04879,0.137825,0.0280762,0.0109863,0.0149155,0.0151825
38,6,10.0097,0.000610352,-0.000915527,-2.42776,0.0547655,-0.075063,0.0535176,0.0706652,-0.0946723,0.144708,-0.126377,-0.0856222,0.0094223,0.0352859,0.0363159,0.0136566,-0.0327301,0.0296783,0.010376,0.075531,-9.97986,-0.00743866,-0.0107956,0.043602,0.128212,0.0235748,0.0138092,0.0082016,0.0240707
38,7,10.0097,0.000610352,-0.000610352,-2.42837,0.0547655,-0.0753682,0.0532125,0.0697496,-0.0934516,0.144708,-0.126377,-0.0844015,0.00358582,0.0380325,0.0389099,0.0119781,-0.0333405,0.0354004,0.0129318,0.0896072,-9.97986,-0.0127411,-0.00968933,0.040741,0.112877,0.0137711,0.0130844,0.00156403,0.0310516
38,8,10.0097,0.000610352,-0.0012207,-2.42653,0.0547655,-0.075063,0.0538228,0.0694445,-0.0919257,0.144403,-0.126987,-0.0840963,0.00621796,0.0418854,0.0365448,0.0214386,-0.0242615,0.0407028,0.0118637,0.124969,-9.97986,-0.0120163,-0.0088501,0.0353622,0.106316,0.016098,0.0135803,-0.000343323,0.0291443
38,9,10.0097,0.00183105,-0.000610352,-2.42623,0.0569017,-0.0738423,0.0544332,0.0697496,-0.0925361,0.145624,-0.125766,-0.0834859,0.00617981,0.0584412,0.0410843,0.0154495,-0.0214386,0.0447464,0.00965118,0.152512,-9.97986,-0.0144196,-0.00461578,0.0375748,0.0960159,0.0177383,0.0173187,0.00320435,0.0333786
39,0,10.0097,0.00213623,-0.000762939,-2.42562,0.0562914,-0.0741475,0.0547383,0.0709703,-0.0916206,0.145318,-0.125156,-0.0825704,0.00686646,0.0720215,0.0378418,0.0120926,-0.0244141,0.0429153,0.00720978,0.169525,-9.97986,-0.0174332,-0.00614166,0.0384521,0.0839996,0.0126648,0.0173187,0.00408173,0.030098
39,1,10.0097,0,-0.0012207,-2.42562,0.0575121,-0.0726216,0.0553487,0.0706652,-0.0919257,0.146539,-0.124241,-0.0810445,0.00904083,0.0757599,0.0498962,0.0144958,-0.0139999,0.048027,0.00530243,0.188522,-9.97986,-0.0245285,-0.00736237,0.0295639,0.0728989,0.00858307,0.0146866,0.0031662,0.0240326
39,2,10.0097,-0.0012207,-0.000762939,-2.42501,0.0559862,-0.0744527,0.0532125,0.07036,-0.0928413,0.147149,-0.124851,-0.0813497,0.00617981,0.0835419,0.0495148,0.0154495,-0.0128555,0.0415421,0.0143433,0.16861,-9.97986,-0.0263596,0.00255585,0.0261688,0.0669861,0.0105286,0.0129318,0.0087738,0.0260162
39,3,10.0097,0,-0.000610352,-2.4244,0.0578172,-0.0735371,0.0550435,0.0715807,-0.0903999,0.14776,-0.12363,-0.0789083,0.00263214,0.0730896,0.0506973,0.0124359,-0.00785828,0.0408936,0.00930786,0.11837,-9.97986,-0.030098,0.00473022,0.0187302,0.0587082,0.000991821,0.0143051,0.000190735,0.0224304
39,4,10.0097,-0.00335693,-0.000915527,-2.42684,0.0559862,-0.0744527,0.0529073,0.0532701,-0.0946723,0.145624,-0.126682,-0.0816549,0.010643,0.0668335,0.0564575,0.00720978,-0.00175476,0.0344849,0.00957489,0.0760269,-9.97986,-0.0326538,0.00831604,0.0141144,0.0503159,0.00175476,0.0120544,-0.00102997,0.0208664
39,5,9.48323,-0.00274658,-0.00259399,-2.42592,0.0559862,-0.0744527,0.0550435,0.0453356,-0.0934516,0.145624,-0.126377,-0.0813497,0.0136185,0.0616837,0.0606155,0.0107574,-0.000572205,0.0397873,0.0120544,0.0118637,-9.97986,-0.0310516,-0.00339508,0.00862122,0.0414658,-0.00312805,0.0138855,0.00236511,0.018692
39,6,8.27718,0.000610352,-0.00106812,-2.42501,0.055681,-0.0741475,0.0553487,0.054796,-0.0928413,0.146844,-0.126072,-0.0813497,0.017128,0.0580597,0.0630188,0.00343323,0.00576019,0.0434113,0.0151825,-0.0737762,-9.97986,-0.0226593,-0.00217438,0.0141525,0.0413895,-0.00461578,0.0181198,0.00465393,0.0259399
39,7,7.89449,-0.00213623,-0.00137329,-2.42409,0.0553758,-0.0756734,0.0553487,0.0618151,-0.0928413,0.145624,-0.125461,-0.0831808,0.0075531,0.0476074,0.0589371,-0.00225067,0.00713348,0.0364685,0.00900269,-0.155411,-9.97986,-0.0365448,-0.00164032,0.000724792,0.0267029,-0.0140381,0.00980377,-0.00854492,0.0125504
39,8,8.07088,-0.000305176,-0.000610352,-2.42684,0.0544603,-0.0747579,0.0547383,0.0694445,-0.0937568,0.145013,-0.124546,-0.0828756,0.0127792,0.0676727,0.0543213,0.0087738,0.022049,0.0376129,0.0204849,-0.214844,-9.97986,-0.0320053,0.00976563,0.00598907,0.0214767,-0.0115204,0.00831604,-0.00415802,0.0169373
39,9,9.49788,0.000610352,-0.000305176,-2.42623,0.055681,-0.075063,0.0532125,0.0856188,-0.0916206,0.144403,-0.124546,-0.080129,0.0107574,0.0728989,0.0321198,0.00793457,0.0227737,0.0348663,0.0094223,-0.206642,-9.97986,-0.0268173,0.00656128,0.00209808,0.0187683,-0.0176239,0.00522614,-0.00946045,0.0143051
40,0,10.0097,0.00366211,0.0012207,-2.4302,0.0529344,-0.0756734,0.0538228,0.0953844,-0.0946723,0.143487,-0.125461,-0.0856222,0.0136185,0.0669861,0.0295258,0.00919342,0.0262833,0.037384,0.0175095,-0.129471,-9.97986,-0.0252151,0.00396729,-0.000839233,0.0100708,-0.0204086,0.00530243,-0.0104904,0.0130844
40,1,10.0097,0.0012207,0,-2.42928,0.0544603,-0.0759786,0.0519917,0.0789049,-0.0949775,0.142572,-0.126987,-0.0868429,0.0162125,0.0479126,0.0233841,0.0075531,0.0310898,0.0366974,0.0199127,-0.0941467,-9.97986,-0.00846863,0.00602722,0.00274658,0.00175476,-0.02388,0.00339508,-0.010376,0.0132751
40,2,10.0097,0.000305176,-0.000762939,-2.42928,0.0544603,-0.0756734,0.0522969,0.0740221,-0.0946723,0.143792,-0.126987,-0.0859274,0.0138474,0.0196838,0.00770569,0.0107574,0.0331116,0.0401688,0.0181198,-0.0839233,-9.97986,0.00801086,0.0139236,0.00125885,-0.00289917,-0.0205231,0.00354767,-0.00972748,0.013504
40,3,10.0097,-0.000915527,-0.000610352,-2.43172,0.0529344,-0.0756734,0.0516866,0.0697496,-0.0952827,0.140741,-0.128513,-0.0874532,0.0143433,-0.022316,-0.00732422,0.0164032,0.03479,0.0332642,0.0164032,-0.0763321,-9.97986,0.0285721,0.0101089,3.8147e-005,-0.00988007,-0.0264359,0.00408173,-0.0075531,0.0113297
40,4,10.0097,0.00152588,-0.000915527,-2.42898,0.0535448,-0.0756734,0.0526021,0.0688341,-0.0946723,0.142877,-0.127598,-0.0874532,0.0127029,-0.0349045,-0.0252151,0.0177765,0.0328827,0.0316238,0.0148773,-0.0594711,-9.97986,0.0360489,-0.00358582,0.00118256,-0.0152969,-0.0265503,0.00205994,-0.0125122,0.010376
40,5,10.0097,0.00213623,-0.00167847,-2.4302,0.0541551,-0.0759786,0.0529073,0.0697496,-0.0943672,0.144098,-0.127598,-0.0844015,0.00892639,-0.0140381,-0.0379944,0.0141144,0.0374222,0.0373459,0.0198746,-0.0354004,-9.97986,0.0450134,-0.00930786,0.00473022,-0.0214386,-0.0238037,0.00637054,-0.0087738,0.0114441
