
Devices
1200
,,BP Load cell - Voltage,String Length - Voltage,Clutch Active - Voltage,#7 iPecs - Voltage,,,,,,,,,EMG 1-8 Left - Voltage,,,,,,,,Pylon Force - Voltage,EMG 9-16 Right - Voltage,,,,,,,,
Frame,Sub Frame,BP Load Cell,String Length,From Arduino Logic,A45,A135,A225,A315,S0,S90,S180,S270,ZSum,EMG 1 Glut Max,EMG 2 Glut Med,EMG 3 Biceps Femoris Long,EMG 4 Rectus Femoris,EMG 5 Vastus Medialis,EMG 6 Tib Ant,EMG 7 Med Gas,EMG 8 Soleus,Pylon volts,EMG 9 Glut Max,EMG 10 Glut Med,EMG 11 Biceps Femoris Long,EMG 12 Rectus Femoris,EMG 13 Vastus Medialis,EMG 14 Tib Ant,EMG 15 Med Gas,EMG 16 Soleus
,,V,V,V,V,V,V,V,V,V,V,V,V,V,V,V,V,V,V,V,V,V,V,V,V,V,V,V,V,V
1,0,10.0097,-0.0012207,0.000457764,-2.42592,0.0562914,-0.073232,0.0556539,0.0697496,-0.0897895,0.147149,-0.124241,-0.0810445,0.00759125,0.0189209,0.0230408,0.018425,0.0113297,0.0141907,0.0174713,0.0364304,-9.97986,0.0166702,-0.00541687,0.0131607,0.00801086,0.0198746,-0.0174713,0.0206757,0.00614166
1,1,10.0097,0.000915527,0.000152588,-2.42562,0.0569017,-0.0747579,0.0535176,0.07036,-0.0922309,0.145929,-0.123935,-0.0810445,0.0056839,0.0153351,0.021019,0.0124359,0.0168991,0.0140381,0.0198364,0.0358582,-9.97986,0.0154114,-0.00247955,0.0163651,0.00831604,0.0184631,-0.0237274,0.0212097,0.00434875
1,2,10.0097,0,-0.000152588,-2.42531,0.0547655,-0.0729268,0.0553487,0.0706652,-0.0916206,0.147149,-0.123935,-0.0807394,0.010376,0.0166702,0.0231171,0.0133514,0.0127411,0.00965118,0.0199509,0.0307846,-9.97986,0.0159454,0,0.0169373,0.00610352,0.0230789,-0.0246048,0.0259781,0.00663757
1,3,10.0097,-0.0012207,0.000305176,-2.42562,0.0575121,-0.073232,0.0556539,0.0706652,-0.0919257,0.147149,-0.125156,-0.0810445,0.00892639,0.0234222,0.0257111,0.0172806,0.018959,0.0142288,0.0166321,0.029335,-9.97986,0.0122452,0.00164032,0.014801,0.00278473,0.0217438,-0.0245667,0.0197601,0.00701904
1,4,10.0097,0.0012207,-0.000610352,-2.42714,0.0550706,-0.0744527,0.0522969,0.0431993,-0.094062,0.146844,-0.125156,-0.0813497,0.0056839,0.0249863,0.0258255,0.0123596,0.0122833,0.0119781,0.0124741,0.00648499,-9.97986,0.0130844,-0.00137329,0.0102615,0.00232697,0.0162125,-0.0278854,0.0208664,0.00549316
1,5,8.78072,0,-0.00106812,-2.42684,0.0584276,-0.0738423,0.0538228,0.0450304,-0.0931465,0.145624,-0.126377,-0.0813497,0.00900269,0.025444,0.0279999,0.00995636,0.0178528,0.0150681,0.0139618,-0.000991821,-9.97986,0.0129318,0.0012207,0.0139236,0.0044632,0.0263596,-0.0236893,0.0252914,0.00610352
1,6,7.59694,0.000305176,-0.000762939,-2.42562,0.0550706,-0.0741475,0.0553487,0.0572374,-0.0925361,0.144708,-0.126377,-0.0819601,0.00995636,0.0251007,0.0335312,0.0108719,0.0170517,0.0104904,0.0128937,0.000534058,-9.97986,0.0150299,-0.00247955,0.0169373,0.00297546,0.0209427,-0.0242615,0.0211334,0.00175476
1,7,7.5356,-0.000305176,-0.000152588,-2.42653,0.0559862,-0.0744527,0.0550435,0.0654772,-0.0919257,0.146234,-0.125766,-0.0819601,0.0126648,0.0287247,0.0346756,0.00900269,0.0191498,0.0138855,0.013237,0.00102997,-9.97986,0.0131226,-0.00217438,0.0169754,0.00801086,0.0181961,-0.0220108,0.0208664,0.00141144
1,8,7.90975,-0.000305176,0.000305176,-2.42562,0.0547655,-0.075063,0.0556539,0.0740221,-0.0919257,0.145624,-0.125461,-0.0825704,0.0133514,0.034523,0.0358582,0.00991821,0.0209808,0.0143814,0.0159073,0.00843048,-9.97986,0.0149536,-0.00637054,0.0130463,0.0069046,0.0165558,-0.0224304,0.0213242,0.00572205
1,9,10.0097,-0.000305176,0.00152588,-2.42684,0.0550706,-0.0753682,0.0550435,0.102403,-0.0910102,0.144403,-0.12363,-0.0837911,0.0108719,0.0532913,0.0315857,0.00782013,0.0196457,0.0137711,0.014534,0.00495911,-9.97986,0.0165558,-0.00400543,0.0134659,0.00873566,0.0153732,-0.0220108,0.0190735,0.00671387
2,0,10.0097,-0.00183105,0.0012207,-2.42989,0.0529344,-0.0762837,0.0526021,0.0883654,-0.0946723,0.144098,-0.126377,-0.0865377,0.00591278,0.0613022,0.0312424,0.0154114,0.0233841,0.0138474,0.0193787,0.0131989,-9.97986,0.0161743,-0.00293732,0.0173569,0.00923157,0.0177002,-0.0164032,0.0214767,0.00736237
2,1,10.0097,-0.000610352,0,-2.42867,0.0511034,-0.0762837,0.0532125,0.0764635,-0.0965034,0.142877,-0.126682,-0.0868429,0.00888824,0.041008,0.0283813,0.0123215,0.0198364,0.0130463,0.0252151,0.0154495,-9.97986,0.0116348,-0.00152588,0.0135803,0.00171661,0.0159073,-0.0152588,0.0201416,0.00831604
2,2,10.0097,-0.000915527,-0.000152588,-2.4302,0.0544603,-0.0756734,0.0513814,0.0724962,-0.0955879,0.142877,-0.127292,-0.0871481,0.00679016,0.0286484,0.0263977,0.0138474,0.0171661,0.0134659,0.0250244,0.0167465,-9.97986,0.0174332,0.000495911,0.0175858,0.00831604,0.0139618,-0.0145721,0.017662,0.00541687
2,3,10.0097,0.0012207,-0.000305176,-2.42928,0.0547655,-0.0765889,0.0519917,0.0694445,-0.0952827,0.142877,-0.126682,-0.0865377,0.00751495,0.0290298,0.0165939,0.00961304,0.0152969,0.00953674,0.0246048,0.0228882,-9.97986,0.016861,0.00087738,0.0136185,0.00907898,0.018959,-0.0178528,0.0193405,0.0019455
2,4,10.0097,-0.0012207,-0.000457764,-2.42776,0.0550706,-0.0759786,0.0522969,0.0700548,-0.0946723,0.142267,-0.127598,-0.0868429,0.00835419,0.0227737,0.0174713,0.0109482,0.0205231,0.0164413,0.027504,0.0143051,-9.97986,0.0134659,-0.0038147,0.0121689,0.00514984,0.0165939,-0.0117493,0.018158,0.00572205
2,5,10.0097,-0.000915527,0,-2.42745,0.0550706,-0.0747579,0.0529073,0.0694445,-0.094062,0.144708,-0.126987,-0.0859274,0.0107574,0.0125885,0.00926971,0.0139999,0.016098,0.013504,0.0273514,0.0120926,-9.97986,0.0201035,-0.000686646,0.0144958,0.0101471,0.0183487,-0.00587463,0.0188065,0.00442505
2,6,10.0097,-0.000305176,0,-2.42684,0.0541551,-0.0762837,0.0532125,0.0691393,-0.0946723,0.143792,-0.126072,-0.0847066,0.0120163,0.001297,-0.00404358,0.0119781,0.0146103,0.014267,0.0296783,0.0170898,-9.97986,0.0161362,-0.00236511,0.0144958,0.00785828,0.014534,-0.00549316,0.0125504,0.00274658
2,7,10.0097,-0.0012207,0,-2.42684,0.0559862,-0.0735371,0.0547383,0.0697496,-0.0934516,0.145318,-0.126072,-0.0844015,0.00999451,0.0031662,-0.00610352,0.0136185,0.0170135,0.0168991,0.0289536,0.0142288,-9.97986,0.0141144,-0.00328064,0.0119781,0.00488281,0.0149918,-0.00354767,0.0183105,-0.00171661
2,8,10.0097,-0.000305176,0.000152588,-2.42714,0.0553758,-0.0756734,0.0529073,0.0685289,-0.094062,0.145624,-0.125461,-0.0840963,0.00827789,0.0104141,0.00087738,0.0117111,0.0154495,0.0201416,0.0301743,0.0211334,-9.97986,0.015831,-0.000801086,0.00915527,0.00701904,0.0188828,-0.00457764,0.0133514,-0.00247955
2,9,10.0097,0.00152588,0.000915527,-2.42592,0.055681,-0.0747579,0.0556539,0.07036,-0.0913154,0.145318,-0.125156,-0.0822652,0.00679016,0.0134659,-0.00915527,0.0126266,0.0143051,0.0146103,0.0268173,0.0197601,-9.97986,0.0212479,-0.0030899,0.0082016,0.00858307,0.0180435,-0.00358582,0.0153351,0.000114441
3,0,10.0097,-0.000610352,-0.000152588,-2.42623,0.0575121,-0.0753682,0.054128,0.0718859,-0.0922309,0.147149,-0.124241,-0.0819601,0.00804901,0.0139236,-0.00476837,0.0162125,0.020256,0.0194931,0.0254822,0.0214386,-9.97986,0.0174332,0.00465393,0.0087738,0.00785828,0.0219727,-0.00415802,0.0173187,0.00404358
3,1,10.0097,0.00183105,-0.000305176,-2.4247,0.0569017,-0.073232,0.0547383,0.0715807,-0.0916206,0.145624,-0.123935,-0.0804342,0.00953674,0.0094223,0.00320435,0.0133133,0.0151443,0.0139236,0.0254059,0.0152206,-9.97986,0.0183487,-0.00171661,0.0132751,0.00606537,0.0175858,-0.00320435,0.015564,0.0062561
3,2,10.0097,-0.000305176,0,-2.42379,0.0572069,-0.0744527,0.0538228,0.0709703,-0.0916206,0.146234,-0.124241,-0.0813497,0.0107574,0.014267,0.00457764,0.0125122,0.0157928,0.0177383,0.0206757,0.0199127,-9.97986,0.0177765,0.00087738,0.0107193,0.00892639,0.010376,-0.00419617,0.0138474,0.000267029
3,3,10.0097,0.000610352,0.000457764,-2.42684,0.0581224,-0.0744527,0.054128,0.0712755,-0.0928413,0.14776,-0.124546,-0.0810445,0.0106049,0.0217819,0.00610352,0.0130463,0.019989,0.0172424,0.0144196,0.0216293,-9.97986,0.0198364,0.000419617,0.0151825,0.00946045,0.00751495,-0.00579834,0.0127411,0.00484467
3,4,10.0097,0.000610352,-0.000610352,-2.42592,0.0572069,-0.0726216,0.0538228,0.0435045,-0.0955879,0.148065,-0.126987,-0.0828756,0.0101471,0.0161743,0.0108719,0.0112534,0.021553,0.0180054,0.0131989,0.0217438,-9.97986,0.018158,0.000610352,0.0151443,0.00995636,0.00751495,-0.0122833,0.0139236,0.01297
3,5,8.77736,0,-0.00106812,-2.42653,0.0559862,-0.0744527,0.0544332,0.0453356,-0.0937568,0.145929,-0.126682,-0.0816549,0.0108337,0.017662,0.00953674,0.0106049,0.0206375,0.0181198,0.00766754,0.018959,-9.97986,0.0123215,-0.00202179,0.0150299,0.0075531,0.00701904,-0.0239182,0.0172424,0.00713348
3,6,7.58779,-0.000305176,-0.00152588,-2.42562,0.0569017,-0.0738423,0.0556539,0.0566271,-0.0928413,0.145318,-0.126072,-0.0825704,0.00823975,0.0194168,0.00972748,0.0139236,0.0161743,0.0135803,0.00213623,0.0159454,-9.97986,0.0130463,0.000610352,0.0117493,0.00514984,0.00476837,-0.0179291,0.0120544,0.0088501
3,7,7.48525,0.00183105,0,-2.42714,0.0550706,-0.0735371,0.0535176,0.0660875,-0.0919257,0.145624,-0.126682,-0.0825704,0.0152969,0.0207138,0.0175476,0.0172424,0.0220871,0.0200653,0.00785828,0.0235367,-9.97986,0.019722,0.00572205,0.0197601,0.0115967,0.0110245,-0.010376,0.0171661,0.0156403
3,8,7.82979,0.00305176,-0.000152588,-2.42562,0.0550706,-0.0735371,0.0544332,0.0728014,-0.0919257,0.146539,-0.126072,-0.0828756,0.00808716,0.0172424,0.00968933,0.0075531,0.0167084,0.0163651,0.00656128,0.0151062,-9.97986,0.0174713,-0.0050354,0.0163651,0.00782013,0.00995636,-0.00919342,0.0183105,0.0124741
3,9,9.94985,-0.000305176,0.000762939,-2.42684,0.0538499,-0.0759786,0.0556539,0.102403,-0.0894843,0.144098,-0.122715,-0.0837911,0.00823975,0.0169373,0.00980377,0.0075531,0.0203705,0.0119781,0.0087738,0.0124741,-9.97986,0.0087738,-0.00270844,0.0140381,-0.0043869,0.00488281,-0.00629425,0.00988007,0.01091
4,0,10.0097,0.000915527,0.0012207,-2.42898,0.0535448,-0.0756734,0.0516866,0.0892809,-0.094062,0.143487,-0.126987,-0.0868429,0.0113297,0.0221634,0.0170135,0.0141525,0.0248337,0.0166702,0.022049,0.0205994,-9.97986,0.0124741,-0.0012207,0.0175858,0.00812531,0.0112152,-0.000152588,0.0188065,0.0115204
4,1,10.0097,-0.000305176,0.000152588,-2.42898,0.0535448,-0.0759786,0.0526021,0.0767687,-0.0955879,0.143182,-0.127598,-0.0865377,0.0104523,0.0148392,0.0151062,0.00839233,0.0222397,0.0151825,0.0273514,0.0211716,-9.97986,0.0124741,0.00232697,0.00858307,0.0104523,0.0177765,-0.00545502,0.0169373,0.00602722
4,2,10.0097,-0.000610352,-0.000915527,-2.42837,0.0541551,-0.0759786,0.0516866,0.0712755,-0.0943672,0.141046,-0.127598,-0.0877584,0.00953674,0.0224686,0.0160217,0.0106812,0.0161743,0.0164032,0.0385666,0.0165558,-9.97986,0.00988007,-0.00312805,0.0115204,0.00720978,0.021286,-0.00919342,0.016861,0.00293732
4,3,10.0097,0.000610352,-0.00137329,-2.42806,0.0538499,-0.075063,0.0516866,0.0709703,-0.0946723,0.142877,-0.127292,-0.0874532,0.0144577,0.0247955,0.0170898,0.00911713,0.0170135,0.0178909,0.0465393,0.0189972,-9.97986,0.0137329,0.00209808,0.0106812,0.00831604,0.0183487,-0.0163651,0.0170135,-0.00541687
4,4,10.0097,0.0012207,0,-2.42837,0.0532396,-0.0759786,0.0535176,0.0663927,-0.0949775,0.143792,-0.127292,-0.0871481,0.0133133,0.0175858,0.0154877,0.00724792,0.0131226,0.0161743,0.0527954,0.0179672,-9.97986,0.0167084,-0.00171661,0.0127411,0.0056076,0.0198746,-0.0178909,0.0162125,-0.00270844
4,5,10.0097,0,0,-2.42745,0.0544603,-0.0759786,0.0532125,0.07036,-0.094062,0.144403,-0.127292,-0.0847066,0.0143814,0.0196075,0.0201416,0.0113297,0.0116348,0.0193024,0.0483704,0.0144577,-9.97986,0.0136566,-0.00106812,0.00518799,0.00720978,0.0191498,-0.019722,0.0161743,-0.00419617
4,6,10.0097,0,0.000457764,-2.4305,0.0550706,-0.0747579,0.0529073,0.0694445,-0.0946723,0.144098,-0.127903,-0.085317,0.0123596,0.0227737,0.0197601,0.00850677,0.0136185,0.0165939,0.0543976,0.0174332,-9.97986,0.0148392,0.000495911,0.00846863,0.0106812,0.0215149,-0.0142288,0.0136948,-0.00236511
4,7,10.0097,-0.000305176,0.000610352,-2.42653,0.0553758,-0.0747579,0.0535176,0.0697496,-0.0916206,0.144403,-0.126072,-0.0840963,0.0100708,0.015831,0.017395,0.00976563,0.0140381,0.0170135,0.0469208,0.0196457,-9.97986,0.0153732,-0.00362396,0.00831604,0.00556946,0.02285,-0.00648499,0.0136566,-0.00358582
4,8,10.0097,0.00152588,0.000152588,-2.42592,0.055681,-0.0741475,0.0547383,0.0700548,-0.0931465,0.144708,-0.126377,-0.0828756,0.0120926,0.0196838,0.017128,0.0124359,0.0126266,0.0167084,0.0378036,0.0167847,-9.97986,0.0160599,3.8147e-005,0.0108719,0.0128937,0.021286,-0.000152588,0.0172424,-0.000762939
4,9,10.0097,-0.0012207,0.000457764,-2.4244,0.0569017,-0.075063,0.054128,0.07036,-0.0928413,0.147149,-0.124546,-0.0819601,0.0109863,0.0165558,0.0185013,0.0104141,0.0156403,0.0185013,0.0325394,0.0181961,-9.97986,0.0139999,-0.000228882,0.0107193,0.0122833,0.0147629,0.000915527,0.0162888,0.00160217
5,0,10.0097,0.000610352,0.000305176,-2.42501,0.0569017,-0.075063,0.054128,0.0697496,-0.0913154,0.145624,-0.12363,-0.0816549,0.00873566,0.0159836,0.0178528,0.0102997,0.0156021,0.0131607,0.0246811,0.0226974,-9.97986,0.0133133,-0.000610352,0.0115585,0.00976563,0.0151062,0.00652313,0.0171661,-0.000648499
5,1,10.0097,0.000305176,0.000762939,-2.42562,0.0584276,-0.073232,0.0547383,0.0706652,-0.0922309,0.146844,-0.12363,-0.0776876,0.00957489,0.0205231,0.0159073,0.0165558,0.0131226,0.0133514,0.0275421,0.015564,-9.97986,0.0139999,0.00038147,0.0139236,0.0150299,0.0174713,0.00473022,0.0130844,0.00175476
5,2,10.0097,0.00213623,0.000762939,-2.42623,0.0562914,-0.0735371,0.055959,0.0709703,-0.0913154,0.145929,-0.124546,-0.0810445,0.0107574,0.0170517,0.0196457,0.0117493,0.0167465,0.0136566,0.0292206,0.0147247,-9.97986,0.0157547,0.000228882,0.0135803,0.0139999,0.0173569,0.000228882,0.014534,0.00205994
5,3,10.0097,0.000610352,0.000152588,-2.42562,0.0569017,-0.0726216,0.0535176,0.0718859,-0.0922309,0.14776,-0.124546,-0.0816549,0.0145721,0.0166321,0.0187683,0.0118637,0.0177765,0.021553,0.0219727,0.0165558,-9.97986,0.0165558,0.0018692,0.0117874,0.0173187,0.0183868,-0.00282288,0.0161743,0.00469208
5,4,10.0097,0.000915527,-0.000610352,-2.42684,0.055681,-0.0735371,0.0544332,0.0419786,-0.0949775,0.145929,-0.125156,-0.0844015,0.0118637,0.0212479,0.0191879,0.00946045,0.0151443,0.0163269,0.0251007,0.0178909,-9.97986,0.0178146,-0.00221252,0.0119781,0.0123596,0.0156021,-0.0165176,0.0147629,0.00385284
5,5,8.76851,0.000305176,-0.000762939,-2.4247,0.055681,-0.0744527,0.0535176,0.0465563,-0.0925361,0.145013,-0.126072,-0.0810445,0.0122833,0.0198746,0.018425,0.00968933,0.0111771,0.0148773,0.0289917,0.0165939,-9.97986,0.0125885,0.000114441,0.0109482,0.00595093,0.0157547,-0.0150681,0.0126266,0.00385284
5,6,7.63295,0.0012207,-0.000457764,-2.42623,0.0559862,-0.0744527,0.0553487,0.0572374,-0.0928413,0.146539,-0.125766,-0.0822652,0.00938416,0.0217438,0.0169373,0.00709534,0.00797272,0.01297,0.0200653,0.0169373,-9.97986,0.0125504,-0.000724792,0.0120926,0.0128555,0.014801,-0.0123596,0.0144196,0.00656128
5,7,7.55788,0.000915527,0,-2.42684,0.0547655,-0.075063,0.0538228,0.065172,-0.0922309,0.146234,-0.126377,-0.0828756,0.00980377,0.0198364,0.0201797,0.00999451,0.00400543,0.0160599,0.0216293,0.0211716,-9.97986,0.0162888,0.000610352,0.0118256,0.0113297,0.0146866,-0.0160599,0.0131226,0.00652313
5,8,7.89723,0.000305176,0.000915527,-2.42531,0.0550706,-0.0741475,0.0544332,0.0749376,-0.0919257,0.144098,-0.124851,-0.0831808,0.0143433,0.0246811,0.0208664,0.0113678,0.00961304,0.0149155,0.0260925,0.0224304,-9.97986,0.0144577,-0.000152588,0.0110245,0.013504,0.0168991,-0.015564,0.0136185,0.00442505
5,9,10.0097,0.00183105,0.00106812,-2.42745,0.0550706,-0.0744527,0.0550435,0.103929,-0.0885688,0.145624,-0.12363,-0.0840963,0.0126648,0.0233841,0.0170135,0.0151062,0.00652313,0.0126648,0.0201416,0.0234985,-9.97986,0.012207,-0.000152588,0.0118637,0.0115204,0.0139236,-0.0115585,0.0140381,0.00701904
6,0,10.0097,0.000915527,0.00167847,-2.42959,0.0541551,-0.0762837,0.0516866,0.0871447,-0.0961982,0.143487,-0.126377,-0.0844015,0.00865936,0.025177,0.0192261,0.0107956,0.00610352,0.0145721,0.0208282,0.02285,-9.97986,0.0131989,-0.000305176,0.0151443,0.0150681,0.0112534,-0.0110245,0.0131226,0.00465393
6,1,10.0097,0.00213623,0.000762939,-2.42776,0.0538499,-0.0756734,0.050771,0.0758531,-0.0946723,0.143182,-0.126377,-0.0868429,0.0120544,0.0282288,0.0204468,0.00995636,0.00938416,0.014801,0.0221634,0.0261307,-9.97986,0.0181198,0,0.0139236,0.0143051,0.014801,-0.00400543,0.0174332,0.00530243
6,2,10.0097,-0.000915527,-0.000152588,-2.42837,0.0535448,-0.0762837,0.050771,0.07036,-0.0952827,0.142267,-0.127292,-0.0868429,0.00961304,0.0182724,0.0170898,0.01091,0.00583649,0.0123215,0.0259018,0.0219727,-9.97986,0.0171661,0.0025177,0.00862122,0.0108337,0.0152206,-0.0115204,0.00984192,0.00335693
6,3,10.0097,0.000610352,-0.000152588,-2.42867,0.0544603,-0.0753682,0.0519917,0.0697496,-0.0952827,0.143182,-0.126987,-0.0871481,0.0115585,0.0243378,0.0217819,0.00816345,0.00843048,0.0154495,0.0212097,0.0296402,-9.97986,0.0175476,0.0018692,0.015831,0.0128174,0.0163651,-0.00328064,0.0147629,0.0087738
6,4,10.0097,0.00152588,0,-2.42837,0.0544603,-0.0765889,0.0516866,0.07036,-0.0968086,0.143487,-0.127292,-0.0877584,0.0137329,0.027504,0.0170517,0.00713348,0.00522614,0.0101089,0.0151825,0.0237274,-9.97986,0.0140381,0.000152588,0.00995636,0.0122452,0.0116348,-0.0037384,0.0138474,0.00537872
6,5,10.0097,-0.000305176,-0.000457764,-2.42837,0.0541551,-0.0753682,0.0526021,0.0700548,-0.0949775,0.144098,-0.127292,-0.0856222,0.0128174,0.0257492,0.0183868,0.00732422,0.0141525,0.0128555,0.019989,0.0207901,-9.97986,0.0139618,0.000686646,0.0110245,0.0121307,0.0143051,-0.00579834,0.0114822,0.00682831
6,6,10.0097,0.000610352,-0.000305176,-2.42806,0.0553758,-0.0744527,0.0529073,0.0694445,-0.0949775,0.144403,-0.126072,-0.085317,0.00549316,0.0286865,0.0217819,0.00896454,0.0125122,0.0137711,0.018959,0.0197983,-9.97986,0.0105667,3.8147e-005,0.0153351,0.0116348,0.019722,-0.00576019,0.011673,0.00709534
6,7,10.0097,-0.000305176,-0.000305176,-2.42653,0.0550706,-0.0738423,0.0532125,0.0691393,-0.0922309,0.144403,-0.126682,-0.085317,0.00434875,0.0259399,0.0219727,0.0153351,0.0133133,0.0120544,0.0218582,0.0181198,-9.97986,0.0159836,-0.00144958,0.0123978,0.0115204,0.0177002,-0.00682831,0.00919342,0.00465393
6,8,10.0097,-0.000305176,0.000457764,-2.42714,0.0547655,-0.075063,0.0529073,0.0706652,-0.0919257,0.145624,-0.126072,-0.0831808,0.00164032,0.0230789,0.0212097,0.0121307,0.0117493,0.0108719,0.0214005,0.017662,-9.97986,0.0180435,-0.00205994,0.0144958,0.0147629,0.018425,-0.00179291,0.00896454,0.00499725
6,9,10.0097,0,0.000305176,-2.42592,0.0565965,-0.0729268,0.0544332,0.0715807,-0.0925361,0.145624,-0.123935,-0.0822652,0.00488281,0.025444,0.0216675,0.0137329,0.0123215,0.011673,0.0211334,0.0130463,-9.97986,0.0170135,-0.000534058,0.0119019,0.00888824,0.0177383,-0.000991821,0.0104523,0.00511169
7,0,10.0097,0,0.000457764,-2.42531,0.0559862,-0.0735371,0.0544332,0.0700548,-0.0900947,0.146539,-0.124241,-0.0810445,0.00770569,0.0233459,0.0255203,0.00907898,0.0162506,0.00972748,0.0196457,0.0102615,-9.97986,0.0175858,0.00179291,0.013237,0.0101852,0.0162125,-0.000419617,0.0107193,0.00579834
7,1,10.0097,0.000610352,0.000610352,-2.42592,0.0569017,-0.0741475,0.0547383,0.0712755,-0.0919257,0.146844,-0.123935,-0.0813497,0.0102615,0.0246048,0.0208282,0.0125885,0.0179672,0.00579834,0.0210571,0.0187683,-9.97986,0.0109482,0.001297,0.0133133,0.0131607,0.014267,-0.00331879,0.0128937,0.00682831
7,2,10.0097,0.00183105,0.000457764,-2.42318,0.0569017,-0.0738423,0.0550435,0.0715807,-0.0910102,0.146234,-0.12363,-0.0804342,0.0136566,0.0283813,0.0231552,0.0159073,0.0156403,0.0125885,0.0238419,0.0137329,-9.97986,0.0123596,-0.00236511,0.0116348,0.0127411,0.0165558,-0.00347137,0.0115585,0.00904083
7,3,10.0097,0.00152588,0.000457764,-2.42592,0.0562914,-0.0741475,0.0532125,0.0706652,-0.0913154,0.146844,-0.12302,-0.0807394,0.0169373,0.0217819,0.0233459,0.0171661,0.0104523,0.0109482,0.0240326,0.0112152,-9.97986,0.0124359,0.000495911,0.015831,0.0177002,0.0195313,-0.00419617,0.0122452,0.0056076
7,4,10.0097,-0.000305176,-0.000610352,-2.42562,0.0559862,-0.0738423,0.054128,0.0422838,-0.095893,0.147149,-0.126377,-0.0819601,0.0196075,0.0233459,0.0224304,0.0143814,0.0123596,0.0104904,0.0231934,0.0120926,-9.97986,0.0153732,0,0.0139236,0.0157547,0.0144958,-0.00480652,0.0111008,0.00385284
7,5,8.86983,0.00305176,-0.0012207,-2.42501,0.0550706,-0.0735371,0.0547383,0.0456407,-0.0925361,0.145013,-0.126072,-0.0813497,0.0209427,0.0234222,0.0233459,0.0133896,0.014267,0.0117874,0.0212479,0.0143051,-9.97986,0.0126266,0.00110626,0.0118256,0.0130844,0.0161743,-0.00396729,0.0131607,0.00213623
7,6,7.7834,0.000305176,-0.000610352,-2.42623,0.0562914,-0.0735371,0.0547383,0.0587633,-0.0928413,0.146234,-0.126377,-0.0819601,0.0216675,0.0305557,0.0196838,0.0125885,0.0133133,0.0111771,0.0197601,0.00869751,-9.97986,0.0119019,-7.62939e-005,0.0136185,0.014801,0.0163651,-0.00228882,0.0133514,0.00717163
7,7,7.73702,0,0.000305176,-2.42684,0.0559862,-0.0747579,0.0547383,0.065172,-0.0916206,0.145624,-0.125156,-0.0825704,0.0151062,0.0295258,0.0259399,0.0115204,0.0220108,0.0115967,0.0224304,0.00774384,-9.97986,0.0131607,-0.00038147,0.0139236,0.018158,0.0149536,-0.00587463,0.0128555,0.00526428
7,8,8.11757,-0.000610352,0.000152588,-2.42562,0.0550706,-0.0747579,0.0544332,0.0746324,-0.0913154,0.145318,-0.125766,-0.0825704,0.00961304,0.0265121,0.0215912,0.0135422,0.0214386,0.00671387,0.0217819,0.00896454,-9.97986,0.0146103,0.000419617,0.014267,0.0143814,0.0177002,0.0018692,0.0119781,0.00907898
7,9,10.0097,0,0.0012207,-2.42684,0.055681,-0.075063,0.0556539,0.103319,-0.088874,0.145013,-0.124241,-0.0840963,0.00705719,0.0289154,0.0200653,0.0146484,0.0184631,0.0128174,0.0157166,0.0147247,-9.97986,0.028801,0.00385284,0.0162506,0.0177002,0.0194168,0.00213623,0.01194,0.00957489
8,0,10.0097,-0.000305176,0.00152588,-2.42989,0.0541551,-0.0765889,0.0538228,0.0889757,-0.0952827,0.145013,-0.126377,-0.0871481,0.0110245,0.0286102,0.0217438,0.0127792,0.0171661,0.0104904,0.0182343,0.0151062,-9.97986,0.0355911,-0.00232697,0.0138474,0.0165939,0.0177765,-0.00511169,0.0136185,0.00843048
8,1,10.0097,-0.000610352,0,-2.42837,0.0547655,-0.0756734,0.0516866,0.0740221,-0.0965034,0.143182,-0.126377,-0.0865377,0.0102234,0.0262451,0.0122833,0.0136566,0.0214386,0.0126648,0.0116348,0.0150299,-9.97986,0.0330734,-0.00152588,0.0122452,0.00770569,0.0229263,0.00175476,0.0167847,0.00679016
8,2,10.0097,0.00274658,0.000152588,-2.42898,0.0535448,-0.0762837,0.0519917,0.07036,-0.0949775,0.143792,-0.127598,-0.0862325,0.00343323,0.0247192,0.0161362,0.0160599,0.0180054,0.0138092,0.0131607,0.0259781,-9.97986,0.0183868,0.00232697,0.0156403,0.0118637,0.0213623,-0.000648499,0.0139618,0.00530243
8,3,10.0097,-0.000305176,-0.000152588,-2.42989,0.0547655,-0.075063,0.0519917,0.0685289,-0.0943672,0.142877,-0.127903,-0.0868429,0.00736237,0.0262451,0.0226974,0.00976563,0.021553,0.00869751,0.0177383,0.0512314,-9.97986,0.019722,0.00148773,0.016861,0.0122833,0.0196838,-0.00144958,0.014534,0.0075531
8,4,10.0097,-0.000305176,-0.000610352,-2.42959,0.0523241,-0.0747579,0.0529073,0.0694445,-0.0946723,0.144098,-0.127292,-0.0865377,0.0100708,0.0228119,0.0169754,0.0124359,0.0174713,0.00789642,0.0217819,0.0530624,-9.97986,0.0134277,0.00160217,0.0142288,0.0111389,0.0184631,-0.00289917,0.0152969,0.00328064
8,5,10.0097,-0.000610352,0.000152588,-2.42806,0.0538499,-0.0756734,0.0529073,0.07036,-0.0952827,0.143487,-0.126987,-0.0847066,0.0170898,0.0236893,0.0175858,0.00988007,0.0232315,0.00850677,0.0209808,0.0510406,-9.97986,0.0107574,3.8147e-005,0.0138474,0.0159073,0.0160217,-0.00408173,0.0146484,0.00679016
8,6,10.0097,0.000915527,-0.000610352,-2.42745,0.0544603,-0.0753682,0.0535176,0.0700548,-0.0931465,0.145013,-0.126682,-0.085317,0.0118637,0.0219727,0.0122452,0.0110626,0.0182343,0.00911713,0.0178528,0.0442505,-9.97986,0.0122833,0.000343323,0.0150299,0.00972748,0.0170517,-0.000648499,0.0122452,0.00545502
8,7,10.0097,0,-0.000305176,-2.42653,0.0544603,-0.0747579,0.054128,0.0697496,-0.0934516,0.145624,-0.126987,-0.085317,0.0133133,0.02388,0.0205994,0.0136185,0.0216293,0.0110626,0.0216293,0.0457764,-9.97986,0.0169754,0.0038147,0.0151443,0.0115204,0.0182724,-0.00167847,0.0159454,0.00473022
8,8,10.0097,0.0012207,0,-2.42623,0.055681,-0.0744527,0.0553487,0.0706652,-0.0937568,0.144708,-0.125156,-0.0847066,0.0130463,0.0242233,0.01297,0.0094223,0.0214767,0.00988007,0.0224304,0.0422668,-9.97986,0.0206375,-0.00175476,0.0174713,0.00930786,0.0209427,0.00087738,0.0140762,0.00526428
8,9,10.0097,0.000610352,0.000305176,-2.42592,0.0550706,-0.0744527,0.0544332,0.0715807,-0.090705,0.146234,-0.124546,-0.0825704,0.0145721,0.0213623,0.0180435,0.0104904,0.0218582,0.00934601,0.0191498,0.0405502,-9.97986,0.0169373,-0.000648499,0.0154877,0.00747681,0.021286,0.00354767,0.0133514,0.00652313
9,0,10.0097,-0.000915527,0.000457764,-2.42379,0.055681,-0.0744527,0.0547383,0.0709703,-0.0910102,0.147149,-0.124241,-0.0810445,0.0125504,0.0267029,0.017128,0.0142288,0.0219345,0.00926971,0.0283813,0.0375366,-9.97986,0.0113297,0.000343323,0.0135803,0.0120926,0.0211716,-0.000724792,0.0136185,0.00526428
9,1,10.0097,0.000610352,0,-2.42501,0.0569017,-0.0735371,0.0547383,0.0700548,-0.0903999,0.145013,-0.123325,-0.0810445,0.00637054,0.0248718,0.0183105,0.0163651,0.0173187,0.0147629,0.0242615,0.0465775,-9.97986,0.010643,-0.00514984,0.0164795,0.00968933,0.0222397,-0.000419617,0.0140762,0.00587463
9,2,10.0097,0.000915527,-0.000457764,-2.42623,0.0569017,-0.0726216,0.0550435,0.0712755,-0.0913154,0.146539,-0.124241,-0.0810445,0.0136566,0.0240326,0.020752,0.0138092,0.0192642,0.0062561,0.0267792,0.0536346,-9.97986,0.00904083,-0.001297,0.012207,0.00858307,0.0196838,-0.000228882,0.0158691,0.00732422
9,3,10.0097,-0.000915527,0.000915527,-2.4247,0.0578172,-0.0738423,0.0547383,0.0715807,-0.0913154,0.146234,-0.124546,-0.0816549,0.0111008,0.0228882,0.0183868,0.00892639,0.0214767,0.00904083,0.0235748,0.0494385,-9.97986,0.01194,0.000457764,0.0125504,0.0128174,0.0198364,0.00217438,0.0139999,0.010643
9,4,10.0097,-0.000915527,-0.00137329,-2.42623,0.0569017,-0.073232,0.0538228,0.0407579,-0.0952827,0.145624,-0.126072,-0.0816549,0.00747681,0.0177002,0.0197983,0.0144958,0.017662,0.0127792,0.0229263,0.0525284,-9.97986,0.0144577,3.8147e-005,0.0108337,0.0149155,0.0182724,0.00259399,0.0198746,0.0062561
9,5,8.64156,0.00274658,-0.000457764,-2.42623,0.0562914,-0.0741475,0.054128,0.0441149,-0.0925361,0.145013,-0.126987,-0.0822652,0.00980377,0.0221634,0.0177383,0.0127411,0.0173569,0.00762939,0.0194168,0.0510025,-9.97986,0.00709534,0.000762939,0.0160217,0.0131607,0.02285,0.00576019,0.0177765,0.00720978
9,6,7.50325,0.00244141,-0.00152588,-2.42592,0.0562914,-0.0744527,0.0553487,0.0563219,-0.090705,0.146234,-0.125461,-0.0825704,0.0122833,0.0203323,0.0203323,0.0102615,0.0183487,0.0113678,0.0177765,0.0463486,-9.97986,0.0152206,-0.00640869,0.0159836,0.0123978,0.0136566,0.00419617,0.0174713,0.00682831
9,7,7.4059,-0.000305176,-0.000305176,-2.42562,0.055681,-0.0738423,0.0547383,0.0660875,-0.0928413,0.146844,-0.125461,-0.0825704,0.00919342,0.0192642,0.0185013,0.0183105,0.019989,0.0120544,0.0191498,0.0453186,-9.97986,0.0114441,-0.00282288,0.0127792,0.0120926,0.0198746,0.00160217,0.0186539,0.00667572
9,8,7.73152,0.00152588,0.000305176,-2.42714,0.0541551,-0.0744527,0.054128,0.0740221,-0.0922309,0.146234,-0.124851,-0.0834859,0.0131989,0.0231934,0.0203705,0.00980377,0.0196457,0.0110245,0.021019,0.0399399,-9.97986,0.0152206,0.000686646,0.0180435,0.0115967,0.0198364,0.00564575,0.0194168,0.00637054
9,9,9.93032,0,0.0012207,-2.42714,0.0544603,-0.0741475,0.0550435,0.102403,-0.0894843,0.144403,-0.12363,-0.0837911,0.00862122,0.0217438,0.0191879,0.0126266,0.017395,0.00839233,0.0165176,0.0360107,-9.97986,0.0187683,-0.00354767,0.0151443,0.00762939,0.0146484,0.011673,0.0174713,0.00534058
10,0,10.0097,-0.000915527,0.0012207,-2.42959,0.0544603,-0.0762837,0.0513814,0.0895861,-0.0946723,0.143487,-0.126377,-0.0862325,0.0120926,0.0259781,0.0221634,0.0108719,0.0172043,0.00923157,0.0205994,0.032959,-9.97986,0.0122452,0.001297,0.0136185,0.0112915,0.0207138,0.0104141,0.016098,0.00556946
10,1,10.0097,-0.000305176,0,-2.42867,0.0526292,-0.075063,0.0529073,0.0746324,-0.0955879,0.142572,-0.126682,-0.0871481,0.014534,0.021286,0.0218964,0.0127411,0.0170898,0.0109863,0.0188828,0.0294113,-9.97986,0.0117493,-0.00144958,0.00999451,0.00694275,0.0188828,0.0094223,0.0193024,0.00591278
10,2,10.0097,-0.000305176,-0.000457764,-2.42867,0.0526292,-0.0756734,0.0526021,0.0718859,-0.0955879,0.143487,-0.127598,-0.0859274,0.0110626,0.0269699,0.0204468,0.00968933,0.016098,0.0124741,0.0239944,0.0331497,-9.97986,0.0165558,0.00141144,0.0110245,0.00816345,0.0193405,0.00583649,0.0173187,0.00484467
10,3,10.0097,0.000610352,-0.000457764,-2.42898,0.0541551,-0.0756734,0.0529073,0.07036,-0.0946723,0.144098,-0.127598,-0.0871481,0.0104141,0.0224304,0.0206375,0.0131989,0.0202942,0.010643,0.027504,0.0287628,-9.97986,0.0122452,-0.000228882,0.0145721,0.0069046,0.0220871,0.00492096,0.0200272,0.0044632
10,4,10.0097,0.0012207,-0.000152588,-2.42867,0.0523241,-0.0762837,0.0529073,0.0685289,-0.0952827,0.141961,-0.127598,-0.0859274,0.0114822,0.0281143,0.0170135,0.0133514,0.0249481,0.00926971,0.0229263,0.0222015,-9.97986,0.0130463,0.00450134,0.0170898,0.00816345,0.0142288,0.00587463,0.0174332,0.00587463
10,5,10.0097,0.000305176,-0.000305176,-2.42776,0.0547655,-0.0747579,0.0522969,0.0688341,-0.0937568,0.143182,-0.127598,-0.0862325,0.0112534,0.0267792,0.0185394,0.0127411,0.0187683,0.0118637,0.021286,0.0194168,-9.97986,0.0134659,0.00411987,0.0156021,0.00984192,0.017395,0.00404358,0.0186539,0.00591278
10,6,10.0097,-0.00152588,0,-2.42806,0.0544603,-0.0756734,0.0535176,0.0697496,-0.0934516,0.144098,-0.126377,-0.085317,0.00797272,0.0226593,0.0178909,0.00679016,0.0161362,0.0122452,0.0156784,0.0189972,-9.97986,0.0109863,-0.000228882,0.0122833,0.00701904,0.020752,-0.00232697,0.0188828,0.00541687
10,7,10.0097,0.00183105,0.000152588,-2.42745,0.0553758,-0.075063,0.0526021,0.0709703,-0.094062,0.144098,-0.125766,-0.0847066,0.0124741,0.0292969,0.021286,0.0075531,0.0177002,0.00865936,0.0156403,0.0169373,-9.97986,0.0133514,-0.00240326,0.0128937,0.0102997,0.0212479,0.00843048,0.0191879,0.0037384
10,8,10.0097,0.000305176,0.000305176,-2.42684,0.055681,-0.0747579,0.0550435,0.07036,-0.0931465,0.145318,-0.126072,-0.0840963,0.00808716,0.0269699,0.0221252,0.0113297,0.0156403,0.00953674,0.0152969,0.0177765,-9.97986,0.0135422,-0.00175476,0.014801,0.00541687,0.021019,0.00911713,0.0204086,0.00408173
10,9,10.0097,0.000610352,0.000305176,-2.4247,0.0562914,-0.0744527,0.0550435,0.07036,-0.0922309,0.146234,-0.124546,-0.0819601,0.0109482,0.0270462,0.0216675,0.00843048,0.018959,0.0101471,0.013237,0.0178528,-9.97986,0.0190735,-0.000724792,0.0170135,0.0111008,0.0225449,0.0153732,0.0175476,0.00923157
11,0,10.0097,0.000915527,0.000152588,-2.4247,0.0559862,-0.0741475,0.054128,0.0715807,-0.0925361,0.145929,-0.123935,-0.0825704,0.00869751,0.0261688,0.021286,0.00923157,0.0195313,0.00675201,0.0130081,0.0120163,-9.97986,0.0117493,-0.00419617,0.0131226,0.00423431,0.0214386,0.0166702,0.0172043,0.00267029
11,1,10.0097,0.000915527,0,-2.4244,0.0553758,-0.0744527,0.0562642,0.0709703,-0.0913154,0.146844,-0.124241,-0.0813497,0.00812531,0.0266647,0.0202942,0.00839233,0.0201797,0.0114441,0.0196838,0.0133896,-9.97986,0.0163269,0.000801086,0.0121689,0.00652313,0.0204086,0.012207,0.0200272,0.00907898
11,2,10.0097,0.000915527,0,-2.4244,0.0572069,-0.0726216,0.0550435,0.0718859,-0.0922309,0.147455,-0.123935,-0.0813497,0.0110245,0.0226974,0.0163651,0.00911713,0.0168991,0.0104141,0.0140762,0.00831604,-9.97986,0.0158691,-0.00362396,0.0122833,0.0030899,0.0171661,0.00972748,0.0201035,0.00881195
11,3,10.0097,0.000610352,0,-2.42531,0.0569017,-0.0735371,0.0550435,0.0718859,-0.0922309,0.147149,-0.124546,-0.0810445,0.0100327,0.0268936,0.0192261,0.00839233,0.0186539,0.00617981,0.0147247,0.00709534,-9.97986,0.0185394,3.8147e-005,0.0167084,0.00389099,0.0163651,0.00762939,0.0183105,0.00701904
11,4,10.0097,0,-0.00106812,-2.42653,0.0562914,-0.0747579,0.0538228,0.0395372,-0.0946723,0.146844,-0.126987,-0.0819601,0.00984192,0.0217056,0.019722,0.00518799,0.0202179,0.0063324,0.0166702,0.0113678,-9.97986,0.0168228,-0.00499725,0.0107193,0.000686646,0.0152969,0.00434875,0.0189972,0.0082016
11,5,8.52162,0.000305176,-0.000762939,-2.42592,0.0569017,-0.0741475,0.0547383,0.0453356,-0.0937568,0.147149,-0.126682,-0.0828756,0.0121689,0.0253677,0.0184631,0.00984192,0.0225067,0.0112915,0.0125885,0.00644684,-9.97986,0.0139618,-0.00339508,0.0147247,0.000724792,0.0153351,0.00499725,0.018425,0.00782013
11,6,7.43764,-0.0012207,-0.000610352,-2.42684,0.0538499,-0.0753682,0.0547383,0.058153,-0.0916206,0.146234,-0.124851,-0.0819601,0.0116348,0.0211334,0.0170517,0.0075531,0.023613,0.0115204,0.0120926,0.0107956,-9.97986,0.0162888,0.000457764,0.0115585,-0.000572205,0.0128937,0.00850677,0.0184631,0.00747681
11,7,7.32656,0,0.000152588,-2.42623,0.0550706,-0.0723164,0.0547383,0.065172,-0.0922309,0.145013,-0.125766,-0.0822652,0.0147247,0.0258255,0.0198364,0.00873566,0.0221634,0.0123596,0.0151062,0.0103378,-9.97986,0.0153732,0.00476837,0.0154114,0.00133514,0.0179291,0.0104141,0.0206375,0.0104904
11,8,7.68148,-0.00213623,0.000305176,-2.42623,0.0553758,-0.075063,0.054128,0.0749376,-0.0925361,0.144403,-0.126072,-0.0822652,0.0119019,0.0318909,0.0185394,0.00549316,0.0224686,0.0088501,0.0149536,0.00801086,-9.97986,0.0150299,0.00343323,0.0147247,0.00270844,0.0154114,0.00988007,0.0207901,0.0075531
11,9,9.97182,-0.000610352,0.000915527,-2.42714,0.0541551,-0.0747579,0.0547383,0.103319,-0.0928413,0.144098,-0.123935,-0.0834859,0.0148392,0.0281525,0.0111771,0.00602722,0.0178909,0.00976563,0.00961304,0.0075531,-9.97986,0.00930786,-3.8147e-005,0.0146103,-0.00225067,0.0128555,0.0087738,0.0157928,0.00671387
12,0,10.0097,0,0.00152588,-2.42928,0.0532396,-0.0753682,0.0513814,0.0874498,-0.0949775,0.142877,-0.127903,-0.0862325,0.0120926,0.0237656,0.0162125,0.00816345,0.0241089,0.00709534,0.0153351,0.0173569,-9.97986,0.0129318,0.00583649,0.0153351,0,0.0139618,0.0164032,0.0194168,0.00457764
12,1,10.0097,0.0012207,0.000152588,-2.42928,0.0562914,-0.0753682,0.0532125,0.0764635,-0.0952827,0.144403,-0.126682,-0.0859274,0.00953674,0.0247192,0.0164032,0.0056839,0.0152206,0.00617981,0.0182343,0.0130844,-9.97986,0.0140762,0.00221252,0.0102234,-0.00225067,0.0141907,0.0128555,0.0140762,-0.000495911
12,2,10.0097,0.00152588,-0.000152588,-2.42928,0.0529344,-0.0756734,0.0513814,0.0706652,-0.0946723,0.142877,-0.126987,-0.0868429,0.00976563,0.0321579,0.0169373,0.00526428,0.0210953,0.0121689,0.0172806,0.0148392,-9.97986,0.0119781,0.00312805,0.0119019,-0.00198364,0.0119781,0.00507355,0.0137329,0.00179291
12,3,10.0097,0.000610352,0,-2.4302,0.0538499,-0.0768941,0.0522969,0.0691393,-0.0946723,0.143487,-0.128208,-0.0871481,0.0102997,0.027771,0.0146866,0.00720978,0.0170135,0.00995636,0.0210571,0.0165558,-9.97986,0.0167847,0.00293732,0.0164795,-0.00297546,0.0130081,-0.000114441,0.0193024,0.00926971
12,4,10.0097,0.000305176,-0.000762939,-2.42959,0.0501878,-0.0765889,0.0526021,0.0688341,-0.0943672,0.143487,-0.127598,-0.0877584,0.00831604,0.0275421,0.020752,0.00453949,0.0214005,0.00591278,0.0168991,0.0129318,-9.97986,0.0160217,0.00686646,0.0149536,-0.00164032,0.0128937,0.00629425,0.0195694,0.00770569
12,5,10.0097,0.0012207,-0.000457764,-2.42806,0.0541551,-0.0747579,0.0535176,0.0685289,-0.094062,0.144098,-0.127292,-0.0865377,0.00793457,0.0313568,0.0200272,0.00717163,0.0230026,0.00869751,0.022583,0.00518799,-9.97986,0.0088501,0.00404358,0.0160599,0.00087738,0.00934601,0.00774384,0.0174332,0.00469208
12,6,10.0097,-0.000610352,0,-2.42745,0.0550706,-0.0756734,0.0535176,0.0688341,-0.0952827,0.144403,-0.126682,-0.0847066,0.00789642,0.0251007,0.0143433,0.00801086,0.018692,0.00797272,0.023613,0.00724792,-9.97986,0.0131226,0.00263214,0.00923157,-0.00293732,0.0115204,0.00926971,0.0166702,0.00526428
12,7,10.0097,0,0.000305176,-2.42776,0.0578172,-0.0741475,0.0535176,0.0712755,-0.0931465,0.144708,-0.124851,-0.0837911,0.00587463,0.0259018,0.0164413,0.00324249,0.018425,0.00679016,0.021553,-0.00495911,-9.97986,0.0125122,-0.00225067,0.0113297,-0.00442505,0.0138855,0.00923157,0.0167465,0.00839233
12,8,10.0097,0.000305176,0.000305176,-2.42653,0.0553758,-0.0744527,0.0522969,0.0697496,-0.0931465,0.145013,-0.126377,-0.0828756,0.00610352,0.0237274,0.0137329,0.00427246,0.0224686,0.00865936,0.0272369,-0.011673,-9.97986,0.0183868,-0.000953674,0.00881195,-0.00137329,0.0193787,0.00968933,0.0191879,0.00473022
12,9,10.0097,0.000610352,0.000457764,-2.42623,0.0550706,-0.0744527,0.0547383,0.0691393,-0.0919257,0.146234,-0.124851,-0.0822652,0.0104141,0.026474,0.0205994,0.00682831,0.0204086,0.00705719,0.0304031,-0.00282288,-9.97986,0.0113678,-0.0031662,0.00923157,-0.00209808,0.0141144,0.00526428,0.0145721,0.000953674
13,0,10.0097,-0.0012207,-0.000610352,-2.4244,0.0590379,-0.0738423,0.0556539,0.0700548,-0.0928413,0.147149,-0.124851,-0.0816549,0.0126266,0.0257111,0.0175476,0.0075531,0.0203323,0.0105286,0.0284576,-0.0108719,-9.97986,0.0155258,-0.00965118,0.00640869,-0.00209808,0.0147629,0.0056839,0.0140762,0
13,1,10.0097,0.00213623,0.000305176,-2.42562,0.0562914,-0.0723164,0.0544332,0.0724962,-0.0925361,0.146539,-0.12363,-0.0810445,0.0169373,0.0275803,0.0195313,0.00797272,0.0190353,0.00747681,0.0300217,-0.0179291,-9.97986,0.00988007,-0.00484467,0.0102997,0.00114441,0.0168991,0.00160217,0.0140762,0.00362396
13,2,10.0097,0.00244141,-0.000305176,-2.42348,0.0565965,-0.0744527,0.0550435,0.0718859,-0.090705,0.145624,-0.124546,-0.0816549,0.0180817,0.0309753,0.0161362,0.0114059,0.0211334,0.00965118,0.0256729,-0.000152588,-9.97986,0.0107574,-0.0018692,0.0119781,-0.00148773,0.0163269,0.00244141,0.0194931,0.00148773
13,3,10.0097,0.000610352,0.000457764,-2.42623,0.0547655,-0.0747579,0.0550435,0.0715807,-0.0928413,0.145929,-0.124241,-0.0810445,0.0188446,0.0271606,0.0180054,0.00980377,0.0160599,0.00766754,0.0238037,0.0186539,-9.97986,0.00934601,-0.00350952,0.00495911,-0.00038147,0.0117111,-0.00110626,0.0180817,0.00549316
13,4,10.0097,0.0012207,-0.000457764,-2.42623,0.0572069,-0.0738423,0.0535176,0.0416735,-0.0943672,0.144708,-0.126682,-0.0819601,0.0207901,0.0234604,0.0186157,0.0114822,0.0209045,0.00892639,0.0187302,0.0246811,-9.97986,0.0094986,0.000419617,0.0139618,-0.000762939,0.0156784,-0.000991821,0.0170135,0.00637054
13,5,8.68215,0.000305176,-0.000915527,-2.42653,0.055681,-0.0744527,0.0538228,0.04442,-0.0937568,0.146234,-0.125461,-0.0816549,0.0209808,0.0252914,0.0186539,0.00972748,0.0197601,0.00648499,0.0157166,0.014534,-9.97986,0.0102615,-0.00453949,0.0102997,-0.00427246,0.0056076,-0.00720978,0.0150681,0.00583649
13,6,7.57161,-0.000610352,-0.000305176,-2.42653,0.0529344,-0.0738423,0.054128,0.0575426,-0.0925361,0.145318,-0.125766,-0.0825704,0.0126266,0.0241089,0.0146103,0.00785828,0.0234985,0.00656128,0.0226974,0.000953674,-9.97986,0.0126266,-0.000190735,0.0130844,-0.00209808,0.012207,-0.00423431,0.0172806,0.00667572
13,7,7.50661,0.000305176,0.000152588,-2.42592,0.0562914,-0.0747579,0.0538228,0.0648668,-0.0910102,0.145929,-0.125766,-0.0828756,0.0114441,0.0215912,0.0123215,0.0116348,0.0168228,0.00747681,0.0246429,0.00263214,-9.97986,0.0188446,-0.00499725,0.0143814,-0.00343323,0.0142288,-0.00221252,0.0158691,0.00843048
13,8,7.89113,-0.000610352,0.000457764,-2.42745,0.0559862,-0.075063,0.0547383,0.0749376,-0.0903999,0.144708,-0.124851,-0.0834859,0.00602722,0.0245285,0.0166321,0.0115204,0.0185394,0.00511169,0.0217819,0.000152588,-9.97986,0.0299835,-0.00347137,0.0135422,-0.00644684,0.0109482,-0.00534058,0.0164413,0.00572205
13,9,10.0097,0.00183105,0.00198364,-2.42714,0.0538499,-0.0747579,0.0556539,0.103624,-0.0891792,0.144403,-0.123935,-0.0834859,0.0137711,0.0210571,0.0152969,0.0136948,0.0216675,0.00644684,0.0231552,-0.0087738,-9.97986,0.0292969,-0.001297,0.0139236,-0.00385284,0.014267,0.00366211,0.0217438,0.00587463
14,0,10.0097,0,0.00152588,-2.42928,0.0532396,-0.0762837,0.0526021,0.0874498,-0.0949775,0.143792,-0.126072,-0.0862325,0.00839233,0.0195313,0.0156784,0.0127411,0.0181961,0.00492096,0.0195313,-0.0165558,-9.97986,0.0245667,-0.0019455,0.0152206,-0.00301361,0.0163651,0.00667572,0.019455,0.00526428
14,1,10.0097,0.00244141,0.000305176,-2.42959,0.0541551,-0.0756734,0.0529073,0.0758531,-0.0955879,0.143487,-0.126987,-0.0868429,0.0038147,0.018959,0.0146103,0.0104523,0.0171661,0.0094986,0.0189209,-0.0197601,-9.97986,0.0197601,-0.00637054,0.0136185,-0.00354767,0.014801,0.00350952,0.0200272,0.00572205
14,2,10.0097,0.000305176,0.000152588,-2.42989,0.0535448,-0.0759786,0.0526021,0.0709703,-0.0949775,0.142572,-0.127292,-0.0868429,0.00656128,0.0162506,0.0138855,0.0139236,0.0153351,0.0119019,0.0210571,-0.0250244,-9.97986,0.018959,-0.00434875,0.0139999,-0.00453949,0.0115967,0.00282288,0.0186157,0.00350952
14,3,10.0097,-0.000610352,-0.000305176,-2.42867,0.0541551,-0.0768941,0.0529073,0.0685289,-0.0937568,0.143792,-0.128208,-0.0874532,0.0069809,0.018959,0.0164032,0.0152206,0.0199509,0.0123596,0.0225067,-0.0437927,-9.97986,0.0207138,0.00164032,0.0175095,-0.00331879,0.0133133,0.00705719,0.0236511,0.00930786
14,4,10.0097,0.00213623,-0.000610352,-2.42928,0.0538499,-0.0762837,0.0510762,0.0697496,-0.0949775,0.143487,-0.128208,-0.0874532,0.0109482,0.0154877,0.0165558,0.0130844,0.018425,0.00534058,0.0182724,-0.0444794,-9.97986,0.0187302,-0.00156403,0.00797272,-0.00724792,0.0140762,0.00549316,0.0204468,0.00350952
14,5,10.0097,0.000915527,0.000152588,-2.42837,0.0550706,-0.0747579,0.0532125,0.0688341,-0.0937568,0.139215,-0.126682,-0.0862325,0.0109863,0.0177383,0.0160217,0.0123215,0.0176239,0.0118637,0.0193024,-0.0198364,-9.97986,0.0170517,-0.00160217,0.0126648,-0.000915527,0.014267,0.0069809,0.0204849,0.00541687
14,6,10.0097,-0.000610352,-0.000915527,-2.42806,0.0547655,-0.0744527,0.0535176,0.0694445,-0.0946723,0.144708,-0.126072,-0.0847066,0.0135422,0.0128937,0.0174332,0.016098,0.0172424,0.0106049,0.0185013,-0.0100708,-9.97986,0.0126266,-0.00526428,0.0110626,-0.000839233,0.0116348,0.00938416,0.0206375,0.00656128
14,7,10.0097,0.000915527,0.000305176,-2.42684,0.055681,-0.075063,0.0535176,0.0694445,-0.0928413,0.145318,-0.126987,-0.0850118,0.0136948,0.0200653,0.0195313,0.0164795,0.0219345,0.0102615,0.0177765,-0.00595093,-9.97986,0.0141144,-0.00148773,0.0147247,0.00263214,0.0157928,0.0114441,0.0218582,0.00911713
14,8,10.0097,0,0.000305176,-2.42714,0.0553758,-0.0747579,0.0535176,0.0691393,-0.0937568,0.146539,-0.126072,-0.0837911,0.00648499,0.0141907,0.018959,0.0177383,0.0185013,0.013504,0.0186539,-0.00164032,-9.97986,0.0187683,-0.00362396,0.0160599,-0.000228882,0.0152969,0.0103378,0.0202942,0.00312805
14,9,10.0097,-0.00152588,0.000305176,-2.42592,0.0572069,-0.0738423,0.0547383,0.0709703,-0.0919257,0.146844,-0.125156,-0.0825704,0.00862122,0.0161362,0.0174713,0.0129318,0.0193405,0.00614166,0.0192642,-0.00236511,-9.97986,0.0133133,0.00167847,0.01194,-0.00236511,0.0122452,0.00511169,0.0214005,0.00732422
15,0,10.0097,0.000610352,0.000457764,-2.42562,0.0569017,-0.0741475,0.054128,0.0724962,-0.0916206,0.146844,-0.12302,-0.0810445,0.00991821,0.0193024,0.0127029,0.0182724,0.0203323,0.0088501,0.0180054,-0.00179291,-9.97986,0.0185394,0.00576019,0.0159454,0.00209808,0.0173187,0.00549316,0.0217056,0.0069809
15,1,10.0097,0.000915527,0,-2.4244,0.0572069,-0.0744527,0.0547383,0.0709703,-0.0910102,0.144403,-0.12363,-0.0813497,0.00980377,0.0150681,0.0160599,0.011673,0.0182724,0.0075531,0.0178146,-0.00114441,-9.97986,0.0150299,0.00377655,0.0139618,0.00137329,0.0170517,0.00339508,0.02388,0.00610352
15,2,10.0097,0.0012207,0.0012207,-2.42501,0.0572069,-0.0744527,0.0556539,0.0712755,-0.0919257,0.14776,-0.124851,-0.0807394,0.0112915,0.0188446,0.019455,0.0136948,0.0202942,0.00549316,0.0207138,0.00385284,-9.97986,0.017128,0.00221252,0.0144577,0.000991821,0.0143051,0.00366211,0.0213242,0.00522614
15,3,10.0097,0.000305176,0.000152588,-2.42501,0.0569017,-0.0741475,0.0547383,0.0715807,-0.0910102,0.147149,-0.123935,-0.0810445,0.00637054,0.0196457,0.0194931,0.0173187,0.0201797,0.00991821,0.0181198,0.0069809,-9.97986,0.0139236,0.00118256,0.0132751,0.0094986,0.0135422,0.00305176,0.0224304,0.00701904
15,4,10.0097,-0.000915527,-0.00106812,-2.42745,0.0562914,-0.0741475,0.0532125,0.0410631,-0.0955879,0.148065,-0.126072,-0.0819601,0.00930786,0.0167847,0.0199509,0.01297,0.0192642,0.0075531,0.0199509,0.00846863,-9.97986,0.0152969,-0.000190735,0.0144196,0.00873566,0.00858307,0.00160217,0.0236511,0.00564575
15,5,8.81246,0,-0.000915527,-2.4247,0.0553758,-0.0738423,0.0544332,0.0468614,-0.094062,0.145929,-0.126377,-0.0816549,0.011673,0.0196075,0.0226593,0.0178146,0.0226593,0.0087738,0.0242996,0.0139999,-9.97986,0.020256,0.00312805,0.0199509,0.00488281,0.0175095,-0.00652313,0.0212479,0.00732422
15,6,7.71535,0.00152588,-0.000457764,-2.42623,0.0538499,-0.0744527,0.054128,0.0572374,-0.0922309,0.146234,-0.125461,-0.0828756,0.0119781,0.0157166,0.022316,0.0139236,0.0186157,0.010376,0.0182724,0.00865936,-9.97986,0.0140381,-0.000648499,0.0126266,0.00442505,0.0154495,-0.0087738,0.0189209,0.00301361
15,7,7.6653,0.000915527,-0.000610352,-2.42653,0.0559862,-0.0735371,0.0544332,0.0645616,-0.0925361,0.150201,-0.125766,-0.0825704,0.0147247,0.0222397,0.021553,0.0133514,0.0160217,0.0101089,0.0212097,0.0116348,-9.97986,0.0149918,0.00221252,0.017395,0.00835419,0.0170135,-0.0125504,0.0196838,0.00450134
15,8,8.04311,0.0012207,-0.000305176,-2.42745,0.0544603,-0.0756734,0.0553487,0.0743273,-0.0931465,0.145318,-0.125156,-0.0831808,0.0139236,0.019989,0.018959,0.00923157,0.0178146,0.00915527,0.0181961,0.00301361,-9.97986,0.0126266,0.000457764,0.0143051,0.00270844,0.0153351,-0.0208664,0.019722,0.00946045
15,9,10.0097,-0.000610352,0.0012207,-2.42745,0.0547655,-0.075063,0.054128,0.104845,-0.0900947,0.144403,-0.124851,-0.0837911,0.0175858,0.0229645,0.0185013,0.0117111,0.0158691,0.00766754,0.0183105,0.0050354,-9.97986,0.0138855,0.000801086,0.0181961,0.00350952,0.0140381,-0.0162125,0.0177765,0.00473022
16,0,10.0097,0.000305176,0.00137329,-2.42959,0.0547655,-0.0762837,0.0526021,0.0892809,-0.0952827,0.148065,-0.126987,-0.0865377,0.0087738,0.0170898,0.0195694,0.012207,0.0152969,0.00896454,0.0180054,0.00358582,-9.97986,0.0170135,0.00396729,0.0194931,0.0025177,0.0151062,-0.00911713,0.0196457,0.00541687
16,1,10.0097,0.00152588,0.000457764,-2.42928,0.0547655,-0.0759786,0.050771,0.0767687,-0.0943672,0.143487,-0.127598,-0.0877584,0.0094986,0.0141907,0.0232697,0.0118637,0.0172424,0.00762939,0.0168991,0.00682831,-9.97986,0.014267,0.0044632,0.0147247,0.00762939,0.0139999,7.62939e-005,0.0160217,0.00366211
16,2,10.0097,0.00183105,0.000305176,-2.42959,0.0523241,-0.0753682,0.0519917,0.0706652,-0.0946723,0.142877,-0.127292,-0.0868429,0.0131226,0.0149918,0.0208282,0.0141525,0.0179291,0.0109863,0.0239944,0.0109863,-9.97986,0.0178909,0.00205994,0.0150299,0.00682831,0.0134277,0.00358582,0.0166321,0.00267029
16,3,10.0097,0.000915527,-0.000305176,-2.42837,0.0526292,-0.0768941,0.0522969,0.0685289,-0.094062,0.14776,-0.127292,-0.0865377,0.00900269,0.0162125,0.0213242,0.0101471,0.0152206,0.00999451,0.0243378,0.0145721,-9.97986,0.0105667,0.000915527,0.0177383,0.00667572,0.0170135,0.00530243,0.0177002,0.00152588
16,4,10.0097,0.00183105,0.000610352,-2.42898,0.0535448,-0.075063,0.0519917,0.07036,-0.0946723,0.144403,-0.127292,-0.0871481,0.0125122,0.022049,0.0213623,0.00968933,0.0194168,0.0137329,0.022583,0.0137329,-9.97986,0.0161743,-0.00141144,0.0170898,0.00915527,0.0167465,0.0113678,0.0177002,0.00671387
16,5,10.0097,0.000915527,-0.000915527,-2.42928,0.0547655,-0.073232,0.0522969,0.0694445,-0.0937568,0.144403,-0.126987,-0.0862325,0.0112152,0.0163651,0.0196075,0.0113678,0.0160217,0.0104523,0.0228882,0.0170517,-9.97986,0.0110626,-0.000610352,0.0159073,0.0102615,0.017128,0.016861,0.0171661,0.00499725
16,6,10.0097,-0.000305176,0.000152588,-2.42776,0.0553758,-0.0747579,0.0522969,0.0688341,-0.0931465,0.146844,-0.126682,-0.0856222,0.00637054,0.021019,0.0218582,0.0101471,0.0120544,0.00682831,0.021553,0.016861,-9.97986,0.0162125,0.00270844,0.0149155,0.00854492,0.0141144,0.0139999,0.0174713,0.001297
16,7,10.0097,-0.000305176,0.00183105,-2.42745,0.055681,-0.0738423,0.0535176,0.0709703,-0.094062,0.145624,-0.125156,-0.0844015,0.0131226,0.0216293,0.0204849,0.011673,0.0171661,0.0121307,0.0186157,0.0131226,-9.97986,0.0191498,0.00331879,0.0140762,0.0138474,0.015564,0.000953674,0.0196075,0.00312805
16,8,10.0097,0.00183105,0.000152588,-2.42653,0.0553758,-0.0686543,0.0535176,0.0688341,-0.0931465,0.145013,-0.125766,-0.0834859,0.0115585,0.0233459,0.0203323,0.0123978,0.0162125,0.0106812,0.0203323,0.0181198,-9.97986,0.0138092,0.00362396,0.018959,0.00808716,0.0146103,0.0082016,0.0166702,0.00873566
16,9,10.0097,0.000305176,0.000457764,-2.42684,0.055681,-0.0744527,0.0544332,0.0706652,-0.0934516,0.14898,-0.124546,-0.0816549,0.0113678,0.0209045,0.0198364,0.00816345,0.0139999,0.0127029,0.0216293,0.0147629,-9.97986,0.0130463,0.00370026,0.0123596,0.00923157,0.0163269,0.00286102,0.0161362,0.0063324
17,0,10.0097,0.000610352,-0.000152588,-2.42592,0.0562914,-0.0744527,0.0544332,0.07036,-0.0919257,0.146234,-0.125156,-0.0816549,0.0094986,0.0239182,0.0205994,0.00919342,0.0159454,0.0101852,0.0239563,0.0159073,-9.97986,0.0165176,0.000343323,0.0107574,0.0102615,0.0173187,0.00808716,0.0159836,0.00785828
17,1,10.0097,-0.000915527,0,-2.4247,0.0550706,-0.0781148,0.0553487,0.0718859,-0.0910102,0.146234,-0.124851,-0.080129,0.0144958,0.0223541,0.018158,0.00991821,0.0137711,0.00995636,0.0182724,0.0158691,-9.97986,0.0131226,-0.00217438,0.0122452,0.00572205,0.0158691,0.00686646,0.0146484,0.00606537
17,2,10.0097,0,0,-2.42501,0.0569017,-0.0744527,0.0544332,0.0715807,-0.0913154,0.145318,-0.124546,-0.0810445,0.010376,0.0225067,0.0209045,0.013237,0.0153732,0.0119781,0.0233841,0.0193405,-9.97986,0.01297,-0.000305176,0.0157166,0.00968933,0.0156021,0.00431061,0.0167084,0.0063324
17,3,10.0097,-0.000610352,0.00198364,-2.42501,0.0553758,-0.0747579,0.0550435,0.07036,-0.0897895,0.147149,-0.123935,-0.080129,0.00766754,0.0209427,0.0203323,0.0113297,0.0157166,0.0137329,0.0249863,0.0217438,-9.97986,0.0178909,0.000228882,0.0136566,0.00839233,0.017128,0.00202179,0.0149155,0.0056076
17,4,10.0097,0.00183105,-0.00106812,-2.42623,0.0562914,-0.0759786,0.0532125,0.0407579,-0.0952827,0.145929,-0.126682,-0.0816549,0.0110626,0.0218964,0.0189972,0.0114441,0.0164795,0.0126648,0.0221252,0.0276947,-9.97986,0.0150299,0.00175476,0.0190735,0.0111008,0.0192261,0.00259399,0.0164032,0.00434875
17,5,8.67482,0.000305176,-0.000915527,-2.42531,0.0553758,-0.0747579,0.0550435,0.0459459,-0.0934516,0.149286,-0.125766,-0.0810445,0.0117874,0.0199509,0.019989,0.0138474,0.0157166,0.0104141,0.0173569,0.0227356,-9.97986,0.0121689,-0.000610352,0.0201797,0.0113297,0.0172043,-0.00175476,0.0181198,0.00541687
17,6,7.59572,-0.000915527,-0.000152588,-2.42531,0.0553758,-0.0744527,0.0544332,0.0584581,-0.0919257,0.145318,-0.125156,-0.0822652,0.00759125,0.021019,0.0220871,0.0131607,0.0139999,0.0125885,0.0175095,0.0252151,-9.97986,0.0124741,-0.000267029,0.0143814,0.0132751,0.0190735,3.8147e-005,0.0124359,0.00785828
17,7,7.55788,0.000915527,-0.000305176,-2.42653,0.0553758,-0.0756734,0.0550435,0.0660875,-0.0931465,0.145624,-0.125461,-0.0825704,0.00854492,0.0228882,0.0160599,0.01194,0.013504,0.0103378,0.0212479,0.0220108,-9.97986,0.0150299,-0.000343323,0.0146866,0.0127411,0.0167465,-0.00110626,0.0146866,0.00759125
17,8,7.95369,0.000305176,0.000915527,-2.42562,0.0547655,-0.075063,0.0544332,0.0749376,-0.090705,0.146234,-0.125156,-0.0825704,0.0120163,0.0263214,0.0224304,0.0112915,0.0180435,0.0115967,0.0150681,0.0230408,-9.97986,0.00671387,0.000495911,0.0138474,0.0161743,0.0205994,-0.000419617,0.0122833,0.00724792
17,9,10.0097,0.000305176,0.00152588,-2.42745,0.0547655,-0.0756734,0.0544332,0.103929,-0.0891792,0.146234,-0.124546,-0.0840963,0.00808716,0.0224686,0.0188065,0.0133514,0.0187302,0.010376,0.0179672,0.0212097,-9.97986,0.0117111,0.0038147,0.0171661,0.0151443,0.0166702,-0.0118256,0.0138474,0.00793457
18,0,10.0097,0.000915527,0.0012207,-2.42959,0.0541551,-0.0811665,0.0513814,0.0874498,-0.0946723,0.144098,-0.126682,-0.0865377,0.0120163,0.0253677,0.0171661,0.017128,0.0193405,0.0138092,0.0165939,0.0193787,-9.97986,0.0109482,0.000953674,0.0153351,0.0141907,0.0178909,-0.0136948,0.0154877,0.00804901
18,1,10.0097,-0.000610352,0.000305176,-2.42928,0.0541551,-0.0759786,0.0519917,0.0749376,-0.095893,0.142267,-0.126682,-0.0874532,0.00598907,0.0252533,0.018692,0.0149155,0.0175095,0.0126266,0.0209045,0.0196457,-9.97986,0.0130463,0.0018692,0.0118637,0.0125504,0.0154877,-0.0131226,0.016861,0.00762939
18,2,10.0097,-0.000305176,-0.00106812,-2.42989,0.0544603,-0.0765889,0.0516866,0.072191,-0.095893,0.144403,-0.126682,-0.0868429,0.00823975,0.026741,0.0181961,0.0213623,0.0165176,0.0157928,0.015831,0.0175858,-9.97986,0.0133514,0.00247955,0.0162506,0.0148773,0.0158691,-0.00450134,0.0196075,0.00640869
18,3,10.0097,-0.000305176,-0.000305176,-2.42928,0.0541551,-0.0793355,0.0519917,0.0694445,-0.094062,0.144403,-0.127598,-0.0865377,0.00392914,0.0214386,0.0197983,0.0130463,0.0147247,0.015564,0.0145721,0.0130844,-9.97986,0.013504,0.00305176,0.0163269,0.018425,0.0202179,-0.00164032,0.0137329,0.00656128
18,4,10.0097,0.000915527,-0.000610352,-2.42989,0.0547655,-0.0768941,0.0516866,0.0685289,-0.094062,0.141351,-0.128513,-0.0874532,0.00553131,0.0191116,0.0173187,0.00743866,0.0161743,0.0114822,0.0250626,0.0143051,-9.97986,0.0144577,0.00385284,0.0156403,0.0176239,0.0175858,-0.000991821,0.0132751,0.00530243
18,5,10.0097,0.000915527,-0.000915527,-2.42806,0.0541551,-0.0762837,0.054128,0.0679186,-0.0934516,0.143792,-0.125766,-0.0862325,0.00957489,0.0274277,0.0182343,0.00999451,0.0152969,0.0114822,0.0177765,0.0216675,-9.97986,0.013237,0.00190735,0.0145721,0.0157928,0.0173569,0.0012207,0.0105667,0.00675201
18,6,10.0097,0,0.000152588,-2.42684,0.0550706,-0.0723164,0.0538228,0.0694445,-0.0931465,0.144098,-0.126377,-0.0847066,0.00621796,0.0245285,0.0159454,0.0133133,0.0125504,0.0124741,0.0232315,0.0156021,-9.97986,0.0156784,0.00183105,0.0139618,0.0194168,0.0191879,0.01297,0.0159454,0.00789642
18,7,10.0097,-0.0012207,0,-2.42776,0.055681,-0.0756734,0.0522969,0.0697496,-0.0943672,0.143182,-0.126072,-0.0850118,0.0113297,0.0241852,0.0228882,0.00888824,0.0164413,0.00984192,0.0252151,0.0102997,-9.97986,0.0122833,-0.000801086,0.0137711,0.0196075,0.0203323,0.0117874,0.0132751,0.00556946
18,8,10.0097,0.000305176,0.000305176,-2.42653,0.0562914,-0.0747579,0.0535176,0.0706652,-0.0937568,0.145624,-0.125766,-0.0831808,0.00984192,0.0226212,0.0214767,0.0130081,0.013237,0.0094986,0.0320053,0.0165176,-9.97986,0.0143051,0.00465393,0.0167847,0.0204468,0.016861,0.00835419,0.0127411,0.00343323
18,9,10.0097,-0.000305176,0,-2.42684,0.0565965,-0.0707906,0.0544332,0.0706652,-0.0922309,0.145318,-0.125156,-0.0816549,0.0104904,0.0231934,0.0199127,0.00785828,0.014534,0.00953674,0.0258255,0.0207901,-9.97986,0.02388,0.00236511,0.0189209,0.0224686,0.0196075,0.00545502,0.0152206,0.00682831
19,0,10.0097,0.000305176,-0.000305176,-2.4244,0.0572069,-0.0744527,0.0553487,0.0718859,-0.0916206,0.150812,-0.125156,-0.0816549,0.0144577,0.0242996,0.0175476,0.0147247,0.0112152,0.0106812,0.0255203,0.0146103,-9.97986,0.0205994,-0.00160217,0.0163651,0.017128,0.0197983,-0.00358582,0.0133514,0.00865936
19,1,10.0097,0.000610352,0.000457764,-2.4244,0.0565965,-0.0738423,0.0553487,0.0700548,-0.0928413,0.147149,-0.12363,-0.0810445,0.0161743,0.0247955,0.0188065,0.0101852,0.0132751,0.0136566,0.0189972,0.019455,-9.97986,0.0202942,0.00118256,0.0215149,0.0137711,0.0221252,-0.00305176,0.0136948,0.0069046
19,2,10.0097,0.000305176,0,-2.42562,0.0569017,-0.0771993,0.0544332,0.0718859,-0.0916206,0.146539,-0.123325,-0.0807394,0.0165558,0.0275803,0.0191116,0.0115585,0.015831,0.0145721,0.0224686,0.0224304,-9.97986,0.0107574,0.00175476,0.0159073,0.0174332,0.0218201,-0.00137329,0.0147629,0.00823975
19,3,10.0097,-0.000305176,0.000152588,-2.42379,0.0559862,-0.0729268,0.054128,0.0706652,-0.0916206,0.14898,-0.124546,-0.0804342,0.00961304,0.0250244,0.0188446,0.00915527,0.00984192,0.0127029,0.0218201,0.0199509,-9.97986,0.0128937,-0.00385284,0.0170517,0.0131226,0.0191116,-0.00835419,0.013504,0.00728607
19,4,10.0097,-0.00183105,-0.000610352,-2.42592,0.055681,-0.0756734,0.0529073,0.0395372,-0.095893,0.149591,-0.126377,-0.0834859,0.0123978,0.0271606,0.0215912,0.00854492,0.0143433,0.0128555,0.0300217,0.0248718,-9.97986,0.0160599,0.000495911,0.0181961,0.0139236,0.016861,-0.00614166,0.0154495,0.0069046
19,5,8.7444,0.000610352,-0.00152588,-2.42562,0.0565965,-0.0714009,0.0547383,0.0474718,-0.0943672,0.147149,-0.125461,-0.0819601,0.0121689,0.0235367,0.0243759,0.0107574,0.0147247,0.0130081,0.0294113,0.0312042,-9.97986,0.0159073,-0.000457764,0.0153351,0.00862122,0.0189209,-0.00125885,0.0146484,0.00705719
19,6,7.6592,0.000305176,-0.000610352,-2.42501,0.0559862,-0.0741475,0.0547383,0.0569322,-0.0928413,0.149591,-0.126987,-0.0825704,0.00686646,0.0265503,0.0201797,0.00911713,0.0135422,0.0127792,0.0257874,0.030899,-9.97986,0.0131607,-0.00202179,0.0155258,0.0130844,0.0186157,-0.00644684,0.0150299,0.0115585
19,7,7.63112,0.000915527,0,-2.42653,0.0553758,-0.0744527,0.0547383,0.0660875,-0.0919257,0.147455,-0.125461,-0.0840963,0.0138855,0.0262451,0.0188446,0.0102997,0.0124741,0.0125122,0.0232697,0.0320816,-9.97986,0.0131989,0.00354767,0.0199127,0.0102615,0.019455,-0.00213623,0.0188065,0.0100327
19,8,8.07424,0.000610352,0,-2.42653,0.0553758,-0.0765889,0.0544332,0.0758531,-0.0922309,0.145318,-0.125156,-0.0831808,0.00904083,0.0260544,0.0243378,0.0112152,0.01297,0.0119019,0.0208664,0.0234222,-9.97986,0.0160217,-0.00133514,0.0152206,0.00694275,0.0205231,-0.00541687,0.018959,0.0102615
19,9,10.0097,-0.000610352,0.000762939,-2.42684,0.0550706,-0.075063,0.054128,0.103319,-0.0891792,0.145318,-0.12363,-0.0840963,0.0140381,0.0291443,0.0235367,0.0156784,0.0170898,0.0108337,0.0241852,0.0244141,-9.97986,0.0175858,-0.00267029,0.0193787,0.00431061,0.017395,-0.00572205,0.0170517,0.00881195
20,0,10.0097,0.000915527,0.00167847,-2.42837,0.0520189,-0.0759786,0.0522969,0.087755,-0.0946723,0.143182,-0.126682,-0.0862325,0.0128555,0.031395,0.0247574,0.0127411,0.0176239,0.00938416,0.0245667,0.0247574,-9.97986,0.0164032,-0.000762939,0.0178146,0.0094223,0.0159073,-0.00297546,0.017128,0.00682831
20,1,10.0097,0.00152588,-0.000762939,-2.42867,0.0532396,-0.0759786,0.0535176,0.0749376,-0.0952827,0.143182,-0.127598,-0.0868429,0.00972748,0.0294495,0.0196457,0.00801086,0.013237,0.011673,0.0209808,0.0203323,-9.97986,0.0144196,-0.00160217,0.0185013,0.00286102,0.0183105,-0.00442505,0.0191879,0.00808716
20,2,10.0097,-0.000915527,0.000152588,-2.42898,0.0532396,-0.0799458,0.0529073,0.0712755,-0.0949775,0.142267,-0.126377,-0.0865377,0.0144196,0.0279236,0.0212097,0.00923157,0.0136566,0.0112534,0.0229645,0.021286,-9.97986,0.0131226,-0.00297546,0.0143814,0.00831604,0.019455,-0.00675201,0.0208282,0.00900269
20,3,10.0097,0.00213623,-0.000610352,-2.42837,0.0541551,-0.0756734,0.0516866,0.0685289,-0.0952827,0.144708,-0.128208,-0.0871481,0.0140381,0.0292969,0.0182724,0.00988007,0.0174332,0.01297,0.0211716,0.0236511,-9.97986,0.0184631,0.000724792,0.0165939,0.00534058,0.0188065,-0.00743866,0.0229263,0.00629425
20,4,10.0097,-0.000610352,-0.000305176,-2.42867,0.0523241,-0.0735371,0.0513814,0.0691393,-0.0943672,0.142877,-0.126682,-0.0871481,0.0101089,0.0310898,0.0178528,0.00782013,0.0155258,0.0161362,0.0189972,0.0208282,-9.97986,0.0142288,-0.00362396,0.0159073,0.000495911,0.0136948,-0.00587463,0.0222015,0.00770569
20,5,10.0097,-0.000610352,-0.000610352,-2.42776,0.0547655,-0.0765889,0.0538228,0.0700548,-0.0949775,0.144403,-0.127903,-0.0868429,0.0115967,0.0297928,0.0193024,0.0105667,0.0191498,0.0178909,0.0223923,0.0227737,-9.97986,0.0129318,-0.00488281,0.0139999,-0.00137329,0.0174332,-0.00366211,0.0193024,0.00686646
20,6,10.0097,0.0012207,-0.000305176,-2.42837,0.0550706,-0.0756734,0.0522969,0.0709703,-0.0925361,0.144403,-0.126072,-0.0837911,0.0111008,0.0279236,0.0221634,0.0116348,0.0187302,0.0141907,0.0233841,0.0250626,-9.97986,0.0174713,0.00141144,0.0180054,0.00164032,0.0189972,-0.00789642,0.0237656,0.00656128
20,7,10.0097,-0.000610352,-0.000152588,-2.42653,0.0547655,-0.0744527,0.0535176,0.0715807,-0.094062,0.143792,-0.125156,-0.0844015,0.00900269,0.0287247,0.0168991,0.00663757,0.0150299,0.0106049,0.0227356,0.0196838,-9.97986,0.0136566,-0.00484467,0.0107956,-0.000839233,0.0148773,-0.0177765,0.0204849,0.00717163
20,8,10.0097,0.00183105,0.000305176,-2.42653,0.0544603,-0.0701802,0.0538228,0.07036,-0.0922309,0.145013,-0.125766,-0.0837911,0.0100327,0.0269318,0.0194168,0.00705719,0.0222015,0.0174332,0.0195694,0.0225449,-9.97986,0.0193787,-0.00102997,0.0179291,0.00198364,0.019989,-0.0117493,0.0244904,0.00865936
20,9,10.0097,0.000305176,-0.000762939,-2.42501,0.0562914,-0.0738423,0.0553487,0.0706652,-0.0919257,0.147149,-0.124546,-0.0810445,0.00556946,0.028801,0.0151825,0.00717163,0.0190353,0.0128555,0.0166321,0.0229263,-9.97986,0.0146103,-0.00495911,0.015831,-0.00240326,0.0125504,-0.0170135,0.0179672,0.00907898
21,0,10.0097,0.000610352,-0.000305176,-2.42623,0.0565965,-0.075063,0.0550435,0.07036,-0.0919257,0.145318,-0.125156,-0.0819601,0.00648499,0.027504,0.0199127,0.00545502,0.0143051,0.0137711,0.016098,0.0193405,-9.97986,0.0155258,-0.0031662,0.0141907,3.8147e-005,0.0111771,-0.0130463,0.0172806,0.00789642
21,1,10.0097,0.000915527,0.000457764,-2.42562,0.0559862,-0.0704854,0.0553487,0.0715807,-0.0910102,0.146234,-0.125156,-0.0816549,0.00728607,0.0243378,0.0189209,0.00541687,0.0205994,0.0125504,0.0200653,0.0234985,-9.97986,0.0180435,-0.00152588,0.0114059,-0.00297546,0.0157547,-0.00911713,0.0183487,0.00595093
21,2,10.0097,0,0.000305176,-2.42501,0.0569017,-0.0729268,0.0553487,0.0718859,-0.0925361,0.147149,-0.12363,-0.0813497,0.00808716,0.0307083,0.0152969,0.014534,0.018425,0.0154877,0.0193787,0.0195313,-9.97986,0.0189209,0.000267029,0.0115204,-0.00453949,0.0163269,-0.00553131,0.0150681,0.00808716
21,3,10.0097,0,-0.000457764,-2.4244,0.055681,-0.0726216,0.0556539,0.0700548,-0.0910102,0.147149,-0.124241,-0.0810445,0.00354767,0.0253677,0.0218201,0.0107956,0.019455,0.0138474,0.0171661,0.017395,-9.97986,0.018959,-0.000762939,0.0175095,-0.00469208,0.0128174,-0.00671387,0.0145721,0.00640869
21,4,10.0097,-0.000915527,-0.0012207,-2.42684,0.0575121,-0.0753682,0.0538228,0.0386217,-0.0961982,0.145929,-0.126682,-0.0822652,0.0111771,0.0255585,0.0190735,0.00808716,0.0161743,0.0209427,0.0222778,0.0194168,-9.97986,0.0170517,-0.0050354,0.0131226,-0.00545502,0.0189972,-0.00473022,0.0143814,0.00904083
21,5,8.65102,-0.000305176,-0.00137329,-2.42592,0.0553758,-0.0741475,0.0535176,0.0465563,-0.0928413,0.145929,-0.126377,-0.0825704,0.0135803,0.0302887,0.0175858,0.00644684,0.0164413,0.0156021,0.0227356,0.0238037,-9.97986,0.0183105,0.00255585,0.0182724,-0.00968933,0.0147247,-0.00350952,0.0177765,0.00709534
21,6,7.50203,-0.0012207,-0.00167847,-2.42592,0.0559862,-0.0729268,0.0550435,0.0578478,-0.0919257,0.145624,-0.126072,-0.0819601,0.0190735,0.02491,0.0193787,0.00843048,0.0149918,0.0159454,0.0189972,0.0248718,-9.97986,0.0155258,-0.000228882,0.0150681,-0.00976563,0.0135422,-0.0044632,0.017395,0.0087738
21,7,7.45229,0.00152588,-0.000152588,-2.42562,0.0535448,-0.0778096,0.0535176,0.065172,-0.0925361,0.144708,-0.125461,-0.0822652,0.0224686,0.0234604,0.0191498,0.0110245,0.0201797,0.0115585,0.0242615,0.0235748,-9.97986,0.0167847,-0.000839233,0.0143814,-0.00839233,0.0181961,-0.00484467,0.0205231,0.0082016
21,8,7.80568,0.000610352,0.000152588,-2.42714,0.0559862,-0.075063,0.0547383,0.0752428,-0.0919257,0.145929,-0.125156,-0.0834859,0.0185013,0.0242233,0.018692,0.0113678,0.0123596,0.0164032,0.0172806,0.0243378,-9.97986,0.0179291,0.00148773,0.0181198,-0.00637054,0.0183868,-0.00297546,0.0231171,0.00396729
21,9,10.0097,0.00183105,0.00152588,-2.42623,0.0547655,-0.073232,0.0547383,0.103014,-0.088874,0.144708,-0.125156,-0.0837911,0.0146103,0.0244522,0.0206375,0.0128937,0.0173569,0.0148773,0.0223541,0.0235367,-9.97986,0.0143051,-0.0044632,0.0146866,-0.00785828,0.0129318,-0.00305176,0.021286,0.00549316
22,0,10.0097,0.000610352,0.00137329,-2.42928,0.0532396,-0.0741475,0.0513814,0.0874498,-0.0934516,0.140436,-0.126072,-0.0865377,0.01091,0.025444,0.0188065,0.0104141,0.0173187,0.0109482,0.0218964,0.0222778,-9.97986,0.0157547,0.000610352,0.0177765,-0.00514984,0.0159073,-0.00244141,0.0231552,0.00770569
22,1,10.0097,0.000915527,0,-2.42898,0.0541551,-0.0762837,0.0526021,0.075548,-0.0949775,0.143487,-0.126682,-0.0865377,0.0114822,0.0207901,0.0170517,0.0104141,0.0139236,0.0144196,0.0209427,0.0201416,-9.97986,0.014801,0.00244141,0.0118256,-0.00816345,0.0185776,-0.00862122,0.0165176,0.00606537
22,2,10.0097,0.00152588,-0.000152588,-2.42898,0.0535448,-0.0787251,0.0519917,0.07036,-0.0955879,0.143487,-0.127292,-0.0874532,0.0130844,0.0237274,0.0187683,0.0129318,0.0173187,0.0113678,0.0227356,0.0222015,-9.97986,0.0133133,-0.00263214,0.0130463,-0.00293732,0.0144196,-0.0122833,0.0122833,0.00518799
22,3,10.0097,0.0012207,0.000152588,-2.42928,0.0535448,-0.0759786,0.0513814,0.07036,-0.0955879,0.141656,-0.127292,-0.0865377,0.00827789,0.015831,0.0188446,0.00988007,0.0140381,0.00839233,0.0206757,0.0221252,-9.97986,0.00957489,0.000305176,0.0111389,-0.00488281,0.014267,-0.0136185,0.00900269,0.00434875
22,4,10.0097,0.00152588,-0.00106812,-2.42867,0.0526292,-0.0753682,0.0526021,0.0694445,-0.0946723,0.143182,-0.128208,-0.0859274,0.0102234,0.0259018,0.0147629,0.0107193,0.0203705,0.00892639,0.0222397,0.0245667,-9.97986,0.0114441,0.00427246,0.0115585,-0.00732422,0.0145721,-0.01297,0.0012207,0.00366211
22,5,10.0097,0,-0.000457764,-2.42745,0.055681,-0.0768941,0.0513814,0.0685289,-0.0946723,0.142877,-0.126682,-0.0865377,0.00701904,0.021019,0.0151443,0.0133514,0.0183487,0.0104904,0.0214005,0.0232697,-9.97986,0.0113678,-0.00232697,0.0105667,-0.00873566,0.0112152,-0.0150299,0.00152588,0.00312805
22,6,10.0097,0.000305176,0,-2.42806,0.0553758,-0.0759786,0.0535176,0.0709703,-0.0946723,0.144708,-0.125461,-0.0844015,0.00606537,0.0193024,0.0179672,0.0105286,0.017128,0.0130463,0.0179291,0.022583,-9.97986,0.0121689,0.00389099,0.00926971,-0.0139236,0.0154877,-0.0126266,0.00404358,0.00858307
22,7,10.0097,-0.000610352,-0.000305176,-2.42684,0.0547655,-0.0747579,0.0532125,0.0709703,-0.0931465,0.145013,-0.127292,-0.0847066,0.0105667,0.0210571,0.0151825,0.0149155,0.018959,0.0131989,0.0213623,0.0275803,-9.97986,0.0100708,0.00328064,0.0151825,-0.0182343,0.0152969,-0.0144196,0.00648499,0.00808716
22,8,10.0097,-0.000610352,-0.000610352,-2.42653,0.0559862,-0.0747579,0.0535176,0.0706652,-0.0925361,0.145318,-0.126682,-0.0847066,0.00679016,0.0148773,0.013237,0.00873566,0.0170517,0.0116348,0.0188065,0.0233078,-9.97986,0.0130844,-0.00221252,0.0112915,-0.018959,0.0129318,-0.0118256,0.0152588,0.0012207
22,9,10.0097,0.0012207,0.000762939,-2.42531,0.0562914,-0.0747579,0.0538228,0.0709703,-0.0934516,0.146844,-0.124851,-0.0822652,0.0104141,0.0151443,0.0130844,0.0119781,0.0136566,0.0103378,0.0192261,0.0261307,-9.97986,0.0112152,0.00148773,0.0138855,-0.0175858,0.017395,-0.00965118,0.0151825,0.00778198
23,0,10.0097,0.00152588,0,-2.42531,0.0553758,-0.0744527,0.0553487,0.07036,-0.0916206,0.145013,-0.123935,-0.0813497,0.00946045,0.0162125,0.013504,0.0127029,0.0157928,0.0118256,0.0188446,0.0226593,-9.97986,0.0110626,0.00144958,0.0160217,-0.0150299,0.0181198,-0.00988007,0.0186157,0.00442505
23,1,10.0097,0.00183105,0.000610352,-2.42562,0.0575121,-0.073232,0.0544332,0.0709703,-0.0913154,0.146539,-0.124546,-0.0816549,0.0119781,0.0188065,0.0117874,0.00934601,0.0154877,0.00911713,0.0193405,0.0233078,-9.97986,0.0137711,0.0030899,0.0148773,-0.0174332,0.0169373,0,0.0239563,0.00858307
23,2,10.0097,0.000610352,0.000305176,-2.42501,0.0569017,-0.0726216,0.0550435,0.0706652,-0.0910102,0.145624,-0.12241,-0.0813497,0.00843048,0.0167465,0.0159073,0.0121689,0.0205231,0.0102997,0.0241852,0.0197983,-9.97986,0.0140762,0.000495911,0.0162125,-0.0144958,0.0207901,-0.0102615,0.0222778,0.00453949
23,3,10.0097,-0.000610352,0.000305176,-2.42501,0.0569017,-0.0744527,0.0550435,0.0709703,-0.0910102,0.146539,-0.124241,-0.080129,0.0082016,0.0169373,0.0180054,0.0133133,0.0191116,0.0144196,0.0219345,0.020752,-9.97986,0.016098,0.00362396,0.0144577,-0.00595093,0.0154495,-0.00774384,0.0271988,0.00720978
23,4,10.0097,-0.000610352,-0.00183105,-2.42714,0.0569017,-0.0741475,0.0535176,0.0410631,-0.0965034,0.145624,-0.127292,-0.0816549,0.0154877,0.0199127,0.0195694,0.0131607,0.0181198,0.0150299,0.0191498,0.0243378,-9.97986,0.0131226,0.00160217,0.0145721,-0.0137711,0.0211334,0.000190735,0.0199509,0.00827789
23,5,8.64827,0.00366211,-0.0012207,-2.42592,0.0569017,-0.0729268,0.0535176,0.0456407,-0.0922309,0.145624,-0.126377,-0.0819601,0.0125504,0.0182343,0.0204849,0.0162506,0.021286,0.0112534,0.0197601,0.0226212,-9.97986,0.0172043,0.00148773,0.0178146,-0.0104523,0.0202179,0.00530243,0.0212479,0.011673
23,6,7.59023,-0.000610352,-0.000915527,-2.42623,0.0553758,-0.0741475,0.0547383,0.0566271,-0.0934516,0.145624,-0.126682,-0.0828756,0.00957489,0.0198746,0.0206375,0.00926971,0.0164032,0.0128174,0.017395,0.0216293,-9.97986,0.00980377,-0.0044632,0.00995636,-0.0185394,0.0163269,-0.00423431,0.0205231,0.00274658
23,7,7.54201,0.00305176,0.000152588,-2.42623,0.0562914,-0.0753682,0.0553487,0.067003,-0.0916206,0.146844,-0.125461,-0.0816549,0.00953674,0.0239182,0.0201797,0.0128937,0.0122452,0.0128555,0.0246811,0.0262833,-9.97986,0.0150681,0.00370026,0.0151062,-0.0136185,0.0230789,-0.0075531,0.0199509,0.0109482
23,8,7.91158,-0.00183105,-0.000915527,-2.42623,0.055681,-0.0744527,0.054128,0.075548,-0.0919257,0.144708,-0.124851,-0.0831808,0.0109482,0.0169754,0.0183105,0.0128174,0.0180054,0.0104523,0.0203705,0.0237656,-9.97986,0.00812531,0.0037384,0.0133133,-0.021286,0.0218582,-0.0146103,0.0149155,0.0043869
23,9,10.0097,0.000915527,0.000762939,-2.42745,0.0535448,-0.0747579,0.0544332,0.104234,-0.0897895,0.144708,-0.12363,-0.0834859,0.0111008,0.0235367,0.0209427,0.0141144,0.0213623,0.0112152,0.0251007,0.0243378,-9.97986,0.0160599,-0.00087738,0.016098,-0.0273132,0.018959,-0.0119019,0.0178528,0.00736237
24,0,10.0097,0.000610352,0.000915527,-2.42867,0.0538499,-0.0756734,0.0516866,0.0871447,-0.0949775,0.143182,-0.125156,-0.0862325,0.0101471,0.0246811,0.0194168,0.0163651,0.0192642,0.0104523,0.0226974,0.0234604,-9.97986,0.0138092,0.00244141,0.0124359,-0.0276947,0.0205231,-0.0104141,0.0152206,0.00663757
24,1,10.0097,0.000305176,-0.000457764,-2.42928,0.0532396,-0.075063,0.0516866,0.0770738,-0.0955879,0.143792,-0.126072,-0.0865377,0.00957489,0.0243759,0.014534,0.0128174,0.0182343,0.00770569,0.0184631,0.0214005,-9.97986,0.0151062,0.00167847,0.0125122,-0.0306702,0.019455,-0.00511169,0.0176239,0.00850677
24,2,10.0097,-0.000305176,-0.000610352,-2.42928,0.0538499,-0.0765889,0.0519917,0.0709703,-0.0952827,0.143792,-0.126987,-0.0874532,0.00862122,0.0246048,0.0185776,0.0166702,0.0185013,0.00965118,0.0257111,0.0233078,-9.97986,0.0172806,0.000572205,0.0169754,-0.0286484,0.0212097,-0.000610352,0.0183105,0.00827789
24,3,10.0097,0.000915527,-0.000152588,-2.42898,0.0538499,-0.0747579,0.0516866,0.0700548,-0.0943672,0.142877,-0.127292,-0.0871481,0.00984192,0.0260925,0.0220871,0.0194931,0.0220108,0.0126266,0.0254059,0.0268555,-9.97986,0.0191116,0.00190735,0.0128937,-0.0294113,0.0211334,0.00804901,0.0164032,0.0094986
24,4,10.0097,0.00183105,0,-2.42837,0.0547655,-0.0768941,0.0526021,0.0697496,-0.0946723,0.145624,-0.128208,-0.0865377,0.00614166,0.0250244,0.0178528,0.0160217,0.0204086,0.00667572,0.0252914,0.0278854,-9.97986,0.0148773,-0.0031662,0.01297,-0.0284576,0.02285,0.00961304,0.0191879,0.00576019
24,5,10.0097,0.000305176,0.000305176,-2.42898,0.0547655,-0.0756734,0.0522969,0.0691393,-0.0946723,0.144708,-0.126682,-0.0862325,0.00358582,0.026474,0.0188065,0.0179291,0.0231171,0.0102234,0.027771,0.0268173,-9.97986,0.0177765,0.00282288,0.0156021,-0.021553,0.0214005,0.0108337,0.0197983,0.00518799
24,6,10.0097,0.000610352,0.000457764,-2.42867,0.0550706,-0.0747579,0.0532125,0.0694445,-0.0946723,0.145013,-0.125156,-0.0850118,0.0082016,0.0265121,0.014801,0.0197983,0.0187683,0.00999451,0.0247192,0.0222778,-9.97986,0.017395,0.000457764,0.015831,-0.0218964,0.0221634,0.00900269,0.0177002,0.00850677
24,7,10.0097,0.000915527,-0.000305176,-2.42684,0.0550706,-0.0747579,0.0544332,0.0694445,-0.0937568,0.145929,-0.126377,-0.0844015,0.0107574,0.0250626,0.0136948,0.0120163,0.0168991,0.0119019,0.0247192,0.0201416,-9.97986,0.0152969,0.00339508,0.0120163,-0.0274277,0.0178146,0.0107574,0.0172424,0.00766754
24,8,10.0097,0.000305176,0.000305176,-2.42714,0.0541551,-0.0747579,0.054128,0.0694445,-0.0925361,0.145013,-0.125461,-0.0834859,0.00953674,0.0253296,0.0199127,0.0125504,0.0194168,0.0121689,0.0263596,0.0163651,-9.97986,0.0153351,-0.00343323,0.0169754,-0.0275421,0.0201035,0.0106049,0.0163269,0.00785828
24,9,10.0097,0.0012207,-0.000305176,-2.42562,0.0562914,-0.0729268,0.0562642,0.0712755,-0.0922309,0.146539,-0.124241,-0.0825704,0.013504,0.0235748,0.0172806,0.0163269,0.0212097,0.00873566,0.0246048,0.0189209,-9.97986,0.0149918,-0.00534058,0.0154114,-0.025444,0.0226212,0.00659943,0.0152206,0.00724792
25,0,10.0097,-0.000305176,0.000305176,-2.42531,0.0565965,-0.073232,0.0562642,0.0709703,-0.0916206,0.147455,-0.125461,-0.0807394,0.0114059,0.0180435,0.0138855,0.0125885,0.0201035,0.0104141,0.0279236,0.0153732,-9.97986,0.0164413,0.00102997,0.010376,-0.0234604,0.0170517,0.00507355,0.0128555,0.00572205
25,1,10.0097,-0.00152588,-0.000305176,-2.42592,0.0559862,-0.073232,0.0553487,0.0715807,-0.0910102,0.146234,-0.124241,-0.0819601,0.00991821,0.0170898,0.00869751,0.0153732,0.022316,0.00946045,0.0268555,0.0126266,-9.97986,0.015831,-0.0617981,0.0156403,-0.0270462,0.021553,0.000991821,0.0149155,0.0101852
25,2,10.0097,0.000305176,0.000305176,-2.42501,0.0553758,-0.0744527,0.0556539,0.0712755,-0.090705,0.147455,-0.124241,-0.0810445,0.00999451,0.0167465,0.00991821,0.0118256,0.0203705,0.00900269,0.0291061,0.00953674,-9.97986,0.0180435,-0.158501,0.0157928,-0.0223923,0.0240326,-0.00236511,0.0156784,0.00644684
25,3,10.0097,0.000915527,0.000610352,-2.42531,0.0569017,-0.0744527,0.055959,0.0715807,-0.0913154,0.145013,-0.125156,-0.0807394,0.010643,0.0190353,0.0170898,0.0107574,0.021553,0.00736237,0.0267029,0.00934601,-9.97986,0.0138092,-0.184441,0.0129318,-0.0191116,0.0207901,-0.00301361,0.0140381,0.00904083
25,4,10.0097,0.0012207,-0.00152588,-2.42776,0.0562914,-0.0744527,0.0522969,0.0398424,-0.095893,0.146234,-0.125461,-0.0822652,0.00873566,0.0248337,0.0148773,0.0141144,0.0172424,0.00888824,0.0217438,0.0113297,-9.97986,0.0105286,-0.191803,0.015831,-0.0188828,0.0170898,-0.0056076,0.0132751,0.00663757
25,5,8.51247,0.000915527,-0.0012207,-2.42592,0.0575121,-0.0741475,0.0556539,0.0453356,-0.0925361,0.147455,-0.126682,-0.0819601,0.00701904,0.0219345,0.0185013,0.0137711,0.0194931,0.0130081,0.0238037,0.013504,-9.97986,0.0127411,-0.18631,0.0117874,-0.0175858,0.0180817,0.000686646,0.0150299,0.00778198
25,6,7.40346,-0.000305176,-0.0012207,-2.42653,0.055681,-0.0744527,0.0556539,0.0575426,-0.0925361,0.145013,-0.126072,-0.0825704,0.00320435,0.0234985,0.0178146,0.0131607,0.0177765,0.0130844,0.0224304,0.0138855,-9.97986,0.0137329,-0.174904,0.0101471,-0.022316,0.0191498,0.00461578,0.0141144,0.00675201
25,7,7.34242,0.000915527,0,-2.42684,0.0550706,-0.0738423,0.054128,0.0657823,-0.0931465,0.144708,-0.126072,-0.0834859,0.00976563,0.0246048,0.0229263,0.0117111,0.0191116,0.0139999,0.0200653,0.0152588,-9.97986,0.0127792,-0.16449,0.0149918,-0.0256348,0.0164413,0.00701904,0.018692,0.00839233
25,8,7.74678,0.000915527,0.000305176,-2.42684,0.0565965,-0.0735371,0.054128,0.0764635,-0.0913154,0.144708,-0.125156,-0.0825704,0.00621796,0.0180817,0.0187683,0.0119019,0.0146484,0.00831604,0.0183105,0.0094986,-9.97986,0.0121307,-0.156593,0.0169754,-0.0205994,0.0170898,0.00858307,0.0177383,0.00553131
25,9,10.0097,0.000915527,0.00213623,-2.42714,0.0547655,-0.0762837,0.0550435,0.104845,-0.0897895,0.143792,-0.12363,-0.0828756,0.0123215,0.0265884,0.0217056,0.014534,0.0175095,0.0087738,0.0188065,0.01194,-9.97986,0.0112915,-0.138397,0.0110245,-0.0207138,0.0181198,0.00888824,0.0190353,0.00747681
26,0,10.0097,0.000305176,0.000915527,-2.42959,0.0535448,-0.0778096,0.0529073,0.0880602,-0.0955879,0.144098,-0.124546,-0.0862325,0.0141144,0.0279999,0.0236893,0.0151062,0.0170898,0.00904083,0.0240707,0.00881195,-9.97986,0.0157928,-0.126152,0.0133896,-0.0170517,0.0176239,0.00679016,0.0161362,0.0100708
26,1,10.0097,0.000610352,0.000305176,-2.42837,0.0547655,-0.075063,0.0516866,0.0761583,-0.095893,0.141351,-0.126987,-0.0874532,0.01297,0.029068,0.0209427,0.0101852,0.02285,0.0120163,0.0228119,0.0153732,-9.97986,0.0123215,-0.110207,0.0150299,-0.0145721,0.0137329,0.001297,0.0132751,0.00789642
26,2,10.0097,-0.000305176,-0.000305176,-2.42898,0.0544603,-0.075063,0.050771,0.0724962,-0.0946723,0.145929,-0.126682,-0.0868429,0.0136185,0.0268936,0.0188065,0.0107956,0.0245285,0.0115585,0.0222778,0.0102997,-9.97986,0.0159454,-0.0959778,0.0164413,-0.0087738,0.0114822,-0.00198364,0.0167084,0.00679016
26,3,10.0097,0.0012207,0.000457764,-2.42898,0.0532396,-0.0756734,0.0519917,0.0688341,-0.0937568,0.142572,-0.127292,-0.0865377,0.0141525,0.026474,0.0210953,0.0153351,0.022583,0.00766754,0.0281143,0.0153732,-9.97986,0.0185394,-0.0867844,0.0190353,-0.00736237,0.0138855,-0.00274658,0.0165176,0.00587463
26,4,10.0097,-0.0012207,0.000457764,-2.42928,0.0541551,-0.0759786,0.0526021,0.0694445,-0.0946723,0.142877,-0.127903,-0.0868429,0.0138092,0.029068,0.0191498,0.00881195,0.0190353,0.00999451,0.0257111,0.0172806,-9.97986,0.0167084,-0.0793076,0.0186539,-0.00171661,0.0109863,-0.00968933,0.0149536,0.00774384
26,5,10.0097,0.000305176,0.000305176,-2.42776,0.0547655,-0.075063,0.0532125,0.0694445,-0.0934516,0.144708,-0.126682,-0.0868429,0.00957489,0.0289154,0.0191116,0.0136185,0.0191879,0.00801086,0.0193405,0.0183868,-9.97986,0.0157166,-0.0634384,0.0154114,0.0123978,0.0121689,-0.0164795,0.0168228,0.00782013
26,6,10.0097,0.000610352,0.000610352,-2.42776,0.0538499,-0.0759786,0.0532125,0.0691393,-0.0937568,0.143182,-0.126072,-0.0840963,0.00957489,0.029335,0.0225067,0.0130081,0.017128,0.00713348,0.0219727,0.0149536,-9.97986,0.0165558,-0.0569916,0.0161362,0.0188065,0.00953674,-0.0149918,0.0146866,0.0101852
26,7,10.0097,-0.000915527,0.000457764,-2.42745,0.0541551,-0.0741475,0.054128,0.0697496,-0.094062,0.145318,-0.125766,-0.0844015,0.0118637,0.0309372,0.0199509,0.0117111,0.0186539,0.0123596,0.0219345,0.0153732,-9.97986,0.0167847,-0.0404739,0.0185013,0.0263214,0.00892639,-0.0210953,0.0197983,0.00572205
26,8,10.0097,0.000610352,0.00152588,-2.42714,0.0550706,-0.0756734,0.0544332,0.0700548,-0.0928413,0.145929,-0.125766,-0.0834859,0.0152588,0.0274658,0.0205231,0.0117874,0.0134659,0.00804901,0.0154114,0.0140762,-9.97986,0.0131989,-0.0402069,0.020256,0.0424957,0.00911713,-0.014801,0.0207901,0.00782013
26,9,10.0097,-0.000915527,0.000457764,-2.4247,0.0559862,-0.0729268,0.0550435,0.0709703,-0.0919257,0.146234,-0.124241,-0.0825704,0.0143433,0.0288391,0.0167465,0.0120926,0.0215912,0.00862122,0.0200272,0.0190353,-9.97986,0.0124741,-0.0356293,0.0162888,0.0393677,0.00801086,-0.0257492,0.016861,0.00583649
27,0,10.0097,0,0.000305176,-2.4247,0.0553758,-0.073232,0.0550435,0.07036,-0.0925361,0.14837,-0.124241,-0.0819601,0.0136566,0.0278473,0.019989,0.0141907,0.0203705,0.00667572,0.0222397,0.0188065,-9.97986,0.0104523,-0.0281525,0.017662,0.0346756,0.0075531,-0.0379562,0.0166321,0.00766754
27,1,10.0097,0.00152588,0.000457764,-2.4247,0.055681,-0.0741475,0.054128,0.07036,-0.0913154,0.146234,-0.124546,-0.0813497,0.00961304,0.032959,0.0162125,0.0130081,0.0192261,0.00556946,0.022583,0.0220108,-9.97986,0.0118256,-0.0251389,0.0193405,0.034523,0.00518799,-0.0357056,0.017395,0.00831604
27,2,10.0097,0.000915527,0.000152588,-2.42501,0.0569017,-0.0735371,0.0550435,0.072191,-0.0913154,0.147149,-0.121494,-0.0807394,0.0134277,0.0286865,0.0164032,0.0152969,0.0194931,0.00659943,0.0239563,0.0203323,-9.97986,0.0150681,-0.0137711,0.0181961,0.0382233,0.00801086,-0.0298691,0.0197983,0.00431061
27,3,10.0097,0.000610352,-0.000152588,-2.42562,0.0562914,-0.0735371,0.0553487,0.0715807,-0.0916206,0.14776,-0.125766,-0.0813497,0.00961304,0.0313187,0.0124741,0.0117111,0.0204086,0.00591278,0.0168991,0.0227356,-9.97986,0.0177383,-0.00247955,0.0188446,0.0300598,0.0088501,-0.0272369,0.0234222,0.00751495
27,4,10.0097,-0.000305176,-0.00152588,-2.42714,0.0569017,-0.0729268,0.0535176,0.0401476,-0.0946723,0.146234,-0.127292,-0.0822652,0.0123596,0.0271225,0.0197601,0.0110626,0.0180054,0.0102234,0.0198746,0.0205231,-9.97986,0.0147247,0.00125885,0.0181198,0.0315475,0.00999451,-0.0150299,0.0266647,0.00839233
27,5,8.54054,0.0201416,-0.00106812,-2.42592,0.0559862,-0.0735371,0.0550435,0.0459459,-0.0928413,0.158746,-0.126682,-0.0819601,0.0118256,0.0301361,0.0177383,0.00808716,0.0157547,0.00366211,0.0234985,0.0252914,-9.97986,0.0167847,0.0120926,0.0179672,0.030365,0.00774384,-0.00350952,0.0257492,0.00617981
27,6,7.48281,0.000915527,-0.0012207,-2.42623,0.055681,-0.0747579,0.0553487,0.0551012,-0.0919257,0.150812,-0.125766,-0.0822652,0.00904083,0.0283813,0.0192261,0.00621796,0.0138092,0.000915527,0.0165558,0.0195313,-9.97986,0.0139236,0.0151443,0.0172424,0.0255966,0.00274658,0.00228882,0.026207,0.0069809
27,7,7.43245,0.000610352,-0.000152588,-2.42653,0.055681,-0.0744527,0.0522969,0.0660875,-0.0922309,0.147149,-0.125461,-0.0831808,0.014267,0.0291443,0.0208282,0.0102615,0.0094223,0.0113678,0.0201797,0.0233078,-9.97986,0.0181961,0.0261688,0.0204086,0.0269318,0.00549316,0.0115967,0.0299454,0.00740051
27,8,7.83223,0,0.000762939,-2.42745,0.055681,-0.0735371,0.0538228,0.075548,-0.0910102,0.146234,-0.126072,-0.0822652,0.0122833,0.0276947,0.0221252,0.00736237,0.00709534,0.00873566,0.0168228,0.020752,-9.97986,0.0105286,0.0318146,0.0178528,0.03479,0.00740051,0.00774384,0.0266647,0.00328064
27,9,10.0097,0.00213623,0.00244141,-2.42684,0.0544603,-0.0756734,0.0556539,0.10515,-0.0897895,0.146234,-0.124241,-0.0837911,0.0131989,0.0260925,0.0191879,0.00984192,0.00843048,0.0100708,0.0177002,0.0170898,-9.97986,0.0177383,0.0423813,0.0169754,0.0525284,0.00888824,0.000419617,0.0271988,0.00900269
28,0,10.0097,0.000305176,0.00198364,-2.42959,0.0550706,-0.075063,0.0547383,0.0874498,-0.0925361,0.143182,-0.126377,-0.0859274,0.0130081,0.0274277,0.0186157,0.0087738,0.0122452,0.00606537,0.0194168,0.021019,-9.97986,0.0163651,0.0453568,0.0213242,0.0576401,0.00659943,-0.00648499,0.0219345,0.00473022
28,1,10.0097,-0.000610352,0.000610352,-2.42867,0.0541551,-0.0762837,0.0526021,0.0758531,-0.0955879,0.144403,-0.124851,-0.0865377,0.0112915,0.0257874,0.019989,0.0123215,0.00228882,0.00495911,0.0199127,0.0192642,-9.97986,0.0159836,0.0510406,0.0220108,0.0599289,0.00911713,-0.0121689,0.0196838,0.00671387
28,2,10.0097,0.000915527,0.000305176,-2.42837,0.0532396,-0.0753682,0.0516866,0.0706652,-0.0949775,0.143182,-0.127903,-0.0871481,0.0161362,0.0208664,0.0218201,0.0113678,0.000305176,0.00389099,0.0167465,0.0226212,-9.97986,0.0141907,0.0549698,0.0179672,0.060463,0.00869751,-0.0112152,0.0214767,0.00572205
28,3,10.0097,0.00152588,-0.000457764,-2.42867,0.0550706,-0.0765889,0.0553487,0.0706652,-0.0952827,0.143792,-0.127903,-0.0871481,0.00999451,0.0268555,0.0165176,0.0117111,0.0031662,0.00263214,0.0178528,0.0257874,-9.97986,0.0161362,0.0558853,0.0162888,0.0566101,0.00709534,-0.0127792,0.0140381,0.00495911
28,4,10.0097,0.000610352,0,-2.42928,0.0529344,-0.0753682,0.0529073,0.0694445,-0.0949775,0.143182,-0.129123,-0.0874532,0.0087738,0.0302887,0.021553,0.015831,0.00583649,0.00854492,0.0197983,0.0226212,-9.97986,0.0167847,0.0611496,0.0184631,0.0622177,0.00999451,-0.00919342,0.0183105,0.00774384
28,5,10.0097,-0.000610352,-0.000610352,-2.42684,0.0547655,-0.0747579,0.0519917,0.0688341,-0.094062,0.143792,-0.127598,-0.0859274,0.0149155,0.0251007,0.0190353,0.0125504,0.000190735,0.00118256,0.014534,0.0177002,-9.97986,0.0139236,0.0654984,0.0147247,0.0602722,0.00579834,-0.00911713,0.00934601,0.00411987
28,6,10.0097,0,0.000152588,-2.42745,0.0544603,-0.0756734,0.0562642,0.07036,-0.0934516,0.145624,-0.126377,-0.085317,0.00976563,0.0248718,0.0216293,0.0161743,0.00434875,-0.0018692,0.0179672,0.0249481,-9.97986,0.0181961,0.0680161,0.018692,0.0522995,0.00961304,-0.00110626,0.00862122,0.00411987
28,7,10.0097,0.00366211,-0.000457764,-2.42714,0.0553758,-0.0747579,0.0544332,0.07036,-0.0925361,0.145318,-0.126377,-0.0844015,0.0141144,0.0231552,0.0203705,0.0141144,-0.00305176,0.000495911,0.0173569,0.0208282,-9.97986,0.0147247,0.0692749,0.0185394,0.0479507,0.0075531,-0.00617981,0.00846863,0.00324249
28,8,10.0097,0.0012207,0.000305176,-2.42776,0.0559862,-0.0747579,0.0526021,0.0691393,-0.094062,0.146539,-0.125461,-0.0840963,0.0187302,0.0209808,0.0246048,0.00869751,-0.00175476,-0.00164032,0.0141525,0.0257492,-9.97986,0.0113297,0.0740051,0.0212097,0.0558853,0.00747681,-0.00389099,0.00499725,0.00339508
28,9,10.0097,0.000305176,0.000762939,-2.42531,0.0578172,-0.0741475,0.050771,0.07036,-0.0916206,0.146234,-0.124241,-0.0807394,0.0172043,0.0281143,0.0195694,0.0105667,0.0037384,0.00152588,0.0178909,0.0224686,-9.97986,0.0146103,0.0769806,0.0178909,0.0642776,0.00419617,0.00148773,0.00595093,0.00347137
29,0,10.0097,-0.00183105,-0.000762939,-2.4247,0.0569017,-0.0738423,0.0535176,0.0706652,-0.0900947,0.146539,-0.123935,-0.0822652,0.0165939,0.0240326,0.0215912,0.0122833,0.0012207,0.00495911,0.0163651,0.0242615,-9.97986,0.017395,0.0737762,0.0253677,0.0548553,0.00816345,-0.0038147,0.00160217,0.00682831
29,1,10.0097,-0.000305176,-0.00152588,-2.4247,0.0572069,-0.0741475,0.0565694,0.0706652,-0.0919257,0.14776,-0.12363,-0.0819601,0.0164413,0.0255203,0.0199127,0.0118637,0.0025177,-0.000305176,0.0139618,0.023613,-9.97986,0.0112915,0.0824738,0.0195313,0.0311279,0.0100327,-0.00724792,0.0043869,0.00453949
29,2,10.0097,0.000610352,-0.00137329,-2.4244,0.0569017,-0.073232,0.0529073,0.07036,-0.0931465,0.145624,-0.123325,-0.0813497,0.0172424,0.0243378,0.0199127,0.0143433,0.00328064,-0.00183105,0.014534,0.0276566,-9.97986,0.0185013,0.0815201,0.0180817,0.0134277,0.00892639,-0.00881195,0.00183105,0.00457764
29,3,10.0097,0.000610352,-0.00213623,-2.42531,0.0565965,-0.075063,0.0550435,0.0718859,-0.0913154,0.148065,-0.123325,-0.0813497,0.00972748,0.0246048,0.0255966,0.00900269,-0.00160217,-0.0018692,0.0123978,0.0231934,-9.97986,0.0184631,0.0800705,0.0204468,-0.010376,0.0062561,-0.0159836,0.00297546,0.00644684
29,4,10.0097,-0.000610352,-0.00228882,-2.42623,0.0569017,-0.0729268,0.0535176,0.0401476,-0.0955879,0.145624,-0.127292,-0.0822652,-0.00484467,0.0269699,0.017662,0.0128555,0.00705719,-0.0094986,0.0125885,0.0181961,-9.97986,0.016861,0.0766754,0.0188065,-0.0281906,0.00614166,-0.0133896,0.00358582,0.0044632
29,5,8.60219,0,-0.00183105,-2.42531,0.0572069,-0.0741475,0.0571797,0.0453356,-0.0925361,0.145318,-0.126682,-0.0813497,-0.0102615,0.0244904,0.0186157,0.0133514,0.00984192,-0.00614166,0.0152588,0.0159073,-9.97986,0.021286,0.0833511,0.0219345,-0.02285,0.00862122,-0.0141907,-0.00118256,0.00530243
29,6,7.5353,-0.000305176,-0.000457764,-2.42592,0.0553758,-0.075063,0.0556539,0.0575426,-0.0928413,0.146539,-0.125156,-0.0819601,-0.01091,0.0259399,0.0200653,0.0122452,0.00843048,-0.00812531,0.0105667,0.0142288,-9.97986,0.0235748,0.0779724,0.0237656,-0.0104523,0.0119019,-0.0178909,-0.00366211,0.00522614
29,7,7.50264,0,0.000915527,-2.42653,0.0550706,-0.075063,0.0550435,0.0666979,-0.0922309,0.145318,-0.124241,-0.0822652,-0.012207,0.0206757,0.022049,0.017662,0.00835419,-0.00919342,0.0112534,0.0122452,-9.97986,0.0215149,0.0813675,0.0201416,-0.000495911,0.0112152,-0.0117493,-0.0094223,0.00522614
29,8,7.92714,0,0.000762939,-2.42623,0.0550706,-0.075063,0.055959,0.0764635,-0.0916206,0.145929,-0.125156,-0.0825704,-0.00946045,0.0260162,0.0178909,0.01194,0.00965118,-0.0123215,0.0109482,0.0172043,-9.97986,0.0236893,0.0811386,0.0241089,-0.00614166,0.0130844,-0.0107574,-0.0118637,0.00541687
29,9,10.0097,0.000915527,0.00198364,-2.42684,0.0550706,-0.075063,0.0550435,0.10515,-0.0894843,0.145318,-0.12363,-0.0840963,-0.0075531,0.0244522,0.0222397,0.0136185,0.00823975,-0.0169754,0.0100708,0.0165176,-9.97986,0.0182343,0.0788879,0.0206757,0.00370026,0.00709534,-0.0147247,-0.0232315,0.00724792
30,0,10.0097,-0.000610352,0.00213623,-2.42928,0.0523241,-0.0759786,0.0513814,0.0871447,-0.0943672,0.143792,-0.125461,-0.0868429,0.0121307,0.0264359,0.0191116,0.0123596,0.0113678,-0.0177002,0.00881195,0.0157166,-9.97986,0.0156403,0.077095,0.0242996,0.0182343,0.0111389,-0.0150681,-0.027771,0.00652313
30,1,10.0097,0.000610352,0.00183105,-2.42837,0.0538499,-0.0762837,0.0522969,0.0761583,-0.0968086,0.143792,-0.126072,-0.0847066,0.0146103,0.0234222,0.0233078,0.0123596,0.00911713,-0.0199509,0.010643,0.0193405,-9.97986,0.0162888,0.0761414,0.0289154,0.0365448,0.0102615,-0.0236511,-0.0339127,0.0025177
30,2,10.0097,-0.000610352,0.0012207,-2.42837,0.0529344,-0.0762837,0.0522969,0.0718859,-0.0952827,0.142572,-0.128818,-0.0862325,0.0180054,0.0210953,0.0197983,0.0122833,0.0145721,-0.020256,0.0144577,0.0209808,-9.97986,0.0130463,0.0754929,0.0292969,0.0488281,0.0124359,-0.0228119,-0.0344086,0.00400543
30,3,10.0097,-0.0012207,0.000610352,-2.42959,0.0547655,-0.0756734,0.0516866,0.0706652,-0.0946723,0.143487,-0.126987,-0.0868429,0.0260925,0.0214767,0.0136566,0.00984192,0.0173187,-0.0220108,0.0157547,0.0239944,-9.97986,0.013237,0.0785446,0.026474,0.055275,0.0157928,-0.0218964,-0.0371933,0.00648499
30,4,10.0097,0,0.000305176,-2.42928,0.0541551,-0.0762837,0.054128,0.0682238,-0.0943672,0.144098,-0.127598,-0.0865377,0.0131989,0.0227356,0.0168991,0.00865936,0.0149536,-0.0209045,0.0166702,0.0205231,-9.97986,0.0119781,0.0773621,0.0252533,0.0640488,0.0135803,-0.015564,-0.0374603,0.00724792
30,5,10.0097,-0.000610352,0.000152588,-2.42837,0.0538499,-0.0759786,0.0519917,0.0691393,-0.0943672,0.143487,-0.126987,-0.0868429,0.00125885,0.0242996,0.0207138,0.0154114,0.0157166,-0.017395,0.0162506,0.0225449,-9.97986,0.00797272,0.0790787,0.0280762,0.0666428,0.0140381,-0.00305176,-0.043335,0.00232697
30,6,10.0097,0.000915527,0.000457764,-2.42806,0.0547655,-0.0762837,0.0532125,0.0700548,-0.0946723,0.144403,-0.126682,-0.0840963,-0.000610352,0.0196457,0.0151825,0.0108719,0.0149155,-0.0196838,0.016861,0.0201035,-9.97986,0.00419617,0.0718307,0.0289536,0.0795364,0.0129318,0.00442505,-0.0452042,0.00530243
30,7,10.0097,0.0012207,0.000457764,-2.42776,0.0550706,-0.075063,0.0532125,0.0688341,-0.0928413,0.145929,-0.126377,-0.0847066,0.000724792,0.0185013,0.0178528,0.0131226,0.015564,-0.0179291,0.0167847,0.020256,-9.97986,-0.0018692,0.0680161,0.0266647,0.0730515,0.013237,0.00904083,-0.0484085,0.00679016
30,8,10.0097,0.000305176,0,-2.42562,0.055681,-0.0753682,0.054128,0.0706652,-0.0928413,0.143792,-0.125766,-0.0837911,0.00839233,0.0221634,0.0177383,0.0133514,0.0170898,-0.0172806,0.0104904,0.0166321,-9.97986,-0.0088501,0.0677109,0.0297165,0.065155,0.0111771,0.00602722,-0.052681,0.00637054
30,9,10.0097,0.000610352,-0.000152588,-2.42501,0.0550706,-0.0744527,0.054128,0.0709703,-0.0913154,0.146844,-0.124851,-0.0819601,0.017395,0.0194931,0.0156784,0.0115967,0.0187302,-0.017395,0.013237,0.0159454,-9.97986,-0.00679016,0.0682068,0.0350571,0.0543594,0.0152969,0.00659943,-0.055275,0.00247955
31,0,10.0097,-0.000610352,-0.00106812,-2.42562,0.0559862,-0.0747579,0.0547383,0.0712755,-0.0922309,0.146539,-0.124241,-0.0825704,0.0165176,0.0221634,0.0204086,0.0154877,0.0203323,-0.0174332,0.0159454,0.0161362,-9.97986,0.00335693,0.0674057,0.0286484,0.0359344,0.0115585,0.00312805,-0.0548935,-0.000839233
31,1,10.0097,0.00183105,-0.00137329,-2.42531,0.0569017,-0.0747579,0.0553487,0.072191,-0.0910102,0.145929,-0.124546,-0.0822652,0.0206757,0.0234222,0.0170135,0.0114822,0.0195313,-0.0165176,0.0125504,0.0126266,-9.97986,0.012207,0.064621,0.028801,0.0208282,0.0148392,-0.0030899,-0.059166,0.00171661
31,2,10.0097,-0.00213623,-0.00228882,-2.42501,0.0572069,-0.0735371,0.0553487,0.0712755,-0.0922309,0.146539,-0.124241,-0.0810445,0.022049,0.0260162,0.017128,0.0140762,0.0219727,-0.0117874,0.0169373,0.0165939,-9.97986,0.0198364,0.0621033,0.0339127,-0.00331879,0.0125504,-0.00682831,-0.066452,0.0037384
31,3,10.0097,0.0012207,-0.00183105,-2.4244,0.0562914,-0.0744527,0.0538228,0.0709703,-0.0925361,0.146539,-0.123935,-0.0813497,0.0165176,0.0241852,0.0233078,0.0172043,0.0261307,-0.0100327,0.0186157,0.0156403,-9.97986,0.0236511,0.0625992,0.0299454,-0.0288773,0.0132751,-0.0197983,-0.0702667,0.000534058
31,4,10.0097,0.00152588,-0.00411987,-2.42623,0.0562914,-0.0738423,0.0532125,0.0401476,-0.0965034,0.145929,-0.125461,-0.0825704,0.0156021,0.0177765,0.0187302,0.00747681,0.0240707,-0.0149536,0.0143051,0.0127029,-9.97986,0.0201416,0.0597382,0.0328827,-0.0634766,0.00759125,-0.0400543,-0.0694275,-0.00152588
31,5,8.59914,-0.000610352,-0.00473022,-2.4244,0.0569017,-0.0741475,0.0538228,0.0462511,-0.0925361,0.146234,-0.126072,-0.0834859,0.0274658,0.0225067,0.0222015,0.0140762,0.0245285,-0.00637054,0.0201416,0.014267,-9.97986,0.0122452,0.0549698,0.0285721,-0.104942,0.00827789,-0.0414658,-0.0741196,0.00102997
31,6,7.55544,-0.00183105,-0.00366211,-2.42592,0.0562914,-0.0738423,0.054128,0.0578478,-0.0919257,0.146539,-0.126072,-0.0825704,0.0233078,0.0209427,0.0170135,0.0115585,0.0294113,-0.010376,0.0198364,0.0165558,-9.97986,0.0122452,0.0597382,0.0300217,-0.13237,0.0117111,-0.0328064,-0.0725555,0.000801086
31,7,7.54232,0.000915527,-0.00198364,-2.42501,0.0544603,-0.0756734,0.0553487,0.0660875,-0.0919257,0.144403,-0.125766,-0.0828756,0.0187683,0.018692,0.0157928,0.0127029,0.0265503,-0.0100708,0.0235748,0.0186539,-9.97986,0.0069809,0.0529861,0.0271988,-0.16346,0.0115204,-0.0243759,-0.0725555,3.8147e-005
31,8,7.92775,0.0012207,-0.00213623,-2.42714,0.0565965,-0.0738423,0.054128,0.0761583,-0.0913154,0.144708,-0.125766,-0.0837911,0.0204849,0.0188065,0.0214386,0.00350952,0.0213623,-0.00541687,0.0224686,0.0179672,-9.97986,0.00106812,0.0510025,0.023613,-0.180969,0.00984192,-0.0157166,-0.0715256,0.00236511
31,9,10.0097,0.00213623,-0.000305176,-2.42806,0.0541551,-0.0759786,0.054128,0.103624,-0.0894843,0.145929,-0.12302,-0.0840963,0.0111389,0.015564,0.0180054,0.01194,0.0247574,-0.00225067,0.0233459,0.0167084,-9.97986,0.000305176,0.0500488,0.0224686,-0.194359,0.0139618,-0.00934601,-0.0667572,0.00358582
32,0,10.0097,0.00244141,-0.00152588,-2.42928,0.0535448,-0.0765889,0.0522969,0.0865343,-0.0949775,0.145318,-0.125766,-0.0874532,0.00732422,0.0161362,0.0127792,0.00953674,0.0291443,-0.00492096,0.0234985,0.0167465,-9.97986,0.00160217,0.0465393,0.0178528,-0.224571,0.0069809,-0.00736237,-0.062027,0.00244141
32,1,10.0097,0.00213623,-0.00213623,-2.42898,0.0538499,-0.0765889,0.0526021,0.0758531,-0.0955879,0.144403,-0.126987,-0.0868429,0.0124359,0.017662,0.0149155,0.00995636,0.0289917,-0.000267029,0.0283051,0.0149918,-9.97986,0.0217819,0.0404358,0.016098,-0.244255,0.0100708,0.000114441,-0.0549316,0.00305176
32,2,10.0097,0.0012207,-0.00152588,-2.4302,0.0541551,-0.0747579,0.0516866,0.0715807,-0.0949775,0.142877,-0.127292,-0.0877584,0.0123215,0.0237274,0.0150681,0.00907898,0.0372696,-0.0025177,0.0246429,0.0154114,-9.97986,0.0384521,0.0374222,0.0115967,-0.25631,0.0088501,0.00507355,-0.0534821,0.00526428
32,3,10.0097,0.000305176,-0.00167847,-2.42959,0.0544603,-0.0759786,0.0516866,0.0694445,-0.0946723,0.143182,-0.127292,-0.0874532,0.0117111,0.0153351,0.0114822,0.00705719,0.0369263,0.00183105,0.0274277,0.0166321,-9.97986,0.0438309,0.0363922,0.00637054,-0.266953,0.0119781,-0.000457764,-0.0474548,0.00286102
32,4,10.0097,0.0012207,-0.00137329,-2.4302,0.0541551,-0.0756734,0.0513814,0.0694445,-0.0952827,0.143487,-0.128513,-0.0868429,0.00923157,0.0162125,0.0135422,0.0120926,0.0339508,0.00572205,0.0275803,0.0149918,-9.97986,0.0401306,0.0334549,0.00492096,-0.280457,0.00366211,-0.0145721,-0.045929,0.00167847
32,5,10.0097,0.0012207,-0.000915527,-2.42837,0.0538499,-0.0759786,0.0532125,0.07036,-0.0943672,0.143792,-0.126987,-0.0865377,0.0121689,0.020256,0.0124741,0.00774384,0.0344849,0.00354767,0.0259399,0.015564,-9.97986,0.0337982,0.0349426,-0.00152588,-0.280495,0.0139999,-0.0252533,-0.0435638,0.00457764
32,6,10.0097,0.00152588,-0.000915527,-2.42806,0.0547655,-0.0762837,0.0535176,0.0691393,-0.0937568,0.143792,-0.126682,-0.0850118,0.0143433,0.017662,0.0129318,0.0123978,0.0410843,0.0134277,0.027504,0.0159454,-9.97986,0.0342941,0.0296021,-0.00118256,-0.289726,0.01194,-0.0178528,-0.0352859,0.0030899
32,7,10.0097,0.000305176,0.000610352,-2.42745,0.0562914,-0.0756734,0.0538228,0.0700548,-0.0919257,0.145624,-0.127292,-0.0844015,0.00827789,0.0204086,0.0117874,0.0126266,0.0428391,0.0136948,0.0302887,0.017395,-9.97986,0.0336838,0.0233459,-0.00240326,-0.285301,0.0127411,-0.0117111,-0.0345993,0.00499725
32,8,10.0097,-0.000915527,0.000457764,-2.42623,0.055681,-0.0747579,0.054128,0.0691393,-0.0928413,0.145929,-0.125156,-0.0834859,0.0108719,0.0204849,0.0170898,0.0153732,0.043869,0.00782013,0.0284958,0.0198364,-9.97986,0.0365829,0.0279236,-0.00415802,-0.27771,0.0151825,-0.0143814,-0.0260162,0.00240326
32,9,10.0097,-0.000610352,0.000915527,-2.42379,0.0569017,-0.0741475,0.0538228,0.0706652,-0.0922309,0.146234,-0.125156,-0.0816549,0.00808716,0.0214386,0.0170135,0.01297,0.0405502,0.0171661,0.0361252,0.0149155,-9.97986,0.0333786,0.0231171,-0.0113678,-0.266266,0.0152588,-0.00896454,-0.0257492,0.000724792
33,0,10.0097,-0.000305176,0.0012207,-2.42592,0.0565965,-0.0738423,0.054128,0.0697496,-0.0910102,0.145929,-0.124241,-0.0810445,0.0044632,0.0222015,0.0189209,0.0123978,0.0444412,0.0216293,0.0461578,0.0123596,-9.97986,0.0340652,0.0181198,-0.0123215,-0.246468,0.0190353,-0.00148773,-0.0215149,0.00377655
33,1,10.0097,0.00183105,0.00183105,-2.42501,0.0553758,-0.0726216,0.054128,0.0709703,-0.0916206,0.147149,-0.12363,-0.0816549,0.0025177,0.024147,0.0185776,0.0121307,0.0442886,0.0239944,0.0450134,0.0194931,-9.97986,0.0347519,0.0213242,-0.0177002,-0.225296,0.0154877,0.000572205,-0.0151062,0.00389099
33,2,10.0097,0,0.00244141,-2.42501,0.0578172,-0.0738423,0.0547383,0.0718859,-0.0900947,0.147455,-0.12363,-0.080129,0.0102997,0.0226974,0.0163269,0.0114822,0.0479889,0.0179291,0.045433,0.0150299,-9.97986,0.0294113,0.0151443,-0.0178909,-0.202599,0.0204849,-0.000610352,-0.0183868,0.00526428
33,3,10.0097,0.000305176,0.00350952,-2.4247,0.0578172,-0.0738423,0.0547383,0.0706652,-0.0928413,0.145624,-0.125156,-0.0804342,0.026741,0.0266647,0.0214005,0.00896454,0.044632,0.0302124,0.0402069,0.021286,-9.97986,0.0293732,0.016098,-0.0198364,-0.164375,0.0193405,-0.00579834,-0.0122452,0.00526428
33,4,10.0097,0.000915527,0.00198364,-2.42714,0.0575121,-0.0741475,0.0532125,0.0407579,-0.0955879,0.145624,-0.125766,-0.0810445,0.0311279,0.0284195,0.0195694,0.0156784,0.0439453,0.0278473,0.0427246,0.0305939,-9.97986,0.0244904,0.0118637,-0.0139236,-0.121803,0.0217056,-0.0173569,-0.0115967,0.00457764
33,5,8.76515,0.000305176,0.00442505,-2.42501,0.055681,-0.0747579,0.0535176,0.0465563,-0.0931465,0.145929,-0.128208,-0.0804342,0.0246429,0.0293732,0.0214767,0.0156784,0.0463486,0.0278091,0.0410843,0.0278854,-9.97986,0.0219727,0.00995636,-0.020752,-0.0685501,0.0205612,-0.0220108,-0.0111389,0.00419617
33,6,7.77211,0.000305176,0.00473022,-2.42501,0.0559862,-0.0744527,0.0556539,0.0587633,-0.0922309,0.146539,-0.125156,-0.0810445,0.0266647,0.0271988,0.0233841,0.011673,0.0434113,0.0291061,0.0391769,0.0275803,-9.97986,0.0194168,0.00865936,-0.0214386,-0.0115585,0.0207138,-0.0320435,-0.00907898,0.00507355
33,7,7.78798,0,0.00549316,-2.42653,0.0550706,-0.0747579,0.0544332,0.067003,-0.0925361,0.145318,-0.125461,-0.0813497,0.0354767,0.030632,0.0233459,0.0193405,0.0444031,0.031929,0.0452042,0.0296021,-9.97986,0.0191879,0.0082016,-0.0231552,0.0392151,0.0238037,-0.0377274,-0.00713348,0.00904083
33,8,8.24056,0.00213623,0.00564575,-2.42653,0.055681,-0.0738423,0.054128,0.0770738,-0.0910102,0.145013,-0.125461,-0.0810445,0.0245667,0.0309372,0.0239182,0.0149918,0.0400543,0.0329971,0.0429535,0.0318527,-9.97986,0.0145721,0.00846863,-0.0177383,0.0914001,0.024147,-0.0426102,-0.00125885,0.00617981
33,9,10.0097,-0.000915527,0.00595093,-2.42623,0.0547655,-0.0741475,0.055959,0.10454,-0.0891792,0.144098,-0.12363,-0.0822652,0.0109863,0.031395,0.0229645,0.0165176,0.0379181,0.0367737,0.0423813,0.0256729,-9.97986,0.0125885,0.00118256,-0.0226593,0.130768,0.017662,-0.0423813,-0.00610352,0.00236511
34,0,10.0097,0.000915527,0.00534058,-2.42928,0.0535448,-0.0778096,0.0522969,0.0859239,-0.0946723,0.145013,-0.126682,-0.0850118,0.00282288,0.0353622,0.029068,0.0233078,0.0459671,0.039711,0.0473785,0.0218582,-9.97986,0.0130463,0.00782013,-0.0154877,0.176926,0.023613,-0.0307465,0.00411987,0.00720978
34,1,10.0097,-0.000915527,0.00305176,-2.42898,0.0547655,-0.0756734,0.0522969,0.075548,-0.0952827,0.141961,-0.126377,-0.0859274,-0.00850677,0.0293732,0.0227737,0.0105667,0.0341034,0.032196,0.0304413,0.00770569,-9.97986,0.00232697,-0.00644684,-0.0244141,0.202332,0.0120926,-0.0331116,-0.0025177,0.00434875
34,2,10.0097,0,0.00350952,-2.42928,0.0535448,-0.0765889,0.0516866,0.0706652,-0.0955879,0.143182,-0.126682,-0.0865377,0.0012207,0.0349808,0.0305939,0.0204086,0.0446701,0.0439453,0.0447083,0.00926971,-9.97986,0.0018692,-0.00202179,-0.0150299,0.24025,0.0199509,-0.0268173,0.00274658,0.0100708
34,3,10.0097,0.0012207,0.00244141,-2.42928,0.0526292,-0.0753682,0.0522969,0.0691393,-0.094062,0.144403,-0.127598,-0.0865377,-0.000762939,0.0318527,0.0270462,0.0182724,0.0399399,0.0413132,0.0417709,-0.000114441,-9.97986,0.000114441,-0.00392914,-0.0150299,0.263824,0.0207138,-0.0231171,0.00930786,0.00709534
34,4,10.0097,-0.000305176,0.00167847,-2.42867,0.0529344,-0.0747579,0.0519917,0.0694445,-0.0946723,0.143182,-0.127903,-0.0859274,-0.000991821,0.0271988,0.0224686,0.0158691,0.037117,0.0385284,0.0353622,0.00495911,-9.97986,-0.00488281,-0.00644684,-0.0160217,0.275764,0.0194931,-0.0252914,0.00984192,0.00202179
34,5,10.0097,0.00244141,0.00152588,-2.42928,0.0544603,-0.0762837,0.0529073,0.0694445,-0.0943672,0.144098,-0.127292,-0.0856222,0.00797272,0.0325012,0.0270462,0.0195694,0.0442505,0.045433,0.0398254,0.0156021,-9.97986,0.00495911,-0.00453949,-0.0088501,0.297546,0.0187302,-0.0190735,0.0132751,0.0104904
34,6,10.0097,0.000915527,0.00259399,-2.42776,0.0553758,-0.0741475,0.0532125,0.0694445,-0.0922309,0.145318,-0.12363,-0.0840963,0.00980377,0.0240707,0.0205612,0.0144958,0.039711,0.043335,0.034256,0.0172424,-9.97986,0.00782013,-0.00663757,-0.00831604,0.327415,0.0232315,-0.0230408,0.0139618,0.0107574
34,7,10.0097,0.0012207,0.00289917,-2.42714,0.0550706,-0.0744527,0.0532125,0.0694445,-0.0934516,0.144403,-0.126682,-0.0825704,0.014267,0.0234604,0.0165558,0.00976563,0.0333405,0.0429153,0.0355911,0.020256,-9.97986,0.00904083,-0.00694275,0.00171661,0.362358,0.0215912,-0.0269699,0.0165939,0.00576019
34,8,10.0097,-0.000305176,0.0038147,-2.42501,0.0553758,-0.0753682,0.0538228,0.0694445,-0.0925361,0.145624,-0.126987,-0.0834859,0.00324249,0.0248718,0.018959,0.0127029,0.0355911,0.0419235,0.0386429,0.0200272,-9.97986,0.00991821,-0.00629425,0.00476837,0.382881,0.0229645,-0.0276947,0.0177383,0.00312805
34,9,10.0097,-0.000915527,0.00198364,-2.42562,0.0565965,-0.0738423,0.0553487,0.0715807,-0.0922309,0.146844,-0.123935,-0.0813497,0.00133514,0.0238037,0.0199127,0.0101089,0.0343323,0.050354,0.0350952,0.0240707,-9.97986,0.0121689,-0.00450134,0.0094986,0.39463,0.030365,-0.0298691,0.0232697,0.00724792
35,0,10.0097,0,0.00213623,-2.4244,0.0553758,-0.0738423,0.0550435,0.0691393,-0.0916206,0.146539,-0.124241,-0.0822652,-0.00137329,0.0182724,0.0140762,0.00545502,0.025177,0.0444412,0.0324249,0.0230789,-9.97986,0.0148392,-0.00686646,0.0082016,0.405464,0.0315094,-0.0325775,0.0262833,0.00705719
35,1,10.0097,0,0.000915527,-2.4244,0.0565965,-0.0738423,0.0556539,0.0709703,-0.0916206,0.146539,-0.124241,-0.0816549,0.00457764,0.0204086,0.0194168,0.00999451,0.0294495,0.0473022,0.0279617,0.0205994,-9.97986,0.0124741,-0.00675201,0.0120163,0.405006,0.0333023,-0.0295639,0.0273132,0.0094986
35,2,10.0097,0,0.000152588,-2.42531,0.0565965,-0.073232,0.0547383,0.07036,-0.0916206,0.146539,-0.127598,-0.0825704,0.00637054,0.0177383,0.0174332,0.0115585,0.0232315,0.0463104,0.0347519,0.0217438,-9.97986,0.0128174,-0.00812531,0.0208664,0.388336,0.0357056,-0.0259018,0.0338745,0.00694275
35,3,10.0097,0.0012207,-0.000915527,-2.42592,0.0562914,-0.0735371,0.0538228,0.0709703,-0.090705,0.147149,-0.123325,-0.0831808,0.00419617,0.0162506,0.0128555,0.0069809,0.0203705,0.0455475,0.0326538,0.0205612,-9.97986,0.0156021,-0.0105286,0.0226593,0.369453,0.0327301,-0.0281906,0.0315475,0.0075531
35,4,10.0097,0,-0.00289917,-2.42684,0.0569017,-0.0738423,0.0538228,0.0401476,-0.095893,0.147455,-0.126377,-0.0822652,0.00579834,0.0164413,0.0162506,0.00476837,0.0210571,0.0503159,0.0312805,0.0211334,-9.97986,0.0178528,-0.0120163,0.023613,0.344772,0.0287247,-0.0211334,0.03582,0.00583649
35,5,8.40779,0.000915527,-0.00335693,-2.42592,0.0562914,-0.0744527,0.054128,0.0474718,-0.0925361,0.145929,-0.124241,-0.0834859,0.00881195,0.0185394,0.0167465,0.0120163,0.0157547,0.0482941,0.0307846,0.0186539,-9.97986,0.0278473,-0.00904083,0.0276947,0.315323,0.0292206,-0.0190353,0.0370789,0.00705719
35,6,7.42269,0,-0.00289917,-2.42562,0.0550706,-0.0741475,0.054128,0.0578478,-0.090705,0.145929,-0.126072,-0.0813497,0.0062561,0.0159836,0.0141907,0.0094223,0.0137711,0.0479126,0.0305557,0.022316,-9.97986,0.0363922,-0.0107956,0.0287247,0.290337,0.0293732,-0.0144577,0.0422287,0.00637054
35,7,7.3644,0.00183105,-0.00320435,-2.42684,0.0553758,-0.0741475,0.0519917,0.0663927,-0.0919257,0.146539,-0.125766,-0.0837911,0.0102997,0.0208282,0.0174713,0.0124359,0.0125504,0.0482941,0.030098,0.02285,-9.97986,0.0377655,-0.0127411,0.0254059,0.255966,0.0298309,-0.0138092,0.040741,0.00862122
35,8,7.77211,0.00152588,-0.00167847,-2.42592,0.0559862,-0.075063,0.0550435,0.0758531,-0.0913154,0.145624,-0.128513,-0.0834859,0.0143051,0.0246048,0.0183105,0.00957489,0.0151443,0.0529099,0.0344467,0.0301743,-9.97986,0.0295258,-0.00640869,0.0355148,0.236778,0.0339127,-0.0030899,0.0475311,0.0133133
35,9,10.0097,0.00183105,-0.0012207,-2.42714,0.0547655,-0.0741475,0.0553487,0.103929,-0.0894843,0.143182,-0.124241,-0.0834859,0.00675201,0.0178528,0.0153732,0.00602722,0.00705719,0.044136,0.0266266,0.0178909,-9.97986,0.0117111,-0.015564,0.031929,0.198822,0.0233841,-0.0112915,0.0414658,0.00507355
36,0,10.0097,0,-0.000762939,-2.43081,0.0523241,-0.0759786,0.0532125,0.087755,-0.0952827,0.144098,-0.126072,-0.0877584,0.0145721,0.0183868,0.0215149,0.00892639,0.00606537,0.0505066,0.0363159,0.0270462,-9.97986,0.0232697,-0.010643,0.0424576,0.183945,0.0334167,-0.00175476,0.0453949,0.00957489
36,1,10.0097,0,-0.00228882,-2.42806,0.0544603,-0.0759786,0.0532125,0.0764635,-0.0961982,0.144098,-0.123325,-0.0874532,0.0106049,0.0193787,0.0112152,0.00965118,0.00392914,0.0495911,0.0243378,0.020752,-9.97986,0.0264359,-0.0102615,0.0407791,0.1548,0.0294876,0.000495911,0.0395584,0.00682831
36,2,10.0097,0.000305176,-0.00198364,-2.42867,0.0544603,-0.0765889,0.0510762,0.0712755,-0.0955879,0.142572,-0.127292,-0.0865377,0.0101089,0.022583,0.018158,0.00785828,-0.0012207,0.051651,0.0247574,0.0221252,-9.97986,0.027504,-0.0122452,0.0387955,0.138321,0.032692,0.00301361,0.0364304,0.00827789
36,3,10.0097,0.000915527,-0.00244141,-2.42745,0.0541551,-0.0762837,0.0513814,0.0694445,-0.0943672,0.144403,-0.127598,-0.0868429,0.00865936,0.0193024,0.0174713,0.00804901,0.00392914,0.044632,0.0269318,0.0226974,-9.97986,0.0291443,-0.0156021,0.0397491,0.113525,0.0331879,0.00514984,0.0323105,0.00839233
36,4,10.0097,0.000610352,-0.00289917,-2.42867,0.0541551,-0.0759786,0.0526021,0.0700548,-0.0961982,0.143487,-0.132175,-0.0880636,0.00766754,0.0217438,0.0157166,0.011673,0.00465393,0.0483322,0.0256729,0.0239563,-9.97986,0.0282288,-0.017128,0.0388718,0.0899887,0.0315857,0.0138474,0.02285,0.00694275
36,5,10.0097,0.00152588,-0.00366211,-2.42776,0.0547655,-0.075063,0.0532125,0.0682238,-0.0946723,0.144708,-0.126987,-0.085317,0.0102234,0.0232697,0.0175095,0.0104141,0.0126266,0.0527573,0.0238037,0.0243759,-9.97986,0.0215912,-0.0156784,0.0455475,0.0614929,0.0354004,0.0171661,0.0139236,0.00774384
36,6,10.0097,-0.000610352,-0.00274658,-2.42745,0.0544603,-0.0759786,0.0519917,0.0688341,-0.0943672,0.143792,-0.126682,-0.0868429,0.00801086,0.0185013,0.0191116,0.00537872,0.0197983,0.0481033,0.0283051,0.0196075,-9.97986,0.0176239,-0.0160599,0.0421906,0.0252533,0.0324631,0.018158,-0.000495911,0.0112534
36,7,10.0097,0.000610352,-0.00274658,-2.42837,0.0553758,-0.0747579,0.054128,0.0709703,-0.0946723,0.144708,-0.129123,-0.0856222,0.00873566,0.0195313,0.0138092,0.00572205,0.0257492,0.0477219,0.0306702,0.0178146,-9.97986,0.0147629,-0.0170135,0.0483322,-0.00701904,0.0316238,0.0219345,-0.0130844,0.00762939
36,8,10.0097,0.000305176,-0.00213623,-2.42714,0.0547655,-0.0744527,0.0544332,0.0709703,-0.0931465,0.145624,-0.124851,-0.0837911,0.00724792,0.0172043,0.0174713,0.00843048,0.0278091,0.0481796,0.0355911,0.0167465,-9.97986,0.0190353,-0.0164413,0.0468063,-0.0352478,0.0302887,0.0231552,-0.0110245,0.00850677
36,9,10.0097,0.00213623,-0.00183105,-2.4244,0.0572069,-0.0738423,0.061147,0.0718859,-0.0910102,0.146234,-0.12363,-0.0825704,0.00782013,0.0207138,0.0197601,0.0108337,0.0286102,0.0500488,0.0305939,0.0188828,-9.97986,0.0149918,-0.0174713,0.0486755,-0.0485229,0.0316238,0.0260925,0.00736237,0.0082016
37,0,10.0097,0,-0.000915527,-2.4247,0.0565965,-0.0735371,0.0550435,0.0694445,-0.0919257,0.146844,-0.123935,-0.0819601,0.00221252,0.0238037,0.0191498,0.00839233,0.0291061,0.0465012,0.0326157,0.0162506,-9.97986,0.0119781,-0.0135803,0.0488663,-0.0618744,0.0314713,0.028038,0.0470734,0.00888824
37,1,10.0097,-0.000610352,-0.000915527,-2.42501,0.0565965,-0.0741475,0.0547383,0.0697496,-0.0913154,0.146234,-0.12302,-0.0810445,-0.016861,0.0180054,0.0147629,0.00789642,0.0275421,0.0433731,0.0349426,0.018959,-9.97986,0.0154114,-0.0120926,0.0569534,-0.0666428,0.0312805,0.0296783,0.0888443,0.0102234
37,2,10.0097,0.00152588,-0.000457764,-2.42409,0.0572069,-0.073232,0.0522969,0.072191,-0.0922309,0.145929,-0.12302,-0.080129,-0.0142288,0.0192642,0.0168228,0.00289917,0.0200272,0.041275,0.0281906,0.0177765,-9.97986,0.0189209,-0.0124741,0.0562668,-0.0623703,0.0291824,0.032196,0.129814,0.0111771
37,3,10.0097,-0.000305176,0.000915527,-2.42501,0.0575121,-0.0753682,0.0547383,0.0688341,-0.0919257,0.14776,-0.122715,-0.080129,-0.0186539,0.0220871,0.0174332,0.00980377,0.0238037,0.0413895,0.030098,0.0186157,-9.97986,0.0180435,-0.0105286,0.061264,-0.04673,0.0337219,0.0367355,0.170975,0.00900269
37,4,10.0097,0.000610352,0,-2.42623,0.0559862,-0.0741475,0.0538228,0.0395372,-0.0937568,0.147149,-0.126987,-0.0804342,-0.0302124,0.0220871,0.0175476,0.00846863,0.0159073,0.0389099,0.0321579,0.0172043,-9.97986,0.0194168,-0.00785828,0.0640106,-0.0279617,0.0322723,0.0361633,0.199661,0.014267
37,5,8.42153,0.000305176,0.000457764,-2.42653,0.0562914,-0.073232,0.0504659,0.0465563,-0.0931465,0.145318,-0.126377,-0.0816549,-0.0239182,0.0191116,0.0194931,0.00732422,0.0206757,0.0402451,0.0314331,0.0147247,-9.97986,0.0143433,-0.0127029,0.0652313,-0.000648499,0.0335693,0.0366211,0.214005,0.0111389
37,6,7.38942,-0.000610352,0.00198364,-2.42592,0.0553758,-0.0741475,0.0550435,0.0575426,-0.0916206,0.145624,-0.12363,-0.0804342,-0.00328064,0.0207901,0.0189972,0.00637054,0.0120926,0.0353622,0.0315094,0.0136948,-9.97986,0.0164032,-0.00980377,0.0675583,0.0262451,0.0302887,0.0410461,0.225677,0.0130081
37,7,7.28383,-0.000915527,0.00350952,-2.42653,0.0547655,-0.075063,0.0550435,0.0663927,-0.0919257,0.145013,-0.125156,-0.0816549,0.00110626,0.023613,0.0156403,0.00827789,0.00789642,0.0352478,0.0330353,0.00926971,-9.97986,0.0157928,-0.0117493,0.0613785,0.0614929,0.0278091,0.038414,0.223846,0.0136948
37,8,7.67476,-0.0012207,0.00305176,-2.42745,0.0553758,-0.075063,0.0532125,0.0761583,-0.0925361,0.144403,-0.125156,-0.0819601,0.0154877,0.0262451,0.0170517,0.00976563,0.00873566,0.0337219,0.0326538,0.00183105,-9.97986,0.0112534,-0.0137329,0.0710678,0.0950241,0.0286484,0.0379562,0.227928,0.01297
37,9,10.0097,0.00183105,0.0038147,-2.42653,0.0544603,-0.075063,0.0547383,0.104234,-0.0882636,0.144708,-0.124241,-0.0834859,0.00518799,0.0237274,0.0232697,0.0107956,0.00892639,0.0281525,0.0347519,-7.62939e-005,-9.97986,0.0152969,-0.0160217,0.072403,0.12104,0.0248718,0.0376511,0.231094,0.0114441
38,0,10.0097,0,0.00442505,-2.42989,0.0532396,-0.0756734,0.0526021,0.0892809,-0.0934516,0.143792,-0.127598,-0.0862325,0.0250244,0.0236893,0.021553,0.0100327,0.00255585,0.0211716,0.0310898,0.00247955,-9.97986,0.0137329,-0.0101852,0.0795364,0.158157,0.030632,0.0402451,0.237007,0.00961304
38,1,10.0097,0.00213623,0.00320435,-2.42898,0.0541551,-0.0759786,0.0498555,0.0764635,-0.0928413,0.144708,-0.127292,-0.0859274,0.0702286,0.022583,0.0179291,0.00743866,-0.00377655,0.018959,0.0250626,-0.00106812,-9.97986,0.0173187,-0.0158691,0.0791168,0.189972,0.0276947,0.0426483,0.239067,0.0119019
38,2,10.0097,0.0012207,0.00320435,-2.42959,0.0535448,-0.0765889,0.0519917,0.07036,-0.0952827,0.142877,-0.128513,-0.0865377,0.0905228,0.0265503,0.0236511,0.00816345,-0.00541687,0.0179291,0.0244904,-0.00179291,-9.97986,0.0146866,-0.0147629,0.0787735,0.225677,0.028801,0.0427628,0.23838,0.00972748
38,3,10.0097,-0.000915527,0.00350952,-2.42959,0.0535448,-0.0759786,0.0529073,0.0700548,-0.0955879,0.144098,-0.127598,-0.085317,0.0790405,0.0255203,0.0263214,0.0094986,-0.00797272,0.0191116,0.0231171,0.00335693,-9.97986,0.00740051,-0.0172043,0.0825119,0.2631,0.0259018,0.0407028,0.237045,0.0120163
38,4,10.0097,-0.000305176,0.00244141,-2.4305,0.0529344,-0.0762837,0.0498555,0.0691393,-0.0943672,0.143792,-0.126682,-0.0865377,0.0510406,0.020752,0.0218201,0.0117111,-0.0103378,0.0154877,0.0176239,0.00236511,-9.97986,-0.0056839,-0.0121307,0.075798,0.293961,0.0222778,0.0400162,0.235977,0.0105286
38,5,10.0097,-0.000915527,0.00244141,-2.42653,0.0526292,-0.0756734,0.0526021,0.0688341,-0.0934516,0.143792,-0.129429,-0.085317,0.0342178,0.0197983,0.019989,0.00808716,-0.0120926,0.00541687,0.0147247,-0.00236511,-9.97986,-0.0152206,-0.0131226,0.0609589,0.315437,0.0232697,0.0378036,0.233994,0.00961304
38,6,10.0097,-0.000610352,0.00305176,-2.42806,0.055681,-0.0762837,0.0516866,0.07036,-0.0937568,0.144708,-0.126377,-0.0834859,0.0333023,0.0195313,0.019722,0.0107574,-0.0157547,0.00236511,0.00957489,0.00183105,-9.97986,-0.0225449,-0.0125122,0.0428772,0.350075,0.0220871,0.038414,0.227356,0.00915527
38,7,10.0097,0,0.00274658,-2.42745,0.0544603,-0.0744527,0.0483296,0.0694445,-0.0931465,0.145013,-0.126377,-0.0831808,0.0216293,0.0172424,0.0138855,0.00484467,-0.0182724,0.000228882,0.00564575,0.00038147,-9.97986,-0.0270844,-0.0144958,0.0297546,0.365448,0.0242233,0.0341415,0.22522,0.0114441
38,8,10.0097,0.000305176,0.00137329,-2.42714,0.0562914,-0.0738423,0.0538228,0.0709703,-0.0928413,0.145929,-0.126987,-0.0831808,0.0102234,0.017662,0.0163269,0.00114441,-0.0162506,3.8147e-005,0.00957489,-0.00728607,-9.97986,-0.0288391,-0.0163269,0.0110626,0.382996,0.0218964,0.0328445,0.220222,0.00915527
38,9,10.0097,0.000610352,0.00228882,-2.42562,0.0578172,-0.0738423,0.0544332,0.0697496,-0.0931465,0.146539,-0.124851,-0.0819601,0.00602722,0.0201416,0.0180817,0.00629425,-0.0153732,-0.00537872,0.0129318,-0.00488281,-9.97986,-0.0284195,-0.0123215,0.00614166,0.394478,0.0183487,0.029068,0.209618,0.0112534
39,0,10.0097,0.000610352,0.00198364,-2.42562,0.0562914,-0.0729268,0.0571797,0.0715807,-0.0919257,0.145929,-0.124851,-0.0813497,0.00133514,0.0206757,0.0139618,0.00278473,-0.0179291,-0.0107956,0.0104523,-0.00293732,-9.97986,-0.0197983,-0.0138092,-0.00469208,0.40802,0.0154495,0.0235367,0.200272,0.00907898
39,1,10.0097,-0.00183105,0.000762939,-2.42562,0.0562914,-0.0741475,0.0550435,0.07036,-0.0900947,0.147149,-0.12363,-0.0810445,-0.00415802,0.0159454,0.00850677,0.00167847,-0.021019,-0.0156784,0.010643,0.00038147,-9.97986,-0.00904083,-0.0189972,-0.0130463,0.421486,0.0147629,0.0220108,0.194054,0.00816345
39,2,10.0097,-0.0012207,0.00183105,-2.42409,0.0562914,-0.073232,0.0556539,0.0706652,-0.0922309,0.147455,-0.123935,-0.0798238,-0.00236511,0.015564,0.0117111,0.00358582,-0.0143051,-0.0183105,0.00408173,0.00205994,-9.97986,-0.00816345,-0.0150681,-0.0220108,0.440712,0.0147247,0.0182343,0.18364,0.0087738
39,3,10.0097,0,0.00167847,-2.42501,0.0569017,-0.0744527,0.0519917,0.0709703,-0.0913154,0.145013,-0.124851,-0.0810445,0.00255585,0.0164413,0.0106812,0.00259399,-0.0169754,-0.0223923,-0.00366211,0.00614166,-9.97986,-0.0170517,-0.0159073,-0.0304031,0.452614,0.0141144,0.0118256,0.173225,0.010376
39,4,10.0097,0.000610352,-0.00137329,-2.42592,0.0569017,-0.0735371,0.0529073,0.0389269,-0.0943672,0.146844,-0.126072,-0.0804342,0.00354767,0.0172806,0.0125885,0.00343323,-0.0189209,-0.0289536,0.0044632,-0.00118256,-9.97986,-0.026474,-0.0170898,-0.0330734,0.4599,0.0117111,0.0133133,0.159073,0.00785828
39,5,8.44441,-0.00213623,-0.000152588,-2.42562,0.0559862,-0.073232,0.054128,0.0474718,-0.0925361,0.146234,-0.126072,-0.0825704,0.0030899,0.0161362,0.0124741,0.00423431,-0.0163651,-0.0336838,0.00335693,0.000991821,-9.97986,-0.0197983,-0.0138092,-0.0346756,0.473824,0.00770569,0.00938416,0.150833,0.00732422
39,6,7.48738,0.00213623,0.00106812,-2.42501,0.0559862,-0.0738423,0.054128,0.0578478,-0.0931465,0.146234,-0.126072,-0.0816549,0.00957489,0.0203323,0.0119781,0.00370026,-0.0144577,-0.0396729,0.00797272,0.00492096,-9.97986,-0.00694275,-0.0131226,-0.0325775,0.491219,0.0175858,0.00831604,0.143852,0.0088501
39,7,7.48311,0.000610352,0.00198364,-2.42714,0.0538499,-0.0753682,0.0553487,0.0666979,-0.0916206,0.145624,-0.124241,-0.0822652,0.0043869,0.0146484,0.01091,0.00679016,-0.0125885,-0.0444031,0.00709534,0.00377655,-9.97986,0.00686646,-0.0120163,-0.0311279,0.503006,0.0107956,0.0108719,0.133476,0.00907898
39,8,7.94576,0.000915527,0.00198364,-2.42776,0.0553758,-0.0738423,0.054128,0.0776842,-0.0910102,0.144403,-0.125461,-0.0831808,0.0187302,0.0207901,0.0101852,0.00419617,-0.0127411,-0.0545883,0.00572205,0.00289917,-9.97986,0.0275803,-0.0151443,-0.0314713,0.522957,0.0155258,0.0189972,0.123253,0.00850677
39,9,10.0097,-0.0012207,0.00289917,-2.42623,0.0538499,-0.075063,0.0526021,0.105455,-0.0894843,0.143792,-0.12363,-0.0831808,0.0273895,0.0157547,0.0115204,0.00312805,-0.00965118,-0.0523758,0.00282288,0.00339508,-9.97986,0.0331116,-0.014801,-0.0270462,0.535469,0.011673,0.0217438,0.111618,0.00736237
40,0,10.0097,0.000610352,0.00213623,-2.42928,0.0532396,-0.0759786,0.0529073,0.0853136,-0.0946723,0.143487,-0.126377,-0.0868429,0.0215912,0.019722,0.0123596,0.00782013,-0.00602722,-0.0616455,0.00202179,0.00953674,-9.97986,0.0233841,-0.0177002,-0.0183105,0.548477,0.00965118,0.0201797,0.102081,0.00843048
40,1,10.0097,0,0.00106812,-2.42928,0.0544603,-0.0759786,0.0510762,0.0749376,-0.095893,0.144708,-0.127292,-0.0877584,0.0202942,0.0158691,0.0122452,0.00854492,-0.00850677,-0.0708389,0.00385284,0.00156403,-9.97986,0.00938416,-0.0186539,-0.0224686,0.547676,0.0102615,0.0205994,0.0907516,0.0087738
40,2,10.0097,0.000305176,0.000457764,-2.42867,0.0535448,-0.0765889,0.04894,0.07036,-0.0968086,0.143182,-0.127598,-0.0859274,0.0220871,0.0210953,0.0144958,0.00713348,-0.00785828,-0.0767899,0.00663757,0.00938416,-9.97986,-0.00198364,-0.0104141,-0.0162506,0.553169,0.00995636,0.0196838,0.085907,0.00858307
40,3,10.0097,-0.000610352,0.000457764,-2.42928,0.0532396,-0.0756734,0.0522969,0.07036,-0.0955879,0.142877,-0.127598,-0.0871481,0.0183868,0.0224686,0.0123215,0.00301361,-0.00545502,-0.0709152,0.00911713,0.0115204,-9.97986,-0.00450134,-0.018692,-0.0140381,0.562096,0.00976563,0.019989,0.0835419,0.0105286
40,4,10.0097,0,0.000305176,-2.42928,0.0532396,-0.0762837,0.0519917,0.0688341,-0.0949775,0.145013,-0.127292,-0.0868429,0.0038147,0.0214767,0.0105667,0.00709534,-0.00171661,-0.0808334,0.0162506,0.0106812,-9.97986,0.00366211,-0.017128,-0.0185013,0.563622,0.0113297,0.0197601,0.0762177,0.0088501
40,5,10.0097,0.0012207,-0.000305176,-2.42745,0.055681,-0.075063,0.0565694,0.0694445,-0.0934516,0.142877,-0.127903,-0.0871481,0.00202179,0.0191879,0.014267,0.0069046,0.00236511,-0.0849915,0.0166321,0.01194,-9.97986,0.0170135,-0.0175095,-0.00881195,0.560875,0.00850677,0.016861,0.0744247,0.0109863
40,6,10.0097,0.000915527,-0.000610352,-2.42837,0.0550706,-0.075063,0.0522969,0.07036,-0.0943672,0.144708,-0.128208,-0.0847066,0.000190735,0.0242996,0.0167465,0.0087738,0.0094986,-0.0859833,0.0219727,0.0154877,-9.97986,0.0154114,-0.0136185,-0.0117493,0.560455,0.0094223,0.017395,0.0741577,0.0069809
40,7,10.0097,0.00152588,-0.000610352,-2.42714,0.0547655,-0.0741475,0.0544332,0.0688341,-0.0937568,0.144708,-0.125766,-0.0840963,-0.00762939,0.0231552,0.0174713,0.0106049,0.00965118,-0.0852585,0.0195694,0.0153732,-9.97986,0.0063324,-0.0206757,-0.0135422,0.54615,0.00774384,0.016098,0.0648117,0.0110245
