
Devices
1200
,,BP Load cell - Voltage,String Length - Voltage,Clutch Active - Voltage,#7 iPecs - Voltage,,,,,,,,,EMG 1-8 Left - Voltage,,,,,,,,Pylon Force - Voltage,EMG 9-16 Right - Voltage,,,,,,,,
Frame,Sub Frame,BP Load Cell,String Length,From Arduino Logic,A45,A135,A225,A315,S0,S90,S180,S270,ZSum,EMG 1 Glut Max,EMG 2 Glut Med,EMG 3 Biceps Femoris Long,EMG 4 Rectus Femoris,EMG 5 Vastus Medialis,EMG 6 Tib Ant,EMG 7 Med Gas,EMG 8 Soleus,Pylon volts,EMG 9 Glut Max,EMG 10 Glut Med,EMG 11 Biceps Femoris Long,EMG 12 Rectus Femoris,EMG 13 Vastus Medialis,EMG 14 Tib Ant,EMG 15 Med Gas,EMG 16 Soleus
,,V,V,V,V,V,V,V,V,V,V,V,V,V,V,V,V,V,V,V,V,V,V,V,V,V,V,V,V,V
1,0,10.0097,-0.00335693,0,-2.42714,0.0562914,-0.0756734,0.0544332,0.0706652,-0.0928413,0.146234,-0.125461,-0.0813497,0.0123978,0.0157166,0.00904083,0.00175476,0.0255203,0.00843048,0.0182343,0.0175095,-9.97986,0.0151062,0.000228882,0.0134277,0.0210571,0.0121307,-0.00694275,0.0170898,0.00858307
1,1,10.0097,0.000610352,0.000305176,-2.4247,0.0559862,-0.0741475,0.0550435,0.0706652,-0.0913154,0.146234,-0.124546,-0.0810445,0.00797272,0.0193024,0.00839233,-0.000686646,0.0182343,0.0069809,0.02285,0.0189972,-9.97986,0.0175476,-0.00244141,0.0104141,0.0279236,0.00679016,-0.00671387,0.0167847,0.00797272
1,2,10.0097,-0.000915527,-0.000305176,-2.42531,0.0565965,-0.0735371,0.0544332,0.0715807,-0.0922309,0.145929,-0.124546,-0.0813497,0.0120544,0.0159073,0.010376,-0.00118256,0.0165558,0.00705719,0.0197601,0.0265121,-9.97986,0.0141907,0.000953674,0.00823975,0.0230026,0.00900269,-0.00480652,0.016098,0.00583649
1,3,10.0097,0.0012207,0.000610352,-2.42531,0.0547655,-0.0738423,0.0550435,0.0691393,-0.0931465,0.146844,-0.124241,-0.0807394,0.014801,0.0215912,0.010643,-0.00572205,0.0160599,0.00881195,0.0206375,0.0240707,-9.97986,0.0125885,-0.000419617,0.0117111,0.0256729,0.0134659,-0.0124741,0.015564,0.00652313
1,4,10.0097,0,0.000915527,-2.42531,0.0569017,-0.0726216,0.0544332,0.0715807,-0.0910102,0.146234,-0.123935,-0.0807394,0.0106049,0.0242615,0.00778198,-0.00183105,0.0151825,0.0069046,0.0186157,0.0247574,-9.97986,0.0134277,-0.000801086,0.00953674,0.0252533,0.00846863,-0.00385284,0.0168228,0.00804901
1,5,10.0097,0.00152588,-0.000915527,-2.42592,0.0569017,-0.0744527,0.0519917,0.0431993,-0.0965034,0.146539,-0.126377,-0.0819601,0.0114441,0.0198746,0.0120544,-0.00385284,0.0151443,0.00427246,0.0244904,0.0274658,-9.97986,0.0173569,-0.00137329,0.0131607,0.0297928,0.0111389,-0.00385284,0.0204468,0.00354767
1,6,8.53414,0.000610352,-0.000915527,-2.42562,0.0550706,-0.0738423,0.0553487,0.0459459,-0.0928413,0.145929,-0.126072,-0.0816549,0.0117111,0.0218582,0.0161362,0.00598907,0.0130081,0.00667572,0.0281906,0.0213242,-9.97986,0.0157166,-0.00038147,0.0121307,0.0248718,0.0157547,0.000190735,0.0155258,-0.000572205
1,7,7.44496,0.000915527,-0.0012207,-2.42806,0.0553758,-0.0729268,0.0538228,0.0554064,-0.0925361,0.146539,-0.125766,-0.0825704,0.00492096,0.0255585,0.0189209,0.0257874,0.0146866,0.0104523,0.0264359,0.0186157,-9.97986,0.00991821,-0.00183105,0.00644684,0.0297546,0.022583,0.0012207,0.0193024,0.00236511
1,8,7.33296,-0.000610352,-0.000305176,-2.42653,0.0553758,-0.0753682,0.054128,0.0645616,-0.0922309,0.145318,-0.126377,-0.0831808,0.0125885,0.027504,0.0201416,0.0357056,0.0139618,0.00663757,0.0301361,0.0221252,-9.97986,0.0160217,0.00267029,0.0111008,0.0341034,0.0170135,0.00118256,0.0136566,0.00183105
1,9,7.63143,0,0.000152588,-2.42684,0.0541551,-0.075063,0.0544332,0.0737169,-0.0916206,0.145929,-0.125766,-0.0831808,0.0107574,0.0289536,0.0177765,0.0347519,0.0136948,0.0127029,0.020752,0.0199127,-9.97986,0.0102234,-0.00240326,0.0120926,0.0283813,0.0211334,-0.00732422,0.0161743,0.00240326
2,0,9.49513,0.00152588,0.000457764,-2.42684,0.0538499,-0.0735371,0.0553487,0.0984362,-0.0897895,0.145624,-0.123935,-0.0840963,0.013504,0.0310898,0.0201797,0.0153351,0.0161743,0.00617981,0.0233841,0.00972748,-9.97986,0.0139618,-0.00686646,0.0137329,0.0293732,0.0128174,-0.00759125,0.01297,0.00614166
2,1,10.0097,0.000305176,0.00183105,-2.42867,0.0541551,-0.0759786,0.0522969,0.0908068,-0.0937568,0.143487,-0.126072,-0.085317,0.0127792,0.0305939,0.0230408,0.0115204,0.0173187,0.00812531,0.0183868,0.0101852,-9.97986,0.0143814,0.000610352,0.0149155,0.0311661,0.0196075,-0.0131226,0.0111771,0.00610352
2,2,10.0097,-0.00213623,0,-2.42989,0.0541551,-0.0756734,0.0510762,0.0767687,-0.0968086,0.142267,-0.126377,-0.0862325,0.00823975,0.0283432,0.0297546,0.0110245,0.0194931,0.00873566,0.0170898,0.00640869,-9.97986,0.0113678,-0.00473022,0.0101471,0.0275803,0.0181198,-0.00816345,0.0145721,0.00652313
2,3,10.0097,0.00213623,-0.0012207,-2.42928,0.0541551,-0.0756734,0.0519917,0.0724962,-0.095893,0.143792,-0.126987,-0.0865377,0.00679016,0.032959,0.0270844,0.0113297,0.0154114,0.0108719,0.0196838,0.0157928,-9.97986,0.0155258,-0.00305176,0.0139618,0.0308228,0.017395,-0.0120163,0.0123978,0.0094223
2,4,10.0097,-0.000305176,0.000457764,-2.42867,0.0526292,-0.0771993,0.0526021,0.07036,-0.0946723,0.142572,-0.126682,-0.0874532,0.0062561,0.0298309,0.0190735,0.00728607,0.0138474,0.00659943,0.0175476,0.0323486,-9.97986,0.0111008,0.00087738,0.00965118,0.0269699,0.0167465,-0.0105286,0.0120926,0.00720978
2,5,10.0097,-0.0012207,-0.0012207,-2.4302,0.0538499,-0.0765889,0.0532125,0.0682238,-0.0955879,0.142877,-0.126682,-0.0877584,0.0030899,0.0325394,0.0277328,0.00904083,0.021286,0.00576019,0.0217438,0.0355148,-9.97986,0.0115967,-0.00492096,0.0139618,0.0257111,0.0189972,-0.00976563,0.0149155,0.0075531
2,6,10.0097,0,-0.000610352,-2.42867,0.055681,-0.0768941,0.0529073,0.0688341,-0.0943672,0.144708,-0.126987,-0.085317,0.0119781,0.026741,0.028038,0.0082016,0.0197983,0.00862122,0.0223541,0.0419235,-9.97986,0.0141144,-0.00114441,0.0116348,0.0276566,0.0180817,-0.0143433,0.017395,0.00717163
2,7,10.0097,0.000915527,-0.000305176,-2.42684,0.0541551,-0.075063,0.0532125,0.0688341,-0.0937568,0.144708,-0.126987,-0.0850118,0.00785828,0.034256,0.0258255,0.0184631,0.0200272,0.0111771,0.0264359,0.0503159,-9.97986,0.0114822,-0.00450134,0.0135422,0.0297165,0.0159836,-0.00679016,0.0124359,0.00537872
2,8,10.0097,0.00183105,0.000305176,-2.42714,0.0550706,-0.075063,0.0526021,0.0697496,-0.0937568,0.143792,-0.126987,-0.0847066,0.0104523,0.034523,0.025444,0.0222778,0.0204849,0.0075531,0.0260162,0.0508499,-9.97986,0.0134277,0.00335693,0.0168991,0.0275803,0.0173187,-0.00450134,0.0149918,0.00797272
2,9,10.0097,0.000305176,-0.000152588,-2.42714,0.0553758,-0.0738423,0.0532125,0.0700548,-0.0928413,0.144708,-0.125156,-0.0844015,0.0108337,0.0347519,0.0232697,0.0267029,0.0162888,0.00701904,0.0192261,0.0451279,-9.97986,0.00736237,-0.00343323,0.0138092,0.0247574,0.0139999,-0.00686646,0.0124741,0.00411987
3,0,10.0097,-0.000305176,-0.000457764,-2.42653,0.0562914,-0.0747579,0.0544332,0.0724962,-0.0928413,0.146234,-0.125156,-0.0828756,0.0123978,0.0428391,0.0273895,0.0274277,0.0209045,0.0109863,0.0291824,0.0402451,-9.97986,0.00556946,-0.00152588,0.013504,0.0267792,0.0184631,-0.00484467,0.0172424,0.00865936
3,1,10.0097,0,0.000152588,-2.42501,0.0565965,-0.0738423,0.0550435,0.0712755,-0.0916206,0.146234,-0.124546,-0.0813497,0.00869751,0.0421906,0.0270844,0.0170517,0.0177765,0.0100708,0.0297546,0.0286865,-9.97986,0.00827789,-0.00228882,0.0127792,0.0255203,0.0139618,-0.0113297,0.0168991,0.00663757
3,2,10.0097,0.000610352,-0.000152588,-2.4244,0.0569017,-0.0729268,0.0538228,0.0712755,-0.0919257,0.145929,-0.123935,-0.0810445,0.0159454,0.0461578,0.0347519,0.0147247,0.0193024,0.00999451,0.0256348,0.0260162,-9.97986,0.0114059,-0.000419617,0.0108719,0.0219345,0.0254822,-0.0100327,0.0170517,0.00743866
3,3,10.0097,0.000610352,-0.000152588,-2.42592,0.0565965,-0.0741475,0.054128,0.0712755,-0.0910102,0.145624,-0.124546,-0.0810445,0.0131226,0.0550079,0.0350189,0.010376,0.0153351,0.00488281,0.022583,0.00358582,-9.97986,0.00873566,-0.00713348,0.00873566,0.0222397,0.0163651,-0.0127411,0.0164032,0.00610352
3,4,10.0097,-0.00183105,0.000610352,-2.42531,0.0559862,-0.0744527,0.0550435,0.0718859,-0.090705,0.146234,-0.127292,-0.0813497,0.0155258,0.0602722,0.0431061,0.0135422,0.0189972,0.0094223,0.0250244,-0.0224686,-9.97986,0.0131989,-0.00442505,0.0133133,0.0208664,0.0177383,-0.00793457,0.0162125,0.00930786
3,5,10.0097,0.000610352,-0.00106812,-2.42684,0.0553758,-0.075063,0.0535176,0.04442,-0.0949775,0.145013,-0.126682,-0.0819601,0.0128174,0.0458145,0.0508118,0.0162125,0.0186539,0.00972748,0.0198364,-0.0273895,-9.97986,0.0105667,-0.00350952,0.0165176,0.0207138,0.0191116,-0.0125504,0.0170517,0.00774384
3,6,8.59303,0.000610352,-0.00152588,-2.42562,0.0569017,-0.0747579,0.0513814,0.0459459,-0.0925361,0.147149,-0.126377,-0.0810445,0.0129318,0.0478745,0.0552368,0.0116348,0.0207138,0.00900269,0.0209045,-0.0105286,-9.97986,0.0123978,-0.00480652,0.0138092,0.0186157,0.0175095,-0.012207,0.013237,0.00740051
3,7,7.49776,0.00152588,-0.000610352,-2.42623,0.0559862,-0.075063,0.0538228,0.0544908,-0.0919257,0.145624,-0.126682,-0.0819601,0.010376,0.0699234,0.0438309,0.00087738,0.0189972,0.00854492,0.0185394,0.00701904,-9.97986,0.0104523,0.000724792,0.0124359,0.0164413,0.0166321,-0.0063324,0.016098,0.00453949
3,8,7.36867,-0.000305176,-0.000305176,-2.42653,0.0559862,-0.0729268,0.0538228,0.065172,-0.0925361,0.146234,-0.124851,-0.0828756,0.00759125,0.0717163,0.0316238,0.00350952,0.0172806,0.00984192,0.0213623,0.0118256,-9.97986,0.0143814,-0.00160217,0.0168228,0.0172043,0.0161743,-0.00896454,0.0170517,0.00778198
3,9,7.68727,0.000610352,0.000152588,-2.42714,0.0547655,-0.0747579,0.0574849,0.0734117,-0.0913154,0.144098,-0.126377,-0.0825704,0.00804901,0.0606918,0.0278473,0.00614166,0.0172424,0.00766754,0.0182343,0.014801,-9.97986,0.0173187,0.00232697,0.014267,0.0148773,0.0134659,-0.00427246,0.0165558,0.00541687
4,0,9.58486,0.0012207,0.0012207,-2.42531,0.055681,-0.0756734,0.0556539,0.0990465,-0.0894843,0.144708,-0.124851,-0.0831808,0.00587463,0.0539017,0.0217819,-0.00133514,0.0229645,0.00972748,0.0144958,0.0129318,-9.97986,0.0165558,-0.000801086,0.0150681,0.0143051,0.0187683,-0.00774384,0.0205994,0.00671387
4,1,10.0097,-0.000915527,0.00106812,-2.42989,0.0544603,-0.0762837,0.0529073,0.0917223,-0.0943672,0.141961,-0.125766,-0.0865377,0.00862122,0.03685,0.000915527,-0.00118256,0.0170517,0.00793457,0.0192261,0.0094223,-9.97986,0.0175858,-0.00377655,0.0167847,0.00991821,0.0121307,-0.00492096,0.0194168,0.00583649
4,2,10.0097,0.000915527,0.000305176,-2.42867,0.0535448,-0.0756734,0.04894,0.0767687,-0.095893,0.141961,-0.126682,-0.0871481,0.00854492,-0.0110245,-0.0120544,-0.00175476,0.0157547,0.0104141,0.0202942,0.0082016,-9.97986,0.0208664,0.000343323,0.013504,0.0101471,0.0194168,-0.00495911,0.0151443,0.00587463
4,3,10.0097,0.00152588,-0.000305176,-2.42867,0.0535448,-0.0753682,0.0519917,0.0724962,-0.095893,0.142877,-0.128513,-0.0871481,0.00450134,-0.0349426,-0.01194,-0.00556946,0.0143814,0.0117874,0.0198746,0.00797272,-9.97986,0.0229263,0.000534058,0.0136185,0.0103378,0.0167084,0.000648499,0.0178909,0.00858307
4,4,10.0097,0.0012207,-0.000610352,-2.42959,0.0544603,-0.0741475,0.0516866,0.0691393,-0.0961982,0.143487,-0.128208,-0.0868429,0.0122452,-0.0245667,-0.0069046,-0.00450134,0.0154114,0.0133896,0.0260925,0.00934601,-9.97986,0.0195313,0.000534058,0.0168228,0.00576019,0.021286,-0.00217438,0.0196457,0.00808716
4,5,10.0097,-0.000610352,-0.000610352,-2.42959,0.0532396,-0.0768941,0.0477193,0.0691393,-0.0949775,0.144098,-0.127292,-0.0871481,0.00919342,-0.00347137,-0.00915527,-0.00339508,0.0196457,0.013504,0.0230789,0.00514984,-9.97986,0.0193787,0.00614166,0.0137711,0.00740051,0.0195313,-0.00366211,0.016098,0.00972748
4,6,10.0097,0.00244141,-0.000457764,-2.42867,0.0553758,-0.0753682,0.0535176,0.07036,-0.0952827,0.143792,-0.127598,-0.0859274,0.0103378,0.00217438,-0.0138092,0.00823975,0.0188828,0.0114822,0.0188828,0.00518799,-9.97986,0.0196457,0.00164032,0.0141907,0.00411987,0.0178146,-0.00835419,0.018425,0.00614166
4,7,10.0097,0.00152588,0,-2.42837,0.0541551,-0.075063,0.0532125,0.0694445,-0.0934516,0.143487,-0.126682,-0.0850118,0.014534,-0.00236511,-0.00408173,0.0101089,0.0168991,0.0159454,0.0214386,0.00965118,-9.97986,0.0180435,0.0019455,0.0123978,0.0043869,0.0151825,-0.00804901,0.018959,0.00541687
4,8,10.0097,-0.000915527,-0.000305176,-2.42745,0.0553758,-0.0759786,0.050771,0.07036,-0.0928413,0.145318,-0.125461,-0.0844015,0.0120544,-0.00514984,-0.00274658,0.0094223,0.0188828,0.0132751,0.0208282,0.0152969,-9.97986,0.0221634,-0.000915527,0.018425,0.00602722,0.018425,0.000801086,0.0178909,0.00591278
4,9,10.0097,0.000610352,0,-2.42653,0.0550706,-0.0753682,0.0535176,0.0691393,-0.0943672,0.145013,-0.124546,-0.0834859,0.00881195,-0.000915527,-0.0104904,0.0209808,0.0145721,0.0105286,0.0203323,0.0108337,-9.97986,0.0214005,-0.00247955,0.0161743,0.001297,0.0242233,0.00484467,0.0208282,0.00785828
5,0,10.0097,0.000610352,0.000152588,-2.42592,0.0562914,-0.0744527,0.0544332,0.0706652,-0.0928413,0.146844,-0.125766,-0.0816549,0.0126648,-0.00038147,-0.00667572,0.0268936,0.0180054,0.0151062,0.0238419,0.0194168,-9.97986,0.0143433,0,0.0152969,-0.000419617,0.018692,0.00610352,0.0166702,0.00865936
5,1,10.0097,0.00152588,0,-2.42562,0.0562914,-0.0735371,0.054128,0.0715807,-0.0937568,0.147455,-0.124241,-0.0819601,0.0149155,0.00537872,0.00720978,0.0222778,0.0203705,0.0132751,0.0204086,0.0187683,-9.97986,0.0154495,0.000991821,0.0128937,-0.00404358,0.0121307,0.00621796,0.0177765,0.00537872
5,2,10.0097,-0.000610352,0.000305176,-2.42592,0.0559862,-0.0735371,0.0547383,0.0706652,-0.0913154,0.147149,-0.124241,-0.0816549,0.0107956,0.00862122,0.00621796,0.0143814,0.0191116,0.0140381,0.0199127,0.013237,-9.97986,0.0156403,-0.000305176,0.00980377,-0.00389099,0.0166702,0.00705719,0.0201416,0.00431061
5,3,10.0097,0,-0.000305176,-2.4247,0.0559862,-0.0738423,0.054128,0.07036,-0.0925361,0.146539,-0.124546,-0.0819601,0.0111389,0.0144958,0.0117874,0.0125885,0.0201035,0.0135803,0.0162888,0.0125885,-9.97986,0.0136185,-0.00282288,0.0113297,-0.00118256,0.019722,0.010376,0.0241852,0.00442505
5,4,10.0097,0.000915527,0.000152588,-2.42562,0.0569017,-0.0738423,0.054128,0.0718859,-0.0903999,0.14776,-0.124241,-0.0810445,0.0174332,0.00915527,0.0123215,0.0115204,0.0161362,0.0132751,0.0194931,0.015564,-9.97986,0.0160599,0.00087738,0.0136185,-0.00541687,0.0198746,0.0138474,0.022316,0.00873566
5,5,10.0097,0.000305176,-0.000610352,-2.42714,0.0559862,-0.0738423,0.0529073,0.0441149,-0.0952827,0.146234,-0.125461,-0.0822652,0.0125885,0.0143814,0.0113678,0.00995636,0.0151443,0.0125885,0.0198364,0.0143051,-9.97986,0.017128,0.00328064,0.0138092,-0.00164032,0.0175095,0.0148392,0.019989,0.00469208
5,6,8.48653,-0.000915527,-0.00289917,-2.42592,0.0553758,-0.0744527,0.054128,0.0459459,-0.094062,0.146234,-0.125766,-0.0810445,0.011673,0.022583,0.0118256,0.0134659,0.0133133,0.0190353,0.0231171,0.0174332,-9.97986,0.0159454,0.000991821,0.0100708,-0.00576019,0.0156403,0.016861,0.0201416,0.00576019
5,7,7.40163,-0.000915527,-0.000610352,-2.42562,0.055681,-0.0747579,0.054128,0.054796,-0.0922309,0.145624,-0.126072,-0.0816549,0.0102615,0.0170517,0.0148773,0.0121307,0.0180817,0.0156021,0.0216675,0.0206757,-9.97986,0.0167084,0.00144958,0.0121689,-0.00759125,0.0203705,0.0232697,0.0190735,0.00785828
5,8,7.25331,0.000915527,-0.000152588,-2.42653,0.0569017,-0.0747579,0.0532125,0.0648668,-0.0925361,0.145013,-0.125766,-0.0822652,0.0108719,0.0151062,0.0166702,0.0100327,0.016098,0.0114441,0.019455,0.0164795,-9.97986,0.0165939,0.00259399,0.0134277,-0.00286102,0.0188828,0.0271225,0.02285,0.00915527
5,9,7.56459,0.00152588,0,-2.42562,0.0562914,-0.0747579,0.0553487,0.0746324,-0.0916206,0.145624,-0.125156,-0.0834859,0.0157547,0.0167084,0.0200653,0.0104141,0.0185394,0.0157166,0.0231552,0.0201416,-9.97986,0.0143051,0.000228882,0.0154877,-0.00591278,0.0174332,0.0179291,0.0187683,0.00663757
6,0,9.40084,0.000915527,0.00106812,-2.42592,0.0544603,-0.0747579,0.0547383,0.0987413,-0.0900947,0.145624,-0.124546,-0.0831808,0.01194,0.019722,0.0167084,0.0069809,0.0191116,0.0167084,0.0213242,0.0157547,-9.97986,0.0155258,0.00236511,0.0135422,-0.00465393,0.0153351,0.0172806,0.0199509,0.00850677
6,1,10.0097,-0.000305176,0.000915527,-2.42959,0.0544603,-0.0756734,0.0526021,0.092943,-0.0931465,0.142877,-0.126072,-0.0874532,0.0143433,0.0226593,0.0194931,0.00907898,0.0145721,0.0175476,0.0212479,0.0165176,-9.97986,0.0154877,-0.000152588,0.0105286,-0.00888824,0.010643,0.00862122,0.0185394,0.00671387
6,2,10.0097,0.0012207,0.000457764,-2.42898,0.0541551,-0.0765889,0.0513814,0.0776842,-0.0952827,0.142877,-0.126682,-0.0862325,0.0130463,0.0223541,0.0186157,0.0056076,0.0174332,0.0130081,0.0227737,0.0233841,-9.97986,0.0184631,0.00263214,0.0146103,-0.0063324,0.0130844,0.00411987,0.0189209,0.0094223
6,3,10.0097,0,-0.000457764,-2.42959,0.0547655,-0.0759786,0.0519917,0.0715807,-0.0961982,0.143487,-0.127292,-0.0865377,0.00869751,0.021553,0.0213623,0.00812531,0.0135803,0.0160217,0.0174332,0.0203705,-9.97986,0.0159454,-0.000343323,0.0131226,-0.00480652,0.0146103,-0.00286102,0.014534,0.00728607
6,4,10.0097,0.000610352,0.000152588,-2.4302,0.0535448,-0.0762837,0.0529073,0.0712755,-0.0946723,0.144098,-0.128208,-0.0874532,0.0120926,0.0286102,0.0209427,0.00816345,0.0141144,0.0165939,0.0173569,0.0211334,-9.97986,0.0177002,0.000762939,0.00896454,-0.0044632,0.0140381,-0.00236511,0.0191116,0.0125885
6,5,10.0097,0.00213623,-0.000457764,-2.42776,0.0529344,-0.0753682,0.0516866,0.0691393,-0.0937568,0.143487,-0.128513,-0.0877584,0.00831604,0.0268936,0.0205231,0.00602722,0.0130844,0.0146484,0.0171661,0.0218201,-9.97986,0.0154495,-0.000152588,0.0101471,-0.00953674,0.0106812,-0.00427246,0.0157547,0.00579834
6,6,10.0097,0.000915527,-0.000457764,-2.42867,0.0541551,-0.0762837,0.0522969,0.0685289,-0.0943672,0.143792,-0.127292,-0.0874532,0.00934601,0.0275421,0.0247574,0.00534058,0.0167465,0.0148773,0.0188065,0.0226974,-9.97986,0.0141907,7.62939e-005,0.0100327,-0.00804901,0.0114441,-0.00537872,0.0159454,0.00576019
6,7,10.0097,0.00183105,0,-2.42837,0.0544603,-0.075063,0.0532125,0.0697496,-0.094062,0.144403,-0.126682,-0.085317,0.0105286,0.0301361,0.0232697,0.00629425,0.0130081,0.0170517,0.0228882,0.0218201,-9.97986,0.0146484,0.00167847,0.0138092,-0.00900269,0.0150299,-0.00137329,0.022583,0.0087738
6,8,10.0097,-0.000305176,0.000305176,-2.42653,0.0559862,-0.0753682,0.0532125,0.0682238,-0.0931465,0.144098,-0.126987,-0.0847066,0.010376,0.0296783,0.020256,0.00530243,0.0189972,0.0159073,0.0144577,0.02388,-9.97986,0.0129318,-0.00495911,0.0145721,-0.00995636,0.0124359,0.00465393,0.0201035,0.00713348
6,9,10.0097,0.00152588,0,-2.42684,0.055681,-0.0747579,0.054128,0.07036,-0.0943672,0.145318,-0.125461,-0.0840963,0.0107574,0.0283432,0.0237274,0.00862122,0.0137711,0.0144958,0.013237,0.0264359,-9.97986,0.01297,-0.00167847,0.0161743,-0.0122833,0.0124741,0.00534058,0.0162888,0.00778198
7,0,10.0097,0.000610352,0.000305176,-2.42562,0.055681,-0.0744527,0.054128,0.07036,-0.0922309,0.146844,-0.125766,-0.0816549,0.00862122,0.0279236,0.0296402,0.00827789,0.0188828,0.0199127,0.0168228,0.0236893,-9.97986,0.0146103,-0.00156403,0.00991821,-0.00617981,0.0116348,0.00751495,0.0192642,0.00591278
7,1,10.0097,0,-0.000915527,-2.4244,0.0562914,-0.0744527,0.0544332,0.0715807,-0.0913154,0.146539,-0.123935,-0.0822652,0.0104141,0.0308228,0.029068,0.00812531,0.0170898,0.0126266,0.0120926,0.0216293,-9.97986,0.0124741,-0.00331879,0.0138474,-0.00804901,0.0131226,0.0110626,0.0175476,0.00789642
7,2,10.0097,0.00183105,-0.000152588,-2.42501,0.0569017,-0.0735371,0.0550435,0.0709703,-0.0928413,0.145929,-0.124241,-0.0810445,0.0122452,0.0304031,0.028038,0.00801086,0.0131607,0.0131607,0.0140762,0.0191879,-9.97986,0.0138855,-0.00236511,0.0157166,-0.0139999,0.0137329,0.00217438,0.0178146,0.00476837
7,3,10.0097,0.00152588,0,-2.42562,0.0569017,-0.0747579,0.054128,0.0709703,-0.090705,0.146234,-0.123935,-0.0816549,0.00961304,0.0313568,0.0279999,0.00537872,0.0154114,0.0193405,0.0176239,0.0203705,-9.97986,0.0104904,-0.00160217,0.0143814,-0.0115585,0.0170135,-0.00335693,0.0180817,0.00534058
7,4,10.0097,0.00183105,0.000305176,-2.42531,0.0569017,-0.073232,0.0550435,0.0724962,-0.0916206,0.146844,-0.123935,-0.0813497,0.00827789,0.0275421,0.0309372,0.00614166,0.0150299,0.0117493,0.0215912,0.0180054,-9.97986,0.0131989,0.00137329,0.0160217,-0.00705719,0.0156784,-0.00499725,0.0177002,0.00583649
7,5,10.0097,0.000610352,-0.000610352,-2.42623,0.0562914,-0.0744527,0.054128,0.0438097,-0.0943672,0.145929,-0.126987,-0.0822652,0.00934601,0.0317001,0.0292969,0.00831604,0.0140762,0.0161743,0.0242615,0.0219727,-9.97986,0.0117874,-0.00114441,0.013504,-0.00328064,0.0104523,-0.00507355,0.0173569,0.00484467
7,6,8.43648,-0.000305176,-0.00213623,-2.42562,0.0569017,-0.073232,0.0544332,0.0465563,-0.0934516,0.146234,-0.126377,-0.0819601,0.0124741,0.029335,0.0283813,0.00774384,0.0143814,0.0130463,0.0287247,0.0180817,-9.97986,0.00831604,0.001297,0.0110626,-0.00705719,0.00743866,-0.00572205,0.0153351,0.00644684
7,7,7.34029,0.000915527,-0.000457764,-2.42684,0.0559862,-0.0741475,0.054128,0.0551012,-0.0925361,0.146234,-0.126377,-0.0831808,0.0163269,0.0283813,0.0329208,0.00988007,0.0149155,0.0152588,0.0284195,0.0177002,-9.97986,0.0102615,-0.00087738,0.0127411,-0.00812531,0.0139236,-0.00362396,0.0178528,0.00728607
7,8,7.20143,-0.000305176,0.000152588,-2.42623,0.0562914,-0.0747579,0.0538228,0.0648668,-0.0919257,0.145624,-0.126072,-0.0828756,0.0128555,0.0352478,0.0305176,0.00904083,0.0147247,0.0204849,0.0252914,0.0210571,-9.97986,0.00637054,-0.00247955,0.0152588,-0.00747681,0.0131607,-0.0043869,0.018158,0.00770569
7,9,7.52767,0.000305176,-0.000305176,-2.42623,0.0553758,-0.0747579,0.0544332,0.0743273,-0.0919257,0.146234,-0.125766,-0.0825704,0.0101089,0.0287247,0.0284576,0.00705719,0.0168991,0.0139236,0.0305939,0.0216675,-9.97986,0.0110245,0.000267029,0.0111008,-0.00717163,0.0148773,-0.00881195,0.0176239,0.0031662
8,0,9.42189,0.000305176,0.000610352,-2.42745,0.0550706,-0.0756734,0.0547383,0.0987413,-0.0900947,0.144403,-0.124546,-0.0834859,0.0106049,0.0336838,0.0243759,0.00232697,0.0154877,0.0148773,0.021286,0.0233459,-9.97986,0.00984192,-0.00148773,0.0126648,-0.00682831,0.0164413,-0.00652313,0.015564,0.000991821
8,1,10.0097,0.000305176,0.00152588,-2.42928,0.0541551,-0.075063,0.0513814,0.0908068,-0.0952827,0.142877,-0.126377,-0.085317,0.0149536,0.0333405,0.026207,0.00751495,0.0157166,0.0175095,0.022583,0.0223541,-9.97986,0.0144196,-0.000839233,0.0122452,-0.00431061,0.0141525,-0.00457764,0.0164032,0.00442505
8,2,10.0097,-0.00213623,0.000152588,-2.42928,0.0541551,-0.0759786,0.0516866,0.0776842,-0.0943672,0.143487,-0.127292,-0.0865377,0.0106049,0.031395,0.0163651,0.0082016,0.0111389,0.0127029,0.0217056,0.0201416,-9.97986,0.0141907,0.000762939,0.0129318,-0.00854492,0.0175476,-0.00228882,0.0161362,0.00267029
8,3,10.0097,-0.000305176,0.000305176,-2.42959,0.0544603,-0.0747579,0.0526021,0.0715807,-0.0949775,0.143182,-0.126987,-0.0868429,0.00938416,0.0355148,0.0191879,0.00553131,0.0143814,0.0154877,0.0250626,0.0247955,-9.97986,0.0124359,0.00461578,0.0108337,-0.00637054,0.0173569,-0.00106812,0.0166702,0.00370026
8,4,10.0097,-0.000610352,-0.000152588,-2.42867,0.0541551,-0.0762837,0.0526021,0.0700548,-0.0955879,0.143487,-0.127598,-0.0874532,0.010643,0.0304031,0.0254059,0.00782013,0.0135422,0.0152588,0.0219345,0.0281525,-9.97986,0.0165939,0.00305176,0.0157166,-0.0075531,0.0118637,-0.00228882,0.0194931,0.00839233
8,5,10.0097,0.000610352,0.000152588,-2.42928,0.0538499,-0.0762837,0.0522969,0.0706652,-0.0949775,0.143792,-0.126682,-0.0865377,0.00785828,0.0347137,0.0250626,0.0131607,0.0159073,0.0116348,0.0254822,0.0214386,-9.97986,0.0157547,-0.000228882,0.0131226,-0.00598907,0.0189209,-0.00404358,0.021286,0.00656128
8,6,10.0097,-0.0012207,0,-2.42867,0.0535448,-0.0756734,0.0535176,0.07036,-0.094062,0.143182,-0.126377,-0.0865377,0.0124359,0.0363922,0.0279617,0.0114441,0.0131226,0.0150681,0.0251389,0.0230789,-9.97986,0.0125504,0.00221252,0.0121307,-0.00370026,0.0115204,-0.00602722,0.0191116,0.00087738
8,7,10.0097,-0.0012207,-0.000305176,-2.42745,0.0553758,-0.0753682,0.0532125,0.0694445,-0.0943672,0.144708,-0.126072,-0.085317,0.0088501,0.0367737,0.0279617,0.00934601,0.0152969,0.0157547,0.0235748,0.0222778,-9.97986,0.0105667,-0.000724792,0.0168228,-0.00579834,0.0191879,-0.00934601,0.0178528,0.00499725
8,8,10.0097,0.000305176,0.000610352,-2.42653,0.0535448,-0.075063,0.0529073,0.0697496,-0.0934516,0.145013,-0.125766,-0.085317,0.00843048,0.0354767,0.0234222,0.0106049,0.0125504,0.0167847,0.0260544,0.0193024,-9.97986,0.0141907,0.000724792,0.0133133,-0.00427246,0.0164032,-0.00839233,0.0194931,0.00389099
8,9,10.0097,-0.000305176,0.000305176,-2.42684,0.0547655,-0.0744527,0.0535176,0.0700548,-0.0931465,0.145624,-0.126072,-0.0837911,0.00900269,0.0316238,0.0285721,0.00896454,0.0144958,0.0125885,0.0232315,0.0168228,-9.97986,0.0118637,0.00328064,0.0128937,-0.00602722,0.0138855,-0.00492096,0.0194931,0.00419617
9,0,10.0097,-0.00152588,0.000152588,-2.4247,0.0562914,-0.0744527,0.0550435,0.0700548,-0.0931465,0.145624,-0.126377,-0.0822652,0.0108337,0.0344086,0.0241852,0.00850677,0.0115585,0.0125885,0.0221252,0.0157928,-9.97986,0.0131607,0.00198364,0.0164795,-0.00114441,0.0152588,-0.00640869,0.018692,0.00648499
9,1,10.0097,0.000915527,0.000610352,-2.42592,0.0553758,-0.0738423,0.0532125,0.07036,-0.0928413,0.146234,-0.123935,-0.0810445,0.0113678,0.0347137,0.0178909,0.0107574,0.0182343,0.0136185,0.0206375,0.018425,-9.97986,0.0157547,0.00583649,0.0165176,0.000724792,0.0163269,-0.00598907,0.0188446,0.00514984
9,2,10.0097,-0.000305176,0.000457764,-2.42562,0.055681,-0.0735371,0.0553487,0.0715807,-0.0916206,0.147455,-0.124241,-0.0807394,0.0120926,0.0347519,0.0169754,0.0109863,0.0165558,0.0140381,0.020752,0.0177002,-9.97986,0.0186539,-0.00297546,0.0140381,-0.00293732,0.0170517,-0.00518799,0.021553,0.00724792
9,3,10.0097,0.00152588,0.000305176,-2.42623,0.0569017,-0.0741475,0.0550435,0.07036,-0.0913154,0.146844,-0.12363,-0.0819601,0.0107193,0.0309372,0.0185776,0.0108719,0.0136566,0.00930786,0.0238037,0.0167084,-9.97986,0.0215149,-0.00507355,0.0127411,-0.000572205,0.0205994,-0.00171661,0.0207138,0.00431061
9,4,10.0097,0.000610352,0.000152588,-2.42501,0.0562914,-0.073232,0.054128,0.0718859,-0.0903999,0.146234,-0.123935,-0.0810445,0.0119781,0.0279999,0.0174713,0.016098,0.0125122,0.010643,0.0226593,0.0165558,-9.97986,0.01297,-0.00411987,0.0134659,-0.0012207,0.0204468,-0.00102997,0.0203705,0.00720978
9,5,10.0097,0.000305176,-0.000915527,-2.42592,0.0553758,-0.0738423,0.054128,0.0450304,-0.0946723,0.146234,-0.126072,-0.0813497,0.0114059,0.0259399,0.0157547,0.0124359,0.0143814,0.00976563,0.0214005,0.0205231,-9.97986,0.0124741,-0.000610352,0.0146866,-0.000305176,0.0220871,-0.00347137,0.0246429,0.00801086
9,6,8.42793,0.00152588,-0.000762939,-2.42531,0.0575121,-0.0753682,0.0547383,0.0447252,-0.0934516,0.146844,-0.126377,-0.0822652,0.00980377,0.0159073,0.0189209,0.0149155,0.0148392,0.00823975,0.0201797,0.0170898,-9.97986,0.0156021,-0.000839233,0.0154877,0.00320435,0.0162506,-0.00511169,0.0211334,0.00728607
9,7,7.36287,0.000610352,-0.000915527,-2.42653,0.0547655,-0.0738423,0.054128,0.0563219,-0.0931465,0.146234,-0.125766,-0.0831808,0.0139999,0.0141144,0.0197601,0.0139999,0.0122833,0.0121307,0.025444,0.0196075,-9.97986,0.0141525,-0.000762939,0.0140381,-7.62939e-005,0.0165558,-0.00247955,0.0225067,0.00827789
9,8,7.20174,0.000610352,-0.000457764,-2.42684,0.0565965,-0.0747579,0.0547383,0.0645616,-0.0922309,0.146539,-0.125461,-0.0831808,0.00980377,0.018692,0.0219345,0.0143051,0.0108337,0.0130844,0.0260544,0.0185394,-9.97986,0.0157547,-0.00366211,0.0149536,0.00190735,0.0171661,-0.00747681,0.0195313,0.0062561
9,9,7.55635,0.00152588,0.000152588,-2.42684,0.0562914,-0.0747579,0.0547383,0.0737169,-0.0919257,0.144403,-0.125461,-0.0825704,0.0137329,0.0221634,0.0220108,0.0136185,0.0112915,0.010376,0.0202942,0.0231171,-9.97986,0.0165939,-0.00366211,0.0134659,0.00286102,0.0185013,-0.00549316,0.0248337,0.00778198
10,0,9.40053,-0.000610352,0.00152588,-2.42684,0.0550706,-0.0756734,0.0547383,0.0984362,-0.0903999,0.145013,-0.124546,-0.0837911,0.0125504,0.022049,0.0188065,0.01091,0.0154877,0.00995636,0.018692,0.0214005,-9.97986,0.0154877,-0.00225067,0.0156021,0.00190735,0.019989,-0.00759125,0.0198746,0.00816345
10,1,10.0097,0.00183105,0.00183105,-2.42898,0.0541551,-0.0765889,0.0522969,0.0923326,-0.0946723,0.142572,-0.126377,-0.0862325,0.015831,0.0247574,0.019989,0.0136948,0.0145721,0.00686646,0.019722,0.0168228,-9.97986,0.0164032,-0.00350952,0.0151825,-0.00255585,0.0202179,-0.00720978,0.0216293,0.00770569
10,2,10.0097,-0.00183105,0,-2.4302,0.0538499,-0.0756734,0.0504659,0.0764635,-0.0955879,0.144098,-0.126072,-0.0862325,0.0131226,0.0221252,0.0187302,0.0125122,0.0115967,0.00904083,0.0217056,0.0207138,-9.97986,0.0135803,-0.0062561,0.0106812,-0.00347137,0.0164032,-0.0050354,0.021019,0.00598907
10,3,10.0097,0.000305176,-0.000305176,-2.42776,0.0547655,-0.0762837,0.0532125,0.0718859,-0.0952827,0.143487,-0.127292,-0.0868429,0.0134277,0.0249481,0.0207138,0.0141144,0.0136948,0.0122452,0.0231552,0.0204468,-9.97986,0.0139618,-0.00247955,0.0146866,-0.00453949,0.0177383,-0.00118256,0.0224686,0.00846863
10,4,10.0097,0.000610352,0.000152588,-2.42989,0.0541551,-0.0765889,0.0519917,0.0700548,-0.0943672,0.143487,-0.127598,-0.0874532,0.0142288,0.0245667,0.0230026,0.0148773,0.013504,0.00930786,0.0199509,0.0195694,-9.97986,0.0213242,-0.00232697,0.0123978,-0.00350952,0.0131607,-0.00114441,0.0222778,0.00854492
10,5,10.0097,0.000305176,-0.000610352,-2.42898,0.0538499,-0.0759786,0.0516866,0.0694445,-0.0946723,0.142877,-0.126682,-0.0862325,0.0136948,0.0217819,0.0219345,0.0113678,0.0159836,0.00411987,0.0233841,0.0207901,-9.97986,0.0146866,-0.00205994,0.0172424,-0.000724792,0.0168228,-0.00144958,0.020752,0.00797272
10,6,10.0097,-0.000305176,-0.000915527,-2.42776,0.0538499,-0.0753682,0.0522969,0.0697496,-0.094062,0.143487,-0.126987,-0.085317,0.0115204,0.0204849,0.0211334,0.0127029,0.0164032,0.00732422,0.0223541,0.0197601,-9.97986,0.0156021,-0.00282288,0.0117111,-0.00679016,0.0136185,-0.00320435,0.0213623,0.00965118
10,7,10.0097,0.000305176,-0.000610352,-2.42745,0.0544603,-0.0762837,0.0529073,0.0691393,-0.094062,0.143792,-0.126682,-0.0856222,0.0124359,0.0225449,0.0230789,0.0126266,0.0152206,0.0123215,0.0222778,0.0288391,-9.97986,0.0179672,0.000724792,0.0181961,-0.00148773,0.0135803,-0.00225067,0.0254059,0.0088501
10,8,10.0097,0.00152588,-0.000152588,-2.42745,0.0559862,-0.0747579,0.0538228,0.0706652,-0.0934516,0.145318,-0.125461,-0.0844015,0.00827789,0.0196075,0.0196075,0.0139236,0.0157928,0.00873566,0.0232315,0.0270081,-9.97986,0.0148392,7.62939e-005,0.0181961,0.00114441,0.0150299,-0.00652313,0.0242615,0.0103378
10,9,10.0097,0.000305176,0,-2.42776,0.0535448,-0.075063,0.0535176,0.0697496,-0.0919257,0.145318,-0.126072,-0.0847066,0.0117111,0.0204849,0.0244904,0.0114441,0.0157928,0.00747681,0.0207138,0.0243378,-9.97986,0.0156021,-0.000228882,0.0175476,-0.000762939,0.0164032,-0.00926971,0.0201797,0.00648499
11,0,10.0097,0.000305176,-0.000305176,-2.42684,0.0565965,-0.0735371,0.0544332,0.0700548,-0.0931465,0.144708,-0.125461,-0.0819601,0.0113297,0.0188446,0.0201035,0.0108337,0.0131607,0.00614166,0.0231934,0.0178909,-9.97986,0.0197983,0.00259399,0.0175476,-0.000267029,0.0177383,-0.00656128,0.0233459,0.00286102
11,1,10.0097,0,-0.000152588,-2.42531,0.0562914,-0.0738423,0.0550435,0.0718859,-0.0925361,0.146234,-0.123935,-0.0810445,0.011673,0.0242996,0.0189972,0.0124359,0.0185394,0.00972748,0.0201035,0.0148392,-9.97986,0.0135803,-0.0037384,0.0119019,-0.00553131,0.015564,-0.00938416,0.0198746,0.00720978
11,2,10.0097,0.000305176,0.000762939,-2.42592,0.0569017,-0.0738423,0.0550435,0.0709703,-0.0913154,0.146539,-0.123935,-0.0807394,0.0135803,0.0217056,0.0203323,0.0131989,0.0166702,0.0111008,0.0202942,0.0125122,-9.97986,0.0127792,-0.000457764,0.0147247,-0.00347137,0.0173569,-0.00854492,0.0165558,0.00556946
11,3,10.0097,0.00152588,0.000305176,-2.42745,0.0559862,-0.0741475,0.0544332,0.0709703,-0.0900947,0.147455,-0.124546,-0.0816549,0.01297,0.0191879,0.0196075,0.0105667,0.0170898,0.00797272,0.0200272,0.0153351,-9.97986,0.0166321,-0.00255585,0.0153732,-0.00198364,0.0172043,-0.00400543,0.0204086,0.00484467
11,4,10.0097,0.00213623,0.000457764,-2.4244,0.0569017,-0.0741475,0.0565694,0.0709703,-0.0922309,0.146234,-0.124851,-0.080129,0.0130081,0.0168228,0.0191498,0.0136566,0.0217438,0.00984192,0.0179672,0.0238419,-9.97986,0.0150681,-0.00453949,0.0170517,-0.0037384,0.0111008,-0.00713348,0.0209427,0.00667572
11,5,10.0097,0,-0.000610352,-2.4247,0.0569017,-0.0756734,0.0535176,0.0435045,-0.0952827,0.145318,-0.126072,-0.0834859,0.0148392,0.0192261,0.0183868,0.0135422,0.0176239,0.00537872,0.0187683,0.0202179,-9.97986,0.0124359,-0.0030899,0.0114441,-0.00770569,0.0130463,-0.0119019,0.0164795,0.00602722
11,6,8.49538,0.000915527,-0.000457764,-2.42684,0.0562914,-0.0744527,0.0538228,0.047777,-0.0934516,0.146539,-0.125766,-0.0822652,0.0075531,0.018158,0.0220108,0.00980377,0.0203323,0.00793457,0.0178909,0.0162888,-9.97986,0.0124741,-0.000648499,0.0118637,-0.00305176,0.0165176,-0.00782013,0.0133133,0.00576019
11,7,7.4355,0.000305176,-0.000915527,-2.42592,0.0559862,-0.0738423,0.0544332,0.0596788,-0.0928413,0.146234,-0.126072,-0.0825704,0.00812531,0.016098,0.0166321,0.0125885,0.0183868,0.0114441,0.0184631,0.0189209,-9.97986,0.0175858,-0.0019455,0.0167465,-0.00286102,0.0175858,-0.0082016,0.0161362,0.00812531
11,8,7.31008,0,0,-2.42653,0.0544603,-0.0759786,0.0544332,0.0654772,-0.0916206,0.145318,-0.125461,-0.0825704,0.00728607,0.0161743,0.0138855,0.0141525,0.0209427,0.0101471,0.0218201,0.0185394,-9.97986,0.0152206,-0.00484467,0.0134659,-0.00377655,0.0169373,-0.00789642,0.0161743,0.00595093
11,9,7.61159,0.000915527,0.000305176,-2.42745,0.0553758,-0.075063,0.054128,0.0731066,-0.0919257,0.145624,-0.125766,-0.0831808,0.00270844,0.0177765,0.0167084,0.0138474,0.019989,0.00923157,0.0194168,0.0131226,-9.97986,0.0137711,-0.001297,0.0126648,-0.00320435,0.0157166,-0.00797272,0.0170517,0.00785828
12,0,9.44753,-0.000610352,0.00106812,-2.42776,0.0550706,-0.0747579,0.0544332,0.0984362,-0.0891792,0.145013,-0.124241,-0.0831808,0.000267029,0.0199127,0.0157928,0.0167465,0.018692,0.00743866,0.0186157,0.0101471,-9.97986,0.0154877,-0.00137329,0.0169373,-0.00473022,0.0136948,-0.00957489,0.018425,0.00759125
12,1,10.0097,-0.00213623,0.000915527,-2.42837,0.0538499,-0.0753682,0.0522969,0.0917223,-0.0931465,0.144403,-0.125156,-0.0859274,0.00366211,0.017128,0.018158,0.0138092,0.0205231,0.00873566,0.0208664,0.0121689,-9.97986,0.0164413,-0.00221252,0.00720978,-0.00389099,0.0152588,-0.00556946,0.0139236,0.00762939
12,2,10.0097,0.000915527,0.000305176,-2.42898,0.0544603,-0.0762837,0.0516866,0.0776842,-0.0965034,0.142877,-0.127292,-0.0871481,0.00232697,0.0186157,0.0163651,0.0119781,0.0212479,0.0104523,0.0203323,0.0247574,-9.97986,0.0133133,-0.00144958,0.0150681,-0.0050354,0.0190353,-0.00339508,0.0130844,0.00797272
12,3,10.0097,0.000915527,0,-2.42959,0.0538499,-0.0765889,0.0516866,0.0770738,-0.0946723,0.143792,-0.127598,-0.0868429,0.00770569,0.0218201,0.0201797,0.0127029,0.0229263,0.0069046,0.0171661,0.0239563,-9.97986,0.0123978,-0.00514984,0.0137329,-0.00671387,0.0184631,-0.00419617,0.0172043,0.00888824
12,4,10.0097,0.00213623,0,-2.42898,0.0538499,-0.0759786,0.0532125,0.07036,-0.0949775,0.143487,-0.127292,-0.0874532,0.012207,0.0207901,0.0188446,0.0110245,0.0209808,0.00843048,0.0195694,0.0208664,-9.97986,0.00923157,-0.00522614,0.0152206,-0.00518799,0.0123978,-0.00160217,0.0146866,0.00736237
12,5,10.0097,-0.000610352,-0.000305176,-2.42928,0.0532396,-0.0759786,0.0522969,0.0694445,-0.0949775,0.143792,-0.127292,-0.0871481,0.0163651,0.0207138,0.0178146,0.00576019,0.0191879,0.0115204,0.020256,0.0194931,-9.97986,0.0136948,-0.00305176,0.013504,-0.00335693,0.0174713,-0.00183105,0.0157547,0.00713348
12,6,10.0097,0.000915527,-0.000305176,-2.42837,0.0541551,-0.0753682,0.0529073,0.0749376,-0.0943672,0.145013,-0.126987,-0.0859274,0.016861,0.0195313,0.0180435,0.00423431,0.0187683,0.00534058,0.0203323,0.0126648,-9.97986,0.014267,-0.0038147,0.0158691,-0.00831604,0.0176239,-0.00232697,0.0155258,0.0063324
12,7,10.0097,0.000305176,0.000305176,-2.42867,0.0544603,-0.075063,0.0544332,0.0694445,-0.0922309,0.144403,-0.126377,-0.0862325,0.020752,0.0218201,0.0203323,0.00335693,0.0217438,0.0112152,0.022583,0.0166702,-9.97986,0.0142288,-0.00156403,0.0151062,-0.00286102,0.0164032,0.00236511,0.0166702,0.00759125
12,8,10.0097,0.000610352,0.000152588,-2.42776,0.0553758,-0.0756734,0.0532125,0.0712755,-0.0931465,0.145318,-0.126682,-0.085317,0.0193024,0.0225067,0.0188446,0.000991821,0.0180054,0.00965118,0.0268173,0.0187302,-9.97986,0.0178528,-0.000228882,0.0108337,-0.00900269,0.0227737,-0.00190735,0.0155258,0.0104523
12,9,10.0097,-0.000915527,0.000152588,-2.42745,0.0553758,-0.0753682,0.0544332,0.0663927,-0.0931465,0.144708,-0.126377,-0.0828756,0.0182724,0.0193405,0.0193024,-0.00450134,0.0183868,0.0115204,0.0279999,0.00476837,-9.97986,0.0159073,-0.00202179,0.0144958,-0.00614166,0.0199127,0.00289917,0.016861,0.00843048
13,0,10.0097,-0.00183105,0.000457764,-2.42531,0.0559862,-0.0744527,0.0544332,0.0706652,-0.0916206,0.145624,-0.124851,-0.0822652,0.0199509,0.0218582,0.0213242,-0.0110245,0.0214005,0.0101471,0.0209427,0.00400543,-9.97986,0.0185394,-0.00102997,0.0151825,-0.00598907,0.022049,0.00247955,0.0138092,0.00717163
13,1,10.0097,-0.000915527,-0.000152588,-2.42623,0.0572069,-0.0741475,0.0544332,0.0706652,-0.0903999,0.14776,-0.124546,-0.0816549,0.0120163,0.0148392,0.0203705,-0.00793457,0.0199509,0.00530243,0.02491,0.0162506,-9.97986,0.0154114,-0.00202179,0.00988007,-0.00911713,0.0170135,0.00400543,0.01297,0.00904083
13,2,10.0097,0.000610352,0.000305176,-2.42501,0.0559862,-0.0744527,0.0547383,0.0697496,-0.0903999,0.147149,-0.125156,-0.0804342,0.0123215,0.0232315,0.0204086,-0.000305176,0.0198746,0.0094223,0.0234604,0.0278473,-9.97986,0.0163269,0.000762939,0.0115204,-0.00450134,0.0176239,0.00148773,0.0144958,0.00785828
13,3,10.0097,0.000610352,-0.000610352,-2.4244,0.055681,-0.075063,0.054128,0.0712755,-0.0922309,0.146234,-0.124546,-0.0810445,0.00961304,0.0212479,0.0192261,0.00392914,0.0172424,0.0123215,0.0269699,0.0243759,-9.97986,0.0137711,3.8147e-005,0.0159836,-0.00320435,0.0188828,0.0018692,0.0137711,0.00736237
13,4,10.0097,0,0.000305176,-2.42562,0.0569017,-0.073232,0.0544332,0.072191,-0.0925361,0.14776,-0.123935,-0.0807394,0.00720978,0.0247574,0.018158,0.0225067,0.0207138,0.00667572,0.0232697,0.018692,-9.97986,0.0100327,-0.00263214,0.014267,-0.00782013,0.0198364,0.000724792,0.0142288,0.0043869
13,5,10.0097,-0.00152588,-0.000915527,-2.42501,0.0562914,-0.0735371,0.054128,0.0422838,-0.0946723,0.145929,-0.12363,-0.0819601,0.0113678,0.0202179,0.018158,0.0546265,0.0196457,0.00751495,0.0246048,0.00789642,-9.97986,0.0125122,-0.000343323,0.0133896,-0.00720978,0.0214005,-0.0012207,0.0156403,0.00617981
13,6,8.43923,0.000610352,-0.00183105,-2.42592,0.0562914,-0.0741475,0.0547383,0.0465563,-0.0934516,0.147455,-0.126987,-0.0816549,0.0110626,0.0249481,0.0141144,0.046196,0.0207901,0.00740051,0.0230026,0.00617981,-9.97986,0.00736237,-0.00240326,0.0160217,-0.00728607,0.0195313,-0.000724792,0.0149918,0.00522614
13,7,7.31191,0.0012207,-0.000915527,-2.42562,0.055681,-0.0747579,0.0550435,0.0554064,-0.0922309,0.146539,-0.126377,-0.0816549,0.0104904,0.026207,0.015564,0.0268555,0.0232315,0.00743866,0.0262451,0.00335693,-9.97986,0.012207,0.00549316,0.0160217,-0.00255585,0.020752,-0.000267029,0.0162125,0.00541687
13,8,7.11995,-0.000610352,-0.000152588,-2.42623,0.0559862,-0.0753682,0.054128,0.0654772,-0.0913154,0.145624,-0.125766,-0.0831808,0.00961304,0.0219345,0.0184631,0.0218582,0.0209045,0.0102615,0.02388,0.0114822,-9.97986,0.014801,0.000991821,0.0149536,-0.00564575,0.0194168,0.00343323,0.0192261,0.00610352
13,9,7.42818,0.000305176,0.000457764,-2.42684,0.0562914,-0.0747579,0.0562642,0.0740221,-0.0919257,0.145318,-0.124851,-0.0825704,0.0128937,0.0194168,0.0204086,0.00801086,0.0214005,0.00717163,0.0245285,0.013237,-9.97986,0.0174332,0.00183105,0.0160217,-0.00461578,0.0167465,0.00175476,0.0130463,0.00499725
14,0,9.2986,-0.000305176,0.000457764,-2.42592,0.0547655,-0.075063,0.0529073,0.0990465,-0.0894843,0.144403,-0.12363,-0.0837911,0.00865936,0.0133514,0.0169373,0.00617981,0.0165558,0.00804901,0.0258636,0.022316,-9.97986,0.0138474,-0.00347137,0.013237,-0.00862122,0.018959,0.00232697,0.0156784,0.0062561
14,1,10.0097,0.00152588,0.00198364,-2.42867,0.0535448,-0.0759786,0.0519917,0.0935533,-0.0934516,0.143792,-0.125156,-0.0862325,0.00366211,0.0204849,0.0108337,-0.00137329,0.019722,0.00972748,0.0228882,0.0200272,-9.97986,0.0185013,0.00114441,0.0133514,-0.00511169,0.018692,0.00324249,0.0159836,0.00549316
14,2,10.0097,-0.000305176,0,-2.42959,0.0535448,-0.0759786,0.0516866,0.0776842,-0.0955879,0.144098,-0.126682,-0.0871481,0.00846863,0.0196075,0.0235748,-0.0107574,0.0196838,0.00782013,0.0212097,0.0160217,-9.97986,0.0151062,-0.00720978,0.0113678,-0.00362396,0.0196075,0.00671387,0.0159073,0.00617981
14,3,10.0097,-0.000305176,-0.000610352,-2.42989,0.0541551,-0.0759786,0.0529073,0.0724962,-0.0955879,0.143487,-0.127292,-0.0859274,0.0109482,0.0180435,0.0204468,0.00740051,0.0219345,0.0115204,0.0214767,0.015564,-9.97986,0.014534,-0.0031662,0.00843048,-0.00789642,0.0220108,0.00576019,0.0156784,0.0075531
14,4,10.0097,-0.0012207,-0.000152588,-2.42867,0.0544603,-0.0762837,0.0522969,0.0700548,-0.0946723,0.143792,-0.124851,-0.0868429,0.00930786,0.0194168,0.0165176,0.0207138,0.0203705,0.0056839,0.0218201,0.0137329,-9.97986,0.0157166,0.000915527,0.00991821,-0.00705719,0.0185394,0.00286102,0.014534,0.00671387
14,5,10.0097,0.00152588,-0.000457764,-2.42959,0.0538499,-0.0759786,0.0519917,0.07036,-0.095893,0.143487,-0.127292,-0.0865377,0.00762939,0.0207901,0.0234222,0.0225449,0.0241089,0.0120544,0.0207138,0.0130081,-9.97986,0.0157166,0.000648499,0.0148773,-0.0114059,0.0165939,0.00537872,0.0137711,0.00629425
14,6,10.0097,0.00183105,-0.000457764,-2.42806,0.0538499,-0.0759786,0.0498555,0.0694445,-0.0934516,0.142267,-0.126072,-0.0859274,0.00797272,0.0230789,0.0198746,0.0296021,0.0201035,0.012207,0.0230026,0.0136948,-9.97986,0.0147629,-0.00102997,0.0114441,-0.00759125,0.0172806,0.0050354,0.0135803,0.00389099
14,7,10.0097,0.00183105,0.000152588,-2.42714,0.0547655,-0.0747579,0.0535176,0.07036,-0.0943672,0.144708,-0.128513,-0.0850118,0.0119781,0.0220871,0.02491,0.0362778,0.0202942,0.00659943,0.0250244,0.0142288,-9.97986,0.0136948,-0.000343323,0.0136948,-0.00862122,0.018692,0.00556946,0.0153351,0.00865936
14,8,10.0097,0.000610352,0.000305176,-2.42776,0.0559862,-0.0747579,0.0538228,0.0700548,-0.0931465,0.144708,-0.126072,-0.085317,0.0152969,0.0247955,0.0256729,0.0374985,0.0168228,0.0111008,0.0255203,0.0175476,-9.97986,0.0166702,0.00114441,0.015564,-0.0094223,0.0161743,0.00492096,0.0130844,0.0063324
14,9,10.0097,0.000305176,0.000152588,-2.42776,0.055681,-0.075063,0.04894,0.0694445,-0.0931465,0.145624,-0.125461,-0.0825704,0.00972748,0.0207901,0.0233459,0.0351334,0.0163651,0.0104904,0.0230789,0.0214386,-9.97986,0.0165558,0.00114441,0.0169373,-0.00453949,0.0153732,-0.00141144,0.0160599,0.00495911
15,0,10.0097,0,0.000762939,-2.42592,0.0565965,-0.0744527,0.0547383,0.0697496,-0.0913154,0.145318,-0.126377,-0.0810445,0.00518799,0.0254822,0.0258255,0.0367737,0.0190735,0.00915527,0.0257111,0.0259399,-9.97986,0.0200272,0.000724792,0.0127029,-0.0107956,0.0166702,-0.00278473,0.0162506,0.00804901
15,1,10.0097,0,-0.000152588,-2.42562,0.0569017,-0.0741475,0.0538228,0.0712755,-0.0913154,0.147455,-0.124546,-0.0819601,0.012207,0.0228882,0.0249863,0.028038,0.0172424,0.00659943,0.0217438,0.0265884,-9.97986,0.0161743,-0.001297,0.00995636,-0.00488281,0.0182724,-0.00278473,0.0203705,0.00343323
15,2,10.0097,0,0.000152588,-2.42562,0.055681,-0.0729268,0.0529073,0.0706652,-0.0916206,0.146234,-0.123935,-0.0810445,0.00911713,0.0222397,0.0260544,0.0241089,0.0146103,0.00953674,0.0221634,0.0298691,-9.97986,0.0164795,-0.00167847,0.014801,-0.00865936,0.0120544,-0.000762939,0.0146866,0.00461578
15,3,10.0097,0.000915527,0.000457764,-2.42531,0.0559862,-0.0738423,0.0544332,0.0706652,-0.0928413,0.145929,-0.122715,-0.0819601,0.00709534,0.0270844,0.0212097,0.0255203,0.0167847,0.0159454,0.019455,0.0277328,-9.97986,0.0180054,-0.00389099,0.0172806,-0.00865936,0.0159836,-0.000572205,0.0179672,0.00778198
15,4,10.0097,-0.000610352,0.000305176,-2.42562,0.0559862,-0.075063,0.0544332,0.0712755,-0.0919257,0.146539,-0.12363,-0.080129,0.00904083,0.0239182,0.0156784,0.0217819,0.0186157,0.00709534,0.0221634,0.0325394,-9.97986,0.0175095,-0.00427246,0.0158691,-0.00637054,0.0175858,-0.00270844,0.0157547,0.0050354
15,5,10.0097,-0.000610352,-0.000762939,-2.42623,0.0569017,-0.075063,0.0584004,0.0416735,-0.0946723,0.146539,-0.126072,-0.0822652,0.0120544,0.0230026,0.0139236,0.0202942,0.0185776,0.00816345,0.0220108,0.0234604,-9.97986,0.0170517,0.000267029,0.0147247,-0.00419617,0.0152206,-0.00713348,0.014267,0.0069046
15,6,8.10658,0.000610352,-0.00167847,-2.42623,0.0565965,-0.0723164,0.0544332,0.0459459,-0.0925361,0.147149,-0.128208,-0.0813497,0.0115967,0.0216675,0.0101089,0.0195694,0.0152969,0.0104523,0.0224304,0.0087738,-9.97986,0.013237,0.000610352,0.0138474,-0.00415802,0.0149918,-0.00267029,0.0130081,0.00556946
15,7,7.00704,-0.000610352,-0.000915527,-2.42623,0.0562914,-0.075063,0.0538228,0.0551012,-0.0925361,0.145929,-0.126072,-0.0825704,0.00648499,0.0178909,0.00854492,0.0127411,0.0126648,0.0050354,0.0198364,-0.00141144,-9.97986,0.0156403,-0.00270844,0.0181961,-0.00587463,0.0128174,-0.00160217,0.0149536,0.00602722
15,8,6.82057,0.000610352,-0.000305176,-2.42592,0.0541551,-0.0744527,0.0529073,0.0642565,-0.0919257,0.143792,-0.126072,-0.0819601,0.0110245,0.0209427,0.00583649,0.0108719,0.0188828,0.0062561,0.0208282,0.0124741,-9.97986,0.0118256,-0.00297546,0.013504,-0.00545502,0.0156021,0.00270844,0.0146103,0.00648499
15,9,7.10744,0.000915527,0.000610352,-2.42684,0.0553758,-0.0744527,0.0544332,0.0737169,-0.0910102,0.146539,-0.128818,-0.0828756,0.00537872,0.0178528,0.0063324,0.00305176,0.017662,0.00743866,0.0221634,0.00682831,-9.97986,0.0168991,-0.000419617,0.0152206,-0.00480652,0.0121307,0.0019455,0.0134659,0.00408173
16,0,8.93605,-0.00213623,0.000915527,-2.42745,0.0550706,-0.075063,0.0550435,0.099962,-0.0897895,0.145318,-0.123935,-0.0834859,0.0115204,0.0178909,0.00183105,-0.014801,0.0152588,0.00720978,0.0212097,0.0101089,-9.97986,0.0104904,-0.00110626,0.0181961,-0.00488281,0.0154495,-0.00247955,0.0145721,0.00640869
16,1,10.0097,-0.0012207,0.00198364,-2.4302,0.0529344,-0.0753682,0.0483296,0.0953844,-0.0928413,0.143792,-0.125461,-0.0868429,0.00984192,0.0204468,0.0030899,-0.0421524,0.0183868,0.0149155,0.0207901,0.0162506,-9.97986,0.0171661,0.000915527,0.0138474,-0.00480652,0.0139618,0.00270844,0.0148773,0.00514984
16,2,10.0097,-0.000915527,-0.000305176,-2.42867,0.0535448,-0.0765889,0.0529073,0.077379,-0.0946723,0.143792,-0.127598,-0.0865377,0.0130844,0.0170135,-0.0025177,-0.0679779,0.0199509,0.0106049,0.0188828,0.013237,-9.97986,0.00984192,-0.00423431,0.0170898,-0.00175476,0.0140381,0.00499725,0.0140381,0.00171661
16,3,10.0097,0.000610352,0.000457764,-2.42898,0.0538499,-0.0756734,0.0519917,0.0737169,-0.0952827,0.142877,-0.126072,-0.0874532,0.0110626,0.0149918,0.00289917,-0.0829697,0.0220108,0.00324249,0.0175858,0.0135422,-9.97986,0.0150681,0.000343323,0.0152206,-0.0030899,0.0197983,0.00732422,0.013504,0.00400543
16,4,10.0097,0.000610352,-0.000915527,-2.42898,0.0541551,-0.0759786,0.0477193,0.0706652,-0.0955879,0.143487,-0.127292,-0.0865377,0.0146103,0.0149918,0.00392914,-0.0930023,0.021019,0.0124359,0.0220871,0.00850677,-9.97986,0.00705719,-0.000572205,0.0163269,-0.00915527,0.0161743,0.00976563,0.018158,0.00370026
16,5,10.0097,0.00244141,-0.000305176,-2.42928,0.0550706,-0.0753682,0.0519917,0.0697496,-0.0949775,0.143792,-0.126377,-0.0859274,0.0124741,0.0165939,0.00968933,-0.0930023,0.0152969,0.0139236,0.0200653,0.0114822,-9.97986,0.00900269,-0.00133514,0.0188065,-0.00396729,0.0150299,0.00839233,0.0175095,0.00183105
16,6,10.0097,0.000305176,-0.000457764,-2.42928,0.0538499,-0.075063,0.0529073,0.0697496,-0.094062,0.144403,-0.126987,-0.0856222,0.0107956,0.0162888,0.0131226,-0.0737762,0.0144577,0.0112915,0.0223923,0.0146103,-9.97986,0.00961304,-0.001297,0.0149918,-0.00408173,0.0179291,0.00198364,0.0167465,0.000534058
16,7,10.0097,0.000610352,0,-2.42806,0.0550706,-0.0747579,0.0568746,0.0694445,-0.0946723,0.143792,-0.127598,-0.0847066,0.0126648,0.016861,0.0199509,-0.0624466,0.0169754,0.0114441,0.019722,0.019989,-9.97986,0.00621796,-0.00190735,0.0146866,-0.00335693,0.0146866,0.00843048,0.0182343,0.00495911
16,8,10.0097,0.00152588,0.000610352,-2.42745,0.055681,-0.0741475,0.0532125,0.0688341,-0.094062,0.144708,-0.126377,-0.0840963,0.0131989,0.0174713,0.0315857,-0.0543594,0.0138092,0.0101089,0.022316,0.0143433,-9.97986,0.0122452,-7.62939e-005,0.0122452,-0.00183105,0.0157166,0.00797272,0.0174713,0.00614166
16,9,10.0097,0.00274658,0.000457764,-2.42684,0.0544603,-0.075063,0.054128,0.07036,-0.0925361,0.145318,-0.126072,-0.0837911,0.00907898,0.0129318,0.037117,-0.0734329,0.014801,0.00888824,0.0284195,0.0174713,-9.97986,0.00892639,-0.000801086,0.0103378,-0.00305176,0.0138474,0.01091,0.0191879,0.00312805
17,0,10.0097,0.000915527,0.000457764,-2.42501,0.0559862,-0.0741475,0.0501607,0.0718859,-0.0931465,0.146234,-0.124851,-0.0828756,0.0110626,0.0178528,0.0457382,-0.0881195,0.0138474,0.00751495,0.0259781,0.0153732,-9.97986,0.0131989,0.00232697,0.0175858,0.00114441,0.0138092,0.00999451,0.0138474,0.00469208
17,1,10.0097,0,0.000305176,-2.42501,0.0562914,-0.0729268,0.0550435,0.0709703,-0.0919257,0.145624,-0.12241,-0.0813497,0.00682831,0.0154495,0.0570679,-0.0760651,0.0170898,0.0120544,0.0299835,0.0163651,-9.97986,0.0127792,-0.00278473,0.014267,-0.00110626,0.0139999,0.00743866,0.0165939,0.00644684
17,2,10.0097,0.000915527,-0.000152588,-2.42684,0.0572069,-0.0741475,0.0553487,0.0728014,-0.0913154,0.146234,-0.12363,-0.0816549,0.0168991,0.0199509,0.0702286,-0.00473022,0.0210953,0.0133896,0.0310135,0.0225067,-9.97986,0.010376,0.00598907,0.0183487,0.00480652,0.0185776,0.0119781,0.019722,0.00617981
17,3,10.0097,0.00183105,-0.000610352,-2.4247,0.0565965,-0.0738423,0.059316,0.072191,-0.0897895,0.145929,-0.124546,-0.0816549,0.00766754,0.0134277,0.0752258,0.107269,0.0107574,0.00453949,0.02388,0.0043869,-9.97986,0.00709534,-0.00198364,0.0119781,-0.000953674,0.0105667,-0.000534058,0.0152969,0.00141144
17,4,10.0097,0.0012207,0.000457764,-2.4247,0.0565965,-0.0723164,0.0553487,0.0715807,-0.0934516,0.145929,-0.12241,-0.0807394,0.0149918,0.0236893,0.0883102,0.175056,0.0168991,0.0102615,0.0297928,0.0135422,-9.97986,0.0175858,-0.000991821,0.0165558,0.000343323,0.0162506,0.00404358,0.0196838,0.00770569
17,5,10.0097,0.000915527,-0.00137329,-2.42745,0.0562914,-0.0747579,0.0535176,0.0431993,-0.0955879,0.146234,-0.126377,-0.0810445,0.012207,0.0323486,0.0885773,0.16407,0.0200653,0.00999451,0.0245285,0.0190735,-9.97986,0.0170898,0.0012207,0.0115967,0.00488281,0.00961304,0.00488281,0.0178528,0.00530243
17,6,8.28908,0.000915527,-0.00198364,-2.42592,0.0569017,-0.0735371,0.0501607,0.0459459,-0.0922309,0.146234,-0.125766,-0.0813497,0.00530243,0.0328827,0.0875854,0.156898,0.0123978,0.0127411,0.0242996,0.0164795,-9.97986,0.0201035,0.00205994,0.0128174,0.00621796,0.0122833,0.00389099,0.0191498,0.00648499
17,7,7.20571,0.000610352,-0.00106812,-2.42623,0.0559862,-0.075063,0.0544332,0.0551012,-0.0919257,0.146234,-0.121494,-0.0813497,0.0133133,0.0408936,0.0901413,0.140228,0.0169373,0.00976563,0.0213242,0.0240326,-9.97986,0.0205612,0.00415802,0.010376,0.00629425,0.016861,0.000534058,0.0191116,0.00991821
17,8,7.02352,0,-0.000457764,-2.42623,0.0559862,-0.0747579,0.0544332,0.0645616,-0.090705,0.145318,-0.126682,-0.0819601,0.00988007,0.0530243,0.0687408,0.127869,0.0170898,0.00930786,0.0283051,0.0236893,-9.97986,0.021019,-0.000610352,0.0128174,0.0044632,0.0150299,0.00118256,0.0185013,0.00656128
17,9,7.32656,-0.00183105,0.000762939,-2.42592,0.0544603,-0.0753682,0.0550435,0.0728014,-0.0916206,0.145013,-0.126072,-0.0834859,0.0111008,0.0548172,0.0401688,0.114098,0.0123978,0.0156784,0.0253296,0.0259781,-9.97986,0.0233841,-0.00175476,0.0178528,0.0069046,0.0165176,0.00404358,0.0199127,0.00858307
18,0,9.14693,-0.000610352,0.000457764,-2.42714,0.0544603,-0.0759786,0.0550435,0.0996569,-0.0900947,0.145929,-0.12363,-0.0831808,0.011673,0.062294,0.0114059,0.0925446,0.0162506,0.0104904,0.0204086,0.0246429,-9.97986,0.0260925,0.000343323,0.0143051,0.00461578,0.0130844,0.00747681,0.0217819,0.00453949
18,1,10.0097,-0.000915527,0.00198364,-2.4302,0.0526292,-0.0753682,0.0504659,0.0944689,-0.0919257,0.143792,-0.125156,-0.0859274,0.0108719,0.0544739,-0.0139618,0.0688934,0.0118256,0.0134277,0.0201797,0.0217438,-9.97986,0.0262451,0.000305176,0.0154495,0.00743866,0.0124359,0.00595093,0.018959,0.00801086
18,2,10.0097,-0.00213623,0.000305176,-2.42959,0.0526292,-0.0753682,0.0538228,0.0776842,-0.0952827,0.143487,-0.126377,-0.0874532,0.00984192,0.0465393,-0.0395203,0.0457382,0.0136948,0.00900269,0.0165176,0.0244522,-9.97986,0.0253677,-0.00362396,0.0144196,0.00411987,0.012207,0.00137329,0.0194931,0.00614166
18,3,10.0097,-0.000610352,0.000457764,-2.42898,0.0535448,-0.0759786,0.0513814,0.0715807,-0.0943672,0.143487,-0.126072,-0.0868429,0.00751495,0.0384903,-0.0453186,0.0572205,0.0157166,0.0105286,0.0164032,0.0253677,-9.97986,0.0252151,-0.00118256,0.0124741,0.00812531,0.0147629,-0.00133514,0.0175858,0.00900269
18,4,10.0097,-0.000610352,-0.000305176,-2.42837,0.0532396,-0.0759786,0.0513814,0.0694445,-0.094062,0.142877,-0.127598,-0.0865377,0.00713348,0.0330734,-0.0455093,0.0669479,0.0136566,0.0107193,0.0140381,0.0241852,-9.97986,0.0285721,-0.00400543,0.0156784,0.00705719,0.013504,-0.0114441,0.0133514,0.00427246
18,5,10.0097,-0.000610352,-0.000457764,-2.42898,0.0538499,-0.0759786,0.0492452,0.0685289,-0.0955879,0.143182,-0.127292,-0.0862325,0.00976563,0.02491,-0.051384,0.0464249,0.0162506,0.0108337,0.00957489,0.0217056,-9.97986,0.020256,-0.000915527,0.0149155,0.00808716,0.0115585,-0.00938416,0.0146484,0.0038147
18,6,10.0097,0.00183105,0.000152588,-2.42745,0.0544603,-0.0759786,0.0513814,0.0682238,-0.0943672,0.143182,-0.126377,-0.0862325,0.0110626,0.0163651,-0.0462341,0.0445175,0.017662,0.0159836,0.00526428,0.0216675,-9.97986,0.0232697,0.00038147,0.0170517,0.00965118,0.0164795,-0.00366211,0.0131989,0.00804901
18,7,10.0097,0.000305176,-0.000152588,-2.42898,0.0535448,-0.0756734,0.0529073,0.0700548,-0.0937568,0.144098,-0.125461,-0.0847066,0.0111389,0.0108337,-0.0392532,0.0667191,0.0169754,0.0107574,0.00869751,0.0226974,-9.97986,0.0222778,-0.000419617,0.0130081,0.00629425,0.0178909,-0.00801086,0.0139999,0.00740051
18,8,10.0097,-0.000610352,0.000305176,-2.42714,0.0547655,-0.0738423,0.0553487,0.0715807,-0.094062,0.145013,-0.126377,-0.085317,0.00843048,0.0056076,-0.0345612,0.069046,0.0151825,0.00980377,0.0114441,0.0209045,-9.97986,0.0180435,-0.00221252,0.0147247,0.00312805,0.0154495,-0.00873566,0.0101852,0.00827789
18,9,10.0097,0.0012207,-0.000457764,-2.42714,0.0550706,-0.0744527,0.0535176,0.0697496,-0.094062,0.145013,-0.127903,-0.0834859,0.00732422,0.00431061,-0.0302505,0.0565338,0.0152206,0.013237,0.0147247,0.0234222,-9.97986,0.0205994,-0.00450134,0.0164032,0.0114822,0.0156403,-0.00183105,0.00667572,0.0111389
19,0,10.0097,0.000915527,-0.000152588,-2.42562,0.0575121,-0.0735371,0.0532125,0.0712755,-0.0919257,0.146234,-0.125461,-0.0822652,0.00972748,0.0114441,-0.0282288,0.0453949,0.019989,0.01091,0.015564,0.0236893,-9.97986,0.0188446,-0.000343323,0.0162506,0.0140381,0.014267,-0.000762939,0.0107574,0.0138092
19,1,10.0097,0.000610352,0.000305176,-2.42501,0.0575121,-0.0744527,0.0538228,0.0700548,-0.0919257,0.147455,-0.124851,-0.0822652,0.00461578,0.00972748,-0.025444,0.03685,0.0188065,0.00984192,0.0234985,0.0209427,-9.97986,0.018692,-0.00473022,0.0146866,0.00667572,0.0149536,-0.00213623,0.00671387,0.00812531
19,2,10.0097,0.00152588,0.000152588,-2.42592,0.0559862,-0.075063,0.0538228,0.0706652,-0.0949775,0.145929,-0.12363,-0.0813497,0.0105286,0.0150299,-0.0157928,0.035553,0.0182343,0.00762939,0.0252914,0.0248337,-9.97986,0.0178146,-0.00629425,0.0100327,0.0138474,0.0162125,-0.00259399,0.00782013,0.0104904
19,3,10.0097,0,-0.000152588,-2.4244,0.0581224,-0.0741475,0.0550435,0.072191,-0.0934516,0.146539,-0.124851,-0.0807394,0.00751495,0.0154877,-0.00946045,0.0288391,0.0161743,0.0104141,0.0349808,0.023613,-9.97986,0.0147629,-0.00110626,0.0107956,0.013504,0.0168991,0.00488281,0.0110626,0.00862122
19,4,10.0097,0.0012207,0.000610352,-2.42531,0.0523241,-0.0735371,0.0568746,0.072191,-0.0913154,0.146234,-0.123935,-0.0807394,0.00747681,0.0138092,-0.00320435,0.025177,0.0178909,0.0115585,0.0278473,0.0248718,-9.97986,0.018692,0.00411987,0.0153351,0.01194,0.0146484,0.0113297,0.0175095,0.00797272
19,5,10.0097,0.000305176,-0.00183105,-2.42562,0.0559862,-0.0735371,0.0538228,0.0435045,-0.0968086,0.146844,-0.127292,-0.0819601,0.0127792,0.0123978,-0.00217438,0.022583,0.0135803,0.0105286,0.0288391,0.0252533,-9.97986,0.0167084,0.00125885,0.0143433,0.0146866,0.0173187,0.0105286,0.016098,0.00892639
19,6,8.25307,0.000915527,-0.00152588,-2.42592,0.0565965,-0.0735371,0.0544332,0.0468614,-0.0931465,0.146234,-0.126072,-0.0813497,0.0101089,0.0149918,-0.000152588,0.0195313,0.0154877,0.00770569,0.0212479,0.021286,-9.97986,0.0166321,0.00534058,0.0127029,0.0133896,0.0150681,0.0186157,0.0168991,0.0056076
19,7,7.12087,0,-0.000915527,-2.4244,0.0575121,-0.0738423,0.0550435,0.0554064,-0.0919257,0.146234,-0.125766,-0.0819601,0.00869751,0.0153351,0.00221252,0.00507355,0.016098,0.0139618,0.0194931,0.0172043,-9.97986,0.014534,0.000190735,0.0105667,0.0102234,0.0169754,0.0289536,0.0187683,0.00389099
19,8,6.96065,-0.00183105,0.000305176,-2.42562,0.0562914,-0.075063,0.0550435,0.0642565,-0.0882636,0.145318,-0.125766,-0.0831808,0.0144196,0.0190353,0.00240326,-0.0165558,0.0170517,0.01194,0.0183487,0.0183868,-9.97986,0.0186157,0.00114441,0.0114441,0.00911713,0.0178528,0.030632,0.0190735,0.00419617
19,9,7.22005,0,0.000305176,-2.42653,0.0553758,-0.0744527,0.054128,0.0728014,-0.0919257,0.145624,-0.125766,-0.0831808,0.0136566,0.0139999,0.00289917,-0.0344086,0.0162506,0.0164032,0.0188828,0.0169754,-9.97986,0.0169754,0.00263214,0.0156403,0.0105286,0.0139999,0.0265503,0.0180435,0.00385284
20,0,9.01113,0.000915527,0.000762939,-2.42592,0.0544603,-0.075063,0.0562642,0.0984362,-0.0900947,0.144708,-0.123935,-0.0837911,0.0126648,0.0142288,0.0104141,-0.0514221,0.0194168,0.0127792,0.0203705,0.0197983,-9.97986,0.00976563,-0.000228882,0.0101852,0.011673,0.013504,0.00671387,0.0190353,0.00350952
20,1,10.0097,-0.000305176,0.00259399,-2.42776,0.0535448,-0.0765889,0.0519917,0.094774,-0.0919257,0.143487,-0.127903,-0.0859274,0.0144196,0.0143814,0.00999451,-0.0676727,0.0215912,0.00961304,0.024147,0.0215912,-9.97986,0.00934601,0.00274658,0.0123215,0.010376,0.0157928,-0.00286102,0.018959,0.00362396
20,2,10.0097,0.000915527,0.000610352,-2.42867,0.0535448,-0.0756734,0.0519917,0.0785997,-0.0952827,0.143792,-0.126072,-0.0868429,0.0128937,0.010643,0.0136185,-0.0900269,0.01297,0.0124741,0.0150299,0.0177002,-9.97986,0.00850677,-0.00160217,0.00743866,0.00591278,0.0128174,-0.00679016,0.0152206,0.00324249
20,3,10.0097,0.000915527,-0.000152588,-2.42959,0.0547655,-0.0756734,0.0522969,0.0728014,-0.0955879,0.143792,-0.128513,-0.0865377,0.0111008,0.0108719,0.0172043,-0.114975,0.0180054,0.0146103,0.0243759,0.015831,-9.97986,0.00934601,-0.00148773,0.0102234,0.0123596,0.0133133,-0.00038147,0.0188446,0.00576019
20,4,10.0097,0.0012207,-0.000305176,-2.42928,0.0535448,-0.0756734,0.0519917,0.0691393,-0.0952827,0.143487,-0.127292,-0.0871481,0.0125504,0.00965118,0.0141907,-0.146179,0.017395,0.00999451,0.020256,0.0190735,-9.97986,0.0123215,-0.000190735,0.0107193,0.00675201,0.0128937,0.00228882,0.0169373,0.00541687
20,5,10.0097,-0.000305176,-0.000457764,-2.42928,0.0541551,-0.0768941,0.0522969,0.0697496,-0.0955879,0.143487,-0.126377,-0.0868429,0.0118637,0.0120544,0.0137711,-0.179138,0.0174713,0.0162506,0.0227356,0.0184631,-9.97986,0.00831604,0.00190735,0.0166702,0.0112534,0.00995636,0.00350952,0.0130081,0.00549316
20,6,10.0097,-0.000915527,-0.000305176,-2.42776,0.0541551,-0.0762837,0.050771,0.0691393,-0.094062,0.143792,-0.126987,-0.0865377,0.0116348,0.0126266,0.0163269,-0.196075,0.0181961,0.0151443,0.0233078,0.0203323,-9.97986,0.00995636,0.00217438,0.016098,0.0119019,0.00999451,0.00339508,0.0136185,0.00751495
20,7,10.0097,0.0012207,-0.000457764,-2.42806,0.0547655,-0.0759786,0.0532125,0.0697496,-0.090705,0.145013,-0.127598,-0.0844015,0.0178528,0.0117111,0.0233078,-0.179214,0.016098,0.00743866,0.0238037,0.0164032,-9.97986,0.00629425,-0.00205994,0.0145721,0.0108337,0.0144958,0.0126648,0.0166321,0.00461578
20,8,10.0097,-0.000610352,0,-2.42653,0.055681,-0.075063,0.054128,0.0706652,-0.0934516,0.144098,-0.126682,-0.0850118,0.0110626,0.00518799,0.0296783,-0.162163,0.0196075,0.0131989,0.0272751,0.016861,-9.97986,0.00297546,-0.00240326,0.0125504,0.0141144,0.00938416,0.017662,0.0159073,0.00610352
20,9,10.0097,0.00152588,0.000457764,-2.42745,0.0559862,-0.0744527,0.054128,0.07036,-0.0922309,0.146844,-0.125766,-0.0831808,0.0138855,0.00972748,0.0371933,-0.128441,0.0152206,0.0127792,0.0263214,0.0151443,-9.97986,0.00602722,0.000991821,0.0164413,0.0114822,0.0137711,0.0144577,0.0131989,0.00759125
21,0,10.0097,-0.000610352,0,-2.42684,0.0562914,-0.0735371,0.0553487,0.07036,-0.0952827,0.146539,-0.124546,-0.0819601,0.0123215,0.0129318,0.0443268,-0.0192642,0.0177383,0.00812531,0.0260925,0.011673,-9.97986,0.0128937,-0.00297546,0.0158691,0.0133133,0.010643,0.00976563,0.014267,0.00728607
21,1,10.0097,0.00152588,0.000305176,-2.42562,0.0572069,-0.0744527,0.0550435,0.07036,-0.0910102,0.146539,-0.124546,-0.0813497,0.0128174,0.0147629,0.0496674,0.07164,0.0148392,0.0128937,0.0213623,0.0153732,-9.97986,0.00659943,-0.000343323,0.0167465,0.0147629,0.0170135,0.00392914,0.0152588,0.00587463
21,2,10.0097,-0.000610352,-0.000152588,-2.42501,0.0569017,-0.0741475,0.0556539,0.0728014,-0.090705,0.147149,-0.123325,-0.0813497,0.00881195,0.0203705,0.0577927,0.0378418,0.0207901,0.01194,0.0185394,0.014534,-9.97986,0.00873566,0.00152588,0.0159454,0.014534,0.0121307,0.00114441,0.0115585,0.00621796
21,3,10.0097,0.000610352,0.000152588,-2.4244,0.0559862,-0.0735371,0.0550435,0.0715807,-0.0922309,0.146234,-0.123935,-0.0804342,0.00980377,0.0217438,0.071373,0.0126266,0.0162888,0.00797272,0.015564,0.0167847,-9.97986,0.00720978,-0.00167847,0.0203705,0.0178528,0.0171661,-0.00179291,0.0135803,0.00476837
21,4,10.0097,0.000305176,0.00106812,-2.4247,0.0569017,-0.075063,0.0568746,0.07036,-0.090705,0.147149,-0.12363,-0.0810445,0.00507355,0.0301361,0.0758362,0.0615311,0.017395,0.0130463,0.022049,0.0172424,-9.97986,0.0123596,-0.00404358,0.018959,0.015831,0.0154877,-0.00492096,0.0152588,0.00759125
21,5,10.0097,0.000915527,-0.000610352,-2.42592,0.055681,-0.0741475,0.0535176,0.0422838,-0.0949775,0.146234,-0.126072,-0.0810445,0.010376,0.0293732,0.0791168,0.131874,0.0167465,0.0122833,0.0252914,0.0144196,-9.97986,0.0141525,0.00118256,0.020256,0.0196075,0.0177383,-0.0044632,0.0148773,0.0107574
21,6,8.29061,-0.000305176,-0.00259399,-2.42531,0.0565965,-0.0744527,0.054128,0.0471666,-0.0925361,0.146539,-0.126072,-0.0807394,0.0134659,0.0334167,0.0871277,0.200958,0.0209808,0.00892639,0.025444,0.0152969,-9.97986,0.0125122,0.00202179,0.0162125,0.0131226,0.0143814,-0.00240326,0.0129318,0.0104904
21,7,7.22829,0.000305176,-0.000152588,-2.42562,0.055681,-0.0744527,0.0538228,0.054796,-0.0925361,0.146234,-0.125461,-0.0822652,0.00926971,0.0429535,0.0841904,0.207138,0.0170135,0.00602722,0.0241089,0.0163651,-9.97986,0.0170898,-0.00133514,0.0187683,0.0186157,0.0163269,-0.00411987,0.0115967,0.010643
21,8,7.04244,0.00152588,0.000152588,-2.42623,0.0547655,-0.0744527,0.054128,0.0657823,-0.0913154,0.145318,-0.126377,-0.0825704,0.00812531,0.0471497,0.0786591,0.165749,0.0231552,0.0132751,0.0247955,0.0191498,-9.97986,0.0159836,0.00274658,0.0143433,0.0182724,0.0133514,-0.00663757,0.0147247,0.0125885
21,9,7.33235,0.00183105,0.000762939,-2.42684,0.0562914,-0.075063,0.054128,0.0737169,-0.0903999,0.146539,-0.124851,-0.0825704,0.00724792,0.047493,0.0701141,0.142517,0.018959,0.00774384,0.0188828,0.0193024,-9.97986,0.0219345,-0.000953674,0.0164032,0.0183105,0.0120926,-0.010376,0.0146484,0.0107574
22,0,9.06301,0,0.0012207,-2.42684,0.0541551,-0.0735371,0.0556539,0.100572,-0.0885688,0.144403,-0.12363,-0.0840963,0.00869751,0.0495148,0.0569153,0.109558,0.0179672,0.0139618,0.0178146,0.0185394,-9.97986,0.0233841,0.00038147,0.0174332,0.019722,0.0118637,-0.0133514,0.0154114,0.0144196
22,1,10.0097,0.000915527,0.00198364,-2.42776,0.0550706,-0.0762837,0.0519917,0.094774,-0.094062,0.143487,-0.125766,-0.0859274,0.00621796,0.0516891,0.0525665,0.100708,0.0171661,0.0136185,0.0174713,0.0196457,-9.97986,0.0239563,-0.00179291,0.0196075,0.0228119,0.0146484,-0.0135803,0.0161362,0.00965118
22,2,10.0097,-0.000305176,0.000762939,-2.42898,0.0547655,-0.0756734,0.0526021,0.0767687,-0.095893,0.143792,-0.126377,-0.0877584,0.00694275,0.0521469,0.0393677,0.104103,0.0146866,0.0124359,0.0206375,0.0230408,-9.97986,0.0204849,0.00118256,0.0181961,0.0195694,0.0165939,-0.0162888,0.0126266,0.0105667
22,3,10.0097,-0.000610352,-0.000457764,-2.42959,0.0538499,-0.0747579,0.0522969,0.0731066,-0.0946723,0.142877,-0.127292,-0.0862325,0.0094223,0.0484848,0.017128,0.0997162,0.0185013,0.0101471,0.0174713,0.0241089,-9.97986,0.0226212,-0.000495911,0.0152969,0.0180817,0.0144196,-0.0204849,0.0127029,0.0127029
22,4,10.0097,-0.00213623,-0.000152588,-2.42867,0.0538499,-0.0756734,0.0504659,0.0694445,-0.094062,0.142877,-0.127598,-0.0865377,0.00762939,0.042305,-0.00652313,0.0959396,0.0200272,0.00823975,0.019722,0.0217056,-9.97986,0.0187302,-0.00125885,0.0147247,0.0183105,0.0150299,-0.0216675,0.014534,0.0131226
22,5,10.0097,0.000305176,-0.000762939,-2.4302,0.0532396,-0.0756734,0.0516866,0.0691393,-0.0949775,0.142877,-0.128513,-0.0874532,0.00728607,0.043869,-0.0341797,0.0854492,0.018959,0.0115967,0.0237656,0.02285,-9.97986,0.0206757,-0.00221252,0.0153732,0.0162125,0.0157166,-0.0174332,0.00740051,0.0117874
22,6,10.0097,0.0012207,-0.000305176,-2.42714,0.0544603,-0.0753682,0.0526021,0.07036,-0.0934516,0.144708,-0.126682,-0.0865377,0.0105667,0.0340652,-0.0407028,0.067215,0.0122833,0.0104523,0.022049,0.0206375,-9.97986,0.0210571,-0.00175476,0.0115967,0.0207138,0.0124741,-0.0118256,0.00923157,0.00904083
22,7,10.0097,-0.000610352,0,-2.42806,0.0547655,-0.0759786,0.0522969,0.0688341,-0.0937568,0.146234,-0.126377,-0.085317,0.00850677,0.0315094,-0.0431442,0.0589371,0.0200272,0.0118256,0.0196838,0.0210571,-9.97986,0.0211334,0.000152588,0.0172043,0.02285,0.0115204,-0.0152969,0.0118256,0.0107574
22,8,10.0097,0.0012207,-0.00106812,-2.42776,0.0544603,-0.075063,0.0532125,0.07036,-0.0934516,0.145013,-0.124851,-0.0850118,0.010643,0.0287247,-0.0415039,0.0526047,0.019989,0.0147629,0.0198364,0.0187683,-9.97986,0.0162888,-0.00160217,0.0172424,0.022316,0.0178146,-0.020256,0.0127411,0.0106049
22,9,10.0097,0.00152588,0.000305176,-2.42562,0.0547655,-0.0747579,0.0538228,0.0697496,-0.0928413,0.147455,-0.125461,-0.0844015,0.00854492,0.0252151,-0.0392914,0.0417328,0.019722,0.00785828,0.0236511,0.0242233,-9.97986,0.0220871,-0.000228882,0.0141525,0.0193405,0.0188065,-0.0207901,0.0123978,0.0082016
23,0,10.0097,0.0012207,0.000915527,-2.42562,0.0553758,-0.0753682,0.0544332,0.07036,-0.090705,0.145013,-0.124851,-0.0822652,0.0102615,0.0200272,-0.0284195,0.0376129,0.0213242,0.0107956,0.0215912,0.0209045,-9.97986,0.0188065,-0.00305176,0.0134659,0.0217056,0.014267,-0.0187302,0.0063324,0.0112915
23,1,10.0097,0.000915527,0.000305176,-2.42562,0.055681,-0.0747579,0.0544332,0.0715807,-0.0913154,0.145929,-0.123935,-0.0816549,0.00747681,0.0138855,-0.018959,0.029068,0.0179672,0.00648499,0.0236511,0.0151062,-9.97986,0.0164413,0.00629425,0.0160217,0.0204849,0.0168991,-0.00957489,0.0104904,0.00709534
23,2,10.0097,0.00152588,0.000305176,-2.42531,0.055681,-0.0735371,0.0544332,0.0706652,-0.0910102,0.146234,-0.124241,-0.0807394,0.00724792,0.0111771,-0.0133133,0.0269318,0.0170135,0.00789642,0.0217438,0.0191879,-9.97986,0.0180817,0.0104523,0.0190735,0.022049,0.0127029,-0.00534058,0.00724792,0.00980377
23,3,10.0097,0.000305176,-0.000305176,-2.42592,0.055681,-0.0738423,0.0547383,0.0712755,-0.0903999,0.146234,-0.124241,-0.0810445,0.013504,0.0112915,-0.00827789,0.0172043,0.011673,0.0118256,0.0209427,0.0209427,-9.97986,0.0181961,0.00595093,0.0133896,0.0175476,0.0156784,-0.00869751,0.0136566,0.00995636
23,4,10.0097,0.0012207,0.000305176,-2.4247,0.0569017,-0.0747579,0.0556539,0.0691393,-0.0916206,0.146539,-0.124241,-0.0810445,0.0137329,0.0104523,-0.00598907,0.0148773,0.0130081,0.00816345,0.0206375,0.0190735,-9.97986,0.0186157,0.00614166,0.0168228,0.0218582,0.0165939,-0.00869751,0.0108337,0.00774384
23,5,10.0097,0.0012207,-0.000610352,-2.42592,0.0569017,-0.0738423,0.0519917,0.0441149,-0.0952827,0.146539,-0.126072,-0.0816549,0.00865936,0.0109482,-0.00247955,0.00812531,0.0159836,0.00888824,0.0218201,0.0156021,-9.97986,0.0149918,-0.00118256,0.019455,0.0193405,0.0145721,-0.00915527,0.0172424,0.00717163
23,6,8.38368,-0.000610352,-0.00198364,-2.4244,0.0553758,-0.0741475,0.0529073,0.0474718,-0.0937568,0.145624,-0.125156,-0.0813497,0.012207,0.00995636,0.0062561,0.0069046,0.0139236,0.00839233,0.0149155,0.0183868,-9.97986,0.0094986,-0.00637054,0.0114441,0.0176239,0.0151443,-0.0117874,0.014534,0.0031662
23,7,7.31252,0,-0.000457764,-2.42562,0.0569017,-0.0747579,0.0553487,0.0551012,-0.0928413,0.145318,-0.125156,-0.0825704,0.0129318,0.0153351,0.0075531,-0.00160217,0.0136948,0.00679016,0.0197601,0.0165558,-9.97986,0.0146866,-0.00526428,0.0143814,0.0181961,0.0143814,-0.00766754,0.0168228,0.00576019
23,8,7.13063,-0.000610352,-0.000152588,-2.42684,0.055681,-0.0741475,0.054128,0.0639513,-0.0910102,0.145624,-0.126072,-0.0816549,0.012207,0.0113297,0.00911713,-0.015564,0.0184631,0.0107956,0.0214386,0.0184631,-9.97986,0.0143814,-0.00278473,0.0136566,0.0177002,0.0139618,-0.00267029,0.0170517,0.00785828
23,9,7.42482,0.000610352,0.000610352,-2.42653,0.0553758,-0.075063,0.0535176,0.0740221,-0.0913154,0.145318,-0.124546,-0.0831808,0.0139618,0.0128937,0.0100708,-0.0313568,0.0194931,0.00968933,0.019989,0.0184631,-9.97986,0.0113297,0.0012207,0.0124741,0.0201416,0.0175476,-0.00232697,0.017662,0.00556946
24,0,9.25069,0.00274658,0.00106812,-2.42562,0.055681,-0.075063,0.0550435,0.0987413,-0.0897895,0.144708,-0.123935,-0.0837911,0.00984192,0.0100327,0.0114822,-0.0447464,0.0176239,0.0128937,0.0192261,0.0192261,-9.97986,0.0122452,0.00171661,0.0120544,0.0180054,0.0164413,-0.00442505,0.0205231,0.00545502
24,1,10.0097,-0.000610352,0.00183105,-2.42928,0.0535448,-0.0747579,0.0532125,0.0935533,-0.0934516,0.143182,-0.126072,-0.0877584,0.0100708,0.0130844,0.00934601,-0.0573349,0.0163651,0.00953674,0.021286,0.0162125,-9.97986,0.0128937,0.00553131,0.0138092,0.0212097,0.0149918,-0.00133514,0.0181961,0.00591278
24,2,10.0097,0.000915527,0.000152588,-2.42837,0.0535448,-0.0762837,0.0513814,0.0792101,-0.0965034,0.143792,-0.126377,-0.0874532,0.00896454,0.0100708,0.0114059,-0.0668716,0.0179291,0.00896454,0.0261688,0.0187302,-9.97986,0.0114822,-0.00526428,0.0163651,0.0209427,0.0110245,-0.00370026,0.0167084,0.00297546
24,3,10.0097,0.000305176,-0.000305176,-2.42867,0.0532396,-0.0759786,0.0519917,0.0728014,-0.0952827,0.144403,-0.126987,-0.0868429,0.01297,0.0101471,0.00682831,-0.0908279,0.0146484,0.00793457,0.0180435,0.0148392,-9.97986,0.00827789,-0.00236511,0.0175095,0.0154877,0.018425,-0.00286102,0.0171661,0.00621796
24,4,10.0097,0.0012207,-0.00106812,-2.42898,0.0541551,-0.0759786,0.0519917,0.0715807,-0.0955879,0.143792,-0.127598,-0.0868429,0.0129318,0.0141525,0.0115967,-0.106773,0.0194931,0.0116348,0.0214386,0.0203705,-9.97986,0.0111389,-0.000953674,0.0138092,0.0138474,0.0181198,-0.00137329,0.0177765,0.00656128
24,5,10.0097,0.000610352,0,-2.42867,0.0538499,-0.0778096,0.0538228,0.0679186,-0.0955879,0.143487,-0.127903,-0.0868429,0.0144958,0.0139999,0.0152588,-0.114594,0.0146484,0.00926971,0.0265503,0.0206375,-9.97986,0.00850677,-0.00587463,0.0138474,0.0157547,0.0177765,-0.00320435,0.0194931,0.00396729
24,6,10.0097,-0.000305176,-0.000152588,-2.42867,0.0538499,-0.0744527,0.0529073,0.0697496,-0.0928413,0.144403,-0.128208,-0.0859274,0.0105286,0.0136566,0.0190735,-0.122643,0.0159073,0.0151062,0.0189209,0.017395,-9.97986,0.0075531,-0.0012207,0.00671387,0.0191498,0.0183105,-0.00255585,0.0153351,0.00549316
24,7,10.0097,0.00152588,-0.000457764,-2.42776,0.0553758,-0.075063,0.0529073,0.0682238,-0.0937568,0.145318,-0.126682,-0.085317,0.0138474,0.017662,0.0175476,-0.151062,0.017395,0.00801086,0.0199509,0.0146484,-9.97986,0.00686646,-0.00152588,0.0162125,0.0143433,0.0179291,0.0012207,0.0176239,0.00526428
24,8,10.0097,0.000305176,0.000305176,-2.42623,0.0559862,-0.0741475,0.0535176,0.0688341,-0.0925361,0.145013,-0.126987,-0.0850118,0.0141907,0.0167084,0.0226593,-0.139618,0.0210571,0.0104523,0.0194931,0.0165558,-9.97986,0.00736237,-0.00366211,0.0130844,0.0149918,0.0143051,-0.00236511,0.0174332,0.00518799
24,9,10.0097,0.000610352,0,-2.42684,0.055681,-0.075063,0.0535176,0.07036,-0.0931465,0.144098,-0.125156,-0.0844015,0.0134277,0.0146866,0.0281143,-0.0675583,0.0182724,0.0109863,0.0175476,0.0148392,-9.97986,0.00396729,-0.00118256,0.0136185,0.0140762,0.0152206,-0.00087738,0.0154877,0.0019455
25,0,10.0097,0,0.000762939,-2.42592,0.0562914,-0.0744527,0.0532125,0.0712755,-0.0925361,0.145929,-0.12363,-0.0819601,0.0167847,0.0201035,0.0352859,0.00350952,0.019722,0.0114822,0.0218201,0.010643,-9.97986,0.0094986,-0.00259399,0.0149918,0.0175095,0.020752,-0.000991821,0.0164413,0.00488281
25,1,10.0097,0.000305176,-0.000610352,-2.42562,0.0565965,-0.0735371,0.0538228,0.0709703,-0.0922309,0.146539,-0.125156,-0.0816549,0.00896454,0.018959,0.0400925,0.0348663,0.0170898,0.0115204,0.0187302,0.0131226,-9.97986,0.00576019,-0.000114441,0.0162506,0.0138092,0.0154495,-0.00183105,0.0144196,0.00587463
25,2,10.0097,0.0012207,-0.000457764,-2.42562,0.0565965,-0.0735371,0.0550435,0.0706652,-0.0919257,0.147455,-0.124546,-0.0816549,0.0134659,0.0222778,0.0579834,0.0303268,0.0183105,0.0104523,0.0218964,0.0152206,-9.97986,0.01091,0.000228882,0.0149918,0.0171661,0.0183868,-0.00320435,0.0142288,0.00579834
25,3,10.0097,0.00213623,0.000305176,-2.42562,0.0562914,-0.0744527,0.0556539,0.0706652,-0.0913154,0.146844,-0.123325,-0.0813497,0.0106812,0.0256729,0.0757217,-0.00827789,0.015831,0.00995636,0.0260925,0.0120163,-9.97986,0.0122833,-0.00286102,0.0142288,0.0151062,0.0163269,-0.0124359,0.0142288,0.00179291
25,4,10.0097,-0.000305176,-0.000305176,-2.42531,0.0572069,-0.0747579,0.0544332,0.072191,-0.0910102,0.146844,-0.124241,-0.0810445,0.0113678,0.0334549,0.0858307,0.0163651,0.0206375,0.00549316,0.0247192,0.0146103,-9.97986,0.0141907,-0.00156403,0.0134277,0.0153732,0.017128,-0.013237,0.0173569,0.00724792
25,5,10.0097,0.0012207,-0.00152588,-2.42531,0.0569017,-0.0744527,0.0544332,0.0428942,-0.0955879,0.145624,-0.126987,-0.0825704,0.00926971,0.0297165,0.0882339,0.0448608,0.0181961,0.00823975,0.0231171,0.0152969,-9.97986,0.0152206,-0.00663757,0.0194931,0.0191498,0.0151443,-0.0127792,0.00972748,0.00656128
25,6,8.51186,-0.000305176,-0.00137329,-2.42531,0.055681,-0.0738423,0.0550435,0.0468614,-0.0925361,0.146234,-0.126072,-0.0822652,0.0105286,0.0333023,0.0912476,0.0432587,0.0188065,0.00694275,0.028038,0.0152588,-9.97986,0.0140381,-0.00488281,0.0191498,0.017395,0.0158691,-0.0191498,0.00892639,0.00831604
25,7,7.412,0.000305176,-0.0012207,-2.42623,0.0562914,-0.075063,0.0544332,0.054796,-0.0919257,0.147149,-0.125766,-0.0822652,0.0153351,0.0447845,0.0961304,0.0719452,0.0176239,0.00995636,0.0246429,0.0139999,-9.97986,0.0147629,0.00125885,0.0166321,0.0168228,0.0136185,-0.0205231,0.00427246,0.00709534
25,8,7.2701,0.0012207,0.000152588,-2.42623,0.0547655,-0.0741475,0.0544332,0.0642565,-0.0919257,0.146539,-0.125766,-0.0822652,0.00778198,0.0428391,0.0860596,0.106277,0.0173187,0.00953674,0.0242615,0.0128937,-9.97986,0.0108337,-0.00545502,0.0188446,0.0147247,0.00965118,-0.0217819,0.00526428,0.00507355
25,9,7.5649,-0.00244141,0.000610352,-2.42623,0.0553758,-0.0747579,0.0544332,0.0731066,-0.090705,0.145929,-0.125461,-0.0831808,0.00728607,0.0460815,0.073967,0.128784,0.0152969,0.0050354,0.0291443,0.0147629,-9.97986,0.0196075,-0.00240326,0.015831,0.014534,0.00862122,-0.0214767,0.00389099,0.00396729
26,0,9.37276,0.0012207,0.0012207,-2.42653,0.0550706,-0.0756734,0.054128,0.0990465,-0.0897895,0.145624,-0.124241,-0.0825704,0.00770569,0.0459671,0.0523376,0.121765,0.0172424,0.0094986,0.0310135,0.0126648,-9.97986,0.0218582,-0.00576019,0.0175858,0.0157547,0.0107193,-0.0155258,0.00263214,0.00522614
26,1,10.0097,-0.0012207,0.0012207,-2.42898,0.0535448,-0.0775044,0.0522969,0.092943,-0.0931465,0.143487,-0.125766,-0.0862325,0.00614166,0.0400543,0.0411987,0.093956,0.0172043,0.00904083,0.0327682,0.0138092,-9.97986,0.0193024,-0.00869751,0.0131226,0.0127029,0.00907898,-0.00282288,0.00701904,0.00530243
26,2,10.0097,0.000305176,0.000305176,-2.42959,0.0541551,-0.0759786,0.0501607,0.0776842,-0.0949775,0.144403,-0.127598,-0.0877584,0.0087738,0.0403976,0.0333023,0.0723648,0.0168228,0.00705719,0.0324631,0.0165176,-9.97986,0.022049,-0.00530243,0.0172043,0.0101471,0.0117493,-0.00549316,0.00835419,0.00171661
26,3,10.0097,0.000305176,0.000152588,-2.42867,0.0535448,-0.0787251,0.0532125,0.0715807,-0.0946723,0.145013,-0.126377,-0.0868429,0.010643,0.0366592,0.0235748,0.0578308,0.0159073,0.0104523,0.0281525,0.0165176,-9.97986,0.0203323,-0.0030899,0.0139999,0.0128937,0.00946045,-0.00595093,0.00915527,0.00183105
26,4,10.0097,-0.000305176,-0.000610352,-2.42837,0.0541551,-0.0762837,0.0522969,0.0700548,-0.0946723,0.143792,-0.128208,-0.0871481,0.00736237,0.0304794,0.00709534,0.0452423,0.0193024,0.0140381,0.0274658,0.0153351,-9.97986,0.0207138,0.00339508,0.014267,0.0148773,0.0127029,0.00232697,0.0170517,0.00434875
26,5,10.0097,-0.000305176,-0.000457764,-2.42867,0.0532396,-0.0765889,0.0519917,0.0697496,-0.0937568,0.143792,-0.126987,-0.0871481,0.0101852,0.0307846,-0.00511169,0.0306702,0.0175476,0.00652313,0.0248718,0.0151443,-9.97986,0.0220871,0.00465393,0.0170517,0.016098,0.0123978,0.00156403,0.0163269,0.000610352
26,6,10.0097,0.000305176,-0.000762939,-2.42867,0.0529344,-0.075063,0.0532125,0.0685289,-0.0949775,0.143792,-0.126987,-0.0865377,0.0109482,0.0292969,-0.0247955,0.0174713,0.017662,0.0129318,0.0238037,0.0155258,-9.97986,0.02285,-0.00236511,0.0111771,0.017395,0.0152206,0.000190735,0.0235748,0.00263214
26,7,10.0097,0.000915527,-0.000610352,-2.42837,0.0541551,-0.0756734,0.0526021,0.0694445,-0.0934516,0.144403,-0.126072,-0.0850118,0.00675201,0.0253677,-0.0405121,0.00473022,0.0124741,0.00858307,0.0206757,0.0149918,-9.97986,0.0196457,-0.00102997,0.0127029,0.0125885,0.0144577,-0.00202179,0.0266266,0.00617981
26,8,10.0097,0,0.000152588,-2.42837,0.0547655,-0.0759786,0.0538228,0.0694445,-0.0925361,0.145318,-0.125156,-0.0840963,0.0069046,0.0203705,-0.0521851,-0.0012207,0.0182724,0.00766754,0.0222778,0.0134659,-9.97986,0.0204849,0.0012207,0.0139999,0.0100327,0.0156021,-0.000762939,0.0250626,0.00282288
26,9,10.0097,0.000915527,0.000610352,-2.42623,0.0550706,-0.0741475,0.0538228,0.07036,-0.0928413,0.144098,-0.125766,-0.0834859,0.0163651,0.0139618,-0.0476837,-0.00656128,0.0169754,0.0117111,0.0167084,0.0133896,-9.97986,0.0192261,-0.000686646,0.0136185,0.0156403,0.0162125,0.00106812,0.0255585,0.00549316
27,0,10.0097,0.000305176,0.000152588,-2.42531,0.0553758,-0.0744527,0.054128,0.0706652,-0.0919257,0.14837,-0.125461,-0.0825704,0.0104141,0.00797272,-0.0468826,-0.0121307,0.00801086,0.00827789,0.0185394,0.0166321,-9.97986,0.0163651,0.000915527,0.0180054,0.0140762,0.0188446,0.00507355,0.022049,0.00652313
27,1,10.0097,0.000305176,0,-2.4244,0.0562914,-0.0735371,0.0556539,0.0715807,-0.0919257,0.145624,-0.124851,-0.0822652,0.0139618,0.00198364,-0.0431824,0.00247955,0.0153732,0.00713348,0.0122452,0.0178528,-9.97986,0.0160599,0.00202179,0.0174713,0.0175476,0.0183487,0.00831604,0.0193405,0.00457764
27,2,10.0097,0.000915527,-0.000305176,-2.42592,0.0569017,-0.0741475,0.0538228,0.0712755,-0.0916206,0.14776,-0.123935,-0.0810445,0.0147247,-0.00247955,-0.0358963,-0.00541687,0.0108337,0.00854492,0.0131607,0.0145721,-9.97986,0.01297,-0.00526428,0.0121307,0.0121689,0.0207901,0.00476837,0.0224686,0.00274658
27,3,10.0097,0.000915527,0.000152588,-2.4247,0.0559862,-0.0735371,0.0550435,0.07036,-0.0916206,0.150201,-0.125461,-0.0822652,0.0123978,0.00331879,-0.0282288,-0.0260544,0.0126266,0.00507355,0.0104523,0.0177765,-9.97986,0.0152206,0,0.0161743,0.0114822,0.0185776,0.00904083,0.0225067,0.00484467
27,4,10.0097,-0.000305176,-0.000610352,-2.42318,0.0572069,-0.0744527,0.0550435,0.0712755,-0.0910102,0.146844,-0.123935,-0.0810445,0.0108719,-0.00270844,-0.0193024,-0.0468826,0.0114441,0.00644684,0.0082016,0.0131226,-9.97986,0.0133896,-0.00328064,0.0146866,0.016098,0.0181198,0.00736237,0.0215149,0.00587463
27,5,10.0097,0,-0.00106812,-2.42653,0.0559862,-0.0710957,0.0532125,0.0435045,-0.0955879,0.146844,-0.126072,-0.0816549,0.0122452,0.00556946,-0.0107574,-0.050087,0.0154877,0.0088501,0.0075531,0.0190735,-9.97986,0.0144958,0.00301361,0.0154114,0.0149918,0.018959,0.00293732,0.0212097,0.00385284
27,6,8.39314,0.00244141,-0.00106812,-2.42562,0.0569017,-0.075063,0.054128,0.0462511,-0.0928413,0.145013,-0.126072,-0.0813497,0.0167084,-0.000190735,-0.0025177,-0.0681686,0.0176239,0.00709534,0.0160599,0.0122833,-9.97986,0.00881195,-0.00221252,0.0161362,0.0183105,0.0230789,0.0063324,0.0232697,0.00595093
27,7,7.31038,0.000915527,-0.000610352,-2.42501,0.0559862,-0.0738423,0.0547383,0.0560167,-0.0919257,0.146234,-0.125766,-0.0825704,0.0172424,0.0043869,0.00652313,-0.108795,0.0154877,0.00907898,0.0127029,0.0173569,-9.97986,0.0130844,0.00350952,0.0104904,0.0176239,0.0271606,0.0115967,0.0222778,0.00839233
27,8,7.13643,0.00152588,-0.000305176,-2.42592,0.0553758,-0.0759786,0.0547383,0.0645616,-0.0913154,0.146539,-0.125766,-0.0822652,0.0117493,0.0018692,0.0121307,-0.125504,0.021019,0.00347137,0.0151443,0.0167084,-9.97986,0.00770569,0.000152588,0.0180817,0.0152206,0.0204086,0.0156403,0.020752,0.00621796
27,9,7.42665,0,0.0012207,-2.42653,0.0550706,-0.075063,0.0532125,0.0728014,-0.0919257,0.139825,-0.125766,-0.0822652,0.0136948,0.00404358,0.0204468,-0.12413,0.019455,0.00873566,0.0183105,0.0156403,-9.97986,0.00995636,-0.00183105,0.0161362,0.019722,0.0255203,0.0159836,0.0231171,0.00923157
28,0,9.21193,0.00183105,0.000610352,-2.42592,0.0550706,-0.0747579,0.0544332,0.0996569,-0.0891792,0.144403,-0.125156,-0.0837911,0.01297,-7.62939e-005,0.0197601,-0.160408,0.0125885,0.00888824,0.0189209,0.0196838,-9.97986,0.00743866,-0.000114441,0.0161362,0.0207138,0.021286,0.00911713,0.0232697,0.00991821
28,1,10.0097,0.000915527,0.00167847,-2.42989,0.0526292,-0.0771993,0.0519917,0.0926378,-0.0931465,0.143792,-0.125766,-0.085317,0.0134277,-0.000762939,0.021286,-0.235939,0.0188065,0.00988007,0.0188446,0.0204086,-9.97986,0.00537872,0.000457764,0.021553,0.0189972,0.0207901,0.000839233,0.0210953,0.0135422
28,2,10.0097,0,-0.000457764,-2.42867,0.0538499,-0.0759786,0.0510762,0.0776842,-0.0949775,0.146234,-0.126987,-0.0868429,0.0129318,-0.000839233,0.032196,-0.23613,0.0192642,0.00595093,0.0216675,0.0135422,-9.97986,0.00617981,-0.00259399,0.0162125,0.0191116,0.0174332,-0.0030899,0.0187302,0.00957489
28,3,10.0097,0.0012207,-0.000610352,-2.42867,0.0535448,-0.0759786,0.0522969,0.072191,-0.0952827,0.144708,-0.126377,-0.0868429,0.0134659,0.00785828,0.0470352,-0.164833,0.0153351,0.0107956,0.0260925,0.0154877,-9.97986,0.00850677,0.00461578,0.0162125,0.0175476,0.0149536,-0.00572205,0.019989,0.00999451
28,4,10.0097,0,-0.000610352,-2.42959,0.0544603,-0.0765889,0.0522969,0.07036,-0.0955879,0.142267,-0.126987,-0.0877584,0.0139999,0.0159836,0.0572586,-0.110321,0.0170898,0.00526428,0.0278854,0.0127411,-9.97986,0.00812531,0.00289917,0.0165558,0.0179291,0.0159073,-0.00869751,0.0183868,0.0144958
28,5,10.0097,0.00152588,-0.000610352,-2.42867,0.0538499,-0.0768941,0.0519917,0.0691393,-0.0949775,0.142572,-0.127598,-0.0868429,0.0138092,0.0238037,0.0690842,-0.0352097,0.021286,0.00537872,0.0257492,0.0102615,-9.97986,0.0108337,0.00621796,0.0179291,0.022583,0.016861,-0.00713348,0.0128937,0.0103378
28,6,10.0097,0.000610352,-0.000457764,-2.42837,0.0538499,-0.0762837,0.0538228,0.0688341,-0.0955879,0.143792,-0.127292,-0.0859274,0.00972748,0.0284576,0.0849533,0.0197983,0.0223541,0.01091,0.0289154,0.00827789,-9.97986,0.00923157,0.00789642,0.0115967,0.0172806,0.0164032,-0.00782013,0.0145721,0.00984192
28,7,10.0097,0.00152588,-0.000305176,-2.42806,0.0538499,-0.0759786,0.054128,0.0688341,-0.0937568,0.143792,-0.126682,-0.085317,0.00705719,0.0336075,0.103569,0.0461197,0.0188446,0.00980377,0.0262451,0.00610352,-9.97986,0.0132751,0.00507355,0.0153351,0.0181961,0.0134659,-0.0144577,0.014267,0.00846863
28,8,10.0097,0.0012207,0.000152588,-2.42837,0.0535448,-0.0747579,0.0535176,0.0697496,-0.0934516,0.146539,-0.126072,-0.0837911,0.00991821,0.0394821,0.107269,0.150185,0.0180435,0.0121307,0.0315094,0.0063324,-9.97986,0.0164795,0.00415802,0.0159836,0.0196075,0.0143051,-0.0183105,0.0127029,0.00514984
28,9,10.0097,0.000305176,0.000152588,-2.42745,0.0550706,-0.075063,0.0532125,0.0712755,-0.0916206,0.145318,-0.125766,-0.0834859,0.00854492,0.0506973,0.112839,0.220642,0.0175858,0.00900269,0.0289536,0.000495911,-9.97986,0.015831,0.00865936,0.0118256,0.0196457,0.0160217,-0.0196838,0.0139236,0.0063324
29,0,10.0097,0.00213623,-0.000457764,-2.42562,0.0559862,-0.0744527,0.0538228,0.0697496,-0.0931465,0.147149,-0.125156,-0.0816549,0.0112152,0.0639725,0.122871,0.193863,0.0228119,0.01194,0.0290298,0.00679016,-9.97986,0.0160599,0.0075531,0.0125885,0.0194168,0.0124741,-0.0180435,0.0088501,0.0075531
29,1,10.0097,0.000610352,-0.000152588,-2.42592,0.055681,-0.075063,0.054128,0.0697496,-0.0922309,0.14837,-0.12302,-0.0807394,0.00782013,0.0721741,0.126572,0.180016,0.0222778,0.0126266,0.0296021,0.0114059,-9.97986,0.0170517,-0.00228882,0.0144196,0.0228119,0.0136185,-0.0201416,0.0131607,0.000648499
29,2,10.0097,0,0.000915527,-2.42501,0.0565965,-0.075063,0.0544332,0.0718859,-0.0910102,0.147149,-0.123935,-0.0810445,0.00854492,0.0732803,0.117035,0.191078,0.0198746,0.00984192,0.0319672,0.0145721,-9.97986,0.0201035,-0.0043869,0.00999451,0.0240326,0.00442505,-0.0251007,0.00938416,0.00183105
29,3,10.0097,0.00244141,0.000457764,-2.42562,0.0553758,-0.0744527,0.0550435,0.0718859,-0.0922309,0.147149,-0.124241,-0.0813497,0.00843048,0.0683594,0.117798,0.188789,0.0209427,0.00408173,0.0254822,0.0173569,-9.97986,0.025177,-0.00621796,0.00823975,0.0226593,0.00835419,-0.0314331,0.0106812,0.000114441
29,4,10.0097,-0.000610352,0.000305176,-2.4244,0.0569017,-0.0735371,0.0535176,0.0712755,-0.0922309,0.147149,-0.123935,-0.0807394,0.00797272,0.0645447,0.109406,0.209236,0.018425,0.0121307,0.0201797,0.0223541,-9.97986,0.0276947,-0.0094986,0.00988007,0.0242233,0.0082016,-0.0278473,0.00995636,-0.000724792
29,5,10.0097,0.000305176,-0.00106812,-2.42501,0.0559862,-0.0747579,0.0538228,0.0438097,-0.0949775,0.146844,-0.126072,-0.0831808,0.00663757,0.0629425,0.0760651,0.200806,0.0169373,0.0163269,0.0161362,0.0240326,-9.97986,0.0339508,-0.0115204,0.00587463,0.0229263,0.00770569,-0.0256348,0.00881195,0.0018692
29,6,8.34859,-0.00274658,-0.00137329,-2.42562,0.0581224,-0.0744527,0.0544332,0.0450304,-0.0922309,0.145318,-0.125461,-0.0804342,0.00495911,0.0615311,0.0428009,0.158272,0.0250626,0.010376,0.0130081,0.0231552,-9.97986,0.0313187,-0.0125885,0.00919342,0.0171661,0.00854492,-0.0249481,0.00762939,-0.00114441
29,7,7.23805,0.0012207,-0.000457764,-2.42623,0.055681,-0.0747579,0.0538228,0.054796,-0.0931465,0.145929,-0.126377,-0.0816549,0.00827789,0.0516891,-0.00236511,0.130692,0.0184631,0.00827789,0.0179672,0.0222778,-9.97986,0.0320435,-0.00411987,0.00389099,0.0203323,0.0101852,-0.0185013,0.00663757,-0.00347137
29,8,7.05342,0.000305176,-0.000457764,-2.42592,0.0550706,-0.0744527,0.0538228,0.0645616,-0.0934516,0.145624,-0.125766,-0.0831808,0.00869751,0.0417328,-0.0504303,0.115013,0.020256,0.01194,0.0112152,0.019989,-9.97986,0.0268555,-0.00476837,0.0125504,0.0160217,0.0075531,-0.0157166,0.00900269,-0.00530243
29,9,7.3351,-0.000915527,0.000762939,-2.42684,0.0550706,-0.0747579,0.0535176,0.0746324,-0.0919257,0.145624,-0.125156,-0.0825704,0.0121307,0.0310516,-0.0957489,0.0985718,0.0187683,0.0123215,0.0104141,0.0232315,-9.97986,0.0316238,-0.00637054,0.0116348,0.0200272,0.00705719,-0.0173569,0.00587463,-0.00282288
30,0,9.13838,-0.00274658,0.000610352,-2.42653,0.0547655,-0.0741475,0.0544332,0.0978258,-0.0882636,0.143792,-0.12302,-0.0831808,0.0152588,0.0152969,-0.128899,0.0891495,0.0140762,0.014267,0.00591278,0.0208282,-9.97986,0.0271225,-0.00102997,0.0082016,0.0194168,0.00553131,-0.00862122,0.00602722,-0.00415802
30,1,10.0097,0.00244141,0.00198364,-2.42867,0.0550706,-0.0753682,0.0526021,0.0944689,-0.0943672,0.142877,-0.125461,-0.0856222,0.0114059,0.00934601,-0.135002,0.0732422,0.0190353,0.0125122,0.0044632,0.0223541,-9.97986,0.0246429,-0.00347137,0.00793457,0.0242615,0.00724792,-0.00549316,0.00835419,-0.00301361
30,2,10.0097,0.00183105,0.00152588,-2.42898,0.0541551,-0.0765889,0.0519917,0.0785997,-0.0943672,0.143792,-0.126987,-0.0862325,0.00938416,0.00358582,-0.131912,0.0633621,0.0178146,0.0107956,0.00682831,0.0268173,-9.97986,0.0222397,0,0.0131989,0.0334167,0.0110626,-0.00389099,0.0117493,0.00354767
30,3,10.0097,0.00305176,0.00137329,-2.42837,0.0547655,-0.0756734,0.0522969,0.0728014,-0.095893,0.145013,-0.127598,-0.0865377,0.0157547,-0.00465393,-0.115242,0.0550461,0.0193405,0.0088501,0.0119019,0.0212479,-9.97986,0.0228882,-0.00221252,0.0138092,0.0565338,0.00930786,-0.00904083,0.0172806,-0.000801086
30,4,10.0097,0.00274658,0.000915527,-2.42928,0.0538499,-0.0756734,0.0519917,0.0700548,-0.0946723,0.143792,-0.127598,-0.0862325,0.00984192,-0.00469208,-0.0907898,0.0391769,0.013504,0.0088501,0.0148773,0.0209427,-9.97986,0.0215149,-0.00598907,0.0138092,0.0702286,0.00896454,-0.0138474,0.016098,0.00640869
30,5,10.0097,-0.000305176,0.0012207,-2.42837,0.0547655,-0.0762837,0.0526021,0.0685289,-0.0952827,0.144403,-0.127903,-0.0871481,0.0134659,-0.00610352,-0.0690842,0.0341797,0.0088501,0.0114822,0.02285,0.0227737,-9.97986,0.0216293,-0.0019455,0.0151443,0.0678635,0.0104141,-0.0206757,0.0192261,0.00377655
30,6,10.0097,0.000305176,-0.000762939,-2.42989,0.0547655,-0.075063,0.0526021,0.0694445,-0.0946723,0.144708,-0.127292,-0.0856222,0.00839233,0.00038147,-0.0522232,0.0272751,0.0102997,0.0106049,0.0259399,0.0202179,-9.97986,0.0191498,-0.000305176,0.0128937,0.0629044,0.010376,-0.0209808,0.016861,0.00541687
30,7,10.0097,0.0012207,-0.000762939,-2.42806,0.0547655,-0.0762837,0.0526021,0.0688341,-0.0928413,0.145929,-0.125461,-0.0856222,0.0144958,0.00190735,-0.0399017,0.0200653,0.0183105,0.00274658,0.0220108,0.0178528,-9.97986,0.0198364,0.00282288,0.0128555,0.0519562,0.00995636,-0.0155258,0.0155258,0.0100327
30,8,10.0097,0.000915527,-0.0012207,-2.42837,0.0547655,-0.0741475,0.0526021,0.0688341,-0.0946723,0.145318,-0.126377,-0.085317,0.0120926,0.00595093,-0.0286102,0.0109863,0.0179672,0.0116348,0.0187683,0.0183105,-9.97986,0.0181961,0.00179291,0.0180054,0.0416946,0.010376,-0.0152588,0.0169373,0.0087738
30,9,10.0097,0.00152588,-0.000457764,-2.42623,0.0562914,-0.0753682,0.0544332,0.0718859,-0.0934516,0.144708,-0.126072,-0.0831808,0.0147247,0.00801086,-0.0249863,0.00038147,0.0137329,0.00843048,0.0263214,0.0154495,-9.97986,0.0167847,-0.00686646,0.0157166,0.0323486,0.0172806,-0.0182724,0.0172043,0.0136566
31,0,10.0097,0.000305176,-0.000610352,-2.42714,0.0553758,-0.0744527,0.0535176,0.0712755,-0.0931465,0.145318,-0.125156,-0.0819601,0.0122452,0.0112534,-0.0235367,-0.0238037,0.0127029,0.00495911,0.0320816,0.0165939,-9.97986,0.0130463,-0.0100708,0.0133896,0.0338745,0.0139236,-0.0121307,0.0185776,0.0152588
31,1,10.0097,0.000610352,-0.000457764,-2.42531,0.0559862,-0.0741475,0.054128,0.0697496,-0.0919257,0.146539,-0.124851,-0.0804342,0.0131989,0.0113678,-0.012207,-0.0463486,0.01194,0.0115204,0.0337219,0.0165558,-9.97986,0.014534,-0.00602722,0.0200272,0.034523,0.0151443,0.000457764,0.018692,0.0167084
31,2,10.0097,0.00152588,-0.000152588,-2.42562,0.0547655,-0.0738423,0.0553487,0.0709703,-0.0903999,0.147149,-0.123325,-0.0810445,0.0151825,0.00934601,-0.0075531,-0.0591278,0.00965118,0.0069809,0.0318146,0.0159073,-9.97986,0.0133133,-0.0088501,0.0119019,0.026474,0.0195694,0.00534058,0.0211334,0.0196838
31,3,10.0097,0.000305176,-0.000610352,-2.42592,0.0569017,-0.0744527,0.0547383,0.0709703,-0.0913154,0.147455,-0.124241,-0.0813497,0.0115967,0.0082016,-0.00038147,-0.0665283,0.0107193,0.0087738,0.0273514,0.0179291,-9.97986,0.0110245,-0.00827789,0.0210571,0.0248718,0.017128,0.0107956,0.014801,0.0191498
31,4,10.0097,0.000915527,-0.000457764,-2.42531,0.0562914,-0.0747579,0.0562642,0.07036,-0.090705,0.147455,-0.124241,-0.0813497,0.0137329,0.00808716,0.0102997,-0.0794601,0.0117874,0.0112534,0.0304031,0.0131607,-9.97986,0.00980377,-0.0112152,0.0199127,0.0142288,0.0188065,0.00751495,0.0154495,0.0200272
31,5,10.0097,0.0012207,-0.00137329,-2.42562,0.0559862,-0.0747579,0.0516866,0.0428942,-0.0949775,0.146539,-0.126072,-0.0825704,0.014534,0.0127411,0.0139999,-0.109329,0.0156784,0.00350952,0.0284195,0.0159454,-9.97986,0.00743866,-0.00728607,0.0130844,0.0152588,0.0180054,0.00293732,0.0143814,0.0205231
31,6,8.19386,0.00183105,-0.00213623,-2.42653,0.055681,-0.0738423,0.0544332,0.0459459,-0.0931465,0.147455,-0.125461,-0.0810445,0.0144577,0.0103378,0.0209045,-0.124168,0.0198364,0.00526428,0.0255966,0.0138855,-9.97986,0.00736237,-0.00938416,0.0164032,0.0117111,0.018692,0.00610352,0.0128937,0.0211334
31,7,7.07448,0.000915527,-0.0012207,-2.42623,0.055681,-0.0738423,0.0544332,0.0538805,-0.0925361,0.145624,-0.126072,-0.0816549,0.0136948,0.0135803,0.0306702,-0.101433,0.0170898,0.00556946,0.0325775,0.0145721,-9.97986,0.00988007,-0.0050354,0.0234985,0.0114822,0.0200272,0.00537872,0.0131226,0.0205994
31,8,6.85689,0.000915527,-0.000152588,-2.42562,0.0544603,-0.0753682,0.0538228,0.0639513,-0.0913154,0.147149,-0.125461,-0.0825704,0.0124359,0.0161743,0.0384903,-0.0837708,0.0237274,0.0101852,0.0370407,0.0189972,-9.97986,0.00923157,-0.00450134,0.019989,0.0108719,0.019722,0.00473022,0.00865936,0.0213623
31,9,7.11385,-0.000610352,-0.000457764,-2.42714,0.0535448,-0.0744527,0.0538228,0.0724962,-0.0913154,0.145318,-0.126072,-0.0831808,0.0140762,0.0174713,0.0507736,-0.115509,0.0202942,0.00720978,0.0406265,0.0163269,-9.97986,0.0111389,-7.62939e-005,0.0158691,0.0082016,0.0173187,0.0094986,0.01297,0.0175095
32,0,8.92018,0.000610352,0.00137329,-2.42684,0.0547655,-0.0744527,0.0556539,0.0987413,-0.0900947,0.144403,-0.124851,-0.0840963,0.0143051,0.018158,0.0516891,-0.132065,0.0227737,0.00469208,0.0438309,0.018158,-9.97986,0.00751495,-0.00469208,0.0170135,0.000267029,0.0166321,0.0124741,0.00629425,0.018959
32,1,10.0097,0.000305176,0.00183105,-2.42867,0.0532396,-0.0765889,0.0513814,0.0969103,-0.0928413,0.143182,-0.124851,-0.0859274,0.0104904,0.0177765,0.0586319,-0.0627899,0.0230408,0.00747681,0.0439453,0.0172043,-9.97986,0.00762939,-0.00247955,0.014801,0.000457764,0.0157547,0.0140381,0.00640869,0.0150299
32,2,10.0097,0.000610352,0.000610352,-2.42928,0.0532396,-0.0753682,0.0519917,0.0795153,-0.0955879,0.143487,-0.127598,-0.0865377,0.0131607,0.0250626,0.0675201,0.0286865,0.0227737,0.00659943,0.0434494,0.0122452,-9.97986,0.00907898,0.00156403,0.0193405,0.00106812,0.0196838,0.0159454,0.00995636,0.0151825
32,3,10.0097,0,-0.000762939,-2.42928,0.0535448,-0.0759786,0.050771,0.0712755,-0.0943672,0.144098,-0.126987,-0.0865377,0.00751495,0.030899,0.0680542,0.065155,0.0203323,0.00392914,0.0359726,0.0127029,-9.97986,0.00629425,-0.0050354,0.0150299,-0.00305176,0.0148773,0.00656128,0.00587463,0.0162125
32,4,10.0097,0.000915527,-0.000915527,-2.42959,0.0529344,-0.0759786,0.0519917,0.0706652,-0.0955879,0.144098,-0.127903,-0.0874532,0.0111389,0.0382996,0.0638199,0.100632,0.021553,0.00778198,0.0331497,0.0139236,-9.97986,0.0131989,-3.8147e-005,0.022583,-0.00946045,0.0160599,0.0044632,0.0114822,0.0141144
32,5,10.0097,0.000915527,-0.000152588,-2.42867,0.0544603,-0.0747579,0.0529073,0.07036,-0.0946723,0.143487,-0.127292,-0.0868429,0.00976563,0.042038,0.0594711,0.116081,0.0237656,0.0119019,0.0323868,0.0183487,-9.97986,0.0153351,-0.00282288,0.0191116,-0.0030899,0.0187683,-0.00198364,0.00865936,0.0119019
32,6,10.0097,-0.000610352,-0.000915527,-2.42867,0.0541551,-0.0759786,0.0516866,0.0697496,-0.0934516,0.143487,-0.126377,-0.0868429,0.00957489,0.045166,0.0478363,0.109215,0.0215912,0.00766754,0.0365829,0.0139618,-9.97986,0.0140381,-0.00274658,0.0158691,-0.00583649,0.0152588,-0.00038147,0.0111008,0.00823975
32,7,10.0097,-0.00183105,0.000152588,-2.42776,0.0541551,-0.0756734,0.0535176,0.0691393,-0.094062,0.144098,-0.126987,-0.085317,0.0147629,0.0501251,0.0337601,0.0917053,0.0224304,0.00953674,0.0333023,0.0200272,-9.97986,0.0166321,-0.0037384,0.0200653,-0.0106812,0.0183487,-0.00522614,0.00953674,0.00682831
32,8,10.0097,0.000610352,-0.000152588,-2.42653,0.0541551,-0.0747579,0.0532125,0.0691393,-0.0931465,0.144403,-0.125766,-0.0844015,0.017128,0.0462723,0.0183105,0.0695801,0.026741,0.0110245,0.0341034,0.0235367,-9.97986,0.0175858,-0.0125122,0.0137329,-0.00968933,0.014267,-0.00900269,0.00404358,0.00808716
32,9,10.0097,0.00183105,0.000610352,-2.42776,0.0553758,-0.075063,0.0532125,0.0712755,-0.0928413,0.145318,-0.125766,-0.0837911,0.0178146,0.0480652,0.00904083,0.0481415,0.0204468,0.0124359,0.031395,0.0230789,-9.97986,0.0132751,-0.00602722,0.0152969,-0.0102234,0.00991821,-0.00198364,0.00766754,0.00118256
33,0,10.0097,0.000305176,0.000457764,-2.42531,0.055681,-0.0741475,0.0535176,0.0697496,-0.0922309,0.145318,-0.124241,-0.0816549,0.0164795,0.0442505,0.00869751,0.0352859,0.0196075,0.0124741,0.0289917,0.0264359,-9.97986,0.0225449,-0.00106812,0.0144577,-0.00709534,0.0121307,-0.00610352,0.0101471,-0.000801086
33,1,10.0097,0.00244141,-0.000152588,-2.4244,0.0562914,-0.0738423,0.0556539,0.072191,-0.0913154,0.145318,-0.123935,-0.0825704,0.00999451,0.034523,0.0105286,0.0214386,0.0194931,0.0147629,0.025177,0.0329971,-9.97986,0.0248337,0.00225067,0.00999451,-0.00549316,0.0124741,-0.00743866,0.0107574,-0.0030899
33,2,10.0097,-0.000915527,0,-2.42501,0.0575121,-0.0735371,0.054128,0.0706652,-0.0922309,0.146234,-0.12363,-0.0813497,-0.00244141,0.0331116,0.0170135,0.013504,0.0139618,0.0138474,0.00709534,0.0302887,-9.97986,0.0181961,0.00598907,0.00846863,-0.0102615,0.0137329,0.00236511,0.00785828,-0.0105286
33,3,10.0097,0.000610352,0.000610352,-2.42501,0.0578172,-0.0735371,0.0553487,0.0709703,-0.0922309,0.145929,-0.12363,-0.080129,0.00648499,0.0296783,0.027504,0.00492096,0.0147247,0.0144958,-0.00148773,0.0307083,-9.97986,0.0193405,0.00274658,0.00617981,-0.00972748,0.0131607,0.00720978,0.0123596,-0.0103378
33,4,10.0097,0.00183105,0,-2.42623,0.055681,-0.0744527,0.054128,0.0712755,-0.0910102,0.146234,-0.124546,-0.0804342,0.00675201,0.0262451,0.0348663,0.0111771,0.0153732,0.01091,-0.00667572,0.0271606,-9.97986,0.0118256,0.000267029,0.013237,-0.0069809,0.0150681,0.00648499,0.0150299,-0.0113678
33,5,10.0097,-0.000305176,-0.0012207,-2.42592,0.0562914,-0.0738423,0.0538228,0.042589,-0.0955879,0.14776,-0.126377,-0.0825704,0.0101089,0.0279617,0.0511551,0.0207138,0.0140381,0.0151062,-0.00343323,0.0244522,-9.97986,0.0104141,-0.000305176,0.00957489,-0.00564575,0.0173187,0.00164032,0.0175476,-0.0112152
33,6,8.49294,0.000305176,-0.00106812,-2.42531,0.0562914,-0.0738423,0.054128,0.0456407,-0.0931465,0.146539,-0.126072,-0.0813497,0.0189209,0.0214386,0.0564575,0.0217056,0.0127029,0.0122833,-0.0139236,0.0206375,-9.97986,0.0104523,0.00392914,0.00980377,-0.00335693,0.021286,-0.00293732,0.0260544,-0.00640869
33,7,7.40224,0.000610352,-0.00106812,-2.42684,0.0559862,-0.0747579,0.054128,0.0551012,-0.0931465,0.146844,-0.126377,-0.0816549,0.00957489,0.0305939,0.0627136,0.0206757,0.0146866,0.0127029,-0.016098,0.0179672,-9.97986,0.00923157,0.0144577,0.0132751,-0.00274658,0.0230026,-0.0127792,0.0233078,-0.00545502
33,8,7.23073,0.000610352,0,-2.42653,0.0553758,-0.0738423,0.0544332,0.065172,-0.0919257,0.146539,-0.125156,-0.0819601,0.00724792,0.0320435,0.0610352,0.00038147,0.016861,0.014267,-0.00701904,0.0148773,-9.97986,0.013504,0.0257111,0.0141144,-0.00473022,0.0251007,-0.0139236,0.019455,-0.0025177
33,9,7.5298,-0.000305176,0,-2.42623,0.0544603,-0.0744527,0.0547383,0.0737169,-0.0913154,0.145624,-0.125156,-0.0840963,0.0347519,0.0376511,0.0569153,-0.026474,0.0163269,0.0135803,0.00202179,0.0134277,-9.97986,0.0146484,0.0133133,0.0150299,-0.00682831,0.026207,-0.0111389,0.0165176,-0.00198364
34,0,9.40206,-0.00183105,0.0012207,-2.42684,0.055681,-0.0765889,0.0535176,0.0987413,-0.088874,0.146234,-0.123935,-0.0844015,0.0514984,0.0323868,0.0411606,-0.0424957,0.0124741,0.0138474,0.0208282,0.0218201,-9.97986,0.00953674,-0.00087738,0.0131226,-0.0128555,0.0265503,-0.0166321,0.0108719,-0.00202179
34,1,10.0097,0.000305176,0.00137329,-2.42898,0.0523241,-0.0753682,0.0532125,0.0923326,-0.0937568,0.142877,-0.126072,-0.0865377,0.0233459,0.0313568,0.026741,-0.0610733,0.0128937,0.0108337,0.029068,0.0304794,-9.97986,-0.000724792,-0.00907898,0.0110245,-0.0203323,0.0258636,-0.0119781,0.00854492,-0.00354767
34,2,10.0097,0.000915527,-0.000305176,-2.42959,0.0532396,-0.0759786,0.0519917,0.0779894,-0.0971137,0.143182,-0.126682,-0.0883688,-0.0510406,0.0286865,0.0155258,-0.0765991,0.0109863,0.0130081,0.0206757,0.0287628,-9.97986,-0.00190735,-0.0203323,0.0147629,-0.0198746,0.0273514,-0.00904083,0.00637054,-0.00236511
34,3,10.0097,-0.000915527,-0.000152588,-2.42348,0.0529344,-0.0759786,0.0522969,0.0724962,-0.0946723,0.141351,-0.126377,-0.0856222,-0.0786972,0.0254822,0.0108719,-0.0844193,0.0125504,0.0118256,0.0238419,0.0200272,-9.97986,-0.01091,-0.0236893,0.0168991,-0.0196457,0.0300217,0.00331879,0.00774384,-0.000801086
34,4,10.0097,-0.000610352,-0.000457764,-2.42959,0.0547655,-0.0759786,0.0556539,0.0700548,-0.095893,0.143487,-0.127598,-0.0871481,-0.0782776,0.0251007,0.00671387,-0.0872803,0.0125885,0.0118256,0.0294876,0.0156403,-9.97986,-0.0350952,-0.0231171,0.0146103,-0.0218201,0.0284958,0.00392914,0.00522614,0.00114441
34,5,10.0097,0.0012207,0,-2.42928,0.0544603,-0.0756734,0.0529073,0.0691393,-0.0949775,0.144403,-0.130344,-0.0850118,-0.0805283,0.0271225,0.012207,-0.0897598,0.00782013,0.0135803,0.0331497,0.013504,-9.97986,-0.04776,-0.00682831,0.0152969,-0.0286484,0.0309753,-0.00427246,-0.000953674,0.00629425
34,6,10.0097,-0.000610352,-0.000762939,-2.43142,0.0538499,-0.075063,0.0522969,0.0679186,-0.0931465,0.143792,-0.126987,-0.0856222,-0.066185,0.0270081,0.0265503,-0.100212,0.00968933,0.017395,0.0279236,0.0113678,-9.97986,-0.0533676,-0.00400543,0.0173187,-0.0328445,0.0281906,-0.0157928,0.00411987,0.00976563
34,7,10.0097,0.000915527,-0.00106812,-2.42867,0.0544603,-0.075063,0.0513814,0.0685289,-0.0943672,0.145013,-0.126987,-0.0850118,-0.0425339,0.0221252,0.0314331,-0.109673,0.0069809,0.0141525,0.0270081,0.00347137,-9.97986,-0.0535965,-0.00541687,0.018692,-0.0345993,0.0265884,-0.0164795,0.00377655,0.0107193
34,8,10.0097,0.000915527,0.000152588,-2.42745,0.0547655,-0.075063,0.0532125,0.0697496,-0.0916206,0.144403,-0.127292,-0.0850118,-0.00865936,0.0207901,0.0443649,-0.0767517,0.00862122,0.017128,0.0275421,-0.00270844,-9.97986,-0.0349808,-0.00286102,0.0225067,-0.0354004,0.0210953,-0.01194,0.00247955,0.01297
34,9,10.0097,-0.00274658,0.000152588,-2.42348,0.0544603,-0.0759786,0.0535176,0.0728014,-0.0925361,0.145929,-0.125461,-0.0834859,0.0382996,0.0152206,0.0500488,-0.0495148,0.0088501,0.0159454,0.0212479,-0.00434875,-9.97986,-0.00709534,-0.00213623,0.019722,-0.0265121,0.0281143,-0.0025177,0.00232697,0.0144577
35,0,10.0097,-0.000305176,0.000457764,-2.4247,0.0559862,-0.075063,0.0550435,0.0734117,-0.0922309,0.146539,-0.125156,-0.0828756,0.0931549,0.0171661,0.0605774,-0.0419998,0.0113297,0.0153351,0.0252151,-0.0087738,-9.97986,0.0203705,-0.00732422,0.0203323,-0.0254059,0.0299835,0.00736237,0.000267029,0.0165176
35,1,10.0097,0.000915527,0.0012207,-2.42531,0.0569017,-0.0735371,0.0538228,0.0712755,-0.0910102,0.145624,-0.128513,-0.080129,0.11673,0.0164413,0.0708008,0.00453949,0.0138474,0.0130463,0.0255203,-0.0166321,-9.97986,0.029068,-0.0111771,0.0237274,-0.0191116,0.0281143,0.0122452,-0.000190735,0.0177002
35,2,10.0097,0,0.000457764,-2.42257,0.0562914,-0.0741475,0.0544332,0.0709703,-0.0919257,0.14776,-0.124546,-0.0816549,0.0946808,0.017662,0.0694656,0.0972366,0.0136185,0.0127029,0.0297546,-0.0177002,-9.97986,0.0125122,-0.0192261,0.0224686,-0.0178909,0.0263596,0.00953674,-0.00793457,0.0165558
35,3,10.0097,0.000915527,0.000610352,-2.42592,0.0559862,-0.0738423,0.0535176,0.0697496,-0.0925361,0.148065,-0.12302,-0.0819601,0.0617218,0.0204849,0.075798,0.145111,0.0218201,0.0145721,0.038681,-0.0156784,-9.97986,-0.0153732,-0.0102615,0.0233078,-0.00713348,0.0314713,0.0171661,-0.00774384,0.0190353
35,4,10.0097,0,0.000610352,-2.42531,0.0550706,-0.0738423,0.0544332,0.0709703,-0.0922309,0.145929,-0.123935,-0.0786031,0.0372314,0.0244904,0.0668335,0.106697,0.0240707,0.0105286,0.056839,-0.00782013,-9.97986,-0.0255966,-0.00534058,0.0234222,0.00209808,0.0255585,0.0107193,-0.00247955,0.019989
35,5,10.0097,0.000305176,-0.000915527,-2.42196,0.0559862,-0.0741475,0.0532125,0.042589,-0.0952827,0.148065,-0.126377,-0.0825704,0.0268173,0.025177,0.0561142,0.0783157,0.0263977,0.0104904,0.0642395,-0.0127792,-9.97986,-0.0243378,-0.00320435,0.0236893,-0.00499725,0.0279236,0.0104904,-0.00488281,0.0226593
35,6,8.34157,-0.000305176,-0.00152588,-2.42531,0.0572069,-0.0744527,0.0538228,0.052965,-0.0928413,0.147149,-0.126987,-0.0819601,0.0111389,0.0266647,0.0402451,0.0950241,0.0269318,0.0148392,0.053215,-0.0136948,-9.97986,-0.0197601,-0.0104904,0.0261688,-0.00282288,0.0302505,0.0119019,-0.00434875,0.0229263
35,7,7.25026,-0.000610352,-0.000915527,-2.42623,0.0559862,-0.0741475,0.0544332,0.0538805,-0.094062,0.145318,-0.124851,-0.0786031,0.0173187,0.0266647,0.0218582,0.108833,0.0276566,0.0128174,0.0512314,-0.0180435,-9.97986,-0.0133514,-0.0131989,0.0245667,-0.0063324,0.0256729,-0.00228882,-0.00137329,0.0190353
35,8,7.0403,0.00213623,0.000152588,-2.42165,0.0547655,-0.0753682,0.0544332,0.0648668,-0.0922309,0.146539,-0.125461,-0.0825704,0.0299072,0.0343323,0.0127411,0.106659,0.0283051,0.013237,0.0443268,-0.0199127,-9.97986,0.0104141,-0.0101089,0.021286,-0.0128555,0.0263214,-0.0185013,-0.00125885,0.0167465
35,9,7.28505,0.00183105,0.000305176,-2.42684,0.0550706,-0.0741475,0.0547383,0.0746324,-0.0913154,0.145013,-0.125766,-0.0828756,0.0305939,0.0320053,0.00751495,0.0869751,0.0255966,0.0178146,0.033226,-0.0100708,-9.97986,0.0409317,-0.0018692,0.0210571,-0.00797272,0.0204468,-0.0207138,-0.00106812,0.0127029
36,0,9.11122,-0.000305176,0.000762939,-2.42776,0.0544603,-0.075063,0.0550435,0.0990465,-0.0882636,0.144708,-0.119358,-0.0831808,0.0314331,0.0276184,0.00457764,0.0756836,0.0277328,0.0169754,0.0279617,-0.00846863,-9.97986,0.049057,-0.0031662,0.0186157,-0.00759125,0.0194168,-0.0119781,0.00167847,0.0094986
36,1,10.0097,0.000915527,0.00259399,-2.42989,0.0541551,-0.0756734,0.0532125,0.0953844,-0.0943672,0.142877,-0.125156,-0.0862325,0.0238419,0.0201416,-0.00419617,0.0418854,0.0287247,0.0186539,0.0188065,-0.00461578,-9.97986,0.043869,0.00576019,0.0145721,-0.00541687,0.0157166,-0.0113297,0.00118256,0.00587463
36,2,10.0097,0.00183105,0.000915527,-2.42867,0.0535448,-0.0756734,0.0519917,0.0734117,-0.0949775,0.142572,-0.127598,-0.0865377,0.022583,0.00980377,-0.0205612,0.00240326,0.0235748,0.0188446,0.0200653,0.00961304,-9.97986,0.0576019,0.0245285,0.013504,0.00782013,0.0165558,-0.00865936,-0.000724792,0.00465393
36,3,10.0097,0.000610352,0.000915527,-2.42867,0.0559862,-0.0756734,0.0522969,0.0728014,-0.0949775,0.143182,-0.129734,-0.0850118,0.0323486,0.00900269,-0.033493,-0.00904083,0.0285339,0.0192261,0.0154114,0.0134659,-9.97986,0.0685883,0.0343704,0.0178146,0.00770569,0.0144577,-0.000724792,0.00362396,0.00171661
36,4,10.0097,0.000610352,0.000152588,-2.42837,0.0538499,-0.0756734,0.050771,0.0709703,-0.0961982,0.142572,-0.126682,-0.0874532,0.0232315,-0.000495911,-0.051384,-0.00621796,0.0255203,0.0169373,0.00804901,0.0138855,-9.97986,0.0715256,0.0242996,0.0143051,0.0147629,0.0191879,0.00476837,0.00659943,-0.00171661
36,5,10.0097,0.00152588,-0.000457764,-2.42837,0.0535448,-0.0759786,0.0519917,0.075548,-0.094062,0.145013,-0.126682,-0.0871481,0.0292969,-0.00522614,-0.055275,0.0140381,0.0244522,0.0188446,0.00450134,0.0187683,-9.97986,0.0743103,0.0156403,0.0134277,0.00957489,0.022583,0.00110626,0.00823975,-0.00637054
36,6,10.0097,0.00152588,-0.000305176,-2.42898,0.0541551,-0.0744527,0.0522969,0.0715807,-0.0934516,0.143792,-0.129429,-0.0844015,0.0379562,-0.00179291,-0.0540543,0.000190735,0.0170135,0.0198746,-0.000610352,0.0250626,-9.97986,0.0880051,0.00984192,0.0165939,0.0101852,0.0267029,0.00495911,0.0157166,-0.00267029
36,7,10.0097,-0.000610352,-0.000457764,-2.42501,0.0550706,-0.0762837,0.0532125,0.0706652,-0.0922309,0.143792,-0.126987,-0.085317,0.0518799,0.00202179,-0.0569153,-0.00999451,0.014534,0.0219345,-0.00553131,0.0336838,-9.97986,0.105782,-0.00244141,0.0139618,0.0181961,0.0246811,0.00431061,0.0183487,-0.00587463
36,8,10.0097,0.000915527,0.0012207,-2.42867,0.055681,-0.0753682,0.0526021,0.075548,-0.0928413,0.144403,-0.125766,-0.0837911,0.0552368,0.00495911,-0.0511169,0.000839233,0.0165939,0.0177383,-0.0119019,0.0404739,-9.97986,0.116539,-0.014534,0.0135422,0.0203705,0.0278473,0.00629425,0.0202179,-0.00541687
36,9,10.0097,0.00183105,0.000305176,-2.42806,0.0535448,-0.0756734,0.0529073,0.0697496,-0.0922309,0.145318,-0.124546,-0.0840963,0.0188065,0.00652313,-0.0431824,-0.0037384,0.0179672,0.0224304,-0.0211334,0.0484467,-9.97986,0.10849,-0.0140381,0.0144577,0.0133896,0.0258636,0.00713348,0.0204468,-0.00450134
37,0,10.0097,0.0012207,-0.000457764,-2.42226,0.0569017,-0.0741475,0.0544332,0.0700548,-0.0916206,0.146234,-0.125461,-0.0822652,-0.0336838,0.014267,-0.0253296,-0.0109863,0.013237,0.0195313,-0.0231171,0.0475311,-9.97986,0.0828934,-0.0137711,0.0156021,0.00812531,0.0312042,0.0101471,0.0292587,-0.00358582
37,1,10.0097,0.00183105,0,-2.42501,0.0562914,-0.0744527,0.0550435,0.0645616,-0.0919257,0.146539,-0.125461,-0.0816549,-0.0813293,0.017395,-0.014801,-0.00892639,0.0131607,0.0197983,-0.0119019,0.0385284,-9.97986,0.0616455,-0.0136185,0.0204468,0.00541687,0.0337982,0.0118637,0.0277328,-0.00297546
37,2,10.0097,0.000610352,-0.000305176,-2.42501,0.0569017,-0.0744527,0.0550435,0.0709703,-0.0919257,0.146539,-0.124851,-0.0810445,-0.0921249,0.0260544,-0.00217438,-0.0138092,0.0112534,0.0190735,0.00587463,0.0232315,-9.97986,0.0557327,0.00282288,0.0240326,0.00278473,0.03685,0.00904083,0.0311279,-0.000839233
37,3,10.0097,0,-0.000457764,-2.4247,0.0565965,-0.0741475,0.0553487,0.0712755,-0.0919257,0.147149,-0.124546,-0.0819601,-0.0814819,0.0359344,0.0131226,-0.00934601,0.00888824,0.0156021,0.0187683,0.00656128,-9.97986,0.0649261,0.0187302,0.0244904,-0.00934601,0.0358963,0.00743866,0.0325775,0.00354767
37,4,10.0097,-0.000305176,0.000152588,-2.42562,0.0562914,-0.0738423,0.0550435,0.0758531,-0.0913154,0.146844,-0.124241,-0.0810445,-0.053978,0.0370789,0.0247955,-0.0325775,0.00911713,0.0141525,0.0306702,-0.00694275,-9.97986,0.0748062,0.0177002,0.0275421,-0.01194,0.0359726,0.00629425,0.0311279,0.00579834
37,5,10.0097,0.000915527,-0.00137329,-2.42623,0.0569017,-0.0747579,0.0538228,0.0438097,-0.0955879,0.145624,-0.127292,-0.0816549,-0.0206375,0.043602,0.0408554,-0.0389862,0.0044632,0.0154877,0.0434494,-0.0149155,-9.97986,0.074234,0.0144577,0.032692,-0.00904083,0.0359726,0.00663757,0.0373459,0.00667572
37,6,8.33455,0,-0.00106812,-2.42562,0.0565965,-0.0744527,0.0544332,0.0450304,-0.094062,0.146844,-0.125156,-0.0810445,0.0030899,0.0450134,0.0457001,0.00526428,0.00450134,0.0180817,0.0439835,-0.00915527,-9.97986,0.0352478,-0.00717163,0.0304031,-0.0121689,0.0379944,-0.000152588,0.0307465,0.00774384
37,7,7.24416,0.000915527,-0.00167847,-2.4247,0.0547655,-0.075063,0.0550435,0.0596788,-0.0919257,0.145624,-0.124851,-0.0825704,0.0330353,0.0526428,0.0500488,0.046463,-0.000686646,0.0130844,0.0385666,-0.00450134,-9.97986,0.000114441,-0.0276947,0.0315475,-0.0142288,0.0328827,0.00572205,0.0259399,0.00640869
37,8,7.0168,-0.00152588,-0.000915527,-2.42623,0.0553758,-0.0753682,0.0544332,0.0630358,-0.0922309,0.145929,-0.125156,-0.0825704,0.0460815,0.0421143,0.054512,0.0331497,-0.00217438,0.0170898,0.0378418,-0.00789642,-9.97986,-0.0408554,-0.0396347,0.0267029,-0.026474,0.0278473,0.00576019,0.0213623,0.00408173
37,9,7.28993,0.00152588,-0.000610352,-2.42867,0.0553758,-0.0753682,0.0556539,0.0728014,-0.0910102,0.145929,-0.125461,-0.0831808,0.0278091,0.0498199,0.0632858,0.019455,0.000724792,0.0149536,0.0326538,-0.00980377,-9.97986,-0.0768661,-0.0370789,0.0284958,-0.0323105,0.0253677,0.0118637,0.0188065,0.00465393
38,0,9.07491,-0.000915527,0.000610352,-2.42684,0.0550706,-0.0744527,0.0553487,0.0944689,-0.0894843,0.145013,-0.12302,-0.0850118,0.0186539,0.0458908,0.0744629,0.0526428,0.00125885,0.0212479,0.0379944,-0.00923157,-9.97986,-0.112076,-0.0286102,0.0325394,-0.0366592,0.0160217,0.00915527,0.0127411,0.00411987
38,1,10.0097,0.000610352,0.00198364,-2.42806,0.0547655,-0.0771993,0.0532125,0.094774,-0.0946723,0.144708,-0.125156,-0.0859274,0.00286102,0.0432205,0.0725555,0.0717926,0.000991821,0.0145721,0.0449753,0.000305176,-9.97986,-0.136871,-0.0172043,0.0347519,-0.0362778,0.0140762,0.00946045,0.0115204,0.00183105
38,2,10.0097,0.00183105,0.000152588,-2.42867,0.0535448,-0.0759786,0.0519917,0.0789049,-0.0952827,0.142572,-0.127598,-0.0868429,0.00305176,0.0465393,0.0670624,0.0564575,0.0111008,0.0151825,0.0557327,0.0123596,-9.97986,-0.117149,-0.0188446,0.0376129,-0.0403214,0.0139236,0.010376,0.0107574,0.00320435
38,3,10.0097,0,0.000152588,-2.42837,0.0547655,-0.0753682,0.0519917,0.0731066,-0.0946723,0.144403,-0.127292,-0.0871481,-0.0044632,0.0429535,0.0573349,0.042572,0.00934601,0.0183105,0.0571823,0.0138092,-9.97986,-0.0811768,-0.0229263,0.0327682,-0.0402451,0.0131989,0.00442505,0.0167847,0.00270844
38,4,10.0097,-0.000610352,0.000305176,-2.4302,0.0547655,-0.0759786,0.0522969,0.0718859,-0.095893,0.142572,-0.127903,-0.0837911,-0.0195313,0.0367355,0.0540161,0.0432205,0.0123215,0.0180435,0.0497818,-0.00331879,-9.97986,-0.0540924,-0.0204849,0.0359344,-0.0310135,0.0169754,0.0106812,0.0210953,0.000419617
38,5,10.0097,0.0012207,0,-2.42623,0.0526292,-0.0768941,0.0522969,0.0691393,-0.0955879,0.144098,-0.127903,-0.0865377,-0.0291061,0.0417328,0.0461197,0.0280762,0.0107574,0.0189209,0.0547791,-0.0110626,-9.97986,-0.0566864,-0.0222397,0.0351715,-0.0286484,0.011673,0.0124741,0.0268936,-0.000190735
38,6,10.0097,-0.000305176,-0.000152588,-2.42806,0.0550706,-0.075063,0.0522969,0.0657823,-0.0937568,0.144098,-0.127598,-0.085317,0.0141525,0.0343704,0.0286102,0.0203705,0.0120163,0.0200272,0.0469589,-0.00946045,-9.97986,-0.0997925,-0.0201797,0.0270844,-0.0242233,7.62939e-005,0.0104141,0.0259781,0.00106812
38,7,10.0097,0.000305176,-0.000152588,-2.42837,0.055681,-0.0753682,0.0538228,0.0706652,-0.0928413,0.143182,-0.126072,-0.085317,0.105286,0.0281525,0.0128937,0.0221252,0.00865936,0.0157928,0.0341034,-0.00782013,-9.97986,-0.124702,-0.0240326,0.02491,-0.0247192,-0.00736237,0.00534058,0.0233078,0.00038147
38,8,10.0097,-0.000610352,0.000305176,-2.42898,0.0550706,-0.0744527,0.0519917,0.0694445,-0.0928413,0.144403,-0.126682,-0.0844015,0.11734,0.0168228,-0.00743866,0.00831604,0.00720978,0.0208282,0.0192261,0.00102997,-9.97986,-0.109673,-0.0242996,0.0206375,-0.019455,-0.00255585,0.0025177,0.0246811,0.00133514
38,9,10.0097,0,0.000762939,-2.42684,0.0553758,-0.0753682,0.0532125,0.0700548,-0.0931465,0.144098,-0.126072,-0.0834859,0.056839,0.00812531,-0.0271988,0.0094223,0.00717163,0.0245667,0.0163269,0.00808716,-9.97986,-0.0770569,-0.0234604,0.0125122,-0.0180054,-0.00164032,0.0038147,0.0267029,-0.00148773
39,0,10.0097,0,0.000915527,-2.42653,0.0559862,-0.0744527,0.0544332,0.0718859,-0.0919257,0.145929,-0.123935,-0.0844015,0.00240326,0.000839233,-0.0376129,-0.000648499,0.00179291,0.0262451,0.0063324,0.0167465,-9.97986,-0.0207138,-0.0162125,0.0122452,-0.000762939,0.000305176,0.00385284,0.0271225,0.0030899
39,1,10.0097,-0.000305176,0.00106812,-2.42623,0.0565965,-0.0735371,0.0535176,0.0715807,-0.0931465,0.146539,-0.124546,-0.0810445,-0.0408173,-0.000724792,-0.0370026,-0.0063324,0.00278473,0.0320816,-0.01194,0.0131989,-9.97986,0.0267792,-0.0165939,0.0151062,0.00434875,0.00259399,0.00545502,0.0315475,-0.000534058
39,2,10.0097,0.000915527,-0.000152588,-2.4244,0.0559862,-0.0738423,0.0544332,0.07036,-0.0913154,0.14776,-0.12363,-0.0807394,-0.0534058,-0.00679016,-0.0357437,0.00228882,0.00362396,0.0297546,-0.0228882,0.0198364,-9.97986,0.0511932,-0.00724792,0.00827789,0.00148773,-0.00328064,0.00427246,0.036087,-0.0012207
39,3,10.0097,0.000915527,-0.000915527,-2.42592,0.0547655,-0.075063,0.0550435,0.0718859,-0.090705,0.146234,-0.125461,-0.0822652,-0.0218964,-0.0122833,-0.0338364,-0.00144958,-0.00312805,0.026207,-0.014801,0.0214386,-9.97986,0.0662994,-0.00724792,0.00488281,-0.00465393,-0.00972748,-0.00236511,0.0343323,-0.00305176
39,4,10.0097,-0.00213623,-0.0012207,-2.42409,0.0569017,-0.0738423,0.0553487,0.0724962,-0.090705,0.146844,-0.12363,-0.0810445,0.0244141,-0.00907898,-0.0291824,-0.00244141,-0.00671387,0.02388,-0.00602722,0.0185013,-9.97986,0.100632,-0.00675201,0.00171661,-0.0152206,-0.016861,-0.00137329,0.0376892,-0.00179291
39,5,10.0097,0.000915527,-0.00167847,-2.42623,0.0562914,-0.073232,0.0519917,0.0471666,-0.0952827,0.145929,-0.125461,-0.0831808,0.0352097,-0.00938416,-0.0207138,-0.000648499,-0.0116348,0.015831,-0.0063324,0.0146866,-9.97986,0.147743,-0.00522614,-0.000610352,-0.0320816,-0.022049,-0.00038147,0.0398254,-0.0025177
39,6,8.38582,0.000305176,-0.00274658,-2.42501,0.055681,-0.0738423,0.0553487,0.0465563,-0.0931465,0.147149,-0.126377,-0.0828756,0.0520706,-0.00183105,-0.0112152,-0.000915527,-0.00671387,0.0088501,0.00484467,0.0102615,-9.97986,0.157433,-0.00724792,-0.00900269,-0.0410843,-0.0302887,-0.0019455,0.0421906,-0.00766754
39,7,7.31038,0.00488281,-0.00106812,-2.4247,0.055681,-0.0738423,0.054128,0.0560167,-0.0925361,0.146234,-0.126072,-0.0828756,0.0706482,0.00205994,-0.0025177,-0.00415802,-0.00263214,0.00415802,0.0257492,0.00312805,-9.97986,0.152245,-0.0062561,-0.00556946,-0.0369263,-0.0270081,-0.00377655,0.0509644,-0.00114441
39,8,7.06197,-0.000915527,0.000457764,-2.42653,0.055681,-0.0753682,0.0538228,0.0630358,-0.0919257,0.145929,-0.124546,-0.0819601,0.0704193,0.00556946,0.00171661,-0.00377655,0.00961304,0.000839233,0.0434875,0.00461578,-9.97986,0.135307,-0.00545502,-0.0110626,-0.031662,-0.0183487,-0.0019455,0.0468063,-0.0025177
39,9,7.31832,0.000610352,0.00152588,-2.42653,0.0553758,-0.0747579,0.0550435,0.0731066,-0.090705,0.146234,-0.124546,-0.0810445,0.0732422,0.0044632,0.00648499,-0.00385284,0.0142288,-0.00282288,0.0419998,0.0177383,-9.97986,0.115242,-0.0050354,-0.0101471,-0.015831,-0.00717163,-0.000686646,0.051651,-0.00305176
40,0,9.11977,-0.000610352,0.00183105,-2.42684,0.0550706,-0.0756734,0.0556539,0.0978258,-0.0894843,0.145013,-0.123325,-0.0837911,0.072937,0.00640869,0.00858307,-0.0075531,0.0186157,-0.00160217,0.032959,0.0311279,-9.97986,0.106163,-0.0038147,-0.0136948,-0.00793457,-0.00038147,-0.00518799,0.0538254,0.00087738
40,1,10.0097,0,0.00289917,-2.42745,0.0535448,-0.0762837,0.0532125,0.0959947,-0.094062,0.144098,-0.126072,-0.0868429,0.0636292,0.00835419,0.0136566,-0.00484467,0.0213242,0.000762939,0.033226,0.0450134,-9.97986,0.103989,-0.000839233,-0.0188828,7.62939e-005,0.00583649,-0.00213623,0.0565338,0.0037384
40,2,10.0097,0.000305176,0.00106812,-2.42898,0.0538499,-0.0768941,0.0513814,0.077379,-0.0961982,0.143487,-0.126072,-0.0892843,0.0304031,0.0102997,0.0115204,-0.0069809,0.0162888,0.000457764,0.0305557,0.0457382,-9.97986,0.105362,-0.00205994,-0.0217819,0.0125885,0.00835419,0.000457764,0.0453568,-7.62939e-005
40,3,10.0097,0,0.0012207,-2.42806,0.0541551,-0.0756734,0.0513814,0.0724962,-0.0961982,0.144098,-0.126377,-0.0874532,-0.0152588,0.0146866,0.0204849,-0.00808716,0.0201797,0.00183105,0.0193024,0.0477219,-9.97986,0.102844,-0.00663757,-0.0260162,0.022583,0.00480652,0.00572205,0.0421143,0.00370026
40,4,10.0097,-0.000305176,-0.000152588,-2.42898,0.0538499,-0.0762837,0.0519917,0.0688341,-0.0952827,0.143487,-0.128513,-0.0862325,-0.0566101,0.014801,0.0252914,-0.00545502,0.0185394,-0.00480652,0.016861,0.043602,-9.97986,0.0798416,-0.00244141,-0.0244904,0.0267029,0.0044632,0.00789642,0.0386429,0.00167847
