
Devices
1200
,,BP Load cell - Voltage,String Length - Voltage,Clutch Active - Voltage,#7 iPecs - Voltage,,,,,,,,,EMG 1-8 Left - Voltage,,,,,,,,Pylon Force - Voltage,EMG 9-16 Right - Voltage,,,,,,,,
Frame,Sub Frame,BP Load Cell,String Length,From Arduino Logic,A45,A135,A225,A315,S0,S90,S180,S270,ZSum,EMG 1 Glut Max,EMG 2 Glut Med,EMG 3 Biceps Femoris Long,EMG 4 Rectus Femoris,EMG 5 Vastus Medialis,EMG 6 Tib Ant,EMG 7 Med Gas,EMG 8 Soleus,Pylon volts,EMG 9 Glut Max,EMG 10 Glut Med,EMG 11 Biceps Femoris Long,EMG 12 Rectus Femoris,EMG 13 Vastus Medialis,EMG 14 Tib Ant,EMG 15 Med Gas,EMG 16 Soleus
,,V,V,V,V,V,V,V,V,V,V,V,V,V,V,V,V,V,V,V,V,V,V,V,V,V,V,V,V,V
1,0,10.0097,-0.0012207,-0.00350952,-2.4247,0.0559862,-0.0741475,0.0550435,0.072191,-0.0916206,0.147455,-0.123935,-0.0828756,0.0268936,0.195999,0.185318,-0.00659943,-0.0263596,0.0139618,0.0148773,0.00118256,-9.97986,0.00492096,0.00198364,0.0231552,-0.325546,0.0389099,0.00679016,0.0410461,0.0263596
1,1,10.0097,0.000610352,-0.00427246,-2.4244,0.0569017,-0.0744527,0.0550435,0.0706652,-0.0910102,0.147455,-0.124546,-0.0834859,0.0127792,0.21534,0.19165,-0.01194,-0.0283432,0.0146866,0.013504,-0.00411987,-9.97986,0.0112915,0.0186157,0.0253677,-0.359192,0.0418091,0.0136566,0.0445938,0.0251389
1,2,10.0097,-0.000305176,-0.00320435,-2.4244,0.0572069,-0.075063,0.0544332,0.0718859,-0.0910102,0.146539,-0.12363,-0.0819601,0.00617981,0.214195,0.21492,-0.0300217,-0.0201797,0.0238037,0.0114059,0.0215149,-9.97986,-0.00236511,0.0205994,0.0233841,-0.400124,0.0415802,0.0102234,0.0463486,0.0283813
1,3,10.0097,-0.000305176,-0.00396729,-2.42531,0.0575121,-0.073232,0.0553487,0.0718859,-0.0919257,0.147149,-0.124851,-0.0819601,0.0232697,0.262642,0.224266,-0.0496674,-0.0236893,0.0185013,0.0111771,0.00450134,-9.97986,-0.00728607,0.00621796,0.0268936,-0.444336,0.0415802,0.0114441,0.0456619,0.026207
1,4,10.0097,-0.000305176,-0.00320435,-2.42348,0.0559862,-0.0729268,0.0550435,0.0709703,-0.0916206,0.14776,-0.123325,-0.0813497,0.0251389,0.275955,0.236511,-0.0567627,-0.0201035,0.0212097,0.0133896,-0.0545502,-9.97986,-0.0130463,-0.00274658,0.0270081,-0.473213,0.0445557,0.0117874,0.0462723,0.0256348
1,5,10.0097,-0.00183105,-0.00244141,-2.42623,0.0569017,-0.0747579,0.0532125,0.0541857,-0.0946723,0.145318,-0.125461,-0.0822652,0.026474,0.243645,0.223312,-0.0589371,-0.0154114,0.0215149,0.00934601,-0.123901,-9.97986,-0.0222015,0.0182724,0.0295258,-0.495071,0.0467682,0.00312805,0.0421906,0.0256348
1,6,10.0097,-0.000610352,-0.00274658,-2.42623,0.0559862,-0.0744527,0.0544332,0.058153,-0.0928413,0.146539,-0.126377,-0.0828756,0.0170517,0.266571,0.195084,-0.0756836,-0.0141525,0.0249481,0.0103378,-0.159225,-9.97986,-0.0165176,0.0248718,0.0215912,-0.50766,0.0443649,0.00289917,0.0463104,0.0282669
1,7,10.0097,-0.000610352,-0.00137329,-2.42592,0.0559862,-0.075063,0.054128,0.0639513,-0.0922309,0.145624,-0.124546,-0.0828756,0.00930786,0.300636,0.175095,-0.0965881,-0.0101852,0.0279236,0.013504,-0.168114,-9.97986,-0.0123978,0.01091,0.0260925,-0.509071,0.0334549,0.00221252,0.0435638,0.024147
1,8,10.0097,-0.0012207,0.000457764,-2.42592,0.0559862,-0.0741475,0.0544332,0.0697496,-0.0925361,0.14013,-0.126377,-0.0828756,0.00465393,0.128098,0.114441,-0.110474,-0.00202179,0.0304031,0.0167084,-0.19577,-9.97986,0.000991821,0.0128174,0.0312805,-0.50457,0.0328445,0.00835419,0.0445557,0.0235748
1,9,10.0097,0.000305176,0.000915527,-2.42714,0.0550706,-0.075063,0.0544332,0.0853136,-0.0925361,0.139215,-0.124851,-0.0828756,-0.00320435,-0.132599,0.0523376,-0.118561,-0.00312805,0.0342178,0.0137329,-0.154839,-9.97986,0.0178146,0.0500107,0.031395,-0.496597,0.0274277,0.00141144,0.0424194,0.0199127
2,0,10.0097,-0.000305176,0.0012207,-2.42867,0.0538499,-0.0768941,0.0526021,0.0767687,-0.0934516,0.141961,-0.126072,-0.085317,0.00457764,-0.179977,0.0437164,-0.119553,-0.000572205,0.0380707,0.0110245,-0.103111,-9.97986,0.0207901,0.0724411,0.0337982,-0.473366,0.0290298,0.00358582,0.0426483,0.0237656
2,1,10.0097,-0.000305176,0.00213623,-2.42959,0.0547655,-0.0753682,0.0516866,0.0728014,-0.094062,0.144098,-0.126987,-0.0859274,0.00907898,-0.0901794,0.0418091,-0.114708,-0.00137329,0.0378418,0.0136185,-0.143433,-9.97986,0.0235748,0.0537491,0.0360489,-0.437241,0.0283051,-0.00679016,0.0407028,0.021019
2,2,10.0097,-0.00152588,0.00335693,-2.42837,0.0547655,-0.0756734,0.0535176,0.0706652,-0.0946723,0.144403,-0.127292,-0.0850118,0.015831,-0.032196,-0.0018692,-0.12558,0.00766754,0.0458908,0.0185394,-0.168152,-9.97986,0.0279236,0.0336456,0.0357056,-0.402679,0.0291061,-0.0050354,0.0327301,0.0177002
2,3,10.0097,-0.00396729,0.00289917,-2.42806,0.0523241,-0.0765889,0.0516866,0.0685289,-0.0946723,0.141961,-0.126377,-0.0865377,0.0226974,-0.0482941,-0.0768661,-0.193672,0.00644684,0.0496674,0.0170135,-0.188942,-9.97986,0.0387955,0.0429153,0.0372696,-0.365562,0.0309753,-0.0037384,0.0302124,0.0162888
2,4,10.0097,-0.000610352,0.00213623,-2.42928,0.0538499,-0.0762837,0.0529073,0.07036,-0.095893,0.142267,-0.127292,-0.0859274,0.0342941,-0.134697,-0.156288,-0.229912,0.0117111,0.0477219,0.0149918,-0.22747,-9.97986,0.0457764,0.0972366,0.0428009,-0.332069,0.033493,-0.00495911,0.0292206,0.0193787
2,5,10.0097,0.0012207,0.00198364,-2.42959,0.0526292,-0.0756734,0.0522969,0.0688341,-0.0946723,0.142572,-0.128818,-0.0859274,0.0359344,-0.156136,-0.203133,-0.159683,0.0173187,0.0491333,0.0224686,-0.242958,-9.97986,0.0579071,0.103989,0.0457001,-0.313225,0.025444,0.00541687,0.0268173,0.0160217
2,6,10.0097,0.00152588,0.00183105,-2.42806,0.0538499,-0.075063,0.0529073,0.0688341,-0.0937568,0.142877,-0.126682,-0.0847066,0.0296402,-0.218964,-0.233917,-0.0697708,0.0149918,0.0473785,0.0182343,-0.208664,-9.97986,0.0634766,0.0170898,0.0419617,-0.284271,0.0292206,0.00812531,0.0204468,0.0154495
2,7,10.0097,0.000610352,0.00259399,-2.42806,0.0547655,-0.0756734,0.0550435,0.0700548,-0.0937568,0.142877,-0.126072,-0.0840963,0.0208282,-0.296822,-0.212364,-0.0337601,0.0194168,0.0509644,0.0175858,-0.187225,-9.97986,0.0628662,-0.0242233,0.0498962,-0.254974,0.0267792,0.0133896,0.0188446,0.0107574
2,8,10.0097,0.00305176,0.00350952,-2.42684,0.0562914,-0.0747579,0.054128,0.07036,-0.0934516,0.146234,-0.126682,-0.0844015,0.0146866,-0.264626,-0.164337,-0.00621796,0.0229263,0.0409317,0.0180435,-0.173988,-9.97986,0.0536346,-0.0395584,0.050621,-0.21759,0.0265121,0.0115204,0.0164795,0.0127792
2,9,10.0097,0.00244141,0.0038147,-2.42592,0.0553758,-0.0747579,0.0532125,0.07036,-0.094062,0.148065,-0.126072,-0.0819601,0.00587463,-0.200653,-0.111275,0.0399017,0.0226593,0.0418091,0.0215149,-0.110931,-9.97986,0.0491333,-0.0637817,0.0521088,-0.178604,0.0218582,0.00732422,0.0163651,0.00904083
3,0,10.0097,0.00244141,0.00457764,-2.42592,0.055681,-0.0738423,0.0556539,0.0697496,-0.0919257,0.149591,-0.124546,-0.080129,-0.00377655,-0.138817,-0.0538635,0.0714111,0.0269699,0.0370789,0.0191879,-0.0505447,-9.97986,0.0415802,0.00267029,0.0574875,-0.136909,0.0202179,0.000190735,0.0166321,0.0111389
3,1,10.0097,0.0012207,0.0038147,-2.42501,0.0569017,-0.0744527,0.0550435,0.0697496,-0.0928413,0.147149,-0.12363,-0.0804342,-0.000801086,-0.0763321,-0.0115204,0.0549316,0.0247955,0.0361252,0.0165939,-0.0400543,-9.97986,0.028801,0.0735474,0.0530243,-0.0852203,0.020256,-0.0234222,0.0147247,0.0108719
3,2,10.0097,0.000915527,0.00457764,-2.42592,0.0559862,-0.0738423,0.0550435,0.0706652,-0.090705,0.148675,-0.123935,-0.0813497,0.00156403,-0.0238037,0.0180817,-0.0123978,0.0345612,0.0327301,0.0245285,-0.041008,-9.97986,0.0205612,0.108185,0.0543594,-0.0349808,0.0191879,-0.0306702,0.0151443,0.00846863
3,3,10.0097,0,0.0050354,-2.42776,0.0562914,-0.0729268,0.0550435,0.0706652,-0.0928413,0.150201,-0.124241,-0.0798238,0.000495911,0.0647354,0.0341034,-0.00869751,0.035553,0.027771,0.0232315,-0.0289154,-9.97986,0.00892639,0.0879669,0.0582123,0.0148392,0.0186539,-0.0307083,0.019989,0.00629425
3,4,10.0097,0,0.00442505,-2.42501,0.0565965,-0.0735371,0.0538228,0.0706652,-0.0913154,0.148675,-0.12363,-0.0792135,0.00621796,0.140114,0.0331497,0.0629807,0.0362778,0.0197983,0.0201797,-0.0222778,-9.97986,0.00492096,0.0358582,0.0529099,0.0633621,0.0107193,-0.0285339,0.0153351,0.0056076
3,5,10.0097,-0.00305176,0.00411987,-2.42562,0.0569017,-0.0735371,0.0538228,0.0560167,-0.0937568,0.145318,-0.125766,-0.0828756,0.0149536,0.184174,0.0294495,0.0959015,0.0382614,0.0112152,0.0240707,-0.0383377,-9.97986,0.0118637,0.0413895,0.0570297,0.105553,0.0111008,-0.0239563,0.0131989,0.00358582
3,6,10.0097,-0.0012207,0.00335693,-2.4305,0.0565965,-0.0738423,0.0526021,0.0563219,-0.0925361,0.145013,-0.126072,-0.0810445,0.0094986,0.156441,-0.0062561,0.0974274,0.0401688,0.00801086,0.0190735,-0.0627899,-9.97986,0.017128,0.0281906,0.0556946,0.138435,0.00934601,-0.0187683,0.0111008,0.00530243
3,7,10.0097,-0.0012207,0.00335693,-2.42501,0.0553758,-0.0744527,0.0553487,0.0654772,-0.0934516,0.144403,-0.126377,-0.0810445,0.00404358,0.108223,-0.0849152,0.0892639,0.0365829,-0.00354767,0.0231171,-0.0195694,-9.97986,0.0262833,0.00434875,0.0580215,0.168991,0.00617981,-0.0183868,0.00900269,0.00244141
3,8,10.0097,-0.0012207,0.00320435,-2.42562,0.0562914,-0.0744527,0.0556539,0.0691393,-0.0928413,0.143182,-0.125766,-0.0804342,0.00354767,0.0418854,-0.139465,0.0564194,0.0401306,-0.00904083,0.0250244,0.0178528,-9.97986,0.0308228,-0.0162888,0.0605011,0.19825,0.00785828,-0.0125122,0.00740051,0.00534058
3,9,10.0097,0,0.00320435,-2.4247,0.0550706,-0.0744527,0.0544332,0.0847032,-0.090705,0.141351,-0.123935,-0.0825704,0.00305176,-0.10334,-0.149574,0.0413895,0.0444031,-0.0158691,0.0216293,-0.0253677,-9.97986,0.033493,-0.0149918,0.0584793,0.223694,0.00141144,-0.0190735,0.00740051,0.00213623
4,0,10.0097,0.00152588,0.00335693,-2.42837,0.0532396,-0.0765889,0.0522969,0.0770738,-0.0934516,0.142877,-0.126987,-0.085317,-0.00782013,-0.19371,-0.148735,0.0362015,0.0392151,-0.0239944,0.0221634,-0.0167847,-9.97986,0.0342941,0.0162888,0.0523376,0.256882,0.00572205,-0.0344467,0.00694275,0.00167847
4,1,10.0097,0.00183105,0.00289917,-2.42898,0.0541551,-0.0744527,0.0519917,0.0700548,-0.094062,0.143487,-0.126682,-0.0850118,-0.010376,-0.13649,-0.110512,0.0317001,0.0434113,-0.0304413,0.0213623,0.0271606,-9.97986,0.0273132,-0.00217438,0.057869,0.287094,3.8147e-005,-0.0403595,0.00354767,0.00156403
4,2,10.0097,0.00396729,0.00183105,-2.42989,0.0529344,-0.0756734,0.0529073,0.0700548,-0.0943672,0.145013,-0.127292,-0.0862325,-0.00404358,-0.0573349,-0.0675964,0.0271225,0.0406265,-0.0358582,0.0230026,0.0338364,-9.97986,0.0123215,-0.0385666,0.0572968,0.29377,-0.00629425,-0.0347519,-0.00232697,-0.0019455
4,3,10.0097,-0.00152588,0.00213623,-2.42989,0.0535448,-0.0762837,0.0532125,0.065172,-0.0937568,0.145013,-0.126377,-0.0868429,0.00236511,0.00358582,-0.0321579,0.0333405,0.0440216,-0.0520325,0.0197601,0.0109482,-9.97986,0.00389099,-0.0659943,0.0473785,0.317268,-0.00705719,-0.0238419,-0.00476837,-0.00232697
4,4,10.0097,0.00183105,0.00152588,-2.42867,0.0538499,-0.0759786,0.0513814,0.0685289,-0.0949775,0.145318,-0.126987,-0.0865377,0.0109863,0.0265503,0.00682831,0.039444,0.0438309,-0.0533676,0.0207901,-0.0239563,-9.97986,-0.00537872,-0.0705338,0.0463104,0.338287,-0.0104141,-0.014534,-0.00598907,-0.00808716
4,5,10.0097,0.00183105,0.00183105,-2.42928,0.0547655,-0.0759786,0.0529073,0.0691393,-0.0965034,0.143487,-0.127903,-0.0862325,0.016861,0.0484467,0.0391006,0.0283051,0.0463486,-0.0572968,0.0199127,0.000190735,-9.97986,-0.01297,-0.0594711,0.0434113,0.357208,-0.00347137,0.000762939,-0.00930786,-0.00305176
4,6,10.0097,0.00274658,0.00167847,-2.42745,0.0544603,-0.0744527,0.0535176,0.0660875,-0.0928413,0.145624,-0.126377,-0.0850118,0.0131607,0.0800705,0.0750351,0.0244522,0.0468063,-0.0670242,0.0197983,0.0933838,-9.97986,-0.0213623,-0.0699615,0.0418091,0.37426,-0.00133514,0.0222015,-0.0120163,-0.00923157
4,7,10.0097,0.00244141,0.0012207,-2.42806,0.0547655,-0.075063,0.0522969,0.0700548,-0.0934516,0.146234,-0.126377,-0.0844015,0.00835419,0.101776,0.112839,0.0128937,0.0494766,-0.071907,0.0211334,0.172157,-9.97986,-0.0177765,-0.0323486,0.0383759,0.382004,-0.00236511,0.0211716,-0.01091,-0.0109482
4,8,10.0097,0.000915527,0.000152588,-2.42745,0.0547655,-0.0747579,0.0538228,0.0694445,-0.0931465,0.145624,-0.125766,-0.0840963,0.0159836,0.118446,0.135536,0.00938416,0.0515366,-0.0787735,0.0222015,0.225182,-9.97986,-0.0056839,0.0144577,0.0389099,0.38208,-0.00354767,-0.0117874,-0.0134659,-0.0104141
4,9,10.0097,0.000915527,-0.000762939,-2.42592,0.0559862,-0.0747579,0.0544332,0.07036,-0.0931465,0.145318,-0.125766,-0.0837911,0.00686646,0.11425,0.152931,0.00923157,0.0531387,-0.0823212,0.0214767,0.286369,-9.97986,-0.00762939,0.00610352,0.0289536,0.369072,0.000152588,-0.0283432,-0.00900269,-0.0106049
5,0,10.0097,-0.00213623,-0.000457764,-2.42501,0.0559862,-0.0747579,0.0556539,0.0709703,-0.0922309,0.146234,-0.124851,-0.0822652,0.0176239,0.137863,0.153389,0.0222778,0.0520706,-0.0909424,0.0191879,0.245361,-9.97986,-0.0100327,-0.00976563,0.0262833,0.356293,-0.00324249,-0.0233078,-0.00759125,-0.0107956
5,1,10.0097,0,-0.000915527,-2.42562,0.0569017,-0.075063,0.0547383,0.0697496,-0.0913154,0.149286,-0.123935,-0.0810445,0.0238419,0.207977,0.178833,0.0283432,0.051651,-0.0997925,0.0169754,0.148735,-9.97986,-0.0157166,-0.0149918,0.0281906,0.348396,-7.62939e-005,-0.0112534,-0.00606537,-0.0112915
5,2,10.0097,-0.0012207,-0.00137329,-2.42501,0.0569017,-0.0744527,0.0544332,0.0715807,-0.0928413,0.147149,-0.12363,-0.0816549,0.0170135,0.244293,0.219116,0.0359726,0.0525665,-0.106812,0.0197601,0.0953674,-9.97986,-0.0274658,0.00225067,0.0242996,0.333366,-0.00682831,-0.00591278,-0.00476837,-0.0131989
5,3,10.0097,0.000915527,-0.000305176,-2.42501,0.0559862,-0.0726216,0.0544332,0.0709703,-0.0910102,0.14776,-0.124851,-0.0804342,0.01091,0.217972,0.231819,0.0373077,0.054245,-0.10952,0.0151825,0.069809,-9.97986,-0.0420761,0.038681,0.0218582,0.326385,0.00152588,0.00965118,-0.00137329,-0.0137329
5,4,10.0097,0.000610352,-0.00106812,-2.42501,0.0569017,-0.0735371,0.0565694,0.0712755,-0.0913154,0.145624,-0.124241,-0.0813497,0.0131989,0.144882,0.212936,0.030098,0.0585556,-0.119743,0.0188446,0.0595856,-9.97986,-0.0332642,0.0342178,0.0187302,0.308075,-0.00335693,0.0201797,0.00324249,-0.0161743
5,5,10.0097,-0.00152588,-0.00106812,-2.42592,0.0565965,-0.0753682,0.0535176,0.0572374,-0.094062,0.144708,-0.126682,-0.0828756,0.00404358,0.105705,0.180511,0.0107956,0.0583267,-0.121422,0.0222778,0.0515747,-9.97986,-0.0183105,0.0025177,0.0199509,0.298882,-0.000762939,0.0286865,0.00358582,-0.0153351
5,6,10.0097,0,-0.00183105,-2.42623,0.0562914,-0.0735371,0.0538228,0.0566271,-0.0919257,0.146234,-0.125156,-0.0828756,0.00610352,0.104752,0.148468,-0.0104523,0.0564194,-0.128517,0.0168991,0.0739288,-9.97986,-0.0154877,-0.0108337,0.0131226,0.280304,0.000801086,0.0260162,0.00640869,-0.0131989
5,7,10.0097,0.000915527,-0.00152588,-2.42592,0.0550706,-0.0735371,0.0547383,0.0645616,-0.0922309,0.145624,-0.125156,-0.0831808,0.00343323,0.142975,0.153122,-0.0292587,0.0545502,-0.132141,0.0164032,0.0738907,-9.97986,-0.01194,-0.00816345,0.0169373,0.265579,-0.00255585,0.0172043,0.00778198,-0.0146484
5,8,10.0097,-0.00244141,-0.00152588,-2.42684,0.0547655,-0.0753682,0.0553487,0.0709703,-0.0931465,0.146844,-0.125766,-0.0831808,-0.00110626,0.215607,0.172768,-0.0378799,0.0553894,-0.134087,0.0235748,-0.0152588,-9.97986,-0.00514984,-0.0447083,0.0160599,0.239258,0.00366211,0.013504,0.0100327,-0.0190353
5,9,10.0097,-0.000915527,-0.00152588,-2.42592,0.0550706,-0.0753682,0.0565694,0.0862291,-0.090705,0.145318,-0.123935,-0.0844015,0.00858307,0.220718,0.163422,-0.0494003,0.0537491,-0.139732,0.0229645,-0.0983429,-9.97986,0.00152588,-0.0773621,0.0110626,0.218124,-0.00221252,0.0115967,0.0147629,-0.0136185
6,0,10.0097,-0.00305176,-0.00183105,-2.42867,0.0541551,-0.0747579,0.0522969,0.0785997,-0.0937568,0.141656,-0.125766,-0.0862325,0.0225449,0.127335,0.107117,-0.0378799,0.0603104,-0.142479,0.0212097,-0.184364,-9.97986,0.018959,-0.0336456,0.0154114,0.195045,-0.00354767,0.00583649,0.019455,-0.0139236
6,1,10.0097,-0.000915527,-0.00167847,-2.42806,0.0538499,-0.0762837,0.0526021,0.0724962,-0.0943672,0.141961,-0.126682,-0.0871481,0.0315094,0.0785065,0.0286102,-0.0192261,0.0590897,-0.138817,0.0217438,-0.201759,-9.97986,0.0452423,0.0062561,0.0141144,0.180435,0.000305176,0.00247955,0.0231934,-0.0187683
6,2,10.0097,-0.000610352,-0.00183105,-2.42959,0.0544603,-0.0753682,0.0526021,0.0715807,-0.095893,0.141046,-0.126072,-0.0877584,0.0301361,0.030098,-0.0434494,-0.0167084,0.0603867,-0.136261,0.0257492,-0.161781,-9.97986,0.0660706,0.0228882,0.0113678,0.160294,-0.00621796,0.0103378,0.0247955,-0.018425
6,3,10.0097,-0.000915527,-0.00198364,-2.4305,0.0541551,-0.0765889,0.0532125,0.0694445,-0.0955879,0.13891,-0.126072,-0.0868429,0.0195313,-0.104904,-0.129623,-0.00999451,0.0580597,-0.134163,0.0259399,-0.114365,-9.97986,0.074234,0.0473022,0.0144196,0.154152,-0.00175476,0.0185394,0.0299835,-0.0192261
6,4,10.0097,-0.00183105,-0.00152588,-2.42837,0.0544603,-0.075063,0.0522969,0.0679186,-0.0955879,0.138299,-0.127903,-0.0874532,0.01091,-0.237198,-0.236015,-0.00701904,0.0606155,-0.128059,0.0203323,-0.0800705,-9.97986,0.0822449,0.0201035,0.0121689,0.149269,-0.00270844,0.0247955,0.0297165,-0.0143051
6,5,10.0097,0,-0.000610352,-2.42837,0.0535448,-0.0753682,0.0526021,0.0688341,-0.0946723,0.140741,-0.127292,-0.0868429,0.00995636,-0.312119,-0.289841,-0.00961304,0.0540161,-0.123329,0.0231552,-0.113487,-9.97986,0.087738,0.0304794,0.0205231,0.149612,-0.00202179,0.00720978,0.0365067,-0.015564
6,6,10.0097,0.0012207,-0.000305176,-2.42776,0.0541551,-0.0756734,0.0522969,0.0694445,-0.0934516,0.143792,-0.126377,-0.085317,0.0157166,-0.314598,-0.274239,-0.00240326,0.0600433,-0.115547,0.0263977,-0.1437,-9.97986,0.076828,0.034256,0.0162888,0.148926,-0.00453949,-0.00869751,0.0382614,-0.0121689
6,7,10.0097,0.0012207,0,-2.42837,0.0559862,-0.075063,0.0529073,0.067003,-0.094062,0.144403,-0.126377,-0.0844015,0.0107956,-0.265732,-0.227661,-0.00148773,0.0622177,-0.106316,0.0284576,-0.12394,-9.97986,0.0685883,0.0369263,0.0135803,0.142403,-0.00396729,-0.0105667,0.0387192,-0.00873566
6,8,10.0097,0.00396729,-0.0012207,-2.42684,0.0541551,-0.075063,0.0532125,0.0694445,-0.0934516,0.145624,-0.125766,-0.0844015,0.0130844,-0.213242,-0.176926,0.00614166,0.0640488,-0.102501,0.0309753,-0.116806,-9.97986,0.0689316,0.0637054,0.0159073,0.121613,-0.00629425,-0.00377655,0.0409317,-0.0101471
6,9,10.0097,0.00244141,-0.00259399,-2.42684,0.0550706,-0.075063,0.054128,0.0697496,-0.0916206,0.146539,-0.126377,-0.0840963,0.0112915,-0.191765,-0.146332,0.00675201,0.060463,-0.0944519,0.02491,-0.0922394,-9.97986,0.0656891,0.0242615,0.0173569,0.0844574,-0.00720978,-0.00694275,0.0392151,-0.00785828
7,0,10.0097,0.00274658,-0.00366211,-2.42409,0.0572069,-0.0738423,0.0535176,0.0700548,-0.0919257,0.146539,-0.125461,-0.0831808,0.00984192,-0.172195,-0.130882,0.00778198,0.05867,-0.0867462,0.0294495,-0.0464249,-9.97986,0.0569534,0.0331497,0.0178528,0.035553,-0.00705719,-0.00106812,0.0395966,-0.0030899
7,1,10.0097,0.00183105,-0.00549316,-2.42531,0.0569017,-0.0738423,0.0544332,0.0712755,-0.0913154,0.146844,-0.123935,-0.0834859,0.000343323,-0.128021,-0.11219,0.0170517,0.0595474,-0.0765228,0.0331116,0.0172043,-9.97986,0.0514221,0.0192642,0.0177002,-0.027504,-0.00247955,0.00133514,0.042572,-0.00244141
7,2,10.0097,0.00213623,-0.00640869,-2.4247,0.0575121,-0.0738423,0.0544332,0.0709703,-0.0919257,0.149591,-0.124546,-0.0831808,-0.00179291,-0.0731277,-0.0837708,0.0226593,0.054512,-0.0644302,0.0288391,0.0908279,-9.97986,0.0420761,-0.0648499,0.013504,-0.105095,-0.00854492,0.0131226,0.0442505,-0.000572205
7,3,10.0097,0.000305176,-0.00823975,-2.4247,0.0572069,-0.0735371,0.0550435,0.0718859,-0.0910102,0.14776,-0.12363,-0.0822652,-0.00114441,-0.0455856,-0.0346375,0.0239563,0.0505447,-0.0540161,0.0315475,0.101013,-9.97986,0.0320435,-0.0843048,0.0166702,-0.186844,-0.00431061,0.0245667,0.0456619,0.00404358
7,4,10.0097,0.000305176,-0.00747681,-2.4244,0.0569017,-0.0747579,0.0532125,0.0697496,-0.0922309,0.147455,-0.123935,-0.0828756,-0.000534058,-0.0393677,0.0188065,0.0196457,0.0505829,-0.0505447,0.0310135,0.0946426,-9.97986,0.0163651,-0.0599289,0.0151062,-0.262718,-0.0019455,0.0306702,0.0457382,0.00423431
7,5,10.0097,0.00183105,-0.00686646,-2.42714,0.0547655,-0.0741475,0.0538228,0.0532701,-0.0937568,0.14776,-0.125156,-0.0844015,0.00553131,-0.0119781,0.0675964,0.0216675,0.0447464,-0.0341797,0.0284576,0.0707626,-9.97986,-0.00411987,-0.0240707,0.0125885,-0.327988,-0.00549316,0.0292969,0.047226,0.0050354
7,6,10.0097,-0.000305176,-0.00656128,-2.42623,0.055681,-0.0738423,0.0532125,0.0535753,-0.0925361,0.147455,-0.126987,-0.0847066,0.00595093,0.0796127,0.119133,0.0200272,0.0476456,-0.0266266,0.0323868,0.00656128,-9.97986,-0.0130463,0.000534058,0.0105286,-0.392532,-0.000801086,0.0296021,0.0528717,0.0111008
7,7,10.0097,0,-0.00640869,-2.42623,0.0559862,-0.0744527,0.0553487,0.0642565,-0.0919257,0.147149,-0.126072,-0.0828756,0.00427246,0.148544,0.15152,0.00850677,0.0368118,-0.0225067,0.0281906,-0.00385284,-9.97986,-0.0228119,-0.0101089,0.0127411,-0.457687,0.00518799,0.0193787,0.0496674,0.0107193
7,8,10.0097,0.00152588,-0.00579834,-2.42684,0.055681,-0.0744527,0.0535176,0.0694445,-0.0928413,0.146844,-0.125766,-0.0850118,0.00274658,0.172081,0.170517,0.0082016,0.0337982,-0.0146866,0.0328064,0.00514984,-9.97986,-0.0347137,0.0242615,0.00778198,-0.508842,0.00442505,0.0075531,0.0517654,0.0113678
7,9,10.0097,0.000610352,-0.00473022,-2.42806,0.0553758,-0.0753682,0.054128,0.0850084,-0.0897895,0.145624,-0.124241,-0.0837911,0.00766754,0.163765,0.161591,0.0125504,0.0326538,-0.00751495,0.0304031,-0.0154877,-9.97986,-0.0288773,0.0662994,0.0069809,-0.56076,0.0118637,0.00659943,0.0471497,0.0137329
8,0,10.0097,-0.0012207,-0.00534058,-2.42837,0.0526292,-0.0762837,0.0519917,0.0776842,-0.0943672,0.143182,-0.125766,-0.0874532,0.00377655,0.132599,0.144081,0.00770569,0.0284195,-0.00354767,0.0309753,-0.0329971,-9.97986,-0.0233078,0.0531769,0.00572205,-0.621109,0.00934601,-0.00236511,0.0497437,0.0177002
8,1,10.0097,0.000305176,-0.00579834,-2.42867,0.0541551,-0.0759786,0.0519917,0.0728014,-0.0955879,0.144098,-0.126987,-0.0886739,0.00621796,0.12291,0.128937,0.0075531,0.0233841,0.00743866,0.0305557,-0.018959,-9.97986,-0.00366211,-0.00324249,0.0019455,-0.683289,0.01091,-0.00823975,0.0491714,0.0183868
8,2,10.0097,0.000305176,-0.00656128,-2.42837,0.0538499,-0.0762837,0.0516866,0.0706652,-0.0952827,0.143487,-0.127903,-0.0880636,0.0180435,0.148468,0.128021,-0.0205231,0.0203705,0.0131607,0.030098,-0.0012207,-9.97986,0.00686646,-0.0852203,0.000572205,-0.749931,0.0101471,-0.00720978,0.0434875,0.0180435
8,3,10.0097,0.00152588,-0.00732422,-2.4302,0.0529344,-0.0771993,0.0513814,0.0691393,-0.0952827,0.141961,-0.127598,-0.0889791,0.0234222,0.13092,0.114365,-0.0343323,0.0109863,0.0231171,0.0313187,0.0295258,-9.97986,0.01194,-0.106125,-0.00415802,-0.818939,0.00995636,-0.00366211,0.0427628,0.0231171
8,4,10.0097,-0.000610352,-0.00732422,-2.42989,0.0538499,-0.0753682,0.0522969,0.0691393,-0.0952827,0.142572,-0.127598,-0.0886739,0.0157166,0.0765991,0.0864029,-0.0149918,0.0133514,0.0300598,0.0356293,0.0518417,-9.97986,0.0206375,-0.0453568,-0.00968933,-0.889893,0.016861,0.00450134,0.0438309,0.0260925
8,5,10.0097,-0.0012207,-0.0062561,-2.42837,0.0532396,-0.0765889,0.0516866,0.0694445,-0.094062,0.140741,-0.127903,-0.0886739,0.0121689,0.0114822,0.0104904,0.00427246,0.00682831,0.0323105,0.031662,0.0553894,-9.97986,0.0232315,-0.0118256,-0.0101852,-0.950508,0.0151825,0.0031662,0.039444,0.02491
8,6,10.0097,0.000610352,-0.00732422,-2.42867,0.0544603,-0.0747579,0.0522969,0.0694445,-0.094062,0.143182,-0.126072,-0.0874532,0.00999451,-0.0603104,-0.0617599,0.0166321,0.00774384,0.0363159,0.0352097,0.0666046,-9.97986,0.033989,0.000495911,-0.0124359,-1.00819,0.0191116,0.00118256,0.0400162,0.0288391
8,7,10.0097,0.00152588,-0.0062561,-2.42745,0.0559862,-0.0753682,0.0532125,0.0700548,-0.0937568,0.143792,-0.126377,-0.0865377,0.0163651,-0.0706482,-0.0757599,0.0111008,0.00747681,0.0376892,0.0356674,0.104828,-9.97986,0.0358963,0.0148392,-0.00926971,-1.06819,0.0238419,-0.00354767,0.0414276,0.0295258
8,8,10.0097,0.00183105,-0.00549316,-2.42684,0.0547655,-0.0747579,0.0532125,0.0691393,-0.0934516,0.145318,-0.125461,-0.0859274,0.0174713,-0.0350952,-0.0527191,0.0178146,0.000534058,0.0404358,0.0406265,0.123062,-9.97986,0.0317383,0.0218582,-0.0104904,-1.11782,0.0269699,-0.0110626,0.0318527,0.0291824
8,9,10.0097,0.00274658,-0.00396729,-2.42501,0.0562914,-0.0738423,0.0544332,0.0694445,-0.0928413,0.146844,-0.125461,-0.0840963,0.0141525,-0.00221252,-0.00392914,0.0281906,0.00499725,0.0466919,0.0453949,0.123596,-9.97986,0.0228882,0.0271988,-0.0110245,-1.15814,0.0291443,-0.0164413,0.0402832,0.0313568
9,0,10.0097,0.000915527,-0.0038147,-2.42501,0.0553758,-0.0744527,0.054128,0.0715807,-0.0919257,0.146844,-0.125461,-0.0831808,0.0160217,0.0316238,0.0446701,0.038414,-0.00118256,0.0432205,0.0391769,0.116043,-9.97986,0.0116348,0.0186157,-0.0117111,-1.18259,0.0304794,-0.0114059,0.0377274,0.0334549
9,1,10.0097,0.000915527,-0.00335693,-2.42592,0.0553758,-0.0747579,0.0553487,0.0715807,-0.0910102,0.147149,-0.124241,-0.0822652,0.0104141,0.0631332,0.0850677,0.0382233,-0.00343323,0.0477982,0.0398636,0.146179,-9.97986,7.62939e-005,-0.0440979,-0.0121307,-1.20247,0.031395,-0.00904083,0.0369644,0.0350189
9,2,10.0097,0.000915527,-0.00152588,-2.42257,0.055681,-0.0741475,0.0553487,0.0694445,-0.0922309,0.146539,-0.124241,-0.0819601,0.0069809,0.0969315,0.120964,0.0336838,-0.00564575,0.048027,0.0395584,0.141487,-9.97986,-0.00766754,-0.104752,-0.0172424,-1.20827,0.0379562,-0.00514984,0.034523,0.0324249
9,3,10.0097,-0.000915527,-0.000610352,-2.4247,0.0569017,-0.0735371,0.0556539,0.0715807,-0.0916206,0.147455,-0.123935,-0.0807394,0.00770569,0.122871,0.132484,0.0203323,-0.00648499,0.0477982,0.0404739,0.078125,-9.97986,-0.010376,-0.075264,-0.0152206,-1.20476,0.0342178,-0.00408173,0.0324631,0.0358582
9,4,10.0097,0.000610352,0.0012207,-2.42531,0.0562914,-0.0738423,0.054128,0.0712755,-0.090705,0.147149,-0.123935,-0.080129,0.00759125,0.137024,0.136681,0.00862122,-0.0109482,0.0496674,0.0423813,0.0600052,-9.97986,-0.0185013,-0.0240707,-0.0165558,-1.17748,0.0370789,-0.0108337,0.0311279,0.0368118
9,5,10.0097,-0.000305176,0.00244141,-2.4247,0.0569017,-0.0741475,0.054128,0.0535753,-0.0934516,0.145013,-0.125766,-0.0822652,0.00751495,0.137177,0.127296,0.00183105,-0.00823975,0.0519943,0.0446701,0.0628662,-9.97986,-0.0240326,-0.00701904,-0.0153732,-1.13037,0.043602,-0.000267029,0.0300217,0.0405121
9,6,10.0097,0.000610352,0.00335693,-2.42684,0.0559862,-0.0744527,0.0532125,0.0563219,-0.0934516,0.146234,-0.125766,-0.0810445,0.0156021,0.122986,0.119553,0.00133514,-0.00774384,0.0473022,0.0406265,0.0272369,-9.97986,-0.0249481,0.00839233,-0.0156784,-1.06724,0.0415421,0.00648499,0.0281906,0.0416183
9,7,10.0097,0.00274658,0.00640869,-2.42531,0.0559862,-0.0738423,0.0553487,0.0639513,-0.0916206,0.145929,-0.125461,-0.0807394,0.0178909,0.155106,0.121117,-0.00267029,-0.0134277,0.049324,0.0397873,0.025177,-9.97986,-0.0270844,0.0515366,-0.0173187,-0.985336,0.0462341,0.0133514,0.0260925,0.0400925
9,8,10.0097,-0.0012207,0.00808716,-2.42592,0.0553758,-0.0753682,0.0535176,0.0700548,-0.0919257,0.143792,-0.124851,-0.080129,0.0142288,0.161438,0.0771713,-0.0109482,-0.015831,0.0511169,0.0402832,0.0644302,-9.97986,-0.0205231,0.0686646,-0.0142288,-0.886765,0.0432205,0.0198364,0.0234222,0.0395203
9,9,10.0097,-0.000915527,0.0105286,-2.42623,0.0553758,-0.0747579,0.0544332,0.0853136,-0.0913154,0.145624,-0.125156,-0.0807394,0.0102234,0.126534,0.00530243,-0.00255585,-0.0163651,0.0494766,0.0363922,0.0831223,-9.97986,-0.0181961,0.0371552,-0.0153732,-0.768661,0.0447083,0.0217056,0.0234222,0.0394058
10,0,10.0097,0.000610352,0.012207,-2.42837,0.0544603,-0.0762837,0.0529073,0.0776842,-0.0937568,0.143182,-0.126987,-0.0822652,0.00858307,0.124283,-0.0248718,0.00564575,-0.0162888,0.052681,0.0408554,0.099411,-9.97986,-0.00110626,-0.0143051,-0.0130844,-0.640793,0.047493,0.0265884,0.0199127,0.0409317
10,1,10.0097,0.000610352,0.0123596,-2.42867,0.0541551,-0.0765889,0.0526021,0.0731066,-0.0949775,0.142877,-0.126987,-0.0831808,0.00740051,0.111732,-0.0399017,0.0118637,-0.0141144,0.050621,0.0391769,0.112495,-9.97986,0.0168228,-0.0296021,-0.0120163,-0.503922,0.0476074,0.0243378,0.017662,0.0402069
10,2,10.0097,-0.000610352,0.0131226,-2.42989,0.0544603,-0.0753682,0.0519917,0.07036,-0.0952827,0.14013,-0.126682,-0.0825704,0.00549316,-0.017662,-0.0572586,0.0088501,-0.0156021,0.0494003,0.0392151,0.121346,-9.97986,0.0377274,-0.0315475,-0.013237,-0.358467,0.0476837,0.0142288,0.0180054,0.0366974
10,3,10.0097,0.0012207,0.01297,-2.42867,0.0532396,-0.075063,0.0510762,0.07036,-0.094062,0.140741,-0.127903,-0.0828756,0.0069046,-0.123138,-0.10006,0.0214767,-0.0195313,0.0492477,0.036087,0.115128,-9.97986,0.0557709,-0.029068,-0.0147247,-0.219421,0.0469971,0.00160217,0.0138855,0.0364304
10,4,10.0097,0.00183105,0.0135803,-2.42867,0.0541551,-0.0756734,0.0519917,0.0688341,-0.0946723,0.144098,-0.126377,-0.0831808,0.00579834,-0.111771,-0.0928879,0.0200653,-0.0236893,0.0475693,0.0381088,0.111504,-9.97986,0.0621033,0.0213623,-0.0125885,-0.0664139,0.04776,-0.00354767,0.0127411,0.036087
10,5,10.0097,0.000305176,0.0149536,-2.42898,0.0535448,-0.0771993,0.0529073,0.0679186,-0.0946723,0.143487,-0.126987,-0.0819601,0.00934601,-0.0750351,-0.0580978,0.0203323,-0.021286,0.0484085,0.0330734,0.112953,-9.97986,0.0509644,0.0389862,-0.0170135,0.0852585,0.0447083,-0.00717163,0.00919342,0.0329208
10,6,10.0097,-0.000610352,0.0160217,-2.42806,0.0550706,-0.0756734,0.0529073,0.0688341,-0.0928413,0.144708,-0.126987,-0.0819601,0.00999451,-0.0560379,-0.0286484,0.0140381,-0.0193405,0.0526047,0.0255966,0.0863266,-9.97986,0.0431824,-0.0159836,-0.0120544,0.25631,0.0451279,-0.0115204,0.00995636,0.0337982
10,7,10.0097,0.000915527,0.0163269,-2.43081,0.0550706,-0.0747579,0.0550435,0.0688341,-0.0943672,0.145013,-0.126987,-0.080129,0.0141525,-0.0476837,-0.0180435,0.0205612,-0.0239182,0.041008,0.022583,0.0750732,-9.97986,0.0310135,-0.046196,-0.0144958,0.427971,0.0407028,-0.00907898,0.00854492,0.0299454
10,8,10.0097,0.000305176,0.0163269,-2.42684,0.0547655,-0.075063,0.0532125,0.0688341,-0.0931465,0.145318,-0.126377,-0.0795187,0.0112915,-0.0498962,-0.0106049,0.0144958,-0.028801,0.0416946,0.0245667,0.103073,-9.97986,0.0292587,-0.0489044,-0.0105286,0.589104,0.0460434,-0.0109863,0.00549316,0.0298309
10,9,10.0097,0.000305176,0.0161743,-2.42592,0.0550706,-0.0747579,0.0532125,0.0697496,-0.0931465,0.146539,-0.126072,-0.0795187,0.00629425,-0.0297928,-0.0094986,0.0196838,-0.0286484,0.0380325,0.0224686,0.107498,-9.97986,0.0233841,-0.0439835,-0.0117874,0.744743,0.0461578,-0.0100708,0.00728607,0.0285721
11,0,10.0097,0.000610352,0.0152588,-2.42684,0.0562914,-0.0747579,0.0547383,0.0709703,-0.0919257,0.146539,-0.124546,-0.0779928,0.00968933,-0.00152588,0.00679016,0.0202179,-0.0275803,0.0331879,0.0263977,0.120316,-9.97986,0.0187302,0.0139236,-0.0102234,0.891304,0.0485611,-0.0133896,0.00595093,0.0262833
11,1,10.0097,0.000610352,0.0138855,-2.4247,0.0562914,-0.0735371,0.0550435,0.0715807,-0.0913154,0.147455,-0.12363,-0.0773824,0.010376,0.0125122,0.016861,0.0177765,-0.0307846,0.0281143,0.0248337,0.127449,-9.97986,0.0195694,0.0892258,-0.00499725,1.0323,0.0481415,-0.0136566,0.00709534,0.0247192
11,2,10.0097,0.00244141,0.0132751,-2.42501,0.0553758,-0.0744527,0.0553487,0.0709703,-0.0913154,0.14776,-0.124546,-0.0770773,0.0102234,0.0222015,0.0285721,0.0238419,-0.0254822,0.0226974,0.0173569,0.139236,-9.97986,0.0187302,0.117874,-0.00377655,1.16695,0.052948,-0.0129318,0.0056839,0.0235748
11,3,10.0097,0.0012207,0.0128174,-2.42287,0.0578172,-0.073232,0.0547383,0.0709703,-0.0910102,0.147149,-0.123935,-0.0770773,0.0125122,0.0369263,0.0390625,0.0233078,-0.0254059,0.0184631,0.0170517,0.14595,-9.97986,0.0193024,0.0986099,0.00156403,1.24996,0.0509262,-0.00823975,-0.00175476,0.0218582
11,4,10.0097,0.00152588,0.0112915,-2.4244,0.0559862,-0.0738423,0.054128,0.0715807,-0.0910102,0.147455,-0.12363,-0.0776876,0.0114059,0.041275,0.0495529,0.0264359,-0.0245285,0.0223541,0.021019,0.139847,-9.97986,0.00843048,0.0279236,0.00175476,1.24996,0.0522614,-0.00556946,0.00339508,0.0190735
11,5,10.0097,-0.000610352,0.00930786,-2.42592,0.0559862,-0.0744527,0.0550435,0.0557115,-0.0934516,0.147149,-0.125461,-0.0773824,0.0127411,0.0524139,0.0484085,0.0205994,-0.0239182,0.0136948,0.0185394,0.135994,-9.97986,0.00930786,-0.0497818,0.00244141,1.24996,0.0563431,-0.00892639,-0.00160217,0.0170517
11,6,10.0097,0.000915527,0.00793457,-2.42776,0.0559862,-0.075063,0.0544332,0.0569322,-0.0925361,0.145624,-0.125461,-0.080129,0.013504,0.0597382,0.0585175,0.0198364,-0.0187302,0.0138092,0.019455,0.135612,-9.97986,0.00709534,-0.0345993,0.00831604,1.24996,0.0550461,-0.00137329,-0.001297,0.0150681
11,7,10.0097,-0.0012207,0.00778198,-2.42653,0.0572069,-0.0741475,0.0553487,0.0642565,-0.0943672,0.145624,-0.125156,-0.0804342,0.0118256,0.0328064,0.0614929,0.0282669,-0.0218964,0.00488281,0.0170135,0.131798,-9.97986,0.000953674,0.030632,0.00888824,1.24996,0.0568771,0.00228882,-0.00499725,0.0122452
11,8,10.0097,-0.000305176,0.00747681,-2.42684,0.0562914,-0.0738423,0.0544332,0.0700548,-0.0913154,0.146234,-0.124851,-0.0810445,0.0118637,0.020752,0.0664139,0.0234222,-0.0160599,0.00812531,0.0178146,0.125389,-9.97986,0.00171661,0.0251389,0.00881195,1.24996,0.0486374,0.00984192,-0.000839233,0.0117111
11,9,10.0097,-0.000610352,0.00549316,-2.42714,0.0547655,-0.0747579,0.0544332,0.0853136,-0.0916206,0.145013,-0.125156,-0.0825704,0.0131989,0.0397491,0.059166,0.0247955,-0.0117874,0.00965118,0.0189209,0.114288,-9.97986,0.00167847,-0.0162506,0.0094223,1.24996,0.0461578,0.0101471,-0.00339508,0.0102997
12,0,10.0097,0.000610352,0.00411987,-2.42745,0.0535448,-0.0762837,0.0529073,0.0758531,-0.0946723,0.143182,-0.126377,-0.0850118,0.0111771,0.0567245,0.0527954,0.02491,-0.0136185,0.00484467,0.0167084,0.113297,-9.97986,-0.000915527,-0.0276566,0.0170517,1.24996,0.0519943,0.000114441,-0.00511169,0.00408173
12,1,10.0097,0.000915527,0.00198364,-2.42989,0.0538499,-0.0759786,0.0529073,0.0712755,-0.0955879,0.143182,-0.126682,-0.0847066,0.00930786,0.0624084,0.049324,0.0226974,-0.00839233,0.0018692,0.0170898,0.10334,-9.97986,-0.000228882,-0.0168991,0.0107193,1.24996,0.0494385,-0.00484467,-0.00926971,0.00423431
12,2,10.0097,0,0.000915527,-2.42928,0.0544603,-0.075063,0.0529073,0.0706652,-0.0946723,0.144098,-0.127292,-0.0859274,0.014534,0.0585556,0.0380707,0.0191116,-0.00896454,0.0037384,0.0165176,0.0988007,-9.97986,0.00400543,-0.0263214,0.0169373,1.24996,0.0482941,0.00106812,-0.00537872,0.0075531
12,3,10.0097,-0.000610352,-0.000305176,-2.42837,0.0523241,-0.0759786,0.050771,0.0688341,-0.0949775,0.141961,-0.126987,-0.0874532,0.0116348,0.0519943,0.0330734,0.0207901,-0.00614166,0.000839233,0.0144577,0.0960159,-9.97986,7.62939e-005,-0.028801,0.0200653,1.24996,0.0492477,0.00232697,-0.00389099,0.00442505
12,4,10.0097,0.000610352,-0.000457764,-2.42745,0.0541551,-0.0756734,0.0526021,0.0688341,-0.0971137,0.144098,-0.126987,-0.0871481,0.0106049,0.0530624,0.042038,0.0177765,-0.00656128,-0.000572205,0.0151443,0.0910187,-9.97986,-0.00160217,-0.00671387,0.021553,1.24996,0.0465775,0.00682831,-0.00934601,0.000610352
12,5,10.0097,0.00183105,-0.0012207,-2.42898,0.0535448,-0.0753682,0.0529073,0.0685289,-0.0952827,0.142267,-0.127903,-0.0877584,0.0106812,0.0432587,0.0544739,0.0197601,-0.00473022,0.00343323,0.00812531,0.0939178,-9.97986,-0.00385284,0.0094223,0.021286,1.24996,0.044136,0.0088501,-0.00816345,-0.00244141
12,6,10.0097,-0.000915527,-0.00289917,-2.42714,0.0550706,-0.0756734,0.0516866,0.0676134,-0.0931465,0.143792,-0.127292,-0.0865377,0.012207,0.046463,0.0546646,0.0218964,0.000648499,0.00278473,0.0123215,0.0898743,-9.97986,0.00324249,0.0150681,0.0214386,1.24996,0.038681,0.014801,-0.00804901,-0.00377655
12,7,10.0097,-0.000610352,-0.0038147,-2.42745,0.0547655,-0.0756734,0.0529073,0.0706652,-0.094062,0.144708,-0.126377,-0.0856222,0.00686646,0.0625992,0.0391388,0.020752,-0.00225067,0.00320435,0.01297,0.0904083,-9.97986,0.00347137,0.0114441,0.020256,1.24996,0.0336075,0.0197601,-0.00667572,-0.00629425
12,8,10.0097,-0.000915527,-0.00488281,-2.42745,0.0544603,-0.0744527,0.0538228,0.0697496,-0.0931465,0.143792,-0.126987,-0.0850118,0.00919342,0.056572,0.0221634,0.0224686,-0.00747681,0.00644684,0.0177765,0.0795746,-9.97986,0.00930786,0.00911713,0.0255585,1.24996,0.0333405,0.0153351,-0.0104523,-0.00358582
12,9,10.0097,0.000305176,-0.0050354,-2.42653,0.0562914,-0.0741475,0.0538228,0.0709703,-0.0919257,0.144403,-0.124851,-0.0847066,0.00476837,0.0267792,0.0168991,0.0218582,-0.0100708,0.000991821,0.0149536,0.0717545,-9.97986,0.00659943,0.00137329,0.0229645,1.24996,0.0295639,0.00637054,-0.00934601,-0.00587463
13,0,10.0097,-0.000610352,-0.00549316,-2.42592,0.0569017,-0.073232,0.0547383,0.0715807,-0.0916206,0.147455,-0.124241,-0.0840963,0.0113678,0.0112152,0.0242996,0.019722,-0.00823975,-0.00247955,0.0181198,0.0623322,-9.97986,0.0139618,-0.00167847,0.0301361,1.24996,0.0360489,0.00507355,-0.00919342,-0.00545502
13,1,10.0097,0.00152588,-0.00595093,-2.4247,0.0559862,-0.073232,0.054128,0.0709703,-0.090705,0.147455,-0.124241,-0.0834859,0.0113297,0.0186539,0.0307083,0.0141144,-0.00423431,0.00354767,0.0197983,0.0527191,-9.97986,0.0152588,0.000610352,0.0288773,1.24996,0.0408173,0.00152588,-0.00846863,-0.00350952
13,2,10.0097,0.000305176,-0.00747681,-2.4244,0.0559862,-0.0738423,0.055959,0.072191,-0.090705,0.147149,-0.123935,-0.0831808,0.0124359,0.0311279,0.0443268,0.0146103,-0.000839233,0.00537872,0.0224304,0.0374222,-9.97986,0.0100327,0.0191879,0.0320816,1.24996,0.0405884,-0.00366211,-0.00705719,-0.00247955
13,3,10.0097,-0.000305176,-0.00732422,-2.4244,0.0575121,-0.073232,0.0553487,0.0715807,-0.0910102,0.146844,-0.124851,-0.0837911,0.01194,0.031395,0.044632,0.0183105,-0.00110626,0.00598907,0.0252914,0.0330353,-9.97986,0.0124741,0.0196457,0.0340271,1.18744,0.0458527,-0.00312805,-0.00564575,-0.00335693
13,4,10.0097,0,-0.00808716,-2.42409,0.0559862,-0.0738423,0.054128,0.07036,-0.0913154,0.145318,-0.12363,-0.0840963,0.0100708,0.0255585,0.0374603,0.0170135,0.0106049,-0.00183105,0.0233841,0.028801,-9.97986,0.00232697,0.0044632,0.0310516,1.10279,0.0447083,0.000419617,-0.00404358,-0.00358582
13,5,10.0097,0.000305176,-0.00869751,-2.42562,0.0575121,-0.0747579,0.0532125,0.054796,-0.0949775,0.145624,-0.126987,-0.0844015,0.00617981,0.0162125,0.018158,0.0177383,0.00858307,-0.000953674,0.0259781,0.0279617,-9.97986,0.00549316,0.013237,0.0350952,1.02108,0.0538635,-0.000190735,-0.00167847,-0.00118256
13,6,10.0097,0.0012207,-0.00854492,-2.42684,0.0562914,-0.0744527,0.0538228,0.0557115,-0.0931465,0.145013,-0.125766,-0.0834859,0.00804901,0.00499725,0.0031662,0.0194931,0.0135803,0.00106812,0.0262833,0.025444,-9.97986,0.0139236,0.0317764,0.0343704,0.937805,0.0531006,0.00499725,-0.000114441,-7.62939e-005
13,7,10.0097,0.000610352,-0.00793457,-2.42684,0.0550706,-0.073232,0.0556539,0.0636461,-0.0931465,0.146539,-0.126377,-0.085317,0.00648499,-0.0200653,0.00152588,0.0188446,0.0170517,0.000457764,0.0288391,0.0207901,-9.97986,0.0117111,0.0310516,0.0398636,0.859871,0.0525284,0.00564575,0,-3.8147e-005
13,8,10.0097,0.000610352,-0.00717163,-2.42684,0.0553758,-0.0744527,0.0550435,0.0700548,-0.0919257,0.145929,-0.126377,-0.0856222,0.00823975,-0.0211334,0.00793457,0.0130081,0.00907898,0.00267029,0.0279617,0.00953674,-9.97986,0.0125885,0.0378418,0.0437927,0.779343,0.0524521,0.00434875,0.000267029,0.001297
13,9,10.0097,-0.00183105,-0.00686646,-2.42776,0.0553758,-0.0738423,0.0529073,0.0837877,-0.0910102,0.146234,-0.125156,-0.0850118,0.00595093,-0.00202179,0.0115204,0.0164413,0.00946045,0.00854492,0.0267792,-0.00110626,-9.97986,0.0150681,0.0361633,0.0411224,0.698242,0.0443649,-0.000915527,0.00263214,0.00244141
14,0,10.0097,0,-0.00671387,-2.42898,0.0538499,-0.0756734,0.0519917,0.0785997,-0.094062,0.144708,-0.126377,-0.0874532,0.00617981,0.0107193,-0.00244141,0.0167465,0.0107574,0.0158691,0.0285339,-0.0149918,-9.97986,0.0123978,-0.00789642,0.040741,0.631256,0.0447845,-0.00846863,0.00431061,0.000267029
14,1,10.0097,0,-0.00610352,-2.42928,0.0541551,-0.0759786,0.0529073,0.072191,-0.0946723,0.143182,-0.126682,-0.0883688,0.0120544,0.00202179,-0.00930786,0.0156784,0.0125885,0.0186539,0.0298309,-0.0298309,-9.97986,0.0163651,-0.0270462,0.0417709,0.560646,0.0389099,-0.0129318,0.00675201,0.0062561
14,2,10.0097,0.000305176,-0.00656128,-2.4305,0.0547655,-0.0759786,0.0526021,0.07036,-0.0946723,0.143182,-0.126377,-0.0880636,0.0102615,0.0075531,-0.00343323,0.016861,0.0164413,0.0220108,0.032196,-0.0387955,-9.97986,0.0195313,-0.000419617,0.0495529,0.493889,0.0337219,-0.0172043,0.00213623,0.000686646
14,3,10.0097,0.000305176,-0.00671387,-2.4302,0.0535448,-0.0759786,0.0516866,0.0682238,-0.095893,0.143182,-0.130039,-0.0895895,0.00923157,0.0148392,0.00328064,0.0172424,0.0165558,0.0326157,0.0297546,-0.0474167,-9.97986,0.0178146,0.0172424,0.0528717,0.43808,0.0324631,-0.0138855,0.00648499,0.00637054
14,4,10.0097,0.000305176,-0.0062561,-2.42898,0.0526292,-0.0765889,0.0529073,0.0706652,-0.0946723,0.143792,-0.127903,-0.0895895,0.00629425,0.0137711,0.00923157,0.0169373,0.0239563,0.043869,0.0282288,-0.0536728,-9.97986,0.0137711,0.0199509,0.0540161,0.374146,0.0288773,-0.0136566,0.00717163,0.00133514
14,5,10.0097,0.000915527,-0.0062561,-2.42898,0.0535448,-0.0762837,0.0532125,0.0694445,-0.0946723,0.143182,-0.126377,-0.0886739,0.00457764,0.0164413,0.0126648,0.0138092,0.0260162,0.0550461,0.0275803,-0.0697327,-9.97986,0.0173187,0.01297,0.047493,0.317574,0.0292969,-0.0233459,0.00823975,0.00289917
14,6,10.0097,0.000915527,-0.00579834,-2.42592,0.0550706,-0.0756734,0.0522969,0.0700548,-0.0925361,0.144708,-0.12302,-0.0871481,0.00114441,0.019989,0.0203323,0.010643,0.0317764,0.0608444,0.0259399,-0.0758362,-9.97986,0.0119019,0.00888824,0.0496292,0.251656,0.0250626,-0.022316,0.0139618,0.00888824
14,7,10.0097,-0.000610352,-0.00564575,-2.42684,0.0559862,-0.0738423,0.0532125,0.0709703,-0.0931465,0.144708,-0.126377,-0.0865377,0.00408173,0.0255203,0.0191116,0.0122833,0.0314713,0.0707245,0.0259399,-0.0847626,-9.97986,0.0143814,0.00270844,0.0500107,0.201912,0.0256348,-0.0107574,0.0114441,0.0069809
14,8,10.0097,0.000915527,-0.00457764,-2.42776,0.0553758,-0.075063,0.0547383,0.0694445,-0.094062,0.145013,-0.126377,-0.0859274,0.0104523,0.0272751,0.0182343,0.0119781,0.0286484,0.08461,0.0256729,-0.0938416,-9.97986,0.0123215,0.00747681,0.0552368,0.153046,0.0275421,-0.000610352,0.0135803,0.00854492
14,9,10.0097,0.00244141,-0.00534058,-2.42623,0.0559862,-0.0744527,0.0538228,0.0697496,-0.0925361,0.144403,-0.124241,-0.0850118,0.00965118,0.0224686,0.019989,0.0106812,0.0250244,0.0975037,0.0301743,-0.101471,-9.97986,0.0115585,0.0117111,0.0571442,0.111084,0.0274277,-0.00396729,0.0125122,0.0133133
15,0,10.0097,-0.000915527,-0.00488281,-2.42562,0.055681,-0.075063,0.0535176,0.0712755,-0.0916206,0.147149,-0.124546,-0.0822652,0.00972748,0.0242996,0.0254822,0.01194,0.0283813,0.105286,0.0239563,-0.103874,-9.97986,0.0138092,0.0111389,0.0593948,0.0654221,0.0250244,-0.00644684,0.0121307,0.0124359
15,1,10.0097,0.000610352,-0.00442505,-2.4247,0.0565965,-0.073232,0.0556539,0.0715807,-0.0913154,0.146539,-0.12363,-0.0825704,0.00778198,0.0248337,0.0237274,0.0108719,0.0307465,0.109901,0.0244904,-0.113678,-9.97986,0.0100327,0.0161743,0.0608063,0.0218964,0.0229263,-0.00274658,0.0183487,0.0164032
15,2,10.0097,0,-0.00350952,-2.4247,0.0559862,-0.0741475,0.055959,0.0700548,-0.0919257,0.145929,-0.123325,-0.0822652,0.00480652,0.0321198,0.025177,0.0154114,0.0302505,0.125008,0.0216293,-0.114326,-9.97986,0.0136948,0.0158691,0.0642776,-0.0112915,0.0214386,3.8147e-005,0.0183868,0.0172806
15,3,10.0097,-0.000610352,-0.00350952,-2.42531,0.0569017,-0.0741475,0.0547383,0.0724962,-0.0916206,0.146844,-0.12363,-0.0813497,0.00602722,0.0260925,0.0261688,0.00915527,0.0307083,0.131912,0.0200272,-0.121078,-9.97986,0.0108337,0.0141144,0.0615311,-0.0468445,0.022049,0.00331879,0.023613,0.0217438
15,4,10.0097,-0.000305176,-0.00320435,-2.42623,0.0550706,-0.0741475,0.0535176,0.0712755,-0.0919257,0.146234,-0.124241,-0.0822652,-0.00137329,0.0276184,0.0276566,0.0113297,0.0267029,0.137749,0.0162125,-0.128288,-9.97986,0.00499725,0.0189209,0.0593948,-0.083046,0.00999451,-0.00488281,0.0169754,0.0214005
15,5,10.0097,0.000610352,-0.00411987,-2.42562,0.0559862,-0.0741475,0.0538228,0.0532701,-0.0943672,0.146539,-0.125766,-0.0825704,-0.00358582,0.0315857,0.0278091,0.015564,0.033493,0.140953,0.0188065,-0.13031,-9.97986,0.00442505,0.0156021,0.0600052,-0.119896,0.0178146,-0.0125122,0.0205231,0.0267029
15,6,10.0097,-0.000915527,-0.00442505,-2.42684,0.0550706,-0.0741475,0.054128,0.0557115,-0.0922309,0.145929,-0.126072,-0.0840963,-0.00846863,0.0325394,0.0244141,0.0133514,0.0207138,0.144196,0.0156403,-0.13607,-9.97986,0.00453949,0.00789642,0.0598145,-0.161591,0.0137711,-0.00972748,0.0209045,0.0239182
15,7,10.0097,-0.000915527,-0.00366211,-2.42653,0.0559862,-0.0744527,0.0544332,0.0636461,-0.0919257,0.145318,-0.125461,-0.0844015,-0.00110626,0.0336456,0.0197983,0.0102615,0.0193787,0.144501,0.0144196,-0.133934,-9.97986,0.00988007,0.00232697,0.0601959,-0.200386,0.0132751,-0.0114059,0.0175095,0.0273132
15,8,10.0097,0.000610352,-0.0038147,-2.42714,0.0553758,-0.0735371,0.0553487,0.0706652,-0.0919257,0.145929,-0.125461,-0.0847066,0.00255585,0.0332642,0.0181198,0.0134659,0.0139236,0.142899,0.0138474,-0.136871,-9.97986,0.00732422,-0.000152588,0.0540924,-0.237122,0.0118637,-0.0166321,0.0156403,0.0302887
15,9,10.0097,-0.0012207,-0.00274658,-2.42623,0.0541551,-0.0759786,0.0538228,0.0868395,-0.0900947,0.144708,-0.124851,-0.0840963,0.0111771,0.0331497,0.0211716,0.00827789,0.0204468,0.14286,0.0191879,-0.135803,-9.97986,0.00965118,-0.00259399,0.0545883,-0.277367,0.0146103,-0.0205994,0.0193024,0.0300598
16,0,10.0097,-0.000610352,-0.00305176,-2.42714,0.0541551,-0.0771993,0.0513814,0.0798204,-0.094062,0.143792,-0.126987,-0.0877584,0.0202179,0.0313187,0.020752,0.00732422,0.0181198,0.135193,0.0138855,-0.13504,-9.97986,0.0112152,-0.0104904,0.0708771,-0.318069,0.0100327,-0.00663757,0.0187302,0.0341034
16,1,10.0097,0.00152588,-0.00411987,-2.42898,0.0550706,-0.0762837,0.0532125,0.0718859,-0.0949775,0.144708,-0.127292,-0.0877584,0.0247192,0.0328064,0.0194168,0.00873566,0.00984192,0.126915,0.0111008,-0.137863,-9.97986,0.0165939,0.00289917,0.0914383,-0.357094,0.0122833,-0.00244141,0.0191116,0.0371933
16,2,10.0097,0.000915527,-0.00457764,-2.42806,0.0535448,-0.0753682,0.0529073,0.0706652,-0.094062,0.143792,-0.127598,-0.0877584,0.00343323,0.0293732,0.0185776,0.00858307,0.0125885,0.123291,0.0153351,-0.133362,-9.97986,0.02388,0.0146866,0.104752,-0.397453,0.0112915,0.00347137,0.0236893,0.0389481
16,3,10.0097,0.000305176,-0.00640869,-2.42867,0.0541551,-0.0762837,0.0529073,0.0691393,-0.0946723,0.143792,-0.127903,-0.0859274,-0.00911713,0.0343704,0.0164795,0.0082016,0.0177765,0.116692,0.00709534,-0.127983,-9.97986,0.0252151,0.018959,0.102158,-0.44426,0.0111771,-0.000190735,0.0221634,0.0395966
16,4,10.0097,0,-0.00473022,-2.42928,0.0535448,-0.0756734,0.0522969,0.0679186,-0.0946723,0.142877,-0.127292,-0.0877584,-0.0126266,0.030899,0.019989,0.00938416,0.0224686,0.109062,0.0119019,-0.125694,-9.97986,0.0235367,0.0147629,0.103226,-0.487671,0.0124359,0.00106812,0.0226593,0.0434875
16,5,10.0097,0.000305176,-0.00427246,-2.42928,0.0535448,-0.0768941,0.0516866,0.0685289,-0.094062,0.144403,-0.127903,-0.0877584,-0.0182724,0.0333405,0.018425,0.0103378,0.0226593,0.10128,0.00862122,-0.128288,-9.97986,0.0134277,0.0193024,0.0945663,-0.521927,0.00732422,-0.00221252,0.0242615,0.0483704
16,6,10.0097,0.000305176,-0.00411987,-2.42867,0.0544603,-0.0753682,0.0526021,0.0685289,-0.0946723,0.145318,-0.127598,-0.0877584,-0.017395,0.0296402,0.0230026,0.0115967,0.0251007,0.0950241,0.0124359,-0.126038,-9.97986,0.0113297,0.0103378,0.0870895,-0.565262,0.00549316,-0.0094986,0.0277328,0.0476456
16,7,10.0097,0,-0.00289917,-2.42653,0.0553758,-0.0747579,0.0529073,0.0697496,-0.0925361,0.144708,-0.126987,-0.0859274,-0.0044632,0.0352859,0.017662,0.00476837,0.0330734,0.0854874,0.00473022,-0.122871,-9.97986,0.011673,-0.00934601,0.0800323,-0.60936,0.00411987,-0.0150299,0.0304413,0.0487518
16,8,10.0097,-0.000610352,-0.00427246,-2.42653,0.0553758,-0.0744527,0.0538228,0.0685289,-0.0934516,0.145318,-0.125766,-0.085317,0.0088501,0.0337219,0.021019,0.00488281,0.0490952,0.0779724,0.00171661,-0.127869,-9.97986,0.00854492,-0.00823975,0.0793076,-0.641365,0.00312805,-0.018425,0.0351715,0.0492859
16,9,10.0097,-0.000305176,-0.00274658,-2.42653,0.0550706,-0.0747579,0.054128,0.0709703,-0.0922309,0.144708,-0.124546,-0.0847066,0.0337982,0.0341034,0.0187683,0.00823975,0.0619125,0.0709152,0.00564575,-0.137863,-9.97986,0.0204086,0.00133514,0.0812912,-0.681267,0.00587463,-0.0136948,0.0336456,0.0499344
17,0,10.0097,0.000305176,-0.00396729,-2.42531,0.0569017,-0.0744527,0.054128,0.0706652,-0.0937568,0.145624,-0.124851,-0.0822652,0.0447845,0.0320053,0.0154877,0.00545502,0.070076,0.0611115,-0.00324249,-0.139046,-9.97986,0.0229645,0.00190735,0.0891113,-0.716896,0.00938416,-0.0109863,0.0373077,0.0471497
17,1,10.0097,0.000610352,-0.00411987,-2.4244,0.055681,-0.0747579,0.0544332,0.0712755,-0.0922309,0.146844,-0.124851,-0.0816549,0.0593185,0.0378036,0.0187683,0.00926971,0.0734711,0.057869,0.00232697,-0.146179,-9.97986,0.0286102,-0.00305176,0.101929,-0.757065,0.0128174,-0.0110245,0.0377655,0.0468063
17,2,10.0097,0.000610352,-0.00320435,-2.42562,0.0569017,-0.0747579,0.0538228,0.0706652,-0.0916206,0.146844,-0.125156,-0.0810445,0.0553513,0.0372696,0.0131989,0.00953674,0.071907,0.0398636,-0.000305176,-0.148544,-9.97986,0.022316,-0.000572205,0.0997543,-0.794487,0.0107193,-0.00637054,0.0364304,0.0433731
17,3,10.0097,0.000915527,-0.00320435,-2.42531,0.0565965,-0.073232,0.0547383,0.0709703,-0.0919257,0.146234,-0.12363,-0.0825704,0.0569534,0.0366592,0.0183868,0.0122452,0.0723648,0.0405502,-0.00282288,-0.146561,-9.97986,0.0161362,-0.0075531,0.0901413,-0.827065,0.00816345,-0.00255585,0.0355148,0.0431061
17,4,10.0097,0.000305176,-0.00274658,-2.42409,0.0569017,-0.0726216,0.0538228,0.0712755,-0.0919257,0.145929,-0.124851,-0.0813497,0.0414658,0.0355911,0.0154495,0.0148392,0.0692368,0.0307465,-0.00404358,-0.149269,-9.97986,-0.00278473,-0.00930786,0.0661087,-0.857849,0.00427246,-0.00728607,0.0358582,0.0442886
17,5,10.0097,0.00213623,-0.00350952,-2.42684,0.0562914,-0.0741475,0.0538228,0.0541857,-0.095893,0.147149,-0.125461,-0.0825704,0.0056076,0.032196,0.0165558,0.0102615,0.0765991,0.0156021,-0.00545502,-0.144196,-9.97986,-0.0346375,-0.0117111,0.0384521,-0.885925,0.00686646,-0.0162125,0.0363922,0.04776
17,6,10.0097,0.000610352,-0.00411987,-2.42592,0.0559862,-0.0735371,0.0544332,0.0544908,-0.0946723,0.145624,-0.126072,-0.0837911,-0.0282288,0.0333405,0.0161743,0.011673,0.0724792,0.0106812,-0.00156403,-0.130692,-9.97986,-0.0555038,-0.0105667,0.0218201,-0.908928,0.00907898,-0.0147629,0.0376892,0.0526047
17,7,10.0097,0.000305176,-0.00244141,-2.42653,0.055681,-0.075063,0.0526021,0.0645616,-0.0916206,0.146234,-0.126072,-0.0828756,-0.0423813,0.0283432,0.0134659,0.0094986,0.0675964,-0.00183105,-0.00240326,-0.121002,-9.97986,-0.066452,-0.00915527,0.000457764,-0.931091,0.0107193,-0.0159454,0.030098,0.0577164
17,8,10.0097,0.000305176,-0.00213623,-2.42653,0.0562914,-0.0744527,0.0532125,0.07036,-0.0925361,0.146234,-0.124851,-0.0837911,-0.0441742,0.029335,0.0101852,0.00556946,0.067482,-0.0141144,0.00343323,-0.111961,-9.97986,-0.0583267,-0.00907898,-0.00907898,-0.951004,0.0122833,-0.0170517,0.0273132,0.0641632
17,9,10.0097,-0.000610352,-0.00137329,-2.42653,0.0553758,-0.0741475,0.0535176,0.0847032,-0.0900947,0.146234,-0.124851,-0.0834859,-0.0553894,0.027771,0.00423431,0.00591278,0.0617218,-0.021286,0.00282288,-0.102386,-9.97986,-0.0394821,-0.00926971,-0.0211716,-0.969315,0.0127029,-0.0192261,0.0281906,0.0746918
18,0,10.0097,0.0012207,-0.0012207,-2.42806,0.0547655,-0.0768941,0.0532125,0.0767687,-0.094062,0.142572,-0.126377,-0.0865377,-0.0326157,0.0230789,0.0069809,0.00926971,0.0604248,-0.0287628,0.00526428,-0.102997,-9.97986,-0.0276184,-0.0120544,-0.0271606,-0.98175,0.00518799,-0.017128,0.0273132,0.0801849
18,1,10.0097,0.00152588,-0.00183105,-2.42959,0.0535448,-0.0759786,0.0519917,0.0728014,-0.094062,0.145929,-0.126987,-0.0877584,-0.00606537,0.0297928,0.00591278,0.00526428,0.0597382,-0.0363922,0.00534058,-0.104218,-9.97986,-0.0334167,-0.0170898,-0.0442505,-0.988884,0.00499725,-0.0147247,0.0258636,0.0830841
18,2,10.0097,-0.0012207,-0.000915527,-2.42776,0.0538499,-0.0759786,0.0535176,0.0706652,-0.094062,0.144708,-0.126682,-0.0865377,0.0226212,0.0249481,0.00343323,0.0135422,0.0663376,-0.0495529,0.0131607,-0.103645,-9.97986,-0.0407028,-0.0143814,-0.052681,-0.995255,0.00953674,-0.0133896,0.0313568,0.0922012
18,3,10.0097,-0.0012207,-0.00137329,-2.42928,0.0532396,-0.0762837,0.050771,0.0694445,-0.0943672,0.143182,-0.127903,-0.0880636,0.0523376,0.0287247,0.00827789,0.00873566,0.0606155,-0.0545502,0.00812531,-0.102119,-9.97986,-0.0284958,-0.0138474,-0.0642014,-1.00307,-0.000991821,-0.0173569,0.0284195,0.0952911
18,4,10.0097,-0.00183105,-0.000152588,-2.42867,0.0535448,-0.0759786,0.0529073,0.0706652,-0.0946723,0.142572,-0.126377,-0.0871481,0.0643158,0.0254059,0.00488281,0.00808716,0.0610733,-0.0622177,0.0082016,-0.0965881,-9.97986,-0.00492096,-0.0127411,-0.0819778,-1.00079,0.000686646,-0.0123978,0.0283432,0.0977707
18,5,10.0097,0.00183105,-0.000305176,-2.42898,0.0547655,-0.0744527,0.0519917,0.0700548,-0.094062,0.143182,-0.126682,-0.0868429,0.0621414,0.0273895,0.00244141,0.0133514,0.0569916,-0.063858,0.00904083,-0.102425,-9.97986,0.00991821,-0.017662,-0.0997925,-0.996666,-0.00175476,-0.00179291,0.0265121,0.1017
18,6,10.0097,-0.000305176,0.000152588,-2.42928,0.0532396,-0.0762837,0.0504659,0.0694445,-0.0952827,0.144403,-0.126072,-0.0856222,0.0652313,0.0341415,0.00530243,0.00911713,0.050354,-0.0794983,0.00839233,-0.107346,-9.97986,0.0362778,-0.0202179,-0.117683,-0.990562,-0.00419617,0.00488281,0.0236511,0.0973511
18,7,10.0097,-0.00152588,0.000152588,-2.42684,0.0538499,-0.075063,0.0535176,0.0700548,-0.0922309,0.145013,-0.126682,-0.0844015,0.0505447,0.0341034,0.0112915,0.00751495,0.043869,-0.0905228,0.0114059,-0.103531,-9.97986,0.038681,-0.0197601,-0.132561,-0.980339,-0.00301361,0.0134659,0.024147,0.0907135
18,8,10.0097,0.00213623,0.000915527,-2.42837,0.0544603,-0.0759786,0.0529073,0.0679186,-0.094062,0.142877,-0.126377,-0.0844015,0.0431824,0.0357437,0.0152588,0.0139618,0.0381851,-0.105095,0.0101471,-0.0941086,-9.97986,0.0276184,-0.0181198,-0.143929,-0.965881,-0.00583649,0.00938416,0.0170517,0.0726318
18,9,10.0097,-0.000305176,0.00152588,-2.42653,0.0547655,-0.0747579,0.0526021,0.0697496,-0.0946723,0.145624,-0.125156,-0.0825704,0.0226593,0.0327301,0.0114822,0.00869751,0.0287628,-0.113945,0.0126648,-0.0860977,-9.97986,0.0069809,-0.0133514,-0.158691,-0.950241,-0.00907898,0.0133896,0.0130463,0.0339127
19,0,10.0097,0.000610352,0.00152588,-2.42501,0.0565965,-0.0744527,0.054128,0.07036,-0.0922309,0.145624,-0.124241,-0.0813497,-0.0166321,0.0350189,0.00999451,0.0101089,0.0283051,-0.113144,0.0121689,-0.087204,-9.97986,0.000839233,-0.0121307,-0.159035,-0.935402,-0.0104141,0.00930786,0.0152206,0.000228882
19,1,10.0097,-0.000305176,0.0012207,-2.42409,0.0562914,-0.0729268,0.0556539,0.0691393,-0.0925361,0.144708,-0.124241,-0.0816549,-0.0656128,0.0276566,0.0109482,0.0139618,0.0227737,-0.110435,0.0204468,-0.0874329,-9.97986,-0.00762939,-0.00888824,-0.162697,-0.924034,-0.0131989,0.0062561,0.00751495,-0.0247192
19,2,10.0097,-0.000915527,0.00183105,-2.42531,0.0562914,-0.0747579,0.0544332,0.0700548,-0.090705,0.14776,-0.124241,-0.0804342,-0.111618,0.0338745,0.0108719,0.0139999,0.022316,-0.110931,0.0153351,-0.098114,-9.97986,-0.0182724,-0.00843048,-0.159607,-0.897827,-0.00980377,0.00858307,0.00663757,-0.0509644
19,3,10.0097,0.00244141,0.00183105,-2.4244,0.0572069,-0.073232,0.0550435,0.0724962,-0.0919257,0.145624,-0.123935,-0.0804342,-0.104256,0.0272751,0.0111771,0.0153351,0.0206757,-0.111389,0.0172806,-0.0979233,-9.97986,0.00583649,-0.0113678,-0.152931,-0.877571,-0.0075531,-0.000686646,0.00377655,-0.0745392
19,4,10.0097,0.00213623,0.00228882,-2.42501,0.0562914,-0.0741475,0.0556539,0.0715807,-0.0919257,0.146539,-0.124241,-0.0798238,-0.0424957,0.026474,0.00835419,0.0101471,0.0216293,-0.111504,0.0176239,-0.0961304,-9.97986,0.0382996,-0.0141907,-0.147743,-0.853996,-0.00965118,0.000190735,0.00160217,-0.094223
19,5,10.0097,0.00183105,0.00198364,-2.42776,0.0562914,-0.0741475,0.0544332,0.0551012,-0.0925361,0.146539,-0.126072,-0.080129,0.00740051,0.0292206,0.0146866,0.01091,0.0236893,-0.106125,0.0113297,-0.0950241,-9.97986,0.0611115,-0.0130081,-0.140762,-0.827179,-0.00789642,0.00205994,-0.00141144,-0.109291
19,6,10.0097,0.000305176,0.00152588,-2.42531,0.0553758,-0.0744527,0.0556539,0.0578478,-0.0931465,0.147455,-0.125156,-0.0819601,0.0628281,0.0258255,0.0131226,0.0137711,0.0260544,-0.103073,0.00553131,-0.0794983,-9.97986,0.0797272,-0.0143051,-0.130424,-0.796471,-0.0056076,0.00823975,0.000343323,-0.118637
19,7,10.0097,-0.000305176,0.00228882,-2.42745,0.0569017,-0.0747579,0.054128,0.065172,-0.0925361,0.145318,-0.125461,-0.0819601,0.081749,0.0240707,0.00785828,0.0111389,0.0232315,-0.0918198,0.0062561,-0.0691986,-9.97986,0.10231,-0.0162888,-0.124741,-0.772591,-0.000114441,0.00854492,0.00610352,-0.131493
19,8,10.0097,-0.000610352,0.00183105,-2.42776,0.0550706,-0.0747579,0.054128,0.0694445,-0.0931465,0.145624,-0.125461,-0.0822652,0.0664139,0.0209808,0.00839233,0.0120926,0.0304794,-0.0774002,0.00720978,-0.0686264,-9.97986,0.104942,-0.0175476,-0.114632,-0.749969,0.00286102,0.00686646,0.00843048,-0.13504
19,9,10.0097,0.0012207,0.00320435,-2.42684,0.0550706,-0.0747579,0.0544332,0.0843981,-0.090705,0.145929,-0.124546,-0.0825704,0.0694656,0.0171661,0.00602722,0.00843048,0.0370026,-0.069046,0.00465393,-0.0637817,-9.97986,0.0947571,-0.020256,-0.10788,-0.725517,0.00453949,0.00858307,0.0112915,-0.143852
20,0,10.0097,0,0.00335693,-2.42898,0.0559862,-0.0765889,0.0526021,0.0779894,-0.0928413,0.144708,-0.126377,-0.0847066,0.0853348,0.0193405,0.00507355,0.0075531,0.0418091,-0.0572968,0.00770569,-0.0653076,-9.97986,0.0880051,-0.0184631,-0.0993729,-0.697479,0.0126648,0.0119781,0.0200653,-0.147171
20,1,10.0097,-0.000610352,0.00198364,-2.42867,0.0532396,-0.0744527,0.0529073,0.0718859,-0.0949775,0.142572,-0.127292,-0.0859274,0.100937,0.0159073,0.0094223,0.00511169,0.0437164,-0.0459671,0.000572205,-0.0622559,-9.97986,0.0761795,-0.0207138,-0.09758,-0.670433,0.0149536,0.00686646,0.0205994,-0.148544
20,2,10.0097,0.000915527,0.00289917,-2.42837,0.0547655,-0.0756734,0.0519917,0.0737169,-0.0952827,0.143487,-0.127292,-0.085317,0.0911713,0.0150299,0.00469208,0.00892639,0.0452805,-0.0348282,0.00366211,-0.0640488,-9.97986,0.04879,-0.0199127,-0.0951385,-0.637436,0.0224686,0.010643,0.0234222,-0.149651
20,3,10.0097,0.000915527,0.00350952,-2.42959,0.0535448,-0.075063,0.0516866,0.067003,-0.0952827,0.143487,-0.127292,-0.0868429,0.0514221,0.0134659,0.00267029,0.00911713,0.0381088,-0.0087738,0.00328064,-0.0630951,-9.97986,0.039444,-0.0193405,-0.0893021,-0.608864,0.02285,0.00434875,0.0241089,-0.146027
20,4,10.0097,-0.000610352,0.00228882,-2.42989,0.0541551,-0.0775044,0.0519917,0.0673082,-0.0965034,0.142267,-0.127598,-0.0868429,0.0012207,0.00671387,0.00362396,0.00465393,0.042038,0.0105286,0.000724792,-0.0683212,-9.97986,0.0312424,-0.018692,-0.0847244,-0.577316,0.0226593,0.00583649,0.0261688,-0.144882
20,5,10.0097,0,0.00259399,-2.42837,0.0544603,-0.0768941,0.0529073,0.0685289,-0.0946723,0.146539,-0.127903,-0.085317,-0.0415802,0.00740051,0.001297,0.0109482,0.0359726,0.00873566,0.00713348,-0.0668335,-9.97986,0.0101852,-0.0164795,-0.0815582,-0.545845,0.0234222,0.00156403,0.0371552,-0.141907
20,6,10.0097,-0.000305176,0.00228882,-2.42776,0.0538499,-0.0747579,0.054128,0.0694445,-0.0937568,0.144098,-0.127598,-0.0847066,-0.0670624,0.00137329,-0.000991821,0.0128555,0.0260544,-0.00511169,0.00659943,-0.0812531,-9.97986,0.00415802,-0.0156021,-0.0743866,-0.518837,0.0207138,0.000648499,0.0283051,-0.138092
20,7,10.0097,0.000610352,0.00289917,-2.42714,0.0562914,-0.0741475,0.054128,0.0700548,-0.0937568,0.145318,-0.126682,-0.0844015,-0.0598145,0.00404358,-0.00183105,0.0037384,0.0208664,-0.0159836,0.0102234,-0.0867844,-9.97986,0.0319672,-0.0108719,-0.0553131,-0.484047,0.022583,0.000686646,0.0322723,-0.134506
20,8,10.0097,-0.00213623,0.00289917,-2.42776,0.0562914,-0.075063,0.054128,0.07036,-0.0922309,0.144403,-0.126377,-0.0828756,-0.0363922,0.0069809,-0.000801086,0.0107193,0.0100708,-0.0284958,0.0139236,-0.163116,-9.97986,0.0477982,-0.00728607,-0.0437164,-0.456772,0.0164032,0.00434875,0.0271606,-0.124474
20,9,10.0097,-0.00396729,0.00274658,-2.42623,0.0541551,-0.0744527,0.0535176,0.0715807,-0.0919257,0.146539,-0.126377,-0.0825704,-0.0123215,0.00534058,0.000190735,0.0044632,0.00087738,-0.0228882,0.0116348,-0.33474,-9.97986,0.0531006,-0.0156021,-0.0330734,-0.428581,0.0125122,0.0069809,0.0257874,-0.121727
21,0,10.0097,-0.00213623,0.00183105,-2.42501,0.055681,-0.0744527,0.0553487,0.0706652,-0.0916206,0.147149,-0.12363,-0.0798238,-0.00759125,0.00301361,-0.00244141,0.00926971,-0.0088501,-0.0140762,0.0188828,-0.522919,-9.97986,0.0572586,-0.00705719,-0.0204849,-0.403137,0.00595093,-0.00286102,0.0289536,-0.114517
21,1,10.0097,-0.00305176,0.00198364,-2.42531,0.055681,-0.0729268,0.0562642,0.0688341,-0.0919257,0.146234,-0.123935,-0.0804342,0.01297,0.00232697,-0.00110626,0.00652313,-0.0117111,-0.00244141,0.0181961,-0.670319,-9.97986,0.0545883,-0.0107574,-0.0094223,-0.380135,0.0112915,-0.00473022,0.0292587,-0.102463
21,2,10.0097,-0.00244141,0.00320435,-2.42592,0.0569017,-0.0744527,0.0547383,0.07036,-0.0910102,0.14776,-0.124546,-0.0807394,0.0402832,0.00461578,-0.00202179,0.00732422,-0.0206757,0.00385284,0.018158,-0.775108,-9.97986,0.059166,-0.00442505,0.000839233,-0.352783,0.00286102,-0.00724792,0.028038,-0.0942993
21,3,10.0097,-0.0012207,0.00228882,-2.4244,0.0559862,-0.0738423,0.0556539,0.072191,-0.0913154,0.147455,-0.124241,-0.080129,0.0432587,0.000343323,-0.00141144,0.00766754,-0.0225449,0.00995636,0.0262833,-0.871696,-9.97986,0.0694275,-0.00499725,0.0121689,-0.327454,0.000152588,-0.0069046,0.030632,-0.0860214
21,4,10.0097,-0.000915527,0.00274658,-2.42501,0.0565965,-0.0738423,0.0547383,0.0718859,-0.0919257,0.146539,-0.124546,-0.0804342,0.0286865,0.000572205,0.000152588,0.00537872,-0.0274658,0.00953674,0.0222015,-0.962334,-9.97986,0.0735474,-0.00232697,0.0226974,-0.300293,-0.000839233,-0.00968933,0.026474,-0.0760651
21,5,10.0097,-0.00213623,0.00244141,-2.42592,0.0565965,-0.0741475,0.0538228,0.0523546,-0.0943672,0.146234,-0.125766,-0.0795187,0.00923157,0.0030899,-0.00183105,0.00488281,-0.0325775,-7.62939e-005,0.0233078,-1.00235,-9.97986,0.0730515,-0.0119781,0.0372314,-0.273514,-0.00392914,-0.00579834,0.0242615,-0.0679398
21,6,10.0097,-0.000305176,0.00213623,-2.42653,0.0569017,-0.0768941,0.054128,0.0560167,-0.0928413,0.146234,-0.124851,-0.0819601,-0.0018692,0.00774384,0.00419617,0.00499725,-0.0388336,-0.00759125,0.0301743,-1.01177,-9.97986,0.0578308,-0.00896454,0.0448227,-0.249329,-0.00881195,-0.00595093,0.0283051,-0.058403
21,7,10.0097,-0.000305176,0.00213623,-2.42684,0.0562914,-0.0741475,0.0544332,0.0636461,-0.0928413,0.146844,-0.125461,-0.0822652,0.00118256,0.00797272,0.00320435,0.00179291,-0.035553,-0.0143433,0.0313568,-1.01013,-9.97986,0.0345993,-0.00938416,0.0508499,-0.217094,-0.0102234,-0.00286102,0.0282288,-0.0570297
21,8,10.0097,0.00152588,0.00259399,-2.42653,0.055681,-0.0747579,0.0547383,0.0691393,-0.0913154,0.145929,-0.125461,-0.0828756,-0.00598907,0.00663757,0.00507355,0.00774384,-0.0452805,-0.0204086,0.0364685,-0.993042,-9.97986,0.00587463,-0.00541687,0.0529099,-0.188751,-0.0140762,-0.00762939,0.0315475,-0.0507736
21,9,10.0097,0.000305176,0.00366211,-2.42318,0.0544603,-0.0744527,0.0553487,0.0850084,-0.0900947,0.146234,-0.124546,-0.0822652,-0.00305176,0.0121307,0.00850677,0.00808716,-0.0403976,-0.0248718,0.0424576,-0.961914,-9.97986,-0.00873566,-0.00576019,0.0695419,-0.160866,-0.0160217,-0.00572205,0.0294876,-0.0458527
22,0,10.0097,0.00244141,0.00320435,-2.42928,0.0544603,-0.0762837,0.0526021,0.0789049,-0.0931465,0.143792,-0.126072,-0.0850118,0.0129318,0.0198746,0.0105667,0.00354767,-0.0432587,-0.0335693,0.0422287,-0.924072,-9.97986,-0.0101471,-0.00232697,0.0778961,-0.128899,-0.0189972,-0.00183105,0.0334167,-0.0382996
22,1,10.0097,0.00152588,0.00289917,-2.42837,0.0523241,-0.0756734,0.0519917,0.0728014,-0.0946723,0.142877,-0.126682,-0.0850118,0.0286102,0.0201797,0.0172806,0.00492096,-0.0400162,-0.0378799,0.0433731,-0.878029,-9.97986,-0.00106812,0.00350952,0.085144,-0.0979996,-0.0163651,0.00366211,0.0350571,-0.0344467
22,2,10.0097,0.000305176,0.00244141,-2.43111,0.0538499,-0.0759786,0.0516866,0.07036,-0.0952827,0.142572,-0.126682,-0.0856222,0.0289154,0.0165939,0.00946045,0.00453949,-0.0446701,-0.043335,0.0447845,-0.820236,-9.97986,0.0238419,-0.00171661,0.0847244,-0.0725174,-0.0156403,0.00469208,0.0350571,-0.0284576
22,3,10.0097,0.00213623,0.00305176,-2.42959,0.0532396,-0.0759786,0.0526021,0.0700548,-0.0943672,0.144098,-0.127292,-0.0868429,0.0341415,0.0275421,0.0185776,0.00865936,-0.0392532,-0.0486374,0.0499725,-0.759125,-9.97986,0.0306702,0.00289917,0.0879669,-0.0416183,-0.0167847,0.00274658,0.0403595,-0.0188828
22,4,10.0097,0.00274658,0.00167847,-2.42898,0.0544603,-0.0756734,0.0526021,0.0688341,-0.0955879,0.142267,-0.127292,-0.0850118,0.0149918,0.0263977,0.0174713,0.0105667,-0.0382233,-0.0495148,0.0540161,-0.701103,-9.97986,0.0309372,-0.00434875,0.087204,-0.0149918,-0.0147629,0.00396729,0.0404739,-0.0143051
22,5,10.0097,0.00244141,0.00274658,-2.42959,0.0544603,-0.0747579,0.0529073,0.0688341,-0.0955879,0.144098,-0.126987,-0.0862325,-0.000572205,0.0311661,0.0208282,0.0111389,-0.0381851,-0.0489807,0.0519943,-0.637741,-9.97986,0.0229263,-0.00148773,0.0819016,0.0208282,-0.0170135,0.0019455,0.0389481,-0.00774384
22,6,10.0097,0.00183105,0.00289917,-2.42776,0.0541551,-0.0747579,0.0535176,0.0700548,-0.0934516,0.144708,-0.127598,-0.0844015,-0.00911713,0.0292969,0.0196075,0.0128555,-0.0342941,-0.0403976,0.0579071,-0.565948,-9.97986,0.0199509,0.00144958,0.0817108,0.0419617,-0.0106049,0.000419617,0.0395584,-0.0069809
22,7,10.0097,0.00305176,0.00274658,-2.42684,0.0541551,-0.0744527,0.0529073,0.0700548,-0.094062,0.144708,-0.126072,-0.0831808,-0.00293732,0.0244904,0.0217438,0.0147247,-0.02491,-0.0307846,0.0603485,-0.496521,-9.97986,0.0333786,0.000228882,0.0705719,0.0743484,-0.00816345,0.00175476,0.0374985,-0.00583649
22,8,10.0097,0,0.00320435,-2.42653,0.0565965,-0.0744527,0.0522969,0.07036,-0.0928413,0.145013,-0.126377,-0.0828756,-0.00682831,0.0273895,0.0164795,0.0128555,-0.0216675,-0.0229263,0.0667572,-0.43045,-9.97986,0.0483322,-0.00217438,0.0703812,0.108185,-0.00419617,0.00114441,0.035553,-0.00240326
22,9,10.0097,0.00244141,0.00335693,-2.42684,0.0553758,-0.0744527,0.0544332,0.0697496,-0.0925361,0.144098,-0.124851,-0.0816549,0.00427246,0.0256348,0.0209427,0.0130081,-0.0165939,-0.00720978,0.0695801,-0.355759,-9.97986,0.065918,0.00213623,0.0612259,0.132446,0.000991821,-0.000610352,0.0410843,-0.00152588
23,0,10.0097,0.00244141,0.00305176,-2.42501,0.055681,-0.0726216,0.0547383,0.072191,-0.0910102,0.145318,-0.125156,-0.0813497,0.017128,0.0193787,0.0168228,0.0104523,-0.0165939,0.00297546,0.0715256,-0.289154,-9.97986,0.0859451,-0.00480652,0.0533676,0.157928,0.00450134,0.000915527,0.0416183,0.000839233
23,1,10.0097,0.00183105,0.00289917,-2.42501,0.0553758,-0.0726216,0.0565694,0.0715807,-0.0913154,0.145929,-0.124546,-0.0807394,0.0281143,0.0232697,0.0135803,0.01091,-0.0100327,0.0037384,0.0689697,-0.225906,-9.97986,0.080719,-0.00156403,0.0440598,0.186691,0.0119019,0.00782013,0.0415039,0.00331879
23,2,10.0097,0.00274658,0.00320435,-2.42592,0.0562914,-0.0744527,0.0538228,0.0712755,-0.0919257,0.147149,-0.123325,-0.0810445,0.0268936,0.0185394,0.0128174,0.0030899,-0.00457764,0.00350952,0.0714874,-0.157967,-9.97986,0.062027,-0.000495911,0.0380707,0.212898,0.0167465,0.0094986,0.0453568,0.00797272
23,3,10.0097,-0.000610352,0.00274658,-2.42379,0.0565965,-0.0741475,0.0556539,0.0715807,-0.090705,0.147455,-0.125156,-0.0804342,0.0358582,0.021553,0.0185776,0.0131226,-0.00228882,0.00453949,0.0686264,-0.100861,-9.97986,0.0242615,-0.000991821,0.0249863,0.239182,0.0228882,0.01297,0.0454712,0.0120163
23,4,10.0097,0.00183105,0.00289917,-2.42501,0.0572069,-0.0741475,0.0550435,0.0697496,-0.0913154,0.147455,-0.124241,-0.0786031,0.0387192,0.0183105,0.0189972,0.00804901,0.00328064,-0.0107574,0.0680161,-0.0484848,-9.97986,-0.00465393,0.00156403,0.0199509,0.268669,0.0252914,0.0114822,0.0473785,0.0128555
23,5,10.0097,0.00183105,0.00167847,-2.42592,0.0565965,-0.0738423,0.0529073,0.0532701,-0.0937568,0.145318,-0.124851,-0.0819601,0.0431061,0.0197983,0.0176239,0.0062561,0.00881195,-0.0222778,0.0678635,0.00282288,-9.97986,-0.0126648,0.00221252,0.011673,0.285072,0.0351334,0.00301361,0.0522232,0.0130844
23,6,10.0097,0.00183105,0.0012207,-2.42837,0.0553758,-0.0738423,0.054128,0.0560167,-0.0925361,0.145624,-0.126377,-0.0816549,0.0561523,0.0193024,0.0181198,0.00720978,0.00873566,-0.0235367,0.0678253,0.0488663,-9.97986,-0.0107956,-0.000572205,0.00484467,0.300789,0.0371552,-0.000114441,0.0543594,0.0166702
23,7,10.0097,0.00274658,0.00213623,-2.42714,0.0559862,-0.0723164,0.0532125,0.0648668,-0.0919257,0.146844,-0.124241,-0.0819601,0.0489044,0.0162506,0.0230408,0.00923157,0.0193787,-0.0228119,0.0612259,0.0909805,-9.97986,-0.00431061,0.00282288,-0.00114441,0.328331,0.0434113,0.00320435,0.0554657,0.0186539
23,8,10.0097,0.000915527,0.00198364,-2.42684,0.0553758,-0.0738423,0.0544332,0.0700548,-0.0916206,0.147149,-0.126072,-0.0816549,0.041275,0.0144196,0.0260162,0.00946045,0.0214767,-0.0245667,0.0595856,0.132027,-9.97986,-0.00389099,-0.0030899,-0.00453949,0.342331,0.0501633,0.0062561,0.0592804,0.0177002
23,9,10.0097,-0.00213623,0.00228882,-2.42592,0.0559862,-0.075063,0.054128,0.0853136,-0.090705,0.145624,-0.125156,-0.0840963,0.038147,0.0239944,0.0251007,0.0147629,0.0198746,-0.0230026,0.050087,0.165482,-9.97986,0.00598907,-0.00312805,-0.0118256,0.359306,0.0544739,0.00980377,0.0629425,0.0195694
24,0,10.0097,0.000610352,0.00274658,-2.42898,0.0553758,-0.07842,0.0516866,0.0792101,-0.0943672,0.143487,-0.126072,-0.085317,0.034523,0.0252914,0.0265121,0.0159454,0.0257874,-0.0214767,0.0504684,0.207787,-9.97986,0.0112534,-0.00652313,-0.0134659,0.375366,0.0550461,0.0130081,0.0624847,0.019722
24,1,10.0097,0.000915527,0.00198364,-2.42867,0.0538499,-0.0765889,0.0513814,0.0709703,-0.095893,0.145013,-0.126377,-0.0859274,0.0133896,0.0188065,0.0276184,0.0151825,0.0260544,-0.0195313,0.0407028,0.240707,-9.97986,0.016861,-0.00980377,-0.0177765,0.384216,0.0561523,0.0163651,0.0608063,0.0201416
24,2,10.0097,0.000610352,0.0012207,-2.42745,0.0532396,-0.0759786,0.0513814,0.0697496,-0.0952827,0.143487,-0.126072,-0.0859274,-0.0133896,0.0259781,0.0272369,0.0133133,0.0289154,-0.0275803,0.0413895,0.279846,-9.97986,0.0214005,-0.00720978,-0.0123596,0.403519,0.0584793,0.0156403,0.064888,0.018425
24,3,10.0097,0.000915527,0.000457764,-2.42928,0.0538499,-0.0787251,0.0522969,0.0697496,-0.0952827,0.143792,-0.126987,-0.0871481,-0.0216675,0.0217819,0.0258255,0.0167465,0.03582,-0.0276184,0.0348663,0.303154,-9.97986,0.0215149,-0.0056839,-0.00331879,0.407372,0.0608063,0.0164032,0.0611496,0.016861
24,4,10.0097,0.00274658,0.000610352,-2.42867,0.0544603,-0.0756734,0.0522969,0.0688341,-0.0934516,0.144403,-0.127903,-0.0868429,-0.0133896,0.0202179,0.0254822,0.0150299,0.0437164,-0.0231171,0.0345612,0.334396,-9.97986,0.0127411,-0.00659943,0.00270844,0.413284,0.0597,0.0233841,0.0634384,0.019455
24,5,10.0097,0.000305176,0.000457764,-2.42837,0.0544603,-0.0753682,0.0522969,0.0697496,-0.0949775,0.143487,-0.127598,-0.0862325,0.0159454,0.0225449,0.0244904,0.0177765,0.050087,-0.0159836,0.0292587,0.368652,-9.97986,0.00869751,-0.0133514,0.00537872,0.422134,0.0614166,0.0237274,0.0616455,0.0188828
24,6,10.0097,0,0.000305176,-2.42837,0.0547655,-0.0738423,0.0535176,0.0700548,-0.094062,0.143792,-0.127292,-0.0850118,0.0381088,0.0193787,0.0188446,0.0162888,0.0524521,-0.00926971,0.0294113,0.39669,-9.97986,0.0044632,-0.0118256,0.00724792,0.428391,0.0626755,0.0215149,0.0564575,0.0207901
24,7,10.0097,0.0012207,0.00137329,-2.42745,0.0553758,-0.0759786,0.0535176,0.0676134,-0.0931465,0.144098,-0.125766,-0.0847066,0.0362396,0.0166702,0.0195313,0.0163651,0.0593185,-0.00518799,0.0283432,0.422363,-9.97986,0.0160599,-0.010376,0.00686646,0.433121,0.0629807,0.0185776,0.0590134,0.0166702
24,8,10.0097,0.000915527,0.000305176,-2.42684,0.0550706,-0.0747579,0.0529073,0.0694445,-0.0934516,0.144098,-0.126377,-0.0840963,0.0279617,0.016861,0.0196838,0.0157547,0.0613785,-0.00930786,0.0239944,0.443649,-9.97986,0.0237274,-0.0123978,0.00629425,0.445328,0.0650024,0.00484467,0.0573349,0.017128
24,9,10.0097,0.000915527,0.00167847,-2.42623,0.0550706,-0.0753682,0.0535176,0.0706652,-0.0922309,0.145624,-0.125461,-0.0828756,0.0223541,0.0109863,0.0155258,0.0149918,0.0621796,-0.000495911,0.0230789,0.466652,-9.97986,0.0346756,-0.0111008,0.00663757,0.454865,0.0670242,0.00232697,0.0510025,0.0204086
25,0,10.0097,0.00152588,0.0012207,-2.42623,0.0550706,-0.0735371,0.0550435,0.0709703,-0.0903999,0.147455,-0.125156,-0.0813497,0.033226,0.0138855,0.0117111,0.0136185,0.0672531,-0.000572205,0.0154877,0.483208,-9.97986,0.0313568,-0.0150681,0.00991821,0.453873,0.069046,0.00400543,0.0510025,0.0218964
25,1,10.0097,0.00183105,0.000457764,-2.42562,0.0553758,-0.0744527,0.0547383,0.0715807,-0.0931465,0.147149,-0.12302,-0.0810445,0.0382996,0.0123596,0.0169754,0.0177002,0.0680542,0.00148773,0.0178909,0.495796,-9.97986,0.0203705,-0.0111008,0.0141525,0.463181,0.0704193,0.00743866,0.046463,0.0209808
25,2,10.0097,0.0012207,0.000610352,-2.4247,0.0562914,-0.0735371,0.0550435,0.0715807,-0.0913154,0.145929,-0.123935,-0.0813497,0.0268936,0.0110626,0.015831,0.0120163,0.0727463,0.00114441,0.018158,0.510292,-9.97986,0.00366211,-0.014801,0.0151825,0.469818,0.0718689,0.00732422,0.045929,0.0197601
25,3,10.0097,-0.000610352,0.000610352,-2.42409,0.0562914,-0.0729268,0.0544332,0.0715807,-0.0910102,0.146539,-0.12363,-0.080129,0.0185776,0.0131607,0.0151062,0.0196457,0.0681305,0.00495911,0.0159454,0.520515,-9.97986,-0.00400543,-0.0115204,0.0165558,0.474396,0.0720215,0.0147629,0.0403595,0.0175095
25,4,10.0097,0.00152588,0.000152588,-2.42379,0.0581224,-0.0747579,0.0544332,0.0697496,-0.0922309,0.147149,-0.124546,-0.0810445,0.0131226,0.0138474,0.018692,0.0177383,0.0722122,-0.00286102,0.0141907,0.536118,-9.97986,-0.0147629,-0.0101471,0.0146484,0.477715,0.0718307,0.0184631,0.0371552,0.0144577
25,5,10.0097,-0.000305176,-0.000152588,-2.42623,0.0547655,-0.0759786,0.054128,0.052965,-0.0922309,0.147149,-0.125461,-0.0819601,0.00869751,0.011673,0.0177765,0.0150299,0.0770187,-0.00709534,0.0124359,0.544662,-9.97986,-0.0209045,-0.0111771,0.0180054,0.477753,0.0762939,0.0194931,0.0370026,0.0201797
25,6,10.0097,0.000610352,-0.00137329,-2.42653,0.0562914,-0.0738423,0.0547383,0.0566271,-0.0937568,0.149286,-0.125766,-0.0819601,0.00839233,0.0138855,0.0216675,0.00919342,0.0744629,-0.00545502,0.0104904,0.542679,-9.97986,-0.0279999,-0.0130081,0.016098,0.47596,0.0771332,0.0153351,0.0375366,0.0179291
25,7,10.0097,0,-0.000305176,-2.42653,0.055681,-0.0729268,0.0553487,0.0645616,-0.0916206,0.145624,-0.126682,-0.0825704,0.0266647,0.0163651,0.0225067,0.0166702,0.0843811,-0.00701904,0.0112152,0.551987,-9.97986,-0.0276947,-0.0087738,0.0165939,0.475044,0.0809097,0.0136948,0.0361633,0.0162506
25,8,10.0097,0,0.000152588,-2.42653,0.0559862,-0.0741475,0.0550435,0.0700548,-0.0925361,0.145318,-0.125766,-0.0825704,0.0292969,0.0132751,0.0231171,0.0179672,0.0812531,-0.000801086,0.0140381,0.554047,-9.97986,-0.0281525,-0.00587463,0.0164795,0.468407,0.0802612,0.0104523,0.031662,0.0134277
25,9,10.0097,0.00213623,0.0012207,-2.42623,0.055681,-0.0747579,0.0547383,0.0843981,-0.0919257,0.145929,-0.125766,-0.0831808,0.0161743,0.0166321,0.0228119,0.0178909,0.08255,0.00312805,0.0136948,0.552826,-9.97986,-0.0283432,-0.00537872,0.0172043,0.466652,0.0814438,0.00789642,0.0331879,0.0138092
26,0,10.0097,0.000610352,0.000762939,-2.42928,0.0526292,-0.0756734,0.0522969,0.0795153,-0.0946723,0.143487,-0.125766,-0.0859274,-0.0231171,0.0125122,0.0236511,0.0149918,0.084877,-0.00106812,0.0131607,0.560913,-9.97986,-0.0234985,-0.00915527,0.0198746,0.462151,0.0819016,0.00782013,0.0360107,0.0126648
26,1,10.0097,0.0012207,0.000305176,-2.42898,0.0529344,-0.0762837,0.0513814,0.0728014,-0.0952827,0.145013,-0.126377,-0.0862325,-0.0639343,0.0185013,0.0258636,0.0163269,0.084877,-0.0108337,0.0102997,0.562515,-9.97986,-0.017395,-0.00709534,0.0194931,0.462723,0.0806808,0.00156403,0.0393677,0.00728607
26,2,10.0097,0,0.000305176,-2.42837,0.0541551,-0.0756734,0.0535176,0.0700548,-0.0934516,0.144403,-0.127292,-0.0862325,-0.0819778,0.0146866,0.0250244,0.0146103,0.0854492,-0.0136948,0.0102615,0.556335,-9.97986,-0.0094223,-0.0056076,0.0185776,0.466156,0.0825882,-0.0105286,0.0383377,0.00976563
26,3,10.0097,-0.000305176,0.000762939,-2.42867,0.0547655,-0.0771993,0.0529073,0.0697496,-0.0934516,0.144098,-0.127292,-0.0874532,-0.0627899,0.0163651,0.0237274,0.0147629,0.0861359,-0.0161362,0.00923157,0.555077,-9.97986,0.0100327,-0.00427246,0.0154495,0.476875,0.0771332,-0.0196457,0.041275,0.00679016
26,4,10.0097,0.000305176,0.000762939,-2.42959,0.0541551,-0.0759786,0.0522969,0.0688341,-0.0949775,0.142572,-0.127292,-0.0862325,-0.0379944,0.0182724,0.0279236,0.0191879,0.0903702,-0.0149918,0.0069809,0.544853,-9.97986,0.0263596,-0.01091,0.0172424,0.489464,0.0801849,-0.0217056,0.0482941,0.00896454
26,5,10.0097,-0.000305176,0.00137329,-2.42898,0.0532396,-0.0753682,0.0532125,0.0697496,-0.0946723,0.144708,-0.128208,-0.0871481,0.0031662,0.0227737,0.0255203,0.0140762,0.0873947,-0.0177002,0.00793457,0.541496,-9.97986,0.0341415,-0.0104141,0.00991821,0.505219,0.0722122,-0.0204849,0.0498581,0.00766754
26,6,10.0097,-0.000610352,0.00137329,-2.42776,0.0526292,-0.075063,0.0526021,0.0700548,-0.0937568,0.144708,-0.126987,-0.085317,0.0546265,0.022583,0.0291061,0.0160599,0.0872803,-0.0186157,0.00728607,0.537758,-9.97986,0.0399399,-0.00774384,0.00312805,0.526695,0.0761414,-0.0147247,0.0541306,0.00495911
26,7,10.0097,-0.000915527,0.00167847,-2.42776,0.0553758,-0.0714009,0.0526021,0.0694445,-0.0928413,0.145318,-0.126377,-0.0840963,0.067215,0.0230789,0.0242233,0.0162125,0.0871658,-0.0192261,0.00125885,0.531998,-9.97986,0.0379562,-0.00778198,0.00556946,0.542221,0.072937,-0.00862122,0.0567245,0.000419617
26,8,10.0097,-0.000915527,0.00228882,-2.42776,0.0550706,-0.075063,0.0526021,0.0706652,-0.0928413,0.145929,-0.126072,-0.0840963,0.0769043,0.0220871,0.0246429,0.0198364,0.0871658,-0.0146484,0.000572205,0.519905,-9.97986,0.0311279,-0.00522614,-0.00484467,0.565796,0.0650406,-0.00293732,0.0581741,-0.00114441
26,9,10.0097,0.000610352,0.00183105,-2.42623,0.0529344,-0.0738423,0.0544332,0.07036,-0.0928413,0.145318,-0.126072,-0.0825704,0.076561,0.0254059,0.0286484,0.0174713,0.0871277,-0.0180054,0.00411987,0.513725,-9.97986,0.0186539,-0.00728607,-0.01194,0.58815,0.0563812,0.00087738,0.0590897,-0.00347137
27,0,10.0097,-0.0012207,0.00274658,-2.42531,0.0565965,-0.0738423,0.0556539,0.0706652,-0.0919257,0.145624,-0.125156,-0.0810445,0.058136,0.0277328,0.0306702,0.0161743,0.0845718,-0.0165176,-0.00358582,0.501862,-9.97986,0.00720978,-0.00740051,-0.0177383,0.613136,0.0544739,0.00682831,0.0659943,-0.00736237
27,1,10.0097,0.000610352,0.00198364,-2.42531,0.0559862,-0.0744527,0.0550435,0.0709703,-0.0916206,0.145013,-0.125156,-0.0810445,0.0477219,0.0260544,0.0300598,0.0168228,0.085907,-0.0121307,-0.00457764,0.490303,-9.97986,-0.00789642,-0.00629425,-0.0244522,0.628815,0.0485611,-0.00198364,0.0677872,-0.0129318
27,2,10.0097,-0.000305176,0.00106812,-2.42501,0.0569017,-0.0738423,0.0550435,0.0709703,-0.0922309,0.146539,-0.125156,-0.0810445,0.0337982,0.0293732,0.0295639,0.0164032,0.0862885,-0.00801086,-0.00640869,0.48542,-9.97986,-0.00873566,-0.00236511,-0.0310516,0.638847,0.0448608,-0.00743866,0.0690842,-0.00953674
27,3,10.0097,0.000305176,0.00152588,-2.42379,0.0553758,-0.0735371,0.0538228,0.0715807,-0.0931465,0.146539,-0.124241,-0.080129,0.0069046,0.0237656,0.0296021,0.0140381,0.0824738,0.0044632,-0.0138092,0.472336,-9.97986,-0.0156784,-0.00457764,-0.0422668,0.649643,0.0330734,-0.00900269,0.0659561,-0.0110245
27,4,10.0097,-0.000305176,0.000762939,-2.42531,0.0569017,-0.0738423,0.054128,0.0706652,-0.0919257,0.146539,-0.126072,-0.080129,0.0117874,0.0230789,0.0246429,0.00850677,0.0810623,0.0148392,-0.0136185,0.462494,-9.97986,-0.0113678,0.0019455,-0.0421524,0.655022,0.0284958,-0.00957489,0.0701904,-0.0123596
27,5,10.0097,-0.00152588,0,-2.42592,0.0559862,-0.0738423,0.0526021,0.052965,-0.0931465,0.146844,-0.125766,-0.0825704,0.0161362,0.022049,0.0241852,0.0122833,0.0769043,0.0263214,-0.0154114,0.453644,-9.97986,-0.0102615,-0.00137329,-0.0532913,0.643883,0.0183105,-0.0117493,0.0659561,-0.0136185
27,6,10.0097,-0.000915527,-0.00106812,-2.42623,0.055681,-0.0744527,0.0535176,0.054796,-0.0931465,0.146539,-0.126072,-0.0822652,0.0272369,0.0234222,0.0258255,0.0193024,0.0722122,0.0363922,-0.0191116,0.434532,-9.97986,-0.0111389,0.00541687,-0.0569153,0.635529,0.0155258,-0.0123215,0.0668335,-0.0170898
27,7,10.0097,0.000610352,-0.0012207,-2.42653,0.0553758,-0.0738423,0.0547383,0.0645616,-0.0934516,0.145624,-0.124241,-0.0834859,0.0252533,0.0241852,0.0194931,0.00938416,0.070076,0.0539017,-0.0246048,0.425987,-9.97986,-0.0112534,0.00335693,-0.0633621,0.615387,0.00850677,-0.0170517,0.0662613,-0.0165939
27,8,10.0097,-0.000305176,-0.00228882,-2.42623,0.0541551,-0.075063,0.0532125,0.0682238,-0.0919257,0.144098,-0.125461,-0.0837911,0.00904083,0.0220108,0.0191116,0.0119019,0.0669479,0.0656891,-0.0262451,0.414581,-9.97986,-0.0218964,-0.00278473,-0.0758743,0.585136,-0.00495911,-0.0222397,0.0634003,-0.021553
27,9,10.0097,0.000915527,-0.00137329,-2.42745,0.0550706,-0.0759786,0.0544332,0.0853136,-0.0885688,0.145318,-0.124851,-0.0847066,0.0019455,0.02491,0.0183868,0.0220871,0.0626373,0.0660324,-0.0256348,0.403786,-9.97986,-0.0291061,0.000953674,-0.0721359,0.560265,-0.00602722,-0.017128,0.065918,-0.0149536
28,0,10.0097,0.000305176,-0.00274658,-2.42959,0.0547655,-0.0753682,0.0522969,0.0782946,-0.094062,0.144403,-0.126987,-0.0868429,-0.00579834,0.0222015,0.0125504,0.0138855,0.0518799,0.0621796,-0.0333023,0.383148,-9.97986,-0.0390244,0.00202179,-0.0788116,0.522652,-0.0134659,-0.0197983,0.0579453,-0.0212479
28,1,10.0097,-0.00152588,-0.00366211,-2.42898,0.0535448,-0.0762837,0.0513814,0.072191,-0.0943672,0.143487,-0.127292,-0.0886739,0.00839233,0.022583,0.0167084,0.0148773,0.0548935,0.0759125,-0.0275421,0.374908,-9.97986,-0.0284195,0.00118256,-0.0774002,0.486488,-0.0156021,-0.0172424,0.0582123,-0.0178528
28,2,10.0097,0.0012207,-0.00457764,-2.42989,0.0544603,-0.0759786,0.0535176,0.07036,-0.0955879,0.143792,-0.127598,-0.0874532,0.0211716,0.0199509,0.0167465,0.0157928,0.0464249,0.0815201,-0.033226,0.366325,-9.97986,-0.0154114,0.000495911,-0.0737762,0.438957,-0.0247192,-0.0152969,0.0514984,-0.0204849
28,3,10.0097,-0.0012207,-0.00457764,-2.42867,0.0535448,-0.0759786,0.0519917,0.0688341,-0.0955879,0.142877,-0.127292,-0.0892843,0.0169754,0.0229645,0.0145721,0.0130844,0.0398636,0.086441,-0.0315857,0.353546,-9.97986,-0.0120163,0.00343323,-0.0668716,0.391312,-0.0300217,-0.0175476,0.0473022,-0.0226212
28,4,10.0097,-0.000305176,-0.00488281,-2.42928,0.0529344,-0.0759786,0.0510762,0.0682238,-0.0961982,0.142877,-0.127292,-0.0886739,0.0138474,0.0230789,0.0107956,0.0117111,0.0395966,0.0889587,-0.0337982,0.346985,-9.97986,-0.000572205,0.00343323,-0.0654602,0.342903,-0.0382233,-0.0102234,0.0442886,-0.0191498
28,5,10.0097,-0.000610352,-0.00564575,-2.42837,0.0538499,-0.0765889,0.0550435,0.0673082,-0.0949775,0.143182,-0.126987,-0.0886739,0.0069809,0.0225449,0.0120926,0.00896454,0.0426865,0.0785065,-0.0307083,0.334892,-9.97986,-0.00553131,0.00545502,-0.0521088,0.293007,-0.0379944,-0.00892639,0.0385284,-0.0219727
28,6,10.0097,-0.0012207,-0.00564575,-2.42745,0.0538499,-0.0756734,0.054128,0.0691393,-0.0943672,0.144098,-0.126682,-0.0874532,-0.00087738,0.0229645,0.0134277,0.00694275,0.0349808,0.0817871,-0.0296402,0.32795,-9.97986,-0.026207,0.00232697,-0.0553131,0.22438,-0.0497055,-0.0184631,0.0217056,-0.0247955
28,7,10.0097,0.00213623,-0.00579834,-2.42653,0.0575121,-0.0744527,0.0532125,0.0700548,-0.0934516,0.144098,-0.125461,-0.0862325,0.00938416,0.0229645,0.00915527,0.00846863,0.0334167,0.079155,-0.0260162,0.312538,-9.97986,-0.0265884,0.00457764,-0.0507355,0.163193,-0.0564194,-0.0144577,0.0110626,-0.029068
28,8,10.0097,0.00152588,-0.00610352,-2.42623,0.0559862,-0.0759786,0.0504659,0.0697496,-0.0925361,0.144403,-0.125766,-0.0856222,0.0271988,0.0196075,0.00587463,0.00854492,0.0266647,0.0845718,-0.0276184,0.303268,-9.97986,-0.0150299,0.00370026,-0.0409698,0.0951385,-0.0602341,-0.00946045,-0.000762939,-0.0283051
28,9,10.0097,0,-0.00686646,-2.42623,0.0550706,-0.0747579,0.054128,0.0697496,-0.0925361,0.145624,-0.124546,-0.085317,0.028801,0.0209045,0.00511169,0.0110626,0.0255585,0.0762177,-0.0266266,0.295563,-9.97986,-0.00225067,-0.000724792,-0.0336838,0.0225067,-0.0673676,-0.00930786,-0.0125504,-0.0268936
29,0,10.0097,0.000610352,-0.00686646,-2.42562,0.0565965,-0.0747579,0.0550435,0.0709703,-0.0931465,0.145624,-0.124851,-0.0840963,0.0160599,0.0169373,0.0069046,0.0115585,0.0180435,0.0703812,-0.0270844,0.280266,-9.97986,0.0208664,0.00839233,-0.0271606,-0.0505447,-0.0676346,-0.00972748,-0.0247574,-0.0187302
29,1,10.0097,-0.000305176,-0.00701904,-2.42592,0.055681,-0.0735371,0.0550435,0.0715807,-0.0919257,0.147149,-0.123935,-0.0840963,0.00396729,0.0178528,0.00740051,0.0108719,0.0159454,0.0746536,-0.0199509,0.26825,-9.97986,0.0483704,0.00995636,-0.0183105,-0.12619,-0.075264,-0.0146484,-0.0330353,-0.0201035
29,2,10.0097,0.00183105,-0.00717163,-2.42501,0.0562914,-0.073232,0.0553487,0.0709703,-0.0925361,0.145929,-0.126987,-0.0828756,0.00629425,0.0154114,0.00644684,0.00728607,0.0120544,0.0693893,-0.0195694,0.258141,-9.97986,0.0731277,0.00621796,-0.00759125,-0.204849,-0.0806808,-0.023613,-0.050087,-0.0160599
29,3,10.0097,0.000610352,-0.00549316,-2.42501,0.0562914,-0.0741475,0.0553487,0.0706652,-0.090705,0.147149,-0.123935,-0.0828756,-0.0140762,0.0222397,0.00789642,0.00724792,0.00869751,0.0725555,-0.0141144,0.245247,-9.97986,0.0825119,0.00774384,0.0012207,-0.262489,-0.0855255,-0.0220871,-0.0638199,-0.0138474
29,4,10.0097,0.0012207,-0.00564575,-2.42501,0.0559862,-0.073232,0.0556539,0.07036,-0.0916206,0.147149,-0.123935,-0.0828756,-0.0285721,0.0178528,0.00968933,0.0138474,0.0031662,0.0747681,-0.0129318,0.236435,-9.97986,0.0827789,0.00720978,0.0118637,-0.320282,-0.0893402,-0.0222015,-0.0731277,-0.00762939
29,5,10.0097,0,-0.00534058,-2.42653,0.0569017,-0.0753682,0.0532125,0.0511339,-0.0946723,0.146844,-0.125766,-0.0840963,-0.0262451,0.0216293,0.00770569,0.0141144,-0.0019455,0.0828552,-0.0146103,0.222893,-9.97986,0.0712204,0.00408173,0.0251389,-0.362244,-0.0955963,-0.0226212,-0.0833893,0.00228882
29,6,10.0097,0.000610352,-0.00473022,-2.42898,0.055681,-0.0738423,0.0553487,0.0541857,-0.0928413,0.145624,-0.125461,-0.0825704,-0.0433731,0.022316,0.0114441,0.0139618,-0.00556946,0.0861359,-0.00831604,0.209961,-9.97986,0.0612259,0.0025177,0.033493,-0.40184,-0.0920868,-0.028801,-0.0982285,0.0175095
29,7,10.0097,0.000610352,-0.00411987,-2.42623,0.0553758,-0.075063,0.0556539,0.0630358,-0.094062,0.145624,-0.126682,-0.0834859,-0.0667572,0.0237274,0.0138092,0.0130081,-0.00789642,0.0911331,-0.00278473,0.199699,-9.97986,0.052948,-0.000686646,0.0494766,-0.43438,-0.0922394,-0.0284195,-0.103455,0.0305176
29,8,10.0097,0.000610352,-0.00244141,-2.42776,0.055681,-0.0747579,0.0547383,0.0694445,-0.0913154,0.146539,-0.126072,-0.0831808,-0.0718689,0.0187302,0.0135422,0.0109482,-0.0128174,0.0984573,0.000495911,0.190201,-9.97986,0.0331497,0.00278473,0.056572,-0.458031,-0.0938416,-0.0225067,-0.112991,0.0372314
29,9,10.0097,0.000305176,-0.000915527,-2.42653,0.0547655,-0.0753682,0.0544332,0.0840929,-0.0916206,0.145318,-0.123935,-0.0850118,-0.0603104,0.0205994,0.0188446,0.0133896,-0.0196457,0.108681,0.0037384,0.188179,-9.97986,0.0224686,0.000801086,0.068779,-0.470695,-0.0951767,-0.0177383,-0.128212,0.0354767
30,0,10.0097,0,-0.0012207,-2.42837,0.0532396,-0.0756734,0.0532125,0.0782946,-0.0955879,0.143487,-0.127598,-0.0859274,-0.046463,0.0208282,0.0163269,0.0117874,-0.022049,0.118828,0.00289917,0.181923,-9.97986,0.0209427,0.00247955,0.0809097,-0.483322,-0.0988007,-0.0162506,-0.138283,0.0268555
30,1,10.0097,0,-0.00152588,-2.42837,0.0547655,-0.075063,0.0529073,0.0712755,-0.0946723,0.144098,-0.126682,-0.0859274,-0.0306702,0.0214005,0.0140381,0.0118637,-0.0220871,0.118942,0.00358582,0.173149,-9.97986,0.00904083,0.00331879,0.0914001,-0.495033,-0.0944901,-0.00865936,-0.150986,0.0179291
30,2,10.0097,0.0012207,-0.00106812,-2.42989,0.0541551,-0.0759786,0.0522969,0.07036,-0.0955879,0.142877,-0.128208,-0.0874532,-0.019455,0.0185013,0.0107193,0.0101471,-0.0254822,0.124588,0.00499725,0.169868,-9.97986,-0.00331879,0.0018692,0.10067,-0.50148,-0.0998306,-0.000419617,-0.162811,0.0178528
30,3,10.0097,-0.0012207,-0.000762939,-2.42959,0.0538499,-0.075063,0.0532125,0.0691393,-0.0937568,0.143792,-0.127292,-0.0865377,-0.00888824,0.0224686,0.0139999,0.0107193,-0.0258636,0.130768,0.000228882,0.156212,-9.97986,0.00648499,0.00514984,0.115623,-0.502853,-0.0966263,0.000839233,-0.169678,0.0154877
30,4,10.0097,0,-0.000305176,-2.42898,0.0532396,-0.0756734,0.0529073,0.0694445,-0.0946723,0.143792,-0.128208,-0.0874532,-0.0105286,0.0181198,0.0154495,0.0138474,-0.0267792,0.142593,-0.00785828,0.141602,-9.97986,0.0197601,-0.000457764,0.123978,-0.484352,-0.0925446,-0.00160217,-0.183716,0.0107193
30,5,10.0097,0.000610352,0.000610352,-2.42776,0.0541551,-0.0759786,0.0529073,0.0688341,-0.0952827,0.143487,-0.126987,-0.0859274,-0.0229645,0.0187683,0.0163651,0.014534,-0.0279999,0.145721,-0.0149536,0.135689,-9.97986,0.0203705,7.62939e-005,0.133362,-0.468102,-0.0966644,-0.00377655,-0.192986,0.00778198
30,6,10.0097,0.000610352,0.00244141,-2.42806,0.0544603,-0.0753682,0.0522969,0.0682238,-0.0949775,0.143792,-0.127292,-0.0844015,-0.0114059,0.0212097,0.0130081,0.0170898,-0.0313187,0.148697,-0.0249863,0.13195,-9.97986,0.0254822,-0.00259399,0.153122,-0.437546,-0.092392,-0.00930786,-0.197639,0.00976563
30,7,10.0097,0,0.00259399,-2.42776,0.0544603,-0.0741475,0.0535176,0.0700548,-0.0946723,0.144403,-0.125461,-0.0837911,0.0062561,0.0199127,0.0154495,0.0162125,-0.0288773,0.149612,-0.0407028,0.126343,-9.97986,0.0196838,-0.00286102,0.156212,-0.398064,-0.0946426,-0.0154877,-0.209732,0.0126648
30,8,10.0097,0.0012207,0.0038147,-2.42653,0.0547655,-0.0744527,0.0544332,0.07036,-0.0913154,0.144708,-0.126072,-0.0840963,0.0383759,0.0209045,0.013237,0.0114822,-0.0288391,0.150986,-0.0577545,0.119095,-9.97986,0.0185013,7.62939e-005,0.173492,-0.354767,-0.0885391,-0.00782013,-0.211182,0.0125885
30,9,10.0097,0.000610352,0.00427246,-2.42684,0.055681,-0.0741475,0.0535176,0.0706652,-0.0922309,0.145624,-0.125461,-0.0813497,0.0502014,0.0193405,0.0147629,0.0133133,-0.0316238,0.148354,-0.0706482,0.112381,-9.97986,0.00473022,-0.00217438,0.188637,-0.312233,-0.0880814,-0.0155258,-0.212784,0.00904083
31,0,10.0097,-0.000305176,0.00442505,-2.42592,0.0572069,-0.0738423,0.0556539,0.07036,-0.0925361,0.147455,-0.124546,-0.080129,0.043335,0.0167465,0.0127029,0.0141525,-0.0317001,0.152931,-0.080452,0.105362,-9.97986,-0.00457764,-0.000572205,0.198593,-0.267563,-0.0806046,-0.0170898,-0.205612,0.0157166
31,1,10.0097,-0.000610352,0.0038147,-2.42531,0.0553758,-0.0744527,0.0544332,0.0697496,-0.090705,0.147149,-0.123325,-0.0798238,0.0380325,0.0141907,0.0148392,0.0101471,-0.0368118,0.151138,-0.080986,0.0993729,-9.97986,-0.019722,-0.000801086,0.206871,-0.223846,-0.0794983,-0.0187302,-0.196037,0.019989
31,2,10.0097,-0.0012207,0.00427246,-2.42379,0.0575121,-0.073232,0.0553487,0.072191,-0.0916206,0.146539,-0.124241,-0.0795187,0.0324249,0.0137329,0.0162888,0.00694275,-0.0310135,0.14946,-0.0764847,0.0928116,-9.97986,-0.0233078,0.000228882,0.219536,-0.175705,-0.0759125,-0.0139236,-0.183601,0.0271606
31,3,10.0097,-0.000305176,0.00427246,-2.4244,0.0575121,-0.0735371,0.0550435,0.0712755,-0.0913154,0.147149,-0.12363,-0.0786031,0.0235748,0.0135422,0.0201035,0.00995636,-0.0326538,0.144424,-0.0617981,0.0815201,-9.97986,-0.0302505,-0.00038147,0.228348,-0.125275,-0.0665283,-0.0143051,-0.167084,0.037117
31,4,10.0097,0.00152588,0.00595093,-2.42501,0.0559862,-0.0735371,0.055959,0.0706652,-0.090705,0.146539,-0.124851,-0.0792135,0.013504,0.0125122,0.0178909,0.0119781,-0.0251389,0.14431,-0.0488281,0.0765991,-9.97986,-0.0341034,-0.00164032,0.233498,-0.0717545,-0.0657654,-0.017662,-0.1474,0.0484085
31,5,10.0097,0,0.00473022,-2.42592,0.0562914,-0.0744527,0.0535176,0.0532701,-0.095893,0.146234,-0.126072,-0.0804342,0.0149536,0.0107956,0.0151443,0.0146484,-0.0291824,0.136604,-0.0339127,0.0677872,-9.97986,-0.032196,-0.00358582,0.247688,-0.00366211,-0.0750732,-0.013237,-0.128479,0.0628281
31,6,10.0097,0.000915527,0.00488281,-2.42653,0.0559862,-0.075063,0.0544332,0.0554064,-0.0925361,0.145624,-0.125461,-0.0804342,0.0141144,0.0111389,0.0179672,0.0152588,-0.0226593,0.131721,-0.0143814,0.057373,-9.97986,-0.0166702,-0.00873566,0.260849,0.0545883,-0.07061,-0.00858307,-0.112114,0.0753403
31,7,10.0097,0.00274658,0.00427246,-2.42653,0.0547655,-0.0744527,0.0544332,0.0654772,-0.0913154,0.146539,-0.125766,-0.0807394,-0.00301361,0.0111771,0.0196075,0.0132751,-0.020752,0.128403,0.0115967,0.0544739,-9.97986,0.00476837,-0.00717163,0.275879,0.104179,-0.0507355,-0.00980377,-0.100441,0.089798
31,8,10.0097,-0.000305176,0.00564575,-2.42745,0.0547655,-0.0762837,0.0556539,0.07036,-0.0916206,0.146539,-0.125461,-0.0816549,-0.0163269,0.0154495,0.0115585,0.0117111,-0.0223541,0.123749,0.0242615,0.0517654,-9.97986,0.0182724,0.0069809,0.291328,0.163536,-0.0238037,-0.0117111,-0.0801849,0.103874
31,9,10.0097,0.000305176,0.00640869,-2.42684,0.0547655,-0.0756734,0.0547383,0.0862291,-0.0913154,0.145929,-0.124851,-0.0810445,-0.020752,0.014267,0.0220871,0.0122833,-0.0209045,0.108452,0.0479126,0.0465393,-9.97986,0.0445557,0.00659943,0.313721,0.213966,0.000114441,-0.00701904,-0.0604248,0.119514
32,0,10.0097,0.0012207,0.00640869,-2.42837,0.0526292,-0.0765889,0.0526021,0.0804308,-0.0946723,0.145318,-0.126682,-0.0850118,-0.0331497,0.015564,0.0175095,0.0128555,-0.0174332,0.100632,0.0664902,0.0364304,-9.97986,0.0676727,0.00534058,0.329018,0.271111,0.0201797,-0.00743866,-0.0482178,0.130959
32,1,10.0097,-0.000305176,0.00518799,-2.42776,0.0541551,-0.0759786,0.0532125,0.0731066,-0.0946723,0.145013,-0.126987,-0.0850118,-0.0325775,0.0209808,0.0195694,0.0179291,-0.0199127,0.0909042,0.0880051,0.0286102,-9.97986,0.0750732,-0.0157928,0.340538,0.321999,0.0377274,-0.000953674,-0.0370789,0.142288
32,2,10.0097,0.00152588,0.00396729,-2.42959,0.0532396,-0.0747579,0.0526021,0.0709703,-0.0937568,0.143182,-0.126987,-0.0859274,0.00770569,0.0130463,0.019989,0.0117111,-0.0183487,0.080452,0.106888,0.0165558,-9.97986,0.0729752,-0.0102997,0.35675,0.361252,0.0574493,0.00617981,-0.0274658,0.153618
32,3,10.0097,-0.000305176,0.00396729,-2.42928,0.0538499,-0.0759786,0.0516866,0.0700548,-0.0949775,0.145318,-0.127598,-0.0856222,0.0334549,0.00892639,0.0201035,0.0137329,-0.0193024,0.0733185,0.118752,0.010376,-9.97986,0.0580978,-0.010376,0.369453,0.403252,0.0798416,0.00602722,-0.0212097,0.164719
32,4,10.0097,-0.000610352,0.00350952,-2.42867,0.0529344,-0.0762837,0.0510762,0.0685289,-0.0934516,0.144098,-0.127598,-0.0868429,0.0437164,0.00671387,0.0162125,0.0143051,-0.0162888,0.0556946,0.129395,0.00694275,-9.97986,0.0535965,-0.00785828,0.380898,0.434761,0.103722,0.00541687,-0.0173569,0.172882
32,5,10.0097,-0.000610352,0.00213623,-2.42867,0.0532396,-0.0762837,0.0526021,0.0688341,-0.0949775,0.143792,-0.127598,-0.0862325,0.0476837,0.00938416,0.0187683,0.0133133,-0.0191498,0.0485611,0.142441,0.00209808,-9.97986,0.038681,0.00782013,0.389938,0.4636,0.124855,0.000953674,-0.0107574,0.181122
32,6,10.0097,-0.000305176,0.00213623,-2.42714,0.0553758,-0.0756734,0.0532125,0.0682238,-0.094062,0.145013,-0.126377,-0.0850118,0.0432587,0.0111771,0.0180435,0.0113678,-0.0152206,0.0313187,0.152473,-0.0123978,-9.97986,0.0334167,0.0138855,0.388145,0.47718,0.142593,-0.00278473,-0.0107956,0.190582
32,7,10.0097,-0.000915527,0.00167847,-2.42745,0.0550706,-0.0753682,0.0529073,0.0694445,-0.0937568,0.145318,-0.126072,-0.0856222,0.0282669,0.0122833,0.0204086,0.0138855,-0.00972748,0.0258636,0.161743,-0.0168991,-9.97986,0.0349045,0.00537872,0.383186,0.490417,0.156555,-0.000190735,-0.00961304,0.193405
32,8,10.0097,0.00152588,0.00106812,-2.42623,0.055681,-0.0753682,0.0526021,0.07036,-0.0937568,0.145624,-0.126072,-0.0840963,0.0305939,0.0136948,0.0213242,0.0144958,-0.00953674,0.0127411,0.166321,-0.0141525,-9.97986,0.0254822,-0.001297,0.368271,0.494194,0.175323,0.00114441,-0.0082016,0.197754
32,9,10.0097,-0.000305176,-0.000305176,-2.42592,0.0550706,-0.0759786,0.0544332,0.0679186,-0.0925361,0.145624,-0.124851,-0.0834859,0.0242615,0.0162125,0.0235367,0.0146866,-0.0148773,-0.000915527,0.167122,-0.0120163,-9.97986,-0.00324249,-0.00934601,0.357132,0.483284,0.190353,0.00572205,-0.00686646,0.199509
33,0,10.0097,-0.000915527,-0.000610352,-2.42562,0.0572069,-0.0738423,0.0538228,0.0697496,-0.0916206,0.146539,-0.123325,-0.0819601,-0.0115967,0.010643,0.0226974,0.0151825,-0.0122452,-0.0124741,0.168877,-0.0137329,-9.97986,-0.0208664,-0.0209808,0.33699,0.465851,0.194588,0.000495911,-0.010376,0.202942
33,1,10.0097,0.000305176,-0.000915527,-2.4247,0.0559862,-0.0744527,0.0544332,0.0700548,-0.0928413,0.145929,-0.124241,-0.0819601,-0.0357056,0.0151443,0.0195313,0.00362396,-0.00656128,-0.0195313,0.164032,-0.0190353,-9.97986,-0.0178146,-0.0304031,0.31456,0.453491,0.204544,0.00473022,-0.00808716,0.201378
33,2,10.0097,-0.000610352,-0.00152588,-2.42501,0.0559862,-0.0735371,0.054128,0.0712755,-0.090705,0.146234,-0.124851,-0.0813497,-0.0357819,0.0126266,0.0226212,0.00740051,0.0184631,-0.0281525,0.162239,-0.0163269,-9.97986,-0.00759125,-0.027771,0.280342,0.429573,0.210266,0.00297546,-0.0063324,0.198364
33,3,10.0097,0.000305176,-0.00137329,-2.42592,0.0553758,-0.0729268,0.0535176,0.0746324,-0.0910102,0.147455,-0.123935,-0.0813497,-0.0345612,0.0133133,0.0202942,0.00656128,0.0263977,-0.0426102,0.152321,-0.0192261,-9.97986,0.00232697,-0.0245667,0.237312,0.405464,0.209808,0.0135422,-0.00713348,0.194397
33,4,10.0097,-0.000610352,-0.00228882,-2.42501,0.0565965,-0.0729268,0.054128,0.0715807,-0.0903999,0.147455,-0.122715,-0.0807394,-0.0146103,0.0184631,0.0191498,0.00507355,0.037117,-0.0495529,0.150185,-0.0233078,-9.97986,0.00869751,0.00408173,0.192947,0.376358,0.21019,0.0148773,-0.0038147,0.192795
33,5,10.0097,0.0012207,-0.00350952,-2.42531,0.0578172,-0.0735371,0.0526021,0.054796,-0.0928413,0.146844,-0.125766,-0.0831808,0.0194168,0.0114441,0.0199509,0.00782013,0.0445175,-0.0497818,0.147629,-0.02388,-9.97986,0.0069046,0.0152969,0.149574,0.343666,0.207596,0.0138855,-0.00389099,0.194054
33,6,10.0097,0.000915527,-0.00427246,-2.42653,0.0541551,-0.0747579,0.0532125,0.0566271,-0.0931465,0.146539,-0.125461,-0.0831808,0.0431824,0.0170898,0.0197601,0.00843048,0.056076,-0.0494003,0.140533,-0.0302505,-9.97986,-0.000419617,0.0075531,0.0992203,0.307961,0.200958,0.0141144,0.0012207,0.191612
33,7,10.0097,0.00152588,-0.00305176,-2.4247,0.0565965,-0.0744527,0.0519917,0.0639513,-0.0916206,0.145318,-0.125156,-0.0834859,0.0458145,0.0202942,0.0205994,0.0135422,0.0678253,-0.0404358,0.132904,-0.0172043,-9.97986,-0.00740051,0.00747681,0.0519943,0.272903,0.193138,0.014801,0.00900269,0.189857
33,8,10.0097,-0.000610352,-0.00305176,-2.42806,0.0550706,-0.075063,0.0532125,0.0712755,-0.0922309,0.144708,-0.125766,-0.0834859,0.0681305,0.0181961,0.0259781,0.0128937,0.0721359,-0.0276184,0.127983,-0.00354767,-9.97986,-0.00263214,0.000495911,0.00629425,0.24334,0.188255,0.0142288,0.00991821,0.186615
33,9,10.0097,0.000915527,-0.00228882,-2.42623,0.0544603,-0.0747579,0.0529073,0.0853136,-0.0922309,0.145624,-0.125156,-0.0840963,0.0932693,0.0242233,0.0260544,0.0115204,0.0592422,-0.0130844,0.125389,0.0259781,-9.97986,0.0112152,-0.000915527,-0.0321198,0.212708,0.181618,0.0144577,0.0173569,0.18177
34,0,10.0097,0.00152588,-0.00213623,-2.42867,0.0526292,-0.0759786,0.0510762,0.0779894,-0.0946723,0.143487,-0.126682,-0.0868429,0.067749,0.0248718,0.0242615,0.00972748,0.0307846,-0.00564575,0.115547,0.0453186,-9.97986,0.0244904,0.0130081,-0.0617599,0.187263,0.17189,0.0172806,0.0183487,0.179672
34,1,10.0097,0.0012207,-0.00274658,-2.42837,0.0541551,-0.0759786,0.0513814,0.0712755,-0.0949775,0.143182,-0.127598,-0.0877584,0.0239944,0.0220108,0.0296021,0.00946045,0.020752,0.00160217,0.114174,0.0641632,-9.97986,0.0346756,-3.8147e-005,-0.0880432,0.162163,0.166817,0.0227356,0.0209808,0.184021
34,2,10.0097,0.0012207,-0.00305176,-2.42928,0.0541551,-0.0756734,0.0510762,0.0685289,-0.0961982,0.143792,-0.127292,-0.0874532,-0.0120926,0.0247192,0.0291443,0.0107574,0.0144196,0.00850677,0.109215,0.120773,-9.97986,0.0543594,-0.00518799,-0.112114,0.147858,0.153656,0.0289154,0.0251007,0.183754
34,3,10.0097,0.00579834,-0.00137329,-2.4302,0.0532396,-0.0759786,0.0522969,0.0688341,-0.0955879,0.142267,-0.127292,-0.0880636,-0.0423813,0.0198364,0.027771,0.00736237,0.00160217,0.00976563,0.0988007,0.24437,-9.97986,0.0613785,0.00534058,-0.138512,0.14286,0.137291,0.0319672,0.0215149,0.178108
34,4,10.0097,0.0112915,0.000762939,-2.42653,0.0559862,-0.0759786,0.0526021,0.0688341,-0.0952827,0.143792,-0.128513,-0.085317,-0.0450897,0.0248337,0.0252533,0.0114822,-0.000991821,0.0145721,0.0957489,0.656471,-9.97986,0.0670624,0.00171661,-0.155602,0.180244,0.130653,0.0316238,0.0201416,0.175362
34,5,10.0097,0.010376,0.00396729,-2.42714,0.0535448,-0.0753682,0.0522969,0.0691393,-0.0946723,0.142877,-0.128208,-0.085317,-0.0494385,0.0175858,0.0245285,0.00591278,0.00110626,0.0168991,0.0898361,1.2011,-9.97986,0.0577545,-0.00659943,-0.175285,0.245743,0.115051,0.0318146,0.0208282,0.173378
34,6,10.0097,0.00183105,0.00411987,-2.42776,0.0541551,-0.0753682,0.0519917,0.0706652,-0.094062,0.142572,-0.126987,-0.0850118,-0.022583,0.0220108,0.0261307,0.00816345,0.00152588,0.0125885,0.0875473,1.24996,-9.97986,0.0418472,-3.8147e-005,-0.194016,0.29377,0.0930786,0.0278473,0.0241089,0.171547
34,7,10.0097,0.000610352,0.00366211,-2.42684,0.0547655,-0.075063,0.0538228,0.0700548,-0.0937568,0.143792,-0.126682,-0.0834859,0.0312424,0.0273514,0.0240326,0.0125885,0.000762939,0.00675201,0.0823212,1.24996,-9.97986,0.0356293,-0.00205994,-0.20546,0.333138,0.0550461,0.0291443,0.0307083,0.164375
34,8,10.0097,0.00183105,0.00457764,-2.42562,0.0547655,-0.0747579,0.0532125,0.0691393,-0.0934516,0.144403,-0.125766,-0.0825704,0.056076,0.0244904,0.0262833,0.00923157,-0.00465393,0.00671387,0.0790405,1.24996,-9.97986,0.0248337,-0.0043869,-0.2285,0.374603,0.0170898,0.0251389,0.0403976,0.157547
34,9,10.0097,-0.000610352,0.00350952,-2.42684,0.055681,-0.0744527,0.0535176,0.0712755,-0.0928413,0.145013,-0.125461,-0.0825704,0.0509262,0.0244904,0.0269699,0.00823975,-0.00747681,0.00923157,0.0762939,1.24996,-9.97986,0.020752,-0.0019455,-0.260696,0.399017,-0.0118637,0.0258255,0.070076,0.149841
35,0,10.0097,-0.000610352,0.00213623,-2.42562,0.0565965,-0.0741475,0.054128,0.0737169,-0.0903999,0.145624,-0.123935,-0.0816549,0.0468826,0.0239563,0.0241089,0.00823975,-0.0174332,0.00904083,0.0728989,1.24996,-9.97986,0.0278473,0.00167847,-0.293121,0.411873,-0.0356293,0.0281906,0.136719,0.141144
35,1,10.0097,-0.00274658,0.000915527,-2.42653,0.055681,-0.0741475,0.054128,0.0752428,-0.0913154,0.146234,-0.124546,-0.0816549,0.0559235,0.0271225,0.0271606,0.00617981,-0.0260925,0.00762939,0.0680161,1.24996,-9.97986,0.0125122,-0.000419617,-0.337601,0.413666,-0.0510406,0.0297165,0.243912,0.130005
35,2,10.0097,-0.0012207,0.000762939,-2.42531,0.0572069,-0.0747579,0.0538228,0.0718859,-0.0900947,0.145318,-0.124241,-0.0825704,0.0445557,0.0293732,0.0233078,0.0127411,-0.0327682,0.0104141,0.0680923,1.19503,-9.97986,-0.0145721,0.00190735,-0.37117,0.414238,-0.0639343,0.0262451,0.364571,0.116806
35,3,10.0097,-0.00183105,0,-2.42379,0.0547655,-0.0744527,0.0538228,0.0728014,-0.0894843,0.147149,-0.123935,-0.0804342,0.0193787,0.0299072,0.020752,0.0114441,-0.0408554,0.0101852,0.0654984,1.11217,-9.97986,-0.0350952,0.00682831,-0.400429,0.415268,-0.0807571,0.0205231,0.469322,0.111961
35,4,10.0097,-0.00305176,-0.00106812,-2.42501,0.0559862,-0.0744527,0.0535176,0.0712755,-0.0919257,0.146539,-0.123935,-0.0810445,0.001297,0.0252151,0.017395,0.00762939,-0.0579071,-0.00450134,0.0543213,1.00521,-9.97986,-0.064888,-0.000343323,-0.416603,0.394516,-0.101967,0.00930786,0.523376,0.0875854
35,5,10.0097,-0.00183105,-0.000915527,-2.42653,0.0562914,-0.0738423,0.054128,0.0532701,-0.0943672,0.145624,-0.124851,-0.0825704,0.0203705,0.0283051,0.0235748,0.00709534,-0.0600052,-0.0111008,0.0571442,0.92308,-9.97986,-0.0624084,0.00087738,-0.416222,0.379753,-0.10807,0.0101852,0.447159,0.0806046
35,6,10.0097,-0.00244141,-0.00244141,-2.42562,0.0569017,-0.0741475,0.0532125,0.0532701,-0.0965034,0.144708,-0.125766,-0.0828756,0.0377274,0.0261307,0.0181198,0.00190735,-0.074234,-0.018158,0.0472641,0.825844,-9.97986,-0.0371933,-0.00240326,-0.424614,0.354195,-0.119057,0.00965118,0.201111,0.0624466
35,7,10.0097,-0.00183105,-0.00274658,-2.42684,0.0559862,-0.0738423,0.0550435,0.0618151,-0.0952827,0.145318,-0.125156,-0.0837911,0.0426483,0.0262451,0.0197601,0.00766754,-0.0762558,-0.0236893,0.0463104,0.733147,-9.97986,0.00259399,-0.00156403,-0.416374,0.316505,-0.127869,0.00656128,-0.0687408,0.0497055
35,8,10.0097,0,-0.00320435,-2.42623,0.0559862,-0.0747579,0.0535176,0.0657823,-0.0943672,0.144403,-0.125156,-0.0837911,0.0626373,0.0302124,0.0196838,0.00461578,-0.0831223,-0.0398636,0.0402832,0.644989,-9.97986,0.0238037,0.0031662,-0.40062,0.27626,-0.141487,0.000190735,-0.261459,0.0345612
35,9,10.0097,-0.000915527,-0.00305176,-2.42653,0.0544603,-0.0747579,0.0544332,0.0840929,-0.0928413,0.144403,-0.125156,-0.0840963,0.0636673,0.0306702,0.020752,0.00629425,-0.0906754,-0.0523376,0.0330353,0.554848,-9.97986,0.0317764,0.00156403,-0.387878,0.227623,-0.147171,0.00110626,-0.330429,0.0217438
36,0,10.0097,-0.00244141,-0.00350952,-2.42776,0.0538499,-0.0759786,0.0529073,0.0758531,-0.0949775,0.143487,-0.126377,-0.0862325,0.0523376,0.0333786,0.0215149,0.00480652,-0.0962067,-0.0734711,0.0278473,0.471725,-9.97986,0.0396729,0.00312805,-0.3582,0.188637,-0.150909,0.00377655,-0.328751,0.00793457
36,1,10.0097,-0.00213623,-0.00366211,-2.42898,0.0541551,-0.0753682,0.0535176,0.07036,-0.0946723,0.143182,-0.127292,-0.0859274,0.0370026,0.0311279,0.0249863,0.00617981,-0.0969315,-0.089035,0.0276947,0.392952,-9.97986,0.0347137,0.000495911,-0.329514,0.157776,-0.151253,0.00461578,-0.347176,-0.00556946
36,2,10.0097,-0.00183105,-0.00305176,-2.42959,0.0538499,-0.0756734,0.0529073,0.0688341,-0.0952827,0.142877,-0.126987,-0.0868429,0.0212097,0.0318527,0.0273514,0.00801086,-0.0979996,-0.110664,0.0187683,0.313683,-9.97986,0.0283813,0.0050354,-0.303421,0.124855,-0.153732,0.00205994,-0.378075,-0.0217438
36,3,10.0097,-0.0012207,-0.00289917,-2.42776,0.0538499,-0.0759786,0.0529073,0.0679186,-0.095893,0.142572,-0.127598,-0.0871481,0.00335693,0.0342941,0.0268936,0.0127411,-0.0870132,-0.132523,0.0164413,0.233002,-9.97986,0.017662,0.00190735,-0.284004,0.0978088,-0.159683,0.000457764,-0.372429,-0.0331879
36,4,10.0097,-0.00152588,-0.00289917,-2.42928,0.0535448,-0.0753682,0.0522969,0.0691393,-0.0943672,0.143487,-0.126682,-0.0874532,-0.0199127,0.0367737,0.0267029,0.00724792,-0.079422,-0.150757,0.0117874,0.156555,-9.97986,3.8147e-005,0.000648499,-0.256462,0.0734329,-0.160789,-0.00427246,-0.303802,-0.0495148
36,5,10.0097,-0.00335693,-0.00228882,-2.42898,0.0538499,-0.0753682,0.0538228,0.0697496,-0.0931465,0.144098,-0.127292,-0.0865377,-0.0282669,0.0304413,0.0302887,0.01194,-0.0645065,-0.163155,0.0106049,0.0879669,-9.97986,-0.0209045,0.0062561,-0.238876,0.0588226,-0.160027,-0.00537872,-0.220413,-0.0631714
36,6,10.0097,-0.00183105,-0.00167847,-2.42745,0.0541551,-0.0756734,0.054128,0.0691393,-0.0943672,0.142877,-0.127598,-0.0871481,-0.00389099,0.0375366,0.0296783,0.0108719,-0.0421143,-0.157127,0.0019455,0.0193024,-9.97986,-0.0344849,0.00228882,-0.214653,0.0460815,-0.156364,-0.0103378,-0.172806,-0.0744629
36,7,10.0097,-0.000305176,-0.00106812,-2.42776,0.0547655,-0.0753682,0.0535176,0.0715807,-0.0934516,0.145013,-0.125766,-0.0850118,0.0413132,0.0400543,0.022049,0.0144958,-0.0165176,-0.151672,-0.00377655,-0.0455856,-9.97986,-0.0319672,0.00213623,-0.201225,0.0392914,-0.154648,-0.0111008,-0.14576,-0.0902176
36,8,10.0097,-0.00183105,-0.000915527,-2.42653,0.0553758,-0.0738423,0.0544332,0.07036,-0.0922309,0.145013,-0.125156,-0.0844015,0.040741,0.0369644,0.0299454,0.0154877,-0.00202179,-0.144424,-0.0119019,-0.0942993,-9.97986,-0.0268173,0.00473022,-0.196533,0.0313187,-0.151596,-0.0108337,-0.125847,-0.100899
36,9,10.0097,0.000610352,-0.000610352,-2.42562,0.055681,-0.075063,0.0535176,0.0718859,-0.0922309,0.145624,-0.125156,-0.0840963,0.0263596,0.0357819,0.0294876,0.0127029,0.0114059,-0.140228,-0.00980377,-0.139923,-9.97986,-0.00762939,0.00312805,-0.202789,0.0192261,-0.139465,-0.00869751,-0.0901794,-0.110855
37,0,10.0097,0.00152588,-0.000457764,-2.42623,0.0559862,-0.0744527,0.0553487,0.0728014,-0.0910102,0.146234,-0.125156,-0.0813497,0.0102234,0.0305557,0.0259781,0.0158691,0.0107193,-0.132523,-0.0162888,-0.177841,-9.97986,0.0120544,0.00343323,-0.207748,0.016098,-0.141106,-0.00526428,-0.0491333,-0.123405
37,1,10.0097,0.000915527,-0.000457764,-2.42592,0.0562914,-0.0741475,0.054128,0.072191,-0.0897895,0.146844,-0.12363,-0.0819601,-0.00957489,0.0228119,0.0199127,0.00888824,0.0069809,-0.117073,-0.0201035,-0.218849,-9.97986,0.033989,0.00442505,-0.209885,0.0182343,-0.126457,-0.00991821,-0.0018692,-0.139313
37,2,10.0097,0.00274658,-0.000152588,-2.42409,0.0559862,-0.0735371,0.0556539,0.0715807,-0.0900947,0.147149,-0.124241,-0.0816549,-0.014267,0.0262833,0.0156784,0.0069809,-0.000152588,-0.0968933,-0.0230026,-0.265198,-9.97986,0.0459671,0.00434875,-0.206223,0.0123215,-0.118904,-0.00839233,0.0682068,-0.149689
37,3,10.0097,-0.000305176,0.000152588,-2.4247,0.0565965,-0.0738423,0.055959,0.0718859,-0.0903999,0.146539,-0.124241,-0.0807394,-0.0233841,0.021019,0.0126266,0.00587463,-0.0101471,-0.0838852,-0.0265503,-0.304527,-9.97986,0.0476074,0.00461578,-0.188713,0.0108719,-0.112228,-0.010643,0.120811,-0.155754
37,4,10.0097,0.00183105,0.000152588,-2.42592,0.0565965,-0.0729268,0.0562642,0.0724962,-0.0903999,0.147149,-0.12302,-0.0816549,-0.0196838,0.0178146,0.0115204,0.00617981,-0.0267792,-0.0561523,-0.0294876,-0.340004,-9.97986,0.0421143,0.00343323,-0.150261,0.0141525,-0.0920486,-0.0140381,0.157089,-0.16346
37,5,10.0097,0.000915527,-0.000762939,-2.42562,0.0559862,-0.073232,0.0565694,0.0557115,-0.0931465,0.146234,-0.126377,-0.0825704,-0.0172043,0.0156784,0.0104523,0.000495911,-0.0326157,-0.0397873,-0.0352097,-0.370979,-9.97986,0.0479507,-0.00114441,-0.0748825,0.0202942,-0.0778961,-0.0121689,0.182419,-0.168076
37,6,10.0097,0.00244141,-0.000457764,-2.42592,0.0559862,-0.0747579,0.0562642,0.0569322,-0.0928413,0.147149,-0.125461,-0.0816549,-0.0245285,0.0165558,0.0129318,0.00213623,-0.0363159,-0.0225449,-0.0329208,-0.404854,-9.97986,0.0506973,0.00389099,0.0281525,0.0181961,-0.0553513,-0.0121689,0.200539,-0.168457
37,7,10.0097,0.000305176,-0.000915527,-2.42653,0.0559862,-0.0735371,0.0574849,0.0654772,-0.0919257,0.146234,-0.126072,-0.0831808,-0.0334167,0.0162125,0.00465393,0.00553131,-0.0473022,-0.0220871,-0.0411987,-0.425568,-9.97986,0.0457764,0.0019455,0.154533,0,-0.0372314,-0.00789642,0.221024,-0.169716
37,8,10.0097,0.00152588,-0.00198364,-2.42623,0.0559862,-0.0735371,0.0587056,0.0715807,-0.0900947,0.145318,-0.126072,-0.0831808,-0.0429916,0.0183487,0.00999451,0.00766754,-0.0540924,-0.0164032,-0.0450897,-0.452538,-9.97986,0.0354385,-0.0044632,0.314102,-0.0375366,-0.0230026,-0.00450134,0.240135,-0.16346
37,9,10.0097,0.000610352,-0.00213623,-2.42653,0.055681,-0.0741475,0.0596211,0.0856188,-0.0903999,0.145929,-0.124241,-0.0840963,-0.0403976,0.0190353,0.0128174,0.00736237,-0.0617218,-0.025444,-0.0459671,-0.475655,-9.97986,0.0314331,0.000953674,0.514374,-0.0839996,-0.000724792,-0.00469208,0.257874,-0.164871
38,0,10.0097,-0.000305176,-0.00442505,-2.42928,0.0544603,-0.0759786,0.0577901,0.077379,-0.0946723,0.144098,-0.126072,-0.0868429,-0.0236893,0.0198746,0.0165939,0.00377655,-0.0663757,-0.0361633,-0.0500107,-0.494041,-9.97986,0.0242233,-0.0038147,0.722961,-0.136948,-0.00736237,-0.00774384,0.25219,-0.167885
38,1,10.0097,0.000305176,-0.00411987,-2.42928,0.0544603,-0.0762837,0.0565694,0.0737169,-0.0937568,0.144098,-0.126072,-0.0880636,-0.0129318,0.0259018,0.0232697,0.0115204,-0.0538635,-0.0445175,-0.0471878,-0.504684,-9.97986,0.0509644,0.00297546,0.87307,-0.183716,0.00236511,-0.00495911,0.276337,-0.160522
38,2,10.0097,0.0012207,-0.00518799,-2.42898,0.0547655,-0.0753682,0.0535176,0.0728014,-0.0937568,0.145929,-0.127292,-0.0883688,-0.00293732,0.0222015,0.0207138,0.00648499,-0.052948,-0.0565338,-0.0531006,-0.527115,-9.97986,0.0819016,-0.00152588,0.877495,-0.244102,0.0112534,-0.00236511,0.330353,-0.167465
38,3,10.0097,-0.0012207,-0.00488281,-2.42928,0.0523241,-0.0756734,0.050771,0.0697496,-0.0943672,0.143182,-0.126987,-0.0883688,-0.00190735,0.0230026,0.0168991,0.00782013,-0.0453568,-0.0680542,-0.0534058,-0.538864,-9.97986,0.11116,0.00141144,0.815468,-0.288963,0.0187302,0.00808716,0.361443,-0.169373
38,4,10.0097,-0.000915527,-0.00534058,-2.42959,0.0538499,-0.0756734,0.0504659,0.0691393,-0.0934516,0.143792,-0.126682,-0.0886739,-0.00713348,0.0262451,0.0221634,0.00782013,-0.044632,-0.0734711,-0.0561523,-0.552864,-9.97986,0.111351,0.000343323,0.725288,-0.336304,0.0275803,0.0159073,0.398026,-0.170937
38,5,10.0097,-0.0012207,-0.00549316,-2.42989,0.0538499,-0.0756734,0.0504659,0.0694445,-0.094062,0.144098,-0.127598,-0.0877584,-0.0131989,0.0283432,0.02388,0.0101089,-0.0398254,-0.0787735,-0.0583649,-0.566826,-9.97986,0.0930405,0.000267029,0.615921,-0.388603,0.0292969,0.0191116,0.443192,-0.17128
38,6,10.0097,0.000610352,-0.00488281,-2.42714,0.0532396,-0.0756734,0.0498555,0.07036,-0.0934516,0.143487,-0.126987,-0.0874532,0.00225067,0.0265503,0.0291443,0.0094986,-0.0275421,-0.0780106,-0.0616837,-0.580597,-9.97986,0.0802994,0.00282288,0.502625,-0.433922,0.0281143,0.0119781,0.475502,-0.165253
38,7,10.0097,0.000610352,-0.00457764,-2.42776,0.0544603,-0.0735371,0.0504659,0.0697496,-0.0928413,0.145318,-0.126682,-0.0862325,0.000724792,0.0338364,0.0263977,0.0147629,-0.018158,-0.0801468,-0.0611877,-0.600243,-9.97986,0.0644684,-0.000991821,0.388947,-0.47596,0.0263977,-0.000495911,0.498962,-0.15995
38,8,10.0097,0,-0.00350952,-2.42745,0.0538499,-0.0753682,0.050771,0.0685289,-0.0934516,0.144098,-0.125156,-0.0850118,0.0125504,0.0348663,0.0284195,0.0119019,-0.00988007,-0.0678635,-0.0605392,-0.6036,-9.97986,0.0228882,0.00125885,0.275841,-0.504494,0.0234985,-0.00331879,0.534058,-0.151329
38,9,10.0097,0.0012207,-0.00305176,-2.42653,0.055681,-0.0744527,0.0513814,0.0700548,-0.0928413,0.145929,-0.125156,-0.0844015,0.0281525,0.0399399,0.0305176,0.0170517,-0.0123596,-0.0587463,-0.0562286,-0.603752,-9.97986,-0.0162506,-0.00328064,0.17231,-0.522346,0.00244141,-0.0019455,0.545502,-0.139999
39,0,10.0097,0.000305176,-0.00167847,-2.42592,0.0559862,-0.0729268,0.0519917,0.0691393,-0.0922309,0.146844,-0.124546,-0.0819601,0.029335,0.0329971,0.0343704,0.0144577,-0.0062561,-0.0465012,-0.0564575,-0.607719,-9.97986,-0.0556946,-0.000953674,0.0906754,-0.538826,-0.0152588,-0.00450134,0.547485,-0.125923
39,1,10.0097,0.000305176,-0.00167847,-2.42501,0.055681,-0.0735371,0.0532125,0.0706652,-0.0916206,0.146234,-0.125156,-0.0819601,0.0406265,0.0351715,0.0289536,0.0146866,0.000534058,-0.0300598,-0.0543213,-0.610046,-9.97986,-0.091362,-0.00236511,0.0238037,-0.556755,-0.0109482,-0.0111008,0.54554,-0.114403
39,2,10.0097,-0.000305176,-0.00167847,-2.42501,0.0553758,-0.0738423,0.0532125,0.0697496,-0.0928413,0.147455,-0.124851,-0.0822652,0.0456238,0.0354004,0.0279999,0.0139236,0.00411987,-0.0197983,-0.0494003,-0.614128,-9.97986,-0.122223,-0.00591278,-0.0286865,-0.568237,-0.0150681,-0.0169373,0.539703,-0.10006
39,3,10.0097,0.000610352,-0.000915527,-2.42501,0.0569017,-0.0726216,0.0538228,0.0709703,-0.0913154,0.146234,-0.123325,-0.080129,0.030899,0.0312424,0.0233078,0.0128174,0.0100708,-0.00404358,-0.0407028,-0.620117,-9.97986,-0.128555,-0.000953674,-0.0680923,-0.563889,-0.0442886,-0.0157928,0.507164,-0.0862885
39,4,10.0097,-0.000305176,-0.000152588,-2.42592,0.0559862,-0.0735371,0.0532125,0.0697496,-0.0931465,0.146539,-0.12363,-0.0795187,0.0181198,0.0273514,0.0271225,0.00988007,0.0120544,0.00904083,-0.0337982,-0.625839,-9.97986,-0.104179,-0.0038147,-0.104561,-0.557137,-0.0801468,-0.0187683,0.443192,-0.078125
39,5,10.0097,0,0.000762939,-2.42592,0.0572069,-0.0744527,0.050771,0.0517443,-0.0965034,0.145929,-0.125766,-0.0822652,0.0125122,0.0281525,0.0191879,0.0127792,0.0154877,0.00732422,-0.0323868,-0.61924,-9.97986,-0.0486374,-0.00152588,-0.176506,-0.53833,-0.106506,-0.0201797,0.298462,-0.0664139
39,6,10.0097,0.00152588,0.00167847,-2.42623,0.0553758,-0.0753682,0.0516866,0.0544908,-0.095893,0.144098,-0.126072,-0.080129,-0.00457764,0.0279617,0.0175476,0.0115967,0.0168228,0.0116348,-0.0322723,-0.610085,-9.97986,-0.00282288,-0.00469208,-0.26207,-0.495262,-0.136185,-0.0258636,0.152092,-0.0577164
39,7,10.0097,-0.000610352,0.00289917,-2.42623,0.0547655,-0.0744527,0.0510762,0.0645616,-0.094062,0.145929,-0.125461,-0.0819601,-0.00335693,0.0242615,0.0167465,0.0128555,0.027504,0.0172043,-0.0253296,-0.602074,-9.97986,0.0324249,-0.00225067,-0.335732,-0.454979,-0.171013,-0.02285,0.108604,-0.0516129
39,8,10.0097,-0.000305176,0.00473022,-2.42684,0.0544603,-0.075063,0.0513814,0.07036,-0.0931465,0.144403,-0.125156,-0.0825704,0.000152588,0.0268936,0.0187302,0.0123978,0.0328827,0.00934601,-0.0245667,-0.597954,-9.97986,0.0361633,0.000534058,-0.377579,-0.403709,-0.207253,-0.0247192,0.0974274,-0.0434113
39,9,10.0097,-0.000305176,0.00671387,-2.42653,0.0538499,-0.075063,0.0529073,0.0850084,-0.0916206,0.143182,-0.124851,-0.0816549,0.0351334,0.0176239,0.0171661,0.0101089,0.0386047,0.010376,-0.0218964,-0.582542,-9.97986,0.0251007,0.0037384,-0.408974,-0.326233,-0.246658,-0.0227356,0.0543976,-0.0371933
40,0,10.0097,0.000610352,0.00701904,-2.42684,0.0541551,-0.0768941,0.0519917,0.0789049,-0.0946723,0.143792,-0.127292,-0.0834859,0.0757599,0.0254822,0.0141907,0.0134277,0.047493,7.62939e-005,-0.0152206,-0.569992,-9.97986,0.0338745,0.00297546,-0.410347,-0.262642,-0.288277,-0.0217819,0.0143051,-0.0385666
40,1,10.0097,0.000610352,0.00656128,-2.42898,0.0535448,-0.0759786,0.0522969,0.0712755,-0.0952827,0.143182,-0.126987,-0.0850118,0.0444031,0.023613,0.0147629,0.0128937,0.050087,-0.0038147,-0.0225449,-0.543747,-9.97986,0.0424576,0.0019455,-0.406914,-0.188789,-0.288696,-0.0158691,-0.00965118,-0.0362396
40,2,10.0097,0.00183105,0.00289917,-2.42867,0.0529344,-0.0741475,0.0535176,0.0694445,-0.0943672,0.143182,-0.126682,-0.0868429,0.00488281,0.025444,0.0140762,0.0126648,0.0566483,-0.00423431,-0.0205612,-0.535126,-9.97986,0.0553894,-0.000724792,-0.375366,-0.179367,-0.242844,-0.0163269,-0.0214005,-0.0317001
40,3,10.0097,0.00152588,-0.00701904,-2.4302,0.0529344,-0.0762837,0.0544332,0.0688341,-0.0946723,0.145318,-0.127598,-0.0898946,-0.00507355,0.0284195,0.0169373,0.0123215,0.0626755,-0.0102615,-0.0172806,-0.529442,-9.97986,0.0541687,-0.00305176,-0.311661,-0.316238,-0.170593,-0.0186157,-0.0228882,-0.0312805
40,4,10.0097,0.000305176,-0.0135803,-2.42867,0.0532396,-0.0765889,0.0538228,0.0679186,-0.0937568,0.144403,-0.127903,-0.0911153,-0.0156784,0.0277328,0.0206375,0.0139236,0.0655746,-0.0094986,-0.0157928,-0.516243,-9.97986,0.0341415,-0.000915527,-0.250893,-0.491791,-0.0907898,-0.0214767,-0.0252914,-0.0269318
40,5,10.0097,0.0012207,-0.014801,-2.42898,0.0535448,-0.0762837,0.0538228,0.0679186,-0.094062,0.145318,-0.126682,-0.0908102,0.0119019,0.0337219,0.0152206,0.0196838,0.075264,-0.0101852,-0.0056076,-0.501633,-9.97986,-0.00221252,0.000801086,-0.195503,-0.651245,-0.0185776,-0.0143814,-0.0417709,-0.0265121
40,6,10.0097,0.000610352,-0.0154114,-2.42867,0.0544603,-0.0756734,0.0535176,0.0663927,-0.0931465,0.145624,-0.126072,-0.0892843,-0.00118256,0.0296402,0.0181198,0.00907898,0.0671768,-0.0111008,-0.0123215,-0.49469,-9.97986,-0.0437164,-0.00709534,-0.166245,-0.82798,0.0348663,-0.0148392,-0.0655365,-0.0274658
