
Devices
1200
,,BP Load cell - Voltage,String Length - Voltage,Clutch Active - Voltage,#7 iPecs - Voltage,,,,,,,,,EMG 1-8 Left - Voltage,,,,,,,,Pylon Force - Voltage,EMG 9-16 Right - Voltage,,,,,,,,
Frame,Sub Frame,BP Load Cell,String Length,From Arduino Logic,A45,A135,A225,A315,S0,S90,S180,S270,ZSum,EMG 1 Glut Max,EMG 2 Glut Med,EMG 3 Biceps Femoris Long,EMG 4 Rectus Femoris,EMG 5 Vastus Medialis,EMG 6 Tib Ant,EMG 7 Med Gas,EMG 8 Soleus,Pylon volts,EMG 9 Glut Max,EMG 10 Glut Med,EMG 11 Biceps Femoris Long,EMG 12 Rectus Femoris,EMG 13 Vastus Medialis,EMG 14 Tib Ant,EMG 15 Med Gas,EMG 16 Soleus
,,V,V,V,V,V,V,V,V,V,V,V,V,V,V,V,V,V,V,V,V,V,V,V,V,V,V,V,V,V
1,0,10.0097,-0.000915527,0.00274658,-2.42837,0.0535448,-0.0753682,0.0532125,0.0740221,-0.0943672,0.143792,-0.127292,-0.0871481,0.157433,0.038681,0.031662,0.0152588,-0.0764847,0.0204849,-0.110435,0.0031662,-9.97986,-0.234299,-0.0193405,0.049057,0.928726,0.0457001,0.0200272,-0.0584793,-0.120583
1,1,10.0097,0.000610352,0.000915527,-2.42959,0.0535448,-0.0762837,0.0519917,0.0685289,-0.095893,0.144403,-0.127292,-0.0865377,0.0668716,0.039444,0.0248718,0.0135803,-0.0270081,0.0130844,-0.107536,0.00858307,-9.97986,-0.23613,-0.00408173,0.0777435,0.922813,0.0788116,0.00995636,-0.0748444,-0.0958633
1,2,10.0097,0.000610352,0.000152588,-2.42928,0.0520189,-0.0756734,0.0526021,0.0685289,-0.0952827,0.142572,-0.127292,-0.0871481,-0.0275421,0.0317764,0.0278473,0.0122452,0.0165939,-0.00759125,-0.105133,-0.00358582,-9.97986,-0.204964,-0.000915527,0.0989532,0.920982,0.117111,0.00263214,-0.0876999,-0.0881195
1,3,10.0097,0.000610352,-0.000762939,-2.42959,0.0541551,-0.0759786,0.0516866,0.0694445,-0.0946723,0.145318,-0.127903,-0.0865377,-0.0616455,0.0283051,0.0258636,0.0115585,0.0213623,-0.0169373,-0.0971985,-0.00179291,-9.97986,-0.150719,0.00038147,0.0984573,0.910339,0.140953,0.00808716,-0.10704,-0.108261
1,4,10.0097,0,-0.00137329,-2.42898,0.055681,-0.0768941,0.0532125,0.0697496,-0.094062,0.145013,-0.128513,-0.0871481,-0.00720978,0.0165939,0.0189972,0.00869751,0.0598145,-0.0302505,-0.0746155,0.0196075,-9.97986,-0.0894547,-0.00160217,0.0801468,0.893974,0.1791,0.00595093,-0.10685,-0.105171
1,5,10.0097,0.00244141,-0.00213623,-2.42806,0.0547655,-0.0759786,0.0522969,0.0718859,-0.0928413,0.142877,-0.126072,-0.0859274,0.0623703,0.0187302,0.00915527,0.00556946,0.0824356,-0.0359726,-0.0424957,0.0360489,-9.97986,-0.0332642,0.00087738,0.0585175,0.870018,0.213776,0.014267,-0.108299,-0.093956
1,6,10.0097,0.0012207,-0.00213623,-2.42806,0.0547655,-0.0747579,0.0532125,0.0724962,-0.0928413,0.146539,-0.125461,-0.085317,0.062027,0.0115585,0.00240326,0.00404358,0.0693512,-0.0499725,-0.0304794,0.0422668,-9.97986,0.0343323,-0.000724792,0.0497818,0.845299,0.237999,0.0166702,-0.107994,-0.0651932
1,7,10.0097,0.000915527,-0.00244141,-2.42684,0.0547655,-0.0747579,0.054128,0.0694445,-0.0931465,0.145318,-0.126072,-0.0840963,0.0408173,0.00324249,-0.00926971,0.00347137,0.0404358,-0.0632477,-0.0216675,0.0491714,-9.97986,0.0585938,-0.00282288,0.0506973,0.822945,0.256271,0.0151443,-0.111465,-0.0199127
1,8,10.0097,0.00183105,-0.00213623,-2.42623,0.055681,-0.0735371,0.0535176,0.072191,-0.0919257,0.146234,-0.126377,-0.0840963,0.0223923,0.00038147,-0.0115585,0.000305176,0.012207,-0.0697708,-0.0189972,0.0505066,-9.97986,0.0803757,-0.00125885,0.0437546,0.798912,0.291977,0.01091,-0.11013,0.00747681
1,9,10.0097,-0.000305176,-0.00152588,-2.42531,0.0572069,-0.0738423,0.0553487,0.0724962,-0.0919257,0.147455,-0.124241,-0.0816549,0.013504,0.00190735,-0.0147247,0.00312805,0.0113297,-0.0716782,-0.0198746,0.0469971,-9.97986,0.134392,-0.000610352,0.0603485,0.784569,0.325508,0.00968933,-0.104866,0.0279236
2,0,10.0097,0.000305176,-0.0012207,-2.42379,0.0553758,-0.0738423,0.054128,0.0724962,-0.0894843,0.146844,-0.124546,-0.0813497,0.0230408,-0.00293732,-0.0160217,0.00320435,0.0179291,-0.0801086,-0.0178528,0.0416946,-9.97986,0.173302,0.0043869,0.075531,0.770378,0.356369,-0.00110626,-0.100784,0.0279617
2,1,10.0097,0.00152588,-0.00152588,-2.42501,0.0559862,-0.073232,0.0544332,0.0700548,-0.090705,0.148065,-0.124851,-0.0807394,0.0239563,0.00282288,-0.0159836,0.00282288,0.0183868,-0.0835037,-0.0252914,0.0307083,-9.97986,0.159492,0.00160217,0.0793457,0.746193,0.384216,-0.00484467,-0.106773,0.00652313
2,2,10.0097,0.0012207,-0.00106812,-2.42562,0.0559862,-0.0741475,0.0574849,0.0706652,-0.0910102,0.146539,-0.123935,-0.0810445,0.0308228,0.00175476,-0.0188065,0.000686646,0.0407791,-0.0926971,-0.0177765,0.0323105,-9.97986,0.124168,0.00087738,0.0987625,0.730438,0.401268,-0.0112534,-0.106125,-0.0124359
2,3,10.0097,0.000610352,-0.00167847,-2.4244,0.0559862,-0.0738423,0.0550435,0.0715807,-0.0910102,0.146539,-0.124241,-0.0822652,0.0383759,0.00991821,-0.0133514,0.00591278,0.0499344,-0.10437,-0.0156784,0.0423813,-9.97986,0.11631,-0.000762939,0.0915527,0.713081,0.419693,-0.00656128,-0.103378,-0.0360489
2,4,10.0097,0.000610352,-0.00228882,-2.42562,0.0562914,-0.0747579,0.0547383,0.0505236,-0.0931465,0.148065,-0.127292,-0.0822652,0.0379181,0.00724792,-0.011673,0.0037384,0.030098,-0.113411,-0.00808716,0.0433731,-9.97986,0.135956,0.0012207,0.0796127,0.689812,0.436211,0.00232697,-0.0989532,-0.0310516
2,5,10.0097,0.000305176,-0.00350952,-2.42592,0.0565965,-0.0753682,0.0556539,0.0557115,-0.0934516,0.146539,-0.125766,-0.0828756,0.022583,0.0146484,-0.0108719,0.0050354,0.0300217,-0.114098,0.00228882,0.0350189,-9.97986,0.137367,-0.00217438,0.0887299,0.661621,0.448074,0.00770569,-0.0931168,-0.0291824
2,6,10.0097,0.000610352,-0.00259399,-2.42684,0.055681,-0.0747579,0.0535176,0.0627306,-0.0919257,0.145624,-0.126072,-0.0834859,0.0167847,0.0182724,-0.00377655,0.00816345,0.0494003,-0.109787,0.00881195,0.0361633,-9.97986,0.129166,-0.00961304,0.0796127,0.632858,0.44857,0.00541687,-0.0887299,-0.0587463
2,7,10.0097,0.0012207,-0.00274658,-2.42653,0.0541551,-0.0747579,0.054128,0.0691393,-0.0922309,0.144403,-0.126072,-0.0837911,0.0181961,0.0187302,-0.00164032,0.00595093,0.0653458,-0.10025,0.0179672,0.0380325,-9.97986,0.117531,-0.0134659,0.0399017,0.607681,0.44735,0.00255585,-0.0817871,-0.0583267
2,8,10.0097,-0.000305176,-0.000915527,-2.42623,0.055681,-0.0738423,0.0535176,0.0847032,-0.0910102,0.146844,-0.124241,-0.0844015,0.00495911,0.0211334,0.00209808,0.00301361,0.10376,-0.0981522,0.0146103,0.0344467,-9.97986,0.103836,-0.0210953,0.00102997,0.586243,0.452614,0.00244141,-0.0867462,-0.0342178
2,9,10.0097,-0.000610352,-0.00183105,-2.42989,0.0538499,-0.0765889,0.0526021,0.0813463,-0.0946723,0.145318,-0.125156,-0.0868429,0.0151062,0.0279617,0.00419617,0.00652313,0.145187,-0.0903702,0.0255966,0.0327301,-9.97986,0.0870895,-0.0114441,-0.0605392,0.554314,0.472794,0.00675201,-0.0957489,-0.00354767
3,0,10.0097,0.000915527,-0.00274658,-2.43111,0.0538499,-0.0765889,0.0510762,0.0728014,-0.0943672,0.145013,-0.126987,-0.0874532,0.00495911,0.0261688,0.0114822,0.00389099,0.173264,-0.0765228,0.0305939,0.0263214,-9.97986,0.0747299,0.0157166,-0.100021,0.518646,0.477409,0.000534058,-0.085144,0.0175858
3,1,10.0097,-0.000305176,-0.00350952,-2.42867,0.0532396,-0.0753682,0.0501607,0.07036,-0.0949775,0.145013,-0.127292,-0.0874532,0.00961304,0.0328827,0.0128174,0.00297546,0.184898,-0.0693512,0.0270844,0.0316238,-9.97986,0.0627136,0.0267029,-0.132332,0.486374,0.472336,-0.00202179,-0.0647736,0.0323105
3,2,10.0097,0.000305176,-0.0038147,-2.42898,0.0532396,-0.0765889,0.0510762,0.0697496,-0.0949775,0.143182,-0.126987,-0.0871481,0.00484467,0.0348663,0.018692,0.00118256,0.18364,-0.04879,0.0346375,0.0173187,-9.97986,0.0474548,0.0106812,-0.182991,0.454063,0.487862,-0.00171661,-0.0529099,0.0198364
3,3,10.0097,-0.015564,-0.00366211,-2.42898,0.0535448,-0.0756734,0.0519917,0.0691393,-0.0946723,0.130975,-0.127903,-0.0883688,0.00370026,0.0343323,0.0214005,0.0094986,0.172195,-0.0246048,0.037117,0.01091,-9.97986,0.0332642,0.00144958,-0.204735,0.419197,0.486298,-0.000991821,-0.0440598,-0.00614166
3,4,10.0097,0.000915527,-0.00305176,-2.42837,0.0547655,-0.0759786,0.054128,0.0697496,-0.0946723,0.139215,-0.127903,-0.0865377,-0.00148773,0.0457382,0.0262451,0.00679016,0.132866,0.00869751,0.0409317,0.0172424,-9.97986,0.0257492,0.0094223,-0.180054,0.396423,0.46627,0.001297,-0.0367355,-0.0150681
3,5,10.0097,0.000915527,-0.00228882,-2.42684,0.0550706,-0.0756734,0.054128,0.0691393,-0.0949775,0.142877,-0.126072,-0.0859274,-0.000152588,0.0616074,0.0218582,0.0082016,0.069046,0.0486374,0.0463486,0.0230789,-9.97986,0.0159073,0.00171661,-0.160065,0.376472,0.451355,-0.00579834,-0.0192261,-0.0133514
3,6,10.0097,0.00213623,-0.00213623,-2.42928,0.055681,-0.0753682,0.0550435,0.0709703,-0.0934516,0.143792,-0.126987,-0.0859274,-0.00141144,0.0502777,0.0112152,0.00965118,-0.0181198,0.0559998,0.0580597,0.0249863,-9.97986,0.011673,-0.0063324,-0.125885,0.352516,0.415268,-0.00904083,-0.00350952,0.00541687
3,7,10.0097,-0.0012207,-0.00152588,-2.42684,0.0559862,-0.075063,0.0550435,0.0697496,-0.0937568,0.142572,-0.125766,-0.085317,-0.00404358,0.0175858,-3.8147e-005,0.0062561,-0.093956,0.0472641,0.0692368,0.0227356,-9.97986,0.00740051,0.00629425,-0.0669479,0.333328,0.384216,-0.0102997,0.0128937,-0.0173569
3,8,10.0097,-0.000915527,-0.00183105,-2.42623,0.0562914,-0.0741475,0.0538228,0.07036,-0.0922309,0.144708,-0.125766,-0.0837911,-0.00854492,0.0114441,-0.000915527,0.00812531,-0.12249,0.044632,0.0688934,0.0234222,-9.97986,0.0044632,0.0157928,-0.00854492,0.316238,0.372505,-0.0115967,0.0384521,-0.0537872
3,9,10.0097,0.000915527,-0.00183105,-2.42348,0.0553758,-0.073232,0.0553487,0.0709703,-0.0925361,0.145929,-0.124241,-0.0825704,-0.00335693,0.0226593,-0.0012207,0.00598907,-0.12043,0.0453568,0.0669861,0.0147247,-9.97986,0.00385284,0.00995636,0.0438309,0.295792,0.332222,-0.0213242,0.0642395,-0.0889969
4,0,10.0097,-0.000915527,-0.00198364,-2.4244,0.0553758,-0.0741475,0.0562642,0.0691393,-0.0925361,0.145013,-0.124241,-0.0816549,-0.00366211,0.0239944,0.00453949,0.00923157,-0.122261,0.0312805,0.0662613,0.0142288,-9.97986,-0.00225067,0.00289917,0.0756454,0.274963,0.283318,-0.0213242,0.0819016,-0.134888
4,1,10.0097,0,-0.00106812,-2.42501,0.0562914,-0.0735371,0.055959,0.0718859,-0.090705,0.147149,-0.124241,-0.0822652,0.0019455,0.0298691,0.00854492,0.0146866,-0.116463,0.0199509,0.0621796,0.0163269,-9.97986,-0.00511169,-0.00774384,0.100136,0.266304,0.238686,-0.0102615,0.0905991,-0.108681
4,2,10.0097,-0.0012207,-0.00152588,-2.42409,0.0578172,-0.0729268,0.0553487,0.0715807,-0.0922309,0.14776,-0.12363,-0.0813497,-0.0031662,0.0237274,0.0101089,0.00961304,-0.0797653,0.0254059,0.0834274,0.0143051,-9.97986,-0.00644684,-0.0257111,0.0933456,0.251083,0.1828,-0.0044632,0.086441,-0.0187683
4,3,10.0097,0.000610352,-0.00137329,-2.42501,0.055681,-0.0744527,0.0550435,0.0697496,-0.0913154,0.146844,-0.123935,-0.0810445,0.000724792,0.0202942,0.0164413,0.00858307,-0.0331497,0.0299072,0.0867844,0.012207,-9.97986,-0.00652313,-0.0245667,0.0899124,0.231895,0.13752,-0.00305176,0.0746918,0.0828552
4,4,10.0097,0.000610352,-0.00320435,-2.42684,0.0562914,-0.0738423,0.0522969,0.0486925,-0.095893,0.146844,-0.126072,-0.0828756,0.000228882,0.0180435,0.0111389,0.00740051,-0.0181198,0.0325775,0.0740433,0.0158691,-9.97986,-0.0118637,-0.00747681,0.0940704,0.207176,0.079422,-0.011673,0.0540924,0.144768
4,5,10.0097,0.00152588,-0.00228882,-2.42592,0.0559862,-0.075063,0.0547383,0.0554064,-0.0934516,0.145624,-0.124851,-0.0822652,0.00244141,0.0131607,0.0202179,0.014267,-0.0318146,0.0488663,0.0627899,0.0288773,-9.97986,-0.00198364,0.00988007,0.100288,0.19352,0.0190735,-0.0120163,0.0369263,0.135841
4,6,10.0097,0,-0.00305176,-2.42684,0.0550706,-0.073232,0.0584004,0.0642565,-0.0934516,0.142877,-0.124546,-0.0825704,-0.0141144,0.0146103,0.0139999,0.00812531,-0.0789261,0.0482559,0.0380707,0.0233841,-9.97986,-0.0127792,0.000991821,0.0999832,0.162544,-0.0577545,-0.0131989,0.022583,0.0897598
4,7,10.0097,0.00152588,-0.00152588,-2.42745,0.0547655,-0.0744527,0.0556539,0.0697496,-0.0934516,0.144098,-0.125766,-0.0828756,-0.00774384,0.0217438,0.0250244,0.0153351,-0.121002,0.060997,0.0472641,0.0383377,-9.97986,-0.00442505,-0.00289917,0.122414,0.150032,-0.114174,-0.0056839,0.0275421,0.059166
4,8,10.0097,0.0012207,-0.000915527,-2.42623,0.0538499,-0.0744527,0.0550435,0.0847032,-0.090705,0.145013,-0.124546,-0.0840963,-0.0105286,0.0175476,0.0175858,0.00965118,-0.145187,0.063324,0.0511551,0.0284958,-9.97986,-0.00499725,0.00488281,0.133209,0.126534,-0.171318,-0.00320435,0.0304031,0.0327682
4,9,10.0097,-0.000610352,-0.00183105,-2.42959,0.0535448,-0.075063,0.0522969,0.0819567,-0.0946723,0.143182,-0.126682,-0.0871481,-0.0115204,0.0183487,0.0218201,0.0125504,-0.156021,0.0866699,0.0610352,0.025177,-9.97986,-0.00896454,0.00518799,0.137939,0.0963211,-0.200348,-0.00297546,0.0487518,0.0417328
5,0,10.0097,0.000915527,-0.00183105,-2.42898,0.0541551,-0.0762837,0.0519917,0.0740221,-0.0946723,0.142267,-0.127903,-0.0868429,-0.0118256,0.0214767,0.0231934,0.0138092,-0.180092,0.0904083,0.0536346,0.0220108,-9.97986,-0.00587463,0.00152588,0.129776,0.0763702,-0.194397,-0.00331879,0.0682449,0.0384521
5,1,10.0097,-0.000305176,-0.00228882,-2.42989,0.0532396,-0.0759786,0.0526021,0.0706652,-0.0949775,0.143182,-0.126987,-0.0871481,-0.00988007,0.0227356,0.0303268,0.0123215,-0.203667,0.0780106,0.054245,0.02388,-9.97986,-0.0062561,0.000762939,0.125046,0.052948,-0.195122,-0.001297,0.0757217,0.0246811
5,2,10.0097,0.0012207,-0.00274658,-2.42959,0.0541551,-0.0756734,0.0519917,0.0691393,-0.0946723,0.143182,-0.127903,-0.0877584,-0.0141907,0.0266647,0.0302887,0.0127029,-0.22171,0.0767136,0.0521469,0.0322723,-9.97986,-0.00957489,-0.00217438,0.103874,0.0287628,-0.227203,-0.00911713,0.0780869,0.0392914
5,3,10.0097,0.00183105,-0.00167847,-2.42928,0.0535448,-0.0762837,0.0532125,0.0685289,-0.0952827,0.143182,-0.126987,-0.0874532,-0.0125122,0.022583,0.0350189,0.0180054,-0.222473,0.0744629,0.04776,0.0405502,-9.97986,-0.00217438,0.00686646,0.0745392,0.0163269,-0.255508,-0.0127411,0.0822067,0.0675964
5,4,10.0097,0.000305176,-0.00213623,-2.42806,0.0544603,-0.0759786,0.0504659,0.0691393,-0.0952827,0.142267,-0.127598,-0.0871481,-0.00808716,0.0232697,0.0359726,0.012207,-0.191307,0.0816345,0.0354004,0.0370789,-9.97986,-0.00137329,-0.0167847,0.0616837,0.00156403,-0.282021,-0.0146866,0.0753784,0.0615692
5,5,10.0097,0,-0.00137329,-2.42745,0.0544603,-0.0753682,0.0526021,0.0694445,-0.0952827,0.143792,-0.126377,-0.0856222,0.000114441,0.0230789,0.0273132,0.0143814,-0.132408,0.0851059,0.0429535,0.0335312,-9.97986,0.00164032,-0.0334167,0.0504684,-0.00198364,-0.295334,-0.0126266,0.0711441,0.0517273
5,6,10.0097,0.00274658,-0.000152588,-2.42714,0.0541551,-0.0747579,0.0532125,0.0694445,-0.0928413,0.145318,-0.126377,-0.0862325,0.00858307,0.0185776,0.0296402,0.0128174,-0.0761795,0.0934982,0.0615311,0.0297928,-9.97986,-7.62939e-005,-0.0239563,0.0415039,-0.00659943,-0.304413,-0.0146484,0.0676346,0.0699997
5,7,10.0097,-0.00183105,-0.00167847,-2.42714,0.0565965,-0.0747579,0.0529073,0.0709703,-0.0925361,0.144708,-0.126072,-0.0847066,0.00232697,0.0194168,0.0278854,0.0075531,-0.0440216,0.0951004,0.0802231,0.0245667,-9.97986,-0.00137329,-0.0152588,0.0366592,-0.0254822,-0.317879,-0.0153732,0.0680542,0.106239
5,8,10.0097,-0.000610352,-0.00137329,-2.42623,0.0562914,-0.075063,0.0535176,0.0697496,-0.0928413,0.145929,-0.124851,-0.0834859,0.00461578,0.0224304,0.0315857,0.00938416,-0.00526428,0.102654,0.104904,0.0218201,-9.97986,-0.000686646,-0.00812531,0.0342941,-0.0476837,-0.331459,-0.0140381,0.083046,0.14534
5,9,10.0097,0.00152588,-0.00228882,-2.42501,0.0562914,-0.0744527,0.0544332,0.0709703,-0.0937568,0.146539,-0.124241,-0.0822652,-0.00740051,0.0235748,0.0263596,0.0117874,0.0204086,0.116272,0.119514,0.0139236,-9.97986,0.00038147,-0.0100327,0.00289917,-0.0698471,-0.361214,-0.0118256,0.0982285,0.187263
6,0,10.0097,-0.000305176,-0.00183105,-2.42531,0.0559862,-0.0744527,0.0547383,0.0709703,-0.0916206,0.14776,-0.125156,-0.0810445,-0.0111008,0.0282669,0.030899,0.0157928,0.0617599,0.120926,0.121002,0.00419617,-9.97986,-0.000114441,-0.0205994,-0.0165176,-0.0791931,-0.383034,-0.0102234,0.109024,0.217857
6,1,10.0097,0,-0.0012207,-2.42562,0.0562914,-0.0738423,0.0556539,0.07036,-0.0913154,0.145624,-0.123325,-0.0822652,-0.00671387,0.0255203,0.0252533,0.0122833,0.0956345,0.111504,0.0991058,0.0109863,-9.97986,0.00484467,-0.0196838,-0.00736237,-0.0883484,-0.398903,-0.0144196,0.114021,0.229263
6,2,10.0097,0.000610352,-0.00167847,-2.4244,0.0569017,-0.0744527,0.0556539,0.072191,-0.0919257,0.146844,-0.124851,-0.0807394,-0.000991821,0.0197983,0.0220108,0.0154495,0.105171,0.126572,0.0831985,0.0119781,-9.97986,0.00495911,-0.0182343,0.0160217,-0.116005,-0.403786,-0.0158691,0.119324,0.234451
6,3,10.0097,0.00274658,-0.00213623,-2.42379,0.0572069,-0.0744527,0.0562642,0.0709703,-0.090705,0.147149,-0.124546,-0.0810445,0.0157547,0.0211334,0.0164795,0.0148773,0.089798,0.134773,0.0650024,0.0166702,-9.97986,0.00663757,-0.0203705,0.0392151,-0.140305,-0.418701,-0.0134659,0.110703,0.231972
6,4,10.0097,0.0012207,-0.00289917,-2.42684,0.0569017,-0.0735371,0.054128,0.0489977,-0.0946723,0.14776,-0.126377,-0.0825704,0.0311279,0.0241852,0.0139236,0.0175858,0.0455475,0.141792,0.0664902,0.0166321,-9.97986,0.00789642,-0.0202942,0.0625992,-0.149422,-0.435753,-0.00404358,0.0935364,0.246429
6,5,10.0097,0.000305176,-0.00152588,-2.42623,0.0578172,-0.0741475,0.0544332,0.0554064,-0.0931465,0.145929,-0.125461,-0.0822652,0.0345612,0.0260925,0.013504,0.0181961,0.0140762,0.136833,0.0850296,0.0144196,-9.97986,0.0120544,-0.0143051,0.0859451,-0.160561,-0.447121,-0.000686646,0.0828552,0.26619
6,6,10.0097,0.00305176,-0.00183105,-2.42531,0.0562914,-0.073232,0.0553487,0.0645616,-0.0928413,0.145929,-0.124851,-0.0828756,0.0323486,0.0226212,0.0128937,0.0186539,0.00541687,0.119362,0.0924301,0.0160217,-9.97986,0.0196457,-0.00976563,0.101204,-0.182228,-0.45414,0.00484467,0.0777054,0.270882
6,7,10.0097,-0.000915527,-0.00167847,-2.42745,0.0547655,-0.0756734,0.0547383,0.0697496,-0.0931465,0.144403,-0.125156,-0.0834859,0.0139999,0.0190735,0.0106812,0.0140381,0.0252914,0.109787,0.105782,0.0188446,-9.97986,0.0233841,-0.0140762,0.108528,-0.196457,-0.462646,0.00217438,0.0613403,0.252037
6,8,10.0097,0.000915527,-0.000152588,-2.42684,0.0538499,-0.0744527,0.0538228,0.0837877,-0.090705,0.144403,-0.124241,-0.0840963,0.00617981,0.0111008,0.0164795,0.0207901,0.06073,0.109596,0.110168,0.022049,-9.97986,0.0205994,-0.00247955,0.098114,-0.207405,-0.471001,0.00621796,0.0354004,0.239525
6,9,10.0097,0.000915527,-0.00167847,-2.4302,0.0538499,-0.0753682,0.0519917,0.0804308,-0.094062,0.142877,-0.126682,-0.0877584,0.00930786,0.0165558,0.0130844,0.0214386,0.103951,0.14225,0.104752,0.0284195,-9.97986,0.0101471,0.0102615,0.076828,-0.242615,-0.496254,0.00442505,0.0207901,0.254364
7,0,10.0097,0.000305176,-0.00335693,-2.42898,0.0535448,-0.0756734,0.0526021,0.0746324,-0.0952827,0.142877,-0.127598,-0.0868429,0.00682831,0.0159073,0.0165558,0.0199509,0.158501,0.172043,0.0929642,0.030098,-9.97986,0.0160599,0.01297,0.0723267,-0.270462,-0.505943,0.00495911,0.00743866,0.205269
7,1,10.0097,0.00213623,-0.00244141,-2.42837,0.0538499,-0.0756734,0.0522969,0.0697496,-0.0952827,0.142572,-0.126987,-0.0880636,0.00530243,0.018692,0.022316,0.00846863,0.217896,0.175896,0.0810242,0.0313187,-9.97986,0.0094223,0.0258636,0.0676727,-0.30323,-0.496674,-0.00183105,-0.00946045,0.133934
7,2,10.0097,-0.000915527,-0.00289917,-2.4305,0.0538499,-0.0762837,0.0519917,0.0697496,-0.0952827,0.143792,-0.127903,-0.0877584,0.00591278,0.014801,0.0125504,0.000534058,0.261574,0.161057,0.0806427,0.0291824,-9.97986,0.0112534,0.0180435,0.0770187,-0.331078,-0.464401,-0.00263214,-0.0094986,0.141335
7,3,10.0097,-0.000305176,-0.00289917,-2.42928,0.0535448,-0.0756734,0.0513814,0.0679186,-0.0937568,0.145624,-0.127598,-0.0877584,0.0119781,0.0115585,0.015831,-7.62939e-005,0.292778,0.142899,0.0819397,0.0289536,-9.97986,0.00785828,-0.0140762,0.0682068,-0.364227,-0.45063,-0.00530243,-0.00770569,0.196152
7,4,10.0097,0,-0.0038147,-2.42898,0.0532396,-0.0765889,0.0519917,0.0694445,-0.0949775,0.144708,-0.128208,-0.0883688,0.0146103,0.0118637,0.0193405,-0.00694275,0.338783,0.116615,0.0919342,0.0279617,-9.97986,0.00938416,-0.0130463,0.0140762,-0.401344,-0.45517,-0.00598907,-0.0210953,0.285683
7,5,10.0097,0.000915527,-0.00442505,-2.42867,0.055681,-0.0756734,0.0526021,0.0691393,-0.0952827,0.145318,-0.126987,-0.0868429,0.0176239,0.00797272,0.0268936,-0.0141525,0.354729,0.103569,0.104179,0.0235367,-9.97986,0.00362396,0.017662,-0.018959,-0.450516,-0.46032,-0.00511169,-0.0466537,0.33577
7,6,10.0097,0.000610352,-0.00335693,-2.42776,0.0541551,-0.0756734,0.0522969,0.0694445,-0.0934516,0.143487,-0.126377,-0.0868429,0.0152206,-0.00682831,0.0359344,-0.0430298,0.305214,0.0965118,0.106773,0.0190353,-9.97986,0.0152206,0.0588226,-0.0385666,-0.491905,-0.472374,-0.0151062,-0.0593567,0.279617
7,7,10.0097,0.0012207,-0.00457764,-2.42684,0.0553758,-0.0738423,0.0526021,0.07036,-0.0925361,0.145624,-0.125766,-0.0856222,0.0122833,0.00816345,0.0399399,-0.0547791,0.215607,0.0899124,0.104179,0.0124359,-9.97986,0.0117874,0.0892258,-0.0508118,-0.54039,-0.4702,-0.0189209,-0.0506973,0.27523
7,8,10.0097,0.00183105,-0.00534058,-2.42653,0.0547655,-0.0753682,0.0532125,0.0700548,-0.0925361,0.145929,-0.125461,-0.0850118,0.0107193,0.0284576,0.040741,-0.03582,0.123329,0.0913239,0.0960159,0.0177002,-9.97986,0.014801,0.079155,-0.100784,-0.596581,-0.491333,-0.0119019,-0.0503159,0.320549
7,9,10.0097,0.000610352,-0.00366211,-2.42531,0.0562914,-0.0735371,0.0526021,0.0715807,-0.0922309,0.145013,-0.124851,-0.0828756,0.0157166,0.0291061,0.0429153,-0.0272369,0.0345993,0.0968933,0.0828552,0.0166702,-9.97986,0.0106812,0.0610733,-0.181236,-0.624657,-0.503654,-0.0151825,-0.0383377,0.295753
8,0,10.0097,0,-0.00305176,-2.42592,0.0553758,-0.0747579,0.0532125,0.0712755,-0.0916206,0.146539,-0.124241,-0.0819601,0.0159454,0.0131989,0.0357819,-0.0524902,-0.0257111,0.107803,0.0696182,0.0164413,-9.97986,0.0115585,0.0542831,-0.198784,-0.649261,-0.508614,-0.0168228,-0.0305939,0.284767
8,1,10.0097,-0.00213623,-0.00305176,-2.4247,0.0559862,-0.0744527,0.0544332,0.0706652,-0.0916206,0.145624,-0.12363,-0.0822652,0.0159454,0.00843048,0.0302505,-0.0361252,-0.058136,0.100441,0.063324,0.00736237,-9.97986,0.0141144,0.0490189,-0.195465,-0.681496,-0.509605,-0.0128174,-0.0315857,0.271568
8,2,10.0097,-0.000610352,-0.00213623,-2.4244,0.0584276,-0.0735371,0.0553487,0.0700548,-0.0931465,0.146234,-0.124546,-0.0819601,0.00591278,0.00915527,0.0186539,-0.00202179,-0.0984955,0.0709534,0.0463104,0.00404358,-9.97986,0.00953674,0.057373,-0.169029,-0.700302,-0.499878,-0.0117111,-0.0312042,0.183411
8,3,10.0097,0.000915527,-0.00198364,-2.4244,0.055681,-0.0723164,0.0571797,0.0715807,-0.0910102,0.146539,-0.124241,-0.0810445,0.0102997,0.0165558,0.014801,0.0126266,-0.12516,0.0656509,0.0517273,0.00370026,-9.97986,0.0167465,0.0611877,-0.111237,-0.715599,-0.484238,-0.0094986,-0.0157166,0.157776
8,4,10.0097,0.0012207,-0.00244141,-2.42653,0.0575121,-0.0741475,0.0550435,0.049608,-0.0937568,0.147149,-0.125766,-0.0819601,0.00629425,0.00659943,0.0117111,0.0163651,-0.110626,0.0704193,0.0583649,0.00617981,-9.97986,0.0137711,0.0669861,-0.0672531,-0.727806,-0.469666,-0.013237,0.0133896,0.211639
8,5,10.0097,0.0012207,-0.000915527,-2.42684,0.0562914,-0.0747579,0.054128,0.0560167,-0.0925361,0.146234,-0.125766,-0.0822652,0.00896454,-0.000457764,0.0136948,0.0305939,-0.04879,0.077095,0.0835419,0.00179291,-9.97986,0.018959,0.0587082,-0.0400162,-0.725021,-0.447197,-0.0117493,0.0339508,0.217514
8,6,10.0097,0.0012207,0.000152588,-2.42562,0.0572069,-0.0744527,0.0538228,0.0633409,-0.0922309,0.145929,-0.125766,-0.0831808,0.00926971,0.0178528,0.0165558,0.0495148,0.0428391,0.0951767,0.107002,0.00286102,-9.97986,0.0178146,0.0537491,-0.0582886,-0.716896,-0.434532,-0.0136566,0.0310135,0.196419
8,7,10.0097,-0.00152588,0.000610352,-2.42562,0.0547655,-0.0738423,0.054128,0.0706652,-0.0919257,0.144708,-0.125461,-0.0828756,0.0094223,0.015564,0.0188065,0.0709534,0.147362,0.0932312,0.119705,0.00827789,-9.97986,0.0233078,0.0543594,-0.0678635,-0.709267,-0.398979,-0.0177765,0.0186539,0.112457
8,8,10.0097,-0.000305176,0.00228882,-2.42714,0.0547655,-0.0738423,0.0553487,0.0859239,-0.088874,0.143487,-0.126072,-0.0825704,0.0111008,0.00946045,0.0212097,0.0837326,0.252991,0.0741959,0.115623,0.0069046,-9.97986,0.0195313,0.0549316,-0.046196,-0.685577,-0.373421,-0.0182724,0.0176239,-0.0284958
8,9,10.0097,-0.000915527,0.00244141,-2.42867,0.0538499,-0.0771993,0.0529073,0.0816515,-0.0931465,0.141961,-0.126377,-0.0856222,0.00812531,0.0133133,0.0222397,0.0787354,0.308342,0.049057,0.102501,0.00946045,-9.97986,0.0204849,0.0452805,-0.0206757,-0.672989,-0.351028,-0.0178909,0.0222397,-0.104752
9,0,10.0097,-0.000610352,0.000762939,-2.42714,0.0535448,-0.0759786,0.0519917,0.0734117,-0.0946723,0.144403,-0.126682,-0.0868429,0.00682831,0.0173569,0.0122833,0.065155,0.307999,0.0344849,0.0881577,0.00953674,-9.97986,0.0204468,0.0434113,-0.0146866,-0.664406,-0.316048,-0.0167084,0.0218201,-0.0937653
9,1,10.0097,-0.000915527,0.000915527,-2.42959,0.0535448,-0.0768941,0.0498555,0.0706652,-0.0949775,0.144708,-0.126987,-0.0868429,0.00728607,0.0123596,0.00465393,0.0582504,0.270882,0.0439072,0.0706863,0.0160599,-9.97986,0.0190735,0.0492096,-0.0826263,-0.654716,-0.292587,-0.0130463,0.0234222,-0.0499344
9,2,10.0097,-0.000305176,0.000305176,-2.42867,0.0535448,-0.0759786,0.0510762,0.0694445,-0.0937568,0.142572,-0.127292,-0.0871481,0.00652313,0.0183105,0.00652313,0.0543594,0.169678,0.0462723,0.0624466,0.0159836,-9.97986,0.0143051,0.0522232,-0.138245,-0.643883,-0.2882,-0.019722,0.0496674,-0.046463
9,3,10.0097,0,0.000610352,-2.42898,0.0532396,-0.0759786,0.0526021,0.07036,-0.0934516,0.144098,-0.127903,-0.0868429,0.0107193,0.0289536,0.0107956,0.0320816,0.0415802,0.0248718,0.0621414,0.00812531,-9.97986,0.0150299,0.0497818,-0.134468,-0.638618,-0.24765,-0.0274277,0.0774384,-0.0922394
9,4,10.0097,-0.000305176,0.000152588,-2.42837,0.0541551,-0.0762837,0.0538228,0.0688341,-0.0946723,0.144098,-0.127598,-0.0871481,0.00751495,0.0380325,0.0167847,0.0292206,-0.104179,0.00392914,0.066185,0.00312805,-9.97986,0.0138474,0.0505829,-0.127449,-0.634155,-0.193558,-0.027771,0.109367,-0.149422
9,5,10.0097,-0.000915527,-0.000305176,-2.42837,0.0535448,-0.0747579,0.054128,0.07036,-0.0922309,0.143487,-0.127598,-0.0850118,0.00839233,0.0295258,0.0124741,0.0275421,-0.234909,-0.0201797,0.078125,0.00244141,-9.97986,0.0130844,0.0550079,-0.079422,-0.628891,-0.153732,-0.0203323,0.125732,-0.191116
9,6,10.0097,0.000915527,0.00137329,-2.42714,0.0550706,-0.075063,0.054128,0.0691393,-0.0931465,0.144098,-0.126682,-0.0856222,0.0111389,0.0151062,0.0111389,0.021553,-0.275078,-0.0241089,0.0903702,0.00961304,-9.97986,0.0117493,0.0551605,-0.0323105,-0.618172,-0.115051,-0.0135422,0.113831,-0.223885
9,7,10.0097,0.000610352,0.00183105,-2.42623,0.055681,-0.0741475,0.054128,0.0706652,-0.0903999,0.145318,-0.125766,-0.0834859,0.00701904,0.00740051,0.0087738,0.0246811,-0.286293,-0.0183105,0.0949478,0.0105667,-9.97986,0.0118256,0.0547028,-0.00659943,-0.596313,-0.0685883,-0.00286102,0.137482,-0.231361
9,8,10.0097,0.0012207,0.00259399,-2.42653,0.0553758,-0.0744527,0.054128,0.072191,-0.0925361,0.14776,-0.125461,-0.0825704,0.00556946,0.000991821,0.0218582,0.0325012,-0.273438,-0.0259781,0.0940704,0.0139236,-9.97986,0.0131607,0.0538635,0.0273132,-0.56736,-0.0141144,0.0012207,0.173759,-0.226936
9,9,10.0097,0.00152588,0.00289917,-2.42348,0.0565965,-0.073232,0.0556539,0.07036,-0.090705,0.147455,-0.124241,-0.0810445,0.00759125,0.0152206,0.0336838,0.0322342,-0.212364,-0.0486755,0.0981903,0.0249863,-9.97986,0.0151443,0.0425339,0.0375748,-0.542946,0.0337982,-0.000953674,0.170403,-0.216141
10,0,10.0097,0.00274658,0.00259399,-2.42501,0.0562914,-0.073232,0.0547383,0.0697496,-0.0916206,0.14776,-0.124546,-0.0807394,0.00499725,0.0226593,0.0487137,0.0245285,-0.156479,-0.0722885,0.0917435,0.0235367,-9.97986,0.0127792,0.0337219,0.0376511,-0.522232,0.0614166,0.00183105,0.151939,-0.210953
10,1,10.0097,-0.000610352,0.00228882,-2.42379,0.0559862,-0.0744527,0.054128,0.0715807,-0.0910102,0.145624,-0.124546,-0.080129,0.00713348,0.0249481,0.0521088,0.0252151,-0.107956,-0.0651932,0.0950241,0.0190735,-9.97986,0.0115204,0.0304794,0.0175858,-0.493317,0.0792694,-7.62939e-005,0.124779,-0.226669
10,2,10.0097,0.000915527,0.00183105,-2.42409,0.0529344,-0.0744527,0.0547383,0.0706652,-0.0903999,0.146844,-0.124241,-0.080129,0.00602722,0.0164032,0.047226,0.0160217,-0.0758362,-0.0417328,0.097847,0.0194168,-9.97986,0.0121689,0.0204849,-0.0128174,-0.46051,0.0918961,-0.0030899,0.103531,-0.246201
10,3,10.0097,0.0012207,0.00305176,-2.4247,0.055681,-0.0723164,0.0547383,0.0706652,-0.0913154,0.146234,-0.123935,-0.0807394,0.00968933,0.0282669,0.0460815,0.00919342,-0.0492477,-0.0159454,0.0975037,0.0255203,-9.97986,0.0050354,0.0149536,-0.0186157,-0.433502,0.117531,-0.0019455,0.0999832,-0.251808
10,4,10.0097,0,0.00259399,-2.42592,0.0565965,-0.0744527,0.0516866,0.0483873,-0.094062,0.14776,-0.125766,-0.0804342,0.00743866,0.0403214,0.047226,0.00377655,-0.0548172,-0.00621796,0.106697,0.0378036,-9.97986,0.00473022,0.0063324,-0.0159836,-0.405502,0.15728,-0.00926971,0.0928879,-0.262299
10,5,10.0097,0.000915527,0.00183105,-2.42562,0.0541551,-0.0744527,0.0535176,0.054796,-0.0934516,0.145624,-0.124851,-0.0819601,0.0157547,0.0209427,0.049324,0.0128555,-0.0674057,-0.000572205,0.0883865,0.0470352,-9.97986,0.00602722,0.00270844,-0.01091,-0.372314,0.214348,-0.00896454,0.0891495,-0.270958
10,6,10.0097,-0.0012207,0.00228882,-2.42623,0.0553758,-0.0756734,0.054128,0.0639513,-0.0919257,0.146539,-0.125461,-0.0813497,0.0149536,-0.00865936,0.0426483,0.00419617,-0.0882339,-0.0120544,0.0638962,0.0563431,-9.97986,0.00865936,-0.00225067,-0.0133896,-0.350304,0.248718,-0.00812531,0.0788879,-0.272675
10,7,10.0097,-0.00183105,0.00335693,-2.42592,0.055681,-0.0741475,0.0532125,0.0691393,-0.0913154,0.145318,-0.125766,-0.0816549,0.0137329,-0.0242615,0.0363159,-0.0133133,-0.130539,-0.0214767,0.0406265,0.063324,-9.97986,0.00453949,-0.00358582,-0.0278473,-0.320702,0.277138,-0.0116348,0.0688934,-0.267639
10,8,10.0097,0.000915527,0.00396729,-2.42592,0.0547655,-0.0744527,0.0538228,0.0840929,-0.0897895,0.146539,-0.125156,-0.0822652,0.0129318,-0.0284958,0.0391388,0.00377655,-0.148811,-0.0170898,0.0158691,0.0510025,-9.97986,7.62939e-005,-0.00766754,-0.0281143,-0.298538,0.314789,-0.00282288,0.0473404,-0.248528
10,9,10.0097,0.000305176,0.00274658,-2.42928,0.0544603,-0.0753682,0.054128,0.0813463,-0.0937568,0.145624,-0.125766,-0.085317,0.0114822,-0.00152588,0.0371933,0.0318909,-0.131569,-0.00995636,-0.00621796,0.0267029,-9.97986,0.0012207,-0.00843048,-0.0370789,-0.271187,0.327415,-0.00350952,0.00656128,-0.222359
11,0,10.0097,0,0.00289917,-2.42867,0.0538499,-0.0756734,0.0513814,0.0731066,-0.0955879,0.143487,-0.126072,-0.085317,0.01297,0.0115585,0.0403214,0.0304031,-0.0757599,-0.00343323,-0.0162888,0.00339508,-9.97986,0.00663757,-0.0130081,-0.0480652,-0.243416,0.349274,-0.000686646,-0.0208282,-0.223808
11,1,10.0097,0.000610352,0.00198364,-2.42959,0.0541551,-0.0759786,0.0516866,0.0706652,-0.0946723,0.144098,-0.126987,-0.0859274,0.00995636,-0.010376,0.0531387,0.0166702,-0.0201797,0.00831604,-0.0228119,-0.00637054,-9.97986,0.000495911,-0.0163651,-0.07164,-0.209389,0.364914,-0.00225067,-0.0365829,-0.248184
11,2,10.0097,0.000915527,0.00289917,-2.42959,0.0538499,-0.0765889,0.0519917,0.0688341,-0.0955879,0.143792,-0.127598,-0.0856222,0.00946045,-0.0030899,0.0568771,-0.000228882,0.0143051,0.0209427,-0.0214767,-0.0138855,-9.97986,0.00305176,-0.0162506,-0.0789261,-0.177689,0.379105,-0.00106812,-0.0508118,-0.252113
11,3,10.0097,0.000915527,0.00305176,-2.42867,0.0541551,-0.0765889,0.0522969,0.0679186,-0.094062,0.145013,-0.127598,-0.0862325,0.00961304,0.0237274,0.0558853,0.000724792,0.042572,0.0282288,-0.00774384,-0.0108719,-9.97986,0.00541687,-0.0176239,-0.0600433,-0.141258,0.406876,-0.00411987,-0.0701904,-0.232201
11,4,10.0097,0.00152588,0.00366211,-2.42837,0.0544603,-0.075063,0.0526021,0.0679186,-0.0949775,0.145624,-0.127903,-0.0859274,0.0117111,0.0191498,0.0456238,0.0069809,0.0762939,0.034256,0.00289917,0.0104523,-9.97986,0.00511169,-0.0152588,-0.0488281,-0.101814,0.443153,-0.00114441,-0.0926208,-0.198936
11,5,10.0097,-0.0012207,0.00396729,-2.42745,0.0544603,-0.075063,0.0535176,0.0691393,-0.0931465,0.144708,-0.126072,-0.0840963,0.00865936,0.00591278,0.0296021,-0.00152588,0.0865555,0.0350952,0.0133514,0.0274277,-9.97986,0.00232697,-0.0144577,-0.0277328,-0.0530243,0.477104,-0.00488281,-0.117531,-0.1651
11,6,10.0097,0.000305176,0.00534058,-2.42776,0.0547655,-0.0756734,0.0535176,0.0697496,-0.094062,0.147149,-0.126377,-0.0834859,0.0169373,0.0386047,0.0250244,-0.0117111,0.079422,0.0355911,0.00888824,0.0537491,-9.97986,0.001297,-0.0156784,-0.00389099,-0.000991821,0.51075,-0.000801086,-0.133476,-0.133934
11,7,10.0097,0.00244141,0.00488281,-2.42684,0.0550706,-0.0756734,0.0532125,0.0691393,-0.0928413,0.146844,-0.126377,-0.0828756,0.01297,0.0408173,0.0263214,-0.0102997,0.0722122,0.0534439,0.00732422,0.106354,-9.97986,0.00137329,-0.0167847,0.00442505,0.0389862,0.552292,0.000762939,-0.13195,-0.104866
11,8,10.0097,-0.000305176,0.00457764,-2.42684,0.0547655,-0.0744527,0.0535176,0.07036,-0.0928413,0.145929,-0.124851,-0.0825704,0.00709534,0.0161743,0.0150299,-0.0294113,0.0701904,0.0725174,-0.000991821,0.125885,-9.97986,0.00488281,-0.0214767,-0.0075531,0.0841141,0.581055,0.00404358,-0.131073,-0.0895309
11,9,10.0097,0.000610352,0.00488281,-2.42501,0.0562914,-0.0744527,0.0544332,0.0712755,-0.090705,0.14776,-0.124546,-0.0804342,0.00221252,0.0130463,0.00331879,-0.0557709,0.0645065,0.0845718,-0.0166321,0.141335,-9.97986,7.62939e-005,-0.0284195,-0.0188446,0.114174,0.603752,0.0019455,-0.124893,-0.085144
12,0,10.0097,0.0012207,0.0038147,-2.42531,0.0562914,-0.0729268,0.0547383,0.0700548,-0.0919257,0.14837,-0.124546,-0.0798238,-0.00148773,0.044899,0.0177002,-0.0656891,0.0553894,0.108299,-0.0238037,0.143356,-9.97986,-0.0043869,-0.0284958,-0.0285721,0.147209,0.630112,0.00732422,-0.13237,-0.0749207
12,1,10.0097,-0.000305176,0.00320435,-2.42501,0.0572069,-0.0738423,0.0532125,0.0712755,-0.0919257,0.148065,-0.12363,-0.0804342,0.00362396,0.0767517,0.0386047,-0.0487518,0.0394058,0.137215,-0.014801,0.115166,-9.97986,-0.00679016,-0.0314331,-0.0233078,0.177536,0.664787,0.00778198,-0.136223,-0.0823593
12,2,10.0097,0.000610352,0.00305176,-2.4244,0.055681,-0.0738423,0.0553487,0.0712755,-0.090705,0.146844,-0.123325,-0.080129,0.00133514,0.0870895,0.0454712,-0.0175858,0.0223923,0.147705,-0.00835419,0.122528,-9.97986,-0.0157928,-0.035553,-0.0217819,0.202751,0.690231,0.00854492,-0.14122,-0.101852
12,3,10.0097,-0.00183105,0.00335693,-2.42562,0.0553758,-0.0778096,0.054128,0.0709703,-0.0903999,0.145013,-0.12363,-0.0798238,0.0149536,0.0450516,0.0255966,0.0350952,0.0136566,0.139961,-0.0062561,0.134659,-9.97986,-0.020256,-0.0376892,-0.00434875,0.223312,0.723,0.0125885,-0.153236,-0.118675
12,4,10.0097,0.000610352,0.000915527,-2.42562,0.0562914,-0.0747579,0.0535176,0.0489977,-0.0955879,0.143792,-0.126072,-0.0810445,0.0123215,0.00976563,0.00865936,0.0645828,0.0149918,0.142517,-0.00038147,0.098381,-9.97986,-0.0193787,-0.0522232,0.0143051,0.242195,0.748672,0.0111771,-0.152435,-0.119438
12,5,10.0097,-0.000610352,0.000457764,-2.42653,0.0553758,-0.0747579,0.0550435,0.0535753,-0.0925361,0.145013,-0.125766,-0.0816549,0.0158691,0.026207,0.0128555,0.0488281,0.0203323,0.138855,0.0159454,0.0358582,-9.97986,-0.0152588,-0.0489807,0.0205612,0.256348,0.762405,0.0128555,-0.149498,-0.111084
12,6,10.0097,-0.00244141,0.00106812,-2.42592,0.0569017,-0.0738423,0.054128,0.0630358,-0.0910102,0.146234,-0.125156,-0.0822652,0.0143051,0.022049,0.0247574,0.00526428,0.0276947,0.151443,0.0107956,-0.0554276,-9.97986,-0.00499725,-0.0411987,0.00873566,0.272713,0.773392,0.013504,-0.156898,-0.101089
12,7,10.0097,-0.00152588,0.0012207,-2.42531,0.0550706,-0.075063,0.0544332,0.0706652,-0.090705,0.146539,-0.126377,-0.0825704,0.0240326,0.0234604,0.0291824,-0.0120926,0.0488663,0.160255,-0.00617981,-0.140839,-9.97986,-0.00713348,-0.0267029,-0.0105286,0.273781,0.780754,0.0123978,-0.156708,-0.0891113
12,8,10.0097,0.000610352,0.00106812,-2.42623,0.0550706,-0.075063,0.054128,0.0856188,-0.0900947,0.145624,-0.124851,-0.0834859,0.0240326,0.0434113,0.0333405,0.0297928,0.0537491,0.16098,-0.0320053,-0.172997,-9.97986,-0.00087738,-0.0251389,-0.0196457,0.276222,0.78331,0.0133514,-0.150642,-0.0781631
12,9,10.0097,-0.000305176,0.00137329,-2.42806,0.0535448,-0.075063,0.0513814,0.0828722,-0.0949775,0.144403,-0.127598,-0.0859274,0.022583,0.0580597,0.031662,0.050354,0.0627136,0.167465,-0.0513458,-0.167007,-9.97986,0.0109863,-0.0249863,-0.0246811,0.284309,0.784492,0.0152206,-0.148582,-0.0713348
13,0,10.0097,0.0012207,-0.000152588,-2.42867,0.0544603,-0.0753682,0.0526021,0.0740221,-0.0943672,0.142877,-0.126682,-0.0868429,0.0194168,0.0574493,0.0175476,0.0488663,0.0584412,0.169868,-0.0595474,-0.137749,-9.97986,0.0212097,-0.0226212,-0.0307846,0.282021,0.791512,0.0152588,-0.138474,-0.066452
13,1,10.0097,0.0012207,0.000152588,-2.42837,0.0532396,-0.0753682,0.0519917,0.0712755,-0.0946723,0.144098,-0.127292,-0.0868429,0.0221252,0.0543213,0.000991821,0.0295258,0.04879,0.178719,-0.0628281,-0.100822,-9.97986,0.027504,-0.0257111,-0.0322342,0.288162,0.799065,0.0146103,-0.132751,-0.057373
13,2,10.0097,-0.000305176,-0.000610352,-2.4305,0.0535448,-0.0781148,0.0529073,0.0691393,-0.0949775,0.143792,-0.127598,-0.0880636,0.0205994,0.0408554,-0.00480652,0.0214386,0.046196,0.185394,-0.0579071,-0.111313,-9.97986,0.0350571,-0.026474,-0.0327301,0.286179,0.795021,0.0148773,-0.12455,-0.0518799
13,3,10.0097,-0.000915527,-0.000152588,-2.42928,0.0535448,-0.0747579,0.04894,0.0688341,-0.0952827,0.143182,-0.127598,-0.0862325,0.0233841,0.0337982,-0.0197601,0.0344467,0.0424194,0.182228,-0.0479889,-0.123749,-9.97986,0.0406647,-0.0272751,-0.0373077,0.285263,0.789566,0.0114059,-0.10849,-0.0500107
13,4,10.0097,0.00183105,-0.000305176,-2.42959,0.0529344,-0.0759786,0.0516866,0.0700548,-0.0943672,0.143487,-0.126987,-0.0868429,0.018692,0.021286,-0.0393677,0.0341797,0.0418854,0.18158,-0.0294495,-0.101624,-9.97986,0.0458527,-0.0228119,-0.0333023,0.281525,0.783806,0.00595093,-0.092659,-0.0388336
13,5,10.0097,0.000610352,-0.000457764,-2.42806,0.0541551,-0.0753682,0.0532125,0.0688341,-0.0937568,0.144098,-0.126072,-0.0844015,0.019722,-0.016098,-0.0444031,0.019989,0.0397873,0.170975,-0.0102997,-0.0717545,-9.97986,0.0494003,-0.0212479,-0.0331497,0.288391,0.767708,-3.8147e-005,-0.0825119,-0.0297928
13,6,10.0097,0.00152588,-0.000152588,-2.42928,0.0553758,-0.0744527,0.0532125,0.0694445,-0.0931465,0.141046,-0.126072,-0.0847066,0.0207901,-0.0233459,-0.0377655,0.00205994,0.0403976,0.160637,0.000228882,-0.0631714,-9.97986,0.0447083,-0.0330734,-0.0328827,0.286217,0.74482,-0.000724792,-0.0701523,-0.0284576
13,7,10.0097,0.0012207,-0.000152588,-2.42684,0.0562914,-0.0741475,0.0538228,0.0712755,-0.0922309,0.145318,-0.126072,-0.0844015,0.0198364,0.0126648,-0.0335693,-0.00640869,0.0432205,0.159035,-0.00331879,-0.0437546,-9.97986,0.0450134,-0.0357056,-0.0260544,0.277557,0.723495,0.00301361,-0.0583649,-0.0222778
13,8,10.0097,-0.00152588,-0.000457764,-2.42684,0.0559862,-0.0735371,0.0535176,0.0700548,-0.0934516,0.144403,-0.124546,-0.0825704,0.0149536,0.00526428,-0.0424576,-0.0199509,0.0432205,0.144157,-0.0225449,-0.0270462,-9.97986,0.0410461,-0.041275,-0.0251389,0.277748,0.694733,-0.00289917,-0.0482178,-0.0159073
13,9,10.0097,-0.00152588,0.000305176,-2.4247,0.0550706,-0.0738423,0.054128,0.0715807,-0.0934516,0.146234,-0.124851,-0.0816549,0.0205231,-0.0518417,-0.0495911,-0.0324631,0.050621,0.128479,-0.0312042,-0.0162125,-9.97986,0.0447464,-0.0205994,-0.0175858,0.279427,0.656242,0.000991821,-0.0307083,-0.00896454
14,0,10.0097,0.00152588,-0.000305176,-2.42592,0.0569017,-0.0744527,0.0556539,0.0709703,-0.0919257,0.145013,-0.123935,-0.0810445,0.0147629,-0.0876236,-0.0655746,-0.0323105,0.0544739,0.116882,-0.056572,-0.00385284,-9.97986,0.0428772,-0.0218582,-0.0128937,0.272408,0.617065,0.00221252,-0.0206757,-0.00675201
14,1,10.0097,0.000610352,0,-2.42531,0.0550706,-0.073232,0.0544332,0.0712755,-0.0900947,0.144708,-0.123325,-0.0810445,0.01194,-0.0988388,-0.080452,-0.047493,0.0645828,0.089798,-0.0944519,0.00175476,-9.97986,0.0414276,-0.0357437,-0.00495911,0.268631,0.57972,0.00156403,-0.00911713,-0.00175476
14,2,10.0097,0.000305176,-0.000152588,-2.42379,0.0572069,-0.0738423,0.0544332,0.0724962,-0.0925361,0.147149,-0.124546,-0.0804342,0.0116348,-0.0841904,-0.0734711,-0.0748444,0.0818634,0.0777435,-0.114517,-0.00087738,-9.97986,0.0418472,-0.0483704,0.0031662,0.273933,0.534897,0.0031662,0.010643,0.00328064
14,3,10.0097,0.00152588,0.000305176,-2.42379,0.0562914,-0.0738423,0.0550435,0.0709703,-0.0925361,0.14776,-0.125156,-0.0807394,0.0178528,-0.0582886,-0.0431442,-0.0806427,0.0888062,0.0595093,-0.135307,-0.00846863,-9.97986,0.0348282,-0.0305557,0.00816345,0.281982,0.493698,-0.00652313,0.0244522,0.00656128
14,4,10.0097,0.000305176,0.00137329,-2.42592,0.0581224,-0.0735371,0.0513814,0.0505236,-0.0946723,0.146844,-0.125461,-0.0819601,0.0172424,-0.0378036,-0.013504,-0.101891,0.0989151,0.0485611,-0.13607,-0.0139618,-9.97986,0.0323105,-0.0150681,0.0153732,0.30983,0.452271,-0.00679016,0.0423431,0.0138092
14,5,10.0097,0.000305176,0.00152588,-2.42531,0.0547655,-0.0735371,0.0544332,0.0560167,-0.0931465,0.145318,-0.125766,-0.0819601,0.0173569,-0.0196838,-0.000190735,-0.111122,0.104332,0.0318146,-0.121689,-0.0150299,-9.97986,0.0265121,-0.0309372,0.0307846,0.325813,0.413132,-0.00991821,0.0574875,0.0226974
14,6,10.0097,0.0012207,0.00152588,-2.4244,0.0562914,-0.0741475,0.0547383,0.0645616,-0.0916206,0.144708,-0.126682,-0.0810445,0.0167847,-0.0107574,0.00259399,-0.0862503,0.10582,0.0139236,-0.102081,-0.0133514,-9.97986,0.0222778,-0.0482178,0.0491714,0.347519,0.368118,-0.00484467,0.0635529,0.0317764
14,7,10.0097,0.00366211,0.00244141,-2.42776,0.0559862,-0.0738423,0.0562642,0.0706652,-0.0916206,0.145624,-0.126072,-0.0825704,0.0174713,0.000305176,0.00854492,-0.109406,0.10807,-0.00564575,-0.0771332,-0.00484467,-9.97986,0.0222778,-0.0336075,0.0668335,0.363159,0.324593,-0.00545502,0.0763321,0.03479
14,8,10.0097,0.0012207,0.00289917,-2.42745,0.055681,-0.0738423,0.0544332,0.0871447,-0.0913154,0.143792,-0.124851,-0.0825704,0.0151443,0.00919342,0.0162506,-0.106163,0.111351,-0.0284958,-0.0639343,-0.0030899,-9.97986,0.0201797,-0.016098,0.0729752,0.388718,0.28038,-0.0056076,0.0821304,0.0391388
14,9,10.0097,-0.000610352,0.00320435,-2.42867,0.0529344,-0.0753682,0.0522969,0.0819567,-0.0949775,0.143182,-0.127598,-0.0859274,0.0134659,0.00854492,0.0251389,-0.0377274,0.118256,-0.0468445,-0.0571823,0.00576019,-9.97986,0.0192261,-0.0105286,0.0845718,0.407448,0.240593,-0.00198364,0.0869751,0.0393295
15,0,10.0097,0.000915527,0.00274658,-2.42867,0.0532396,-0.0756734,0.0526021,0.0728014,-0.0946723,0.144403,-0.126987,-0.0865377,0.0106812,0.00637054,0.0268555,0.0564194,0.119171,-0.0638962,-0.0643539,0.0120926,-9.97986,0.0205994,-0.0188828,0.0891876,0.430145,0.198746,-0.00713348,0.0957108,0.044136
15,1,10.0097,0.000305176,0.00183105,-2.42806,0.0538499,-0.0756734,0.054128,0.0712755,-0.0943672,0.142877,-0.127292,-0.0859274,0.00751495,0.00968933,0.0271225,0.0817108,0.118103,-0.0820541,-0.082016,0.0202179,-9.97986,0.0209427,-0.00911713,0.0983047,0.452499,0.165977,-0.00720978,0.0925827,0.0539017
15,2,10.0097,0,0.00213623,-2.4305,0.0535448,-0.0756734,0.0513814,0.0697496,-0.0977241,0.142572,-0.127292,-0.0874532,0.00534058,0.0115967,0.0391769,0.0352478,0.11982,-0.101242,-0.0862885,0.0305176,-9.97986,0.0188828,-0.0206375,0.104713,0.463982,0.121193,-0.00823975,0.0904465,0.0600815
15,3,10.0097,0.000610352,0.0012207,-2.42928,0.0529344,-0.0762837,0.0519917,0.0679186,-0.0955879,0.142572,-0.128208,-0.0868429,0.00972748,0.0149536,0.047493,0.00671387,0.123329,-0.114555,-0.0905228,0.0313568,-9.97986,0.0208282,-0.0460434,0.116959,0.485115,0.0799561,-0.00518799,0.0886154,0.0668716
15,4,10.0097,-0.000915527,0.000915527,-2.42806,0.0529344,-0.0759786,0.050771,0.0685289,-0.0949775,0.143792,-0.128208,-0.0868429,0.00785828,0.0127411,0.0479889,-0.00957489,0.119209,-0.119209,-0.088501,0.0372696,-9.97986,0.0185013,-0.041275,0.122643,0.504684,0.035553,-0.00591278,0.0859833,0.077095
15,5,10.0097,0,0.000915527,-2.42684,0.055681,-0.0753682,0.0532125,0.0688341,-0.0934516,0.145013,-0.126072,-0.0859274,0.00934601,0.0137329,0.0432968,0.00919342,0.115814,-0.131187,-0.0907135,0.03685,-9.97986,0.0182343,-0.0241089,0.130348,0.513954,0.00240326,-0.00160217,0.0827408,0.0760269
15,6,10.0097,0.00152588,0.0012207,-2.42714,0.0550706,-0.0756734,0.0526021,0.0682238,-0.0943672,0.142877,-0.126072,-0.0844015,0.00919342,0.0220871,0.0357437,0.0608444,0.115547,-0.130615,-0.0871277,0.0466156,-9.97986,0.0240707,-0.0209808,0.12291,0.528679,-0.0367355,0.00141144,0.0836182,0.0852585
15,7,10.0097,0.000305176,0.00213623,-2.42745,0.0547655,-0.0753682,0.0529073,0.0700548,-0.0946723,0.144708,-0.126682,-0.0837911,0.00862122,0.0207901,0.0126266,0.1091,0.113525,-0.132408,-0.0711823,0.0499344,-9.97986,0.0224304,-0.0111389,0.12661,0.553513,-0.0799942,0.00278473,0.0825882,0.0893021
15,8,10.0097,0.0012207,0.00183105,-2.42592,0.055681,-0.0744527,0.0544332,0.0700548,-0.094062,0.144403,-0.125156,-0.0825704,0.0113297,0.0251007,-0.00564575,0.140762,0.105972,-0.138245,-0.0591278,0.0436401,-9.97986,0.0187683,-0.0050354,0.127449,0.567513,-0.128365,0.0075531,0.0867462,0.0867844
15,9,10.0097,-0.00213623,0.00183105,-2.42592,0.0559862,-0.0735371,0.054128,0.072191,-0.0925361,0.146234,-0.124546,-0.0819601,0.00816345,0.0281525,-0.0170898,0.122299,0.103226,-0.14328,-0.0584412,0.0476837,-9.97986,0.0168991,-0.0229645,0.134773,0.583992,-0.163841,0.00133514,0.0879669,0.0918579
16,0,10.0097,0.000610352,0.00137329,-2.42623,0.0565965,-0.073232,0.0553487,0.0700548,-0.0928413,0.144403,-0.124241,-0.0813497,0.0130463,0.0307083,-0.0150299,0.0763702,0.10498,-0.157166,-0.0646591,0.044136,-9.97986,0.0157166,-0.0452423,0.158043,0.595055,-0.201225,0.00514984,0.0789642,0.0934601
16,1,10.0097,0.000305176,0.000305176,-2.4247,0.0559862,-0.0741475,0.0556539,0.0715807,-0.0928413,0.145929,-0.124851,-0.0810445,0.00850677,0.0296783,-0.00732422,0.0679779,0.108986,-0.166702,-0.0670242,0.0378418,-9.97986,0.0144958,-0.0433731,0.172005,0.599709,-0.238914,0.00526428,0.0746536,0.0985336
16,2,10.0097,-0.00152588,0.000457764,-2.42318,0.0572069,-0.0729268,0.054128,0.0706652,-0.0931465,0.146539,-0.123935,-0.0807394,0.0112534,0.0331879,0.00904083,0.0920105,0.105858,-0.172195,-0.0788879,0.0372696,-9.97986,0.0110245,-0.0347137,0.187073,0.597382,-0.273781,0,0.0699234,0.100975
16,3,10.0097,0.0012207,0.000457764,-2.4247,0.0565965,-0.0753682,0.0547383,0.0715807,-0.0922309,0.146539,-0.124546,-0.0804342,0.0147247,0.0406647,0.0310516,0.134468,0.107079,-0.180092,-0.0835419,0.0397491,-9.97986,0.0153351,-0.0360489,0.202255,0.593147,-0.304375,0.000648499,0.0697708,0.103378
16,4,10.0097,0.000610352,-0.00106812,-2.42501,0.0559862,-0.073232,0.0529073,0.0499132,-0.0946723,0.145624,-0.125156,-0.0819601,0.00995636,0.0403595,0.0481415,0.136414,0.10273,-0.194511,-0.0820923,0.03582,-9.97986,0.0123596,-0.0279999,0.223007,0.588341,-0.324059,0.00160217,0.0751877,0.102959
16,5,10.0097,0.00183105,-0.00167847,-2.42684,0.0562914,-0.0741475,0.054128,0.0544908,-0.0931465,0.146234,-0.125156,-0.0822652,0.00869751,0.0462341,0.0661469,0.105095,0.0955582,-0.197525,-0.0691986,0.0405502,-9.97986,0.0152588,-0.024147,0.241318,0.576019,-0.338821,0.00396729,0.0763321,0.103645
16,6,10.0097,0.000610352,-0.000915527,-2.42501,0.0553758,-0.0744527,0.0547383,0.0642565,-0.0919257,0.145013,-0.124851,-0.0822652,0.0101089,0.0534439,0.0797272,0.0911713,0.0919342,-0.200996,-0.0568008,0.0409317,-9.97986,0.0167084,-0.0237656,0.25528,0.558853,-0.356674,0.00850677,0.0749969,0.106735
16,7,10.0097,-0.000610352,-0.000762939,-2.42745,0.055681,-0.0756734,0.054128,0.0697496,-0.0925361,0.143792,-0.125156,-0.0837911,0.0111389,0.0522614,0.0757599,0.0972366,0.0804901,-0.214043,-0.0436401,0.0404358,-9.97986,0.0161743,-0.0222397,0.247536,0.540771,-0.377693,0.00804901,0.0639343,0.100822
16,8,10.0097,0.000610352,-0.000915527,-2.42714,0.0559862,-0.0756734,0.054128,0.0850084,-0.0925361,0.145013,-0.124241,-0.0847066,0.0163269,0.0598145,0.0721359,0.0857925,0.0761414,-0.220833,-0.036087,0.0442505,-9.97986,0.0186539,-0.0182343,0.246468,0.514603,-0.389977,0.0107956,0.0658035,0.114632
16,9,10.0097,0.000305176,-0.00244141,-2.42959,0.0532396,-0.0756734,0.0532125,0.0810411,-0.0934516,0.143182,-0.126682,-0.0865377,0.00961304,0.0537109,0.0617981,0.0401688,0.0628281,-0.227432,-0.0308609,0.0349426,-9.97986,0.0132751,-0.0268555,0.243683,0.461617,-0.414314,-0.00217438,0.0535583,0.106583
17,0,10.0097,0,-0.00396729,-2.42928,0.0538499,-0.0765889,0.0526021,0.0728014,-0.0943672,0.144098,-0.126682,-0.0871481,0.0161743,0.0562668,0.0721741,0.0132751,0.0642776,-0.216103,-0.0107193,0.0442123,-9.97986,0.0171661,-0.0188828,0.258369,0.428734,-0.428162,0.0030899,0.0613403,0.114555
17,1,10.0097,0.0012207,-0.00549316,-2.42806,0.0541551,-0.0747579,0.0519917,0.07036,-0.0952827,0.144098,-0.126377,-0.0877584,0.0154114,0.0589752,0.0724411,0.00919342,0.0535965,-0.21595,-0.00507355,0.0357056,-9.97986,0.0165176,-0.0209045,0.259895,0.373039,-0.447998,0.00797272,0.0592041,0.113068
17,2,10.0097,-0.000915527,-0.00579834,-2.42959,0.0526292,-0.0765889,0.0513814,0.0688341,-0.095893,0.142267,-0.126987,-0.0883688,0.0135422,0.0534821,0.074234,-0.00602722,0.0505829,-0.225906,0.00976563,0.0409698,-9.97986,0.0151062,-0.017395,0.258179,0.310097,-0.465622,0.0044632,0.062027,0.112152
17,3,10.0097,0.00152588,-0.00579834,-2.42989,0.0538499,-0.0765889,0.0529073,0.0700548,-0.0952827,0.143792,-0.129123,-0.0883688,0.00766754,0.0468445,0.0619888,-0.0535202,0.0465393,-0.234261,0.029068,0.038414,-9.97986,0.0155258,-0.0154495,0.24353,0.245934,-0.477867,0.00106812,0.062561,0.111198
17,4,10.0097,0.000610352,-0.00686646,-2.42806,0.0538499,-0.0762837,0.0526021,0.0697496,-0.0949775,0.142877,-0.126987,-0.0883688,0.0113297,0.0401688,0.05867,-0.0644684,0.0465775,-0.234756,0.0403214,0.0370789,-9.97986,0.016861,-0.0146103,0.230484,0.187607,-0.483131,0.00579834,0.069046,0.112457
17,5,10.0097,-0.00335693,-0.00640869,-2.42867,0.0541551,-0.0759786,0.0538228,0.0688341,-0.0931465,0.143487,-0.125766,-0.0874532,0.0133896,0.0348663,0.0409317,-0.0202942,0.0369644,-0.246811,0.0492096,0.0375366,-9.97986,0.0175095,-0.0106812,0.219803,0.12291,-0.477219,0.00621796,0.0695419,0.111656
17,6,10.0097,0.000915527,-0.00656128,-2.42714,0.055681,-0.0747579,0.0532125,0.0700548,-0.0937568,0.145318,-0.126377,-0.0868429,0.0149918,0.038414,0.0164795,0.0019455,0.0343704,-0.257835,0.0564957,0.0385284,-9.97986,0.0143814,-0.0122452,0.20607,0.0441742,-0.475883,0.00492096,0.0720215,0.110626
17,7,10.0097,-0.000915527,-0.00656128,-2.42623,0.0550706,-0.0744527,0.0532125,0.0694445,-0.0925361,0.144708,-0.126682,-0.0871481,0.0141907,0.0364304,-0.00221252,0.0031662,0.0291443,-0.264854,0.0679779,0.0386047,-9.97986,0.0168228,-0.0100327,0.195961,-0.0274658,-0.465202,0.00701904,0.0777054,0.10891
17,8,10.0097,0,-0.00701904,-2.42684,0.0547655,-0.0747579,0.0547383,0.0697496,-0.0916206,0.146539,-0.125766,-0.085317,0.0109482,0.0275803,-0.0141144,0.00427246,0.0176239,-0.275269,0.0768661,0.0381088,-9.97986,0.0165558,-0.0132751,0.181236,-0.10891,-0.464172,0.00213623,0.0802994,0.10807
17,9,10.0097,0.000610352,-0.00671387,-2.42562,0.0550706,-0.0759786,0.0532125,0.0709703,-0.0916206,0.145013,-0.124546,-0.085317,0.0137329,0.0224686,-0.0294495,-0.0192642,0.0101471,-0.288162,0.0851059,0.0379944,-9.97986,0.0154495,-0.0112915,0.159874,-0.1894,-0.46051,0.00190735,0.0827789,0.103569
18,0,10.0097,0.000610352,-0.00732422,-2.42623,0.0559862,-0.0756734,0.0544332,0.07036,-0.0928413,0.146234,-0.124241,-0.0834859,0.0100327,0.0363159,-0.0397873,-0.0527191,0.00530243,-0.306664,0.0917816,0.0410461,-9.97986,0.0167847,-0.0112152,0.138893,-0.271111,-0.450211,0.00434875,0.0820923,0.101852
18,1,10.0097,0,-0.00747681,-2.42562,0.0559862,-0.0738423,0.054128,0.0715807,-0.0919257,0.147149,-0.124546,-0.0831808,0.0111389,0.0304413,-0.0365829,-0.0252533,-0.00293732,-0.314522,0.0964355,0.0381851,-9.97986,0.0159073,-0.0119781,0.117073,-0.3442,-0.45372,-0.00213623,0.0823593,0.102768
18,2,10.0097,0.000305176,-0.00762939,-2.4244,0.0569017,-0.073232,0.0544332,0.0724962,-0.0900947,0.145929,-0.12363,-0.0822652,0.00930786,0.0201416,-0.0353622,0.0483322,-0.00629425,-0.324593,0.105286,0.0361252,-9.97986,0.0143051,-0.0183868,0.087738,-0.42778,-0.453186,-0.00286102,0.0796509,0.0990677
18,3,10.0097,0.0012207,-0.00747681,-2.42531,0.0569017,-0.073232,0.0535176,0.0706652,-0.0913154,0.145624,-0.124546,-0.0831808,0.0143433,0.0154877,-0.0286102,0.0682068,-0.0153732,-0.327988,0.106087,0.0374222,-9.97986,0.0178146,-0.017395,0.0587845,-0.499229,-0.449638,-0.00236511,0.0725174,0.0937271
18,4,10.0097,0.000915527,-0.00823975,-2.42623,0.0562914,-0.0726216,0.0553487,0.0493029,-0.0949775,0.145318,-0.125766,-0.0850118,0.0125122,0.0185394,-0.0172043,0.0554276,-0.0183868,-0.329552,0.109634,0.0382233,-9.97986,0.0170517,-0.0156021,0.0378418,-0.582428,-0.443268,-0.00663757,0.079155,0.0845337
18,5,10.0097,-0.000610352,-0.00823975,-2.42501,0.0559862,-0.0744527,0.054128,0.0551012,-0.0925361,0.146539,-0.125156,-0.0837911,0.0116348,0.0262833,-0.0111008,0.0305939,-0.0164032,-0.32917,0.111198,0.0382233,-9.97986,0.0193405,-0.0137711,0.0142288,-0.660782,-0.437012,-0.00434875,0.0727844,0.0802994
18,6,10.0097,0.0012207,-0.00762939,-2.42653,0.0565965,-0.0744527,0.0538228,0.0642565,-0.0919257,0.145624,-0.125156,-0.0856222,0.00953674,0.0318146,0.00659943,-0.0365829,-0.02388,-0.307922,0.111656,0.034256,-9.97986,0.0138474,-0.00953674,-0.0128555,-0.738144,-0.432014,-0.00389099,0.0688553,0.0790405
18,7,10.0097,0.00213623,-0.00656128,-2.42653,0.0553758,-0.0741475,0.054128,0.0706652,-0.0919257,0.144403,-0.125156,-0.085317,0.0116348,0.0309753,0.0223923,-0.0664902,-0.0288391,-0.272903,0.113564,0.0357437,-9.97986,0.016861,-0.00518799,-0.0328445,-0.798035,-0.422325,-0.000343323,0.062027,0.0803757
18,8,10.0097,0.00152588,-0.00579834,-2.42837,0.0544603,-0.0756734,0.0529073,0.0865343,-0.0903999,0.145013,-0.122104,-0.0850118,0.0164413,0.0404739,0.0379181,0.00747681,-0.0292206,-0.23571,0.109329,0.0279236,-9.97986,0.0152969,-0.00839233,-0.0567627,-0.856171,-0.414047,-0.00175476,0.0553513,0.0736237
18,9,10.0097,0.00213623,-0.0050354,-2.42898,0.0541551,-0.0775044,0.0519917,0.0813463,-0.094062,0.143487,-0.126072,-0.0883688,0.0141144,0.049324,0.0490952,0.0490189,-0.0363159,-0.198174,0.109329,0.0308228,-9.97986,0.01297,-0.00221252,-0.0715256,-0.911522,-0.401802,0.00232697,0.0503922,0.0753021
19,0,10.0097,0.000915527,-0.00488281,-2.42898,0.0538499,-0.0756734,0.0519917,0.0724962,-0.0946723,0.145318,-0.126377,-0.0874532,0.010643,0.0524139,0.0671768,0.0273514,-0.0419617,-0.162888,0.0997162,0.0302505,-9.97986,0.0132751,-0.00293732,-0.0920486,-0.958138,-0.395279,-0.00339508,0.0390244,0.0718307
19,1,10.0097,0.0012207,-0.0050354,-2.42898,0.0538499,-0.0759786,0.0529073,0.0700548,-0.0937568,0.144403,-0.127598,-0.0877584,0.0114059,0.053978,0.07061,0.00427246,-0.0429535,-0.133209,0.0876617,0.0233078,-9.97986,0.0199127,-0.00934601,-0.105362,-0.996284,-0.385666,-0.00125885,0.0320435,0.0718689
19,2,10.0097,-0.000915527,-0.00396729,-2.42989,0.0529344,-0.0765889,0.0510762,0.0694445,-0.094062,0.143792,-0.127292,-0.0880636,0.0130463,0.0531769,0.0671768,0.00793457,-0.0402069,-0.109978,0.0831223,0.0255203,-9.97986,0.0159073,-0.0108337,-0.121384,-1.026,-0.374565,-0.00247955,0.0268173,0.07164
19,3,10.0097,0.000305176,-0.00350952,-2.42928,0.0529344,-0.0753682,0.0516866,0.0688341,-0.0955879,0.145624,-0.127598,-0.0871481,0.0111771,0.0520706,0.0534058,0.0248718,-0.0428009,-0.0937653,0.0735474,0.0285721,-9.97986,0.0146103,-0.0069809,-0.131912,-1.04408,-0.36068,-0.00385284,0.0181961,0.0683212
19,4,10.0097,0.000610352,-0.000610352,-2.42867,0.0538499,-0.0765889,0.0519917,0.0676134,-0.0949775,0.145013,-0.127292,-0.0865377,0.00804901,0.0495529,0.0373459,0.0197983,-0.0446701,-0.0677872,0.0647354,0.0304794,-9.97986,0.0174332,-0.0102615,-0.147743,-1.04488,-0.353546,-0.00244141,0.00888824,0.0681305
19,5,10.0097,0.000610352,-0.000610352,-2.42989,0.0550706,-0.0756734,0.0532125,0.0688341,-0.0955879,0.144098,-0.126072,-0.0862325,0.00957489,0.0512314,0.0273132,0.0165939,-0.0484848,-0.0425339,0.0627136,0.0387573,-9.97986,0.0175858,-0.0152206,-0.159149,-1.04008,-0.342674,-0.00476837,-0.00347137,0.0679398
19,6,10.0097,0.00152588,-0.000457764,-2.42745,0.0541551,-0.0756734,0.0516866,0.0700548,-0.0931465,0.144403,-0.125461,-0.0840963,0.0102615,0.0479889,0.00286102,0.00766754,-0.0517654,-0.0112152,0.0614548,0.0359726,-9.97986,0.0188446,-0.0165939,-0.162506,-1.04492,-0.332031,-0.00289917,-0.0100327,0.0653839
19,7,10.0097,0.00152588,-0.000457764,-2.42653,0.0553758,-0.0738423,0.0535176,0.0697496,-0.0934516,0.143792,-0.125766,-0.0844015,-0.000762939,0.0302124,-0.0130844,0.0186539,-0.0544739,0.0114441,0.060463,0.0462723,-9.97986,0.0144577,-0.00591278,-0.173759,-1.05087,-0.322418,-0.00301361,-0.0139236,0.056572
19,8,10.0097,-0.000305176,0.000152588,-2.42653,0.0547655,-0.0744527,0.0532125,0.0697496,-0.0919257,0.145318,-0.124851,-0.0837911,-0.000152588,0.0270462,-0.0160599,0.0364685,-0.0500488,0.0331116,0.0648499,0.0701141,-9.97986,0.0123978,0.00583649,-0.177765,-1.04282,-0.304451,-0.00808716,-0.0255966,0.052681
19,9,10.0097,0.0012207,0.000610352,-2.42501,0.055681,-0.0744527,0.054128,0.0697496,-0.0922309,0.146539,-0.125156,-0.0819601,0.0056839,0.0260925,-0.0242615,0.019722,-0.0521088,0.0465775,0.0698853,0.0826263,-9.97986,0.0107956,0.0128174,-0.183067,-1.03806,-0.292854,-0.00289917,-0.0337601,0.0502396
20,0,10.0097,0.000305176,0.000457764,-2.42501,0.0562914,-0.073232,0.054128,0.0715807,-0.0903999,0.14837,-0.123935,-0.0813497,0.00476837,0.0251007,-0.0196838,0.0143051,-0.0529861,0.0632095,0.08564,0.0986481,-9.97986,-0.0012207,0.00205994,-0.186844,-1.03039,-0.279846,-0.00431061,-0.0362015,0.047493
20,1,10.0097,0.000610352,0.000457764,-2.42562,0.0553758,-0.0726216,0.0553487,0.0724962,-0.0928413,0.146234,-0.125156,-0.0813497,0.010643,0.0247955,-0.00312805,0.0111771,-0.0510406,0.0758743,0.0952911,0.0945663,-9.97986,-0.00888824,0.00621796,-0.185776,-1.0318,-0.266953,-0.00591278,-0.0378036,0.0412369
20,2,10.0097,0.00305176,0,-2.42348,0.0569017,-0.0735371,0.0553487,0.0715807,-0.0897895,0.144403,-0.124546,-0.0807394,0.0069809,0.0222778,0.00770569,0.0121689,-0.0497055,0.0862885,0.108261,0.083046,-9.97986,-0.0183487,0.00720978,-0.185509,-1.03592,-0.253143,0.00156403,-0.0405884,0.0376129
20,3,10.0097,-0.000305176,-0.000610352,-2.42501,0.0572069,-0.0735371,0.054128,0.0706652,-0.0919257,0.147455,-0.12363,-0.0792135,0.00228882,0.0258636,0.0162125,0.0018692,-0.0449371,0.0952911,0.119514,0.0808716,-9.97986,-0.0184631,0.0082016,-0.187492,-1.0532,-0.239105,-0.000457764,-0.0393677,0.0322342
20,4,10.0097,0.000610352,-0.00152588,-2.42501,0.0559862,-0.0753682,0.0538228,0.0508287,-0.0949775,0.145624,-0.127292,-0.0819601,0.00587463,0.0286865,0.022316,0.00385284,-0.054512,0.109024,0.126991,0.0645447,-9.97986,-0.0190353,0.0124359,-0.182266,-1.05446,-0.221329,-0.00133514,-0.0462341,0.0263596
20,5,10.0097,0.000915527,0.00167847,-2.42623,0.055681,-0.0744527,0.0538228,0.0541857,-0.0922309,0.146844,-0.126377,-0.0807394,0.00881195,0.0415039,0.0293732,-0.000915527,-0.0460434,0.106659,0.13382,0.0813293,-9.97986,-0.0196838,0.0115204,-0.1754,-1.01582,-0.202141,-0.000343323,-0.0531387,0.0209427
20,6,10.0097,-0.000305176,0.00320435,-2.42592,0.0559862,-0.0744527,0.0535176,0.0648668,-0.0916206,0.145318,-0.125156,-0.0804342,0.00144958,0.0418854,0.033493,-0.001297,-0.0515366,0.106316,0.137672,0.0774002,-9.97986,-0.0183868,0.00892639,-0.176849,-0.961189,-0.191956,-0.00164032,-0.0521469,0.0190353
20,7,10.0097,0.0012207,0.00595093,-2.42348,0.0559862,-0.0744527,0.054128,0.0706652,-0.0913154,0.144403,-0.125461,-0.0810445,0.00511169,0.0471878,0.0410461,-0.00617981,-0.045929,0.112686,0.141869,0.0450516,-9.97986,-0.0103378,0.00507355,-0.173149,-0.892792,-0.177574,0.00347137,-0.0518417,0.0188065
20,8,10.0097,0.00274658,0.00793457,-2.42745,0.0544603,-0.0741475,0.0550435,0.0850084,-0.090705,0.145624,-0.124851,-0.0816549,0.00831604,0.047493,0.0426102,-0.00205994,-0.0460815,0.118065,0.14389,0.0302505,-9.97986,0.00747681,0.00629425,-0.165672,-0.809059,-0.162697,0.000534058,-0.0505447,0.012207
20,9,10.0097,0,0.00793457,-2.42867,0.0541551,-0.0762837,0.0535176,0.0819567,-0.0946723,0.144708,-0.127598,-0.0840963,0.00682831,0.0400162,0.0423813,-0.00164032,-0.04879,0.121689,0.147705,0.0175095,-9.97986,0.025177,0.00255585,-0.159225,-0.730858,-0.147324,0.00469208,-0.051651,0.00480652
21,0,10.0097,-0.000305176,0.00915527,-2.42837,0.0535448,-0.0771993,0.0532125,0.0724962,-0.0943672,0.144098,-0.126987,-0.0837911,0.00946045,0.0263977,0.0386047,-0.00843048,-0.0491333,0.124702,0.150681,0.00968933,-9.97986,0.0320816,0.00385284,-0.154152,-0.628204,-0.129929,0.00236511,-0.0483322,0.00507355
21,1,10.0097,-0.0012207,0.0102234,-2.42898,0.0541551,-0.0765889,0.0529073,0.072191,-0.0946723,0.144098,-0.127292,-0.0837911,0.0144196,0.0260544,0.0398254,-0.00476837,-0.0550079,0.125809,0.154686,-0.0212097,-9.97986,0.0252151,0.0025177,-0.142479,-0.50415,-0.117149,0.0063324,-0.0413132,0.00328064
21,2,10.0097,-0.00183105,0.0125122,-2.42959,0.0526292,-0.0768941,0.0538228,0.0694445,-0.0943672,0.144098,-0.127292,-0.0828756,0.0151443,0.0237656,0.0313187,-0.00320435,-0.0527954,0.117798,0.155487,-0.079155,-9.97986,0.0232697,-0.000648499,-0.13607,-0.353813,-0.0988388,0.00518799,-0.038681,-7.62939e-005
21,3,10.0097,-0.00152588,0.0138855,-2.42867,0.0538499,-0.075063,0.0529073,0.0685289,-0.0946723,0.143487,-0.127598,-0.0840963,0.0262833,0.0186157,0.0302124,-0.001297,-0.0489807,0.119057,0.151176,-0.101814,-9.97986,0.0229645,-0.0031662,-0.12886,-0.195084,-0.0886154,0.00282288,-0.0352859,7.62939e-005
21,4,10.0097,0.0012207,0.0135803,-2.42806,0.0541551,-0.0762837,0.0532125,0.07036,-0.0937568,0.143182,-0.127598,-0.0822652,0.0268555,0.0133896,0.0249863,0.00366211,-0.0474548,0.120926,0.157471,-0.105934,-9.97986,0.0330353,0.00324249,-0.122757,-0.0550842,-0.0769424,0.00652313,-0.0278854,-0.00209808
21,5,10.0097,0.000610352,0.01297,-2.42745,0.0550706,-0.0747579,0.0544332,0.0694445,-0.0937568,0.145318,-0.126072,-0.0828756,0.0297928,0.0069046,0.0188065,0.00801086,-0.0499725,0.119934,0.151062,-0.0909805,-9.97986,0.0398636,0.00709534,-0.116959,0.0588989,-0.0695801,0.00415802,-0.0236511,-0.00556946
21,6,10.0097,0.000610352,0.0088501,-2.42745,0.0553758,-0.0744527,0.0535176,0.0697496,-0.0931465,0.144403,-0.126072,-0.0816549,0.0232697,0.00225067,0.0128937,0.00907898,-0.0485229,0.110054,0.150566,-0.0591278,-9.97986,0.04776,0.00244141,-0.111885,0.139732,-0.0567245,0.00171661,-0.0178146,-0.00701904
21,7,10.0097,0.00213623,0.010376,-2.42745,0.0553758,-0.0744527,0.0535176,0.0694445,-0.0934516,0.145318,-0.126072,-0.0810445,0.0218964,0.00854492,0.0113297,0.00862122,-0.045166,0.111008,0.146446,-0.0467682,-9.97986,0.0510788,0.00217438,-0.0960159,0.24807,-0.0477219,0.001297,-0.00679016,-0.00926971
21,8,10.0097,0.00152588,0.0126648,-2.42592,0.0550706,-0.0744527,0.0538228,0.0709703,-0.0934516,0.146234,-0.125461,-0.0789083,0.0157166,0.0125122,0.00965118,-0.00423431,-0.0443649,0.110245,0.140839,-0.0278091,-9.97986,0.0559998,-0.00404358,-0.0891113,0.396004,-0.0411224,-0.00198364,-0.00171661,-0.0117493
21,9,10.0097,0.0012207,0.0160217,-2.42684,0.0559862,-0.0741475,0.0550435,0.07036,-0.0913154,0.146234,-0.123935,-0.0767721,0.0160599,0.00980377,0.0133896,-0.0185776,-0.0436401,0.110168,0.139122,-0.0192261,-9.97986,0.0575256,-0.00259399,-0.0669861,0.574074,-0.0298309,-0.00152588,0.01091,-0.0136185
22,0,10.0097,0.000305176,0.0164795,-2.4247,0.0559862,-0.0735371,0.054128,0.0724962,-0.0919257,0.148065,-0.124241,-0.0776876,0.0229645,-0.00427246,0.0165939,-0.0191498,-0.040741,0.111732,0.135918,-0.0239182,-9.97986,0.0551224,-0.00492096,-0.0588226,0.74173,-0.0165939,-0.00205994,0.0253296,-0.0165939
22,1,10.0097,0.000610352,0.0115967,-2.42684,0.0559862,-0.0735371,0.054128,0.0712755,-0.0913154,0.146539,-0.124241,-0.0776876,0.0287247,0.00637054,0.0154495,-0.0102997,-0.0392914,0.106773,0.13073,-0.0124741,-9.97986,0.0421906,-0.00312805,-0.0491714,0.839195,0.000190735,-0.00709534,0.0342178,-0.018425
22,2,10.0097,0.00152588,0.00900269,-2.42348,0.0575121,-0.073232,0.0547383,0.0706652,-0.0919257,0.147455,-0.124241,-0.0786031,0.0247192,0.0141525,0.0175858,-0.0245285,-0.0314713,0.0999832,0.130844,0.0154495,-9.97986,0.0331497,0.0019455,-0.0358963,0.899239,0.0178146,-0.00259399,0.0495148,-0.0173187
22,3,10.0097,0.000610352,0.00732422,-2.4247,0.0569017,-0.0741475,0.0550435,0.0697496,-0.0919257,0.146844,-0.124241,-0.080129,0.0220108,0.0205994,0.0226974,-0.0479507,-0.0233459,0.107422,0.130844,0.0379181,-9.97986,0.0230789,0.00263214,-0.0222397,0.94593,0.0240707,-0.00141144,0.0636673,-0.0201035
22,4,10.0097,0.000610352,0.00595093,-2.42684,0.0559862,-0.0738423,0.0535176,0.0520494,-0.0949775,0.146539,-0.126987,-0.0798238,0.0234222,0.0206375,0.0249863,-0.0270844,-0.0233459,0.110359,0.130081,0.0414658,-9.97986,0.017662,0.00514984,-0.0111771,1.00616,0.0358963,-0.00480652,0.0728989,-0.0162125
22,5,10.0097,-0.000305176,0.00762939,-2.42592,0.0569017,-0.0744527,0.0547383,0.0569322,-0.0928413,0.148065,-0.126377,-0.080129,0.0203323,0.0149918,0.0254059,-0.0164413,-0.0226593,0.109787,0.125084,0.0206375,-9.97986,0.0267792,0.00984192,-0.00141144,1.10111,0.0452423,-0.00385284,0.0816727,-0.0226212
22,6,10.0097,-0.0012207,0.0105286,-2.42653,0.0547655,-0.075063,0.054128,0.0660875,-0.0916206,0.144403,-0.126377,-0.0786031,0.0199127,0.0221634,0.0331879,-0.027771,-0.0260925,0.113945,0.115013,-0.0107956,-9.97986,0.0372314,0.00816345,0.0182724,1.23055,0.058136,0.00087738,0.0934601,-0.0237274
22,7,10.0097,0.0012207,0.0123596,-2.42684,0.055681,-0.0747579,0.0535176,0.0718859,-0.0931465,0.146539,-0.126072,-0.0798238,0.0146484,0.0230026,0.035553,-0.0341415,-0.0176239,0.114861,0.0972748,-0.0130844,-9.97986,0.0349808,0.00270844,0.0253296,1.24996,0.0714874,-0.00221252,0.102921,-0.0285721
22,8,10.0097,0.000305176,0.0138855,-2.42684,0.0550706,-0.0753682,0.0544332,0.0850084,-0.090705,0.145318,-0.124546,-0.0798238,0.014534,0.019722,0.03685,-0.038414,-0.0220108,0.109444,0.0805283,0.000991821,-9.97986,0.0373077,0.00144958,0.0363922,1.24996,0.0792694,-0.00415802,0.10685,-0.0311279
22,9,10.0097,0.00152588,0.0138855,-2.42806,0.0532396,-0.0765889,0.0522969,0.0798204,-0.0931465,0.141656,-0.126377,-0.0828756,0.0157547,0.00904083,0.0378036,-0.0481415,-0.0275803,0.104179,0.0703049,0.0130081,-9.97986,0.0239563,0.000991821,0.0475311,1.24996,0.0888824,-0.00370026,0.112495,-0.0319672
23,0,10.0097,-0.00152588,0.0111389,-2.42928,0.0538499,-0.0768941,0.0516866,0.0715807,-0.095893,0.142877,-0.127903,-0.0834859,0.0119781,0.0121689,0.0384903,-0.0684738,-0.0321198,0.107231,0.0556183,0.0181198,-9.97986,0.0232315,-0.00110626,0.0473785,1.24996,0.0946045,-7.62939e-005,0.111961,-0.0362015
23,1,10.0097,0.000610352,0.00946045,-2.42928,0.0541551,-0.0762837,0.0522969,0.0700548,-0.0937568,0.143182,-0.127903,-0.0840963,0.00785828,0.0168228,0.0420761,-0.0757217,-0.0352097,0.104485,0.0498962,0.0160217,-9.97986,0.0239944,0.000114441,0.0491714,1.24996,0.10067,-0.00358582,0.114212,-0.0377274
23,2,10.0097,-0.000610352,0.00823975,-2.42928,0.0541551,-0.0765889,0.0516866,0.0694445,-0.094062,0.144403,-0.128208,-0.0850118,0.0094223,0.00648499,0.0439453,-0.0635529,-0.0380325,0.102654,0.0461578,0.0150681,-9.97986,0.0161743,-0.00270844,0.0391769,1.24996,0.113907,-0.00362396,0.116768,-0.0373077
23,3,10.0097,0.000305176,0.00320435,-2.42898,0.0538499,-0.0762837,0.0522969,0.067003,-0.0949775,0.142877,-0.126987,-0.0862325,0.0113678,0.00488281,0.0447083,-0.0419617,-0.0431824,0.0939941,0.0397491,0.00343323,-9.97986,0.0174713,-0.000762939,0.042305,1.24996,0.121689,-0.00427246,0.117874,-0.039978
23,4,10.0097,0.000305176,-0.00488281,-2.42776,0.0535448,-0.0765889,0.0519917,0.0685289,-0.094062,0.143792,-0.126987,-0.0886739,0.0114822,0.0044632,0.050087,-0.0357437,-0.0415802,0.0931168,0.0402832,0.00705719,-9.97986,0.0193787,-0.00465393,0.0358582,1.24996,0.134811,-0.00419617,0.117264,-0.0409698
23,5,10.0097,-0.0012207,-0.00915527,-2.42837,0.0547655,-0.0753682,0.0526021,0.0694445,-0.0946723,0.145318,-0.125156,-0.0880636,0.00930786,0.00850677,0.0473404,-0.0154877,-0.0364685,0.086174,0.0295258,0.0069809,-9.97986,0.0131226,-0.00366211,0.032959,1.24996,0.146523,-0.00278473,0.114594,-0.041275
23,6,10.0097,-0.000610352,-0.012207,-2.42623,0.0544603,-0.0747579,0.0532125,0.0685289,-0.0937568,0.145013,-0.127598,-0.0892843,0.00988007,0.01297,0.0444031,0.01194,-0.029068,0.0867844,0.0164795,0.0110626,-9.97986,0.0177002,0.00293732,0.043869,1.24996,0.159187,-0.00102997,0.111847,-0.0462341
23,7,10.0097,-0.000305176,-0.0151062,-2.42592,0.0550706,-0.0747579,0.0535176,0.0712755,-0.0943672,0.144708,-0.125461,-0.0886739,0.00499725,0.00087738,0.0306702,0.041275,-0.0255966,0.0858307,-0.000457764,0.0131226,-9.97986,0.0137711,-0.00114441,0.0333023,1.24996,0.159798,-0.00629425,0.112953,-0.0476074
23,8,10.0097,-0.000305176,-0.0170898,-2.42684,0.0553758,-0.0756734,0.0535176,0.0709703,-0.0919257,0.145624,-0.125461,-0.0883688,0.00694275,-0.000495911,0.0241089,0.0501633,-0.00907898,0.092659,-0.0166321,0.0157166,-9.97986,0.0133896,0.000686646,0.0371552,1.09596,0.167007,-0.0030899,0.106354,-0.0433731
23,9,10.0097,0.000915527,-0.0154114,-2.4247,0.0559862,-0.0744527,0.0544332,0.0712755,-0.0913154,0.147149,-0.124546,-0.0880636,0.0062561,0.0147247,0.0255585,0.0235367,0.0025177,0.0919724,-0.0309753,0.0160217,-9.97986,0.0172806,-0.00434875,0.0216293,0.946999,0.174599,-0.00301361,0.108948,-0.0379181
24,0,10.0097,-0.000610352,-0.0117493,-2.4244,0.0565965,-0.0744527,0.054128,0.0706652,-0.0919257,0.147149,-0.124546,-0.0834859,0.0105286,0.0477982,0.0360489,0.065918,0.0105286,0.0920486,-0.0439072,0.0163269,-9.97986,0.0159073,-0.0111008,-0.00732422,0.848808,0.180359,-0.00640869,0.111771,-0.0440216
24,1,10.0097,0.000610352,-0.00915527,-2.4247,0.0572069,-0.0744527,0.0550435,0.0706652,-0.0922309,0.145624,-0.123935,-0.0844015,0.0128555,0.0527191,0.0399017,0.124741,0.0162506,0.0875473,-0.042038,0.0140381,-9.97986,0.0165939,-0.00923157,-0.0230408,0.766754,0.191154,-0.00312805,0.114746,-0.0413132
24,2,10.0097,0.000915527,-0.00793457,-2.42531,0.0565965,-0.0738423,0.0547383,0.07036,-0.0928413,0.14776,-0.124241,-0.0825704,0.0094223,0.0542831,0.0428391,0.0893784,0.0195694,0.0828552,-0.0406265,0.00728607,-9.97986,0.0110626,-0.00614166,-0.0411224,0.697899,0.198288,-0.00453949,0.110359,-0.0351715
24,3,10.0097,0.000610352,-0.00488281,-2.42776,0.0575121,-0.0741475,0.0556539,0.0706652,-0.0919257,0.145929,-0.12302,-0.0825704,0.0125885,0.0536728,0.0430679,0.0293732,0.0246811,0.0868988,-0.0297928,0.0114059,-9.97986,0.0147629,-0.00415802,-0.0503922,0.660896,0.196877,-0.00530243,0.101357,-0.0315094
24,4,10.0097,0.000610352,-0.00595093,-2.42592,0.0562914,-0.073232,0.0522969,0.0489977,-0.0946723,0.146844,-0.126072,-0.0837911,0.0128555,0.0419617,0.0336838,0.0419617,0.0318146,0.080986,-0.02491,0.0154877,-9.97986,0.0147247,0.00259399,-0.053215,0.607414,0.201874,-0.00652313,0.100784,-0.0212097
24,5,10.0097,0.000915527,-0.0050354,-2.42562,0.0562914,-0.0744527,0.0538228,0.0551012,-0.0922309,0.145929,-0.125156,-0.0825704,0.00602722,0.0352859,0.0310898,0.0692749,0.0405884,0.080986,-0.0205231,0.0202179,-9.97986,0.0175095,-3.8147e-005,-0.0650406,0.576019,0.214615,-0.00602722,0.103607,-0.0177002
24,6,10.0097,0,0.000457764,-2.42653,0.0559862,-0.0753682,0.0538228,0.0642565,-0.0916206,0.146234,-0.125156,-0.0816549,0.00675201,0.0284958,0.032959,0.0605011,0.042305,0.0801086,-0.0294113,0.0218201,-9.97986,0.0148773,-0.00038147,-0.078125,0.620956,0.226593,-0.00507355,0.0980759,-0.0122833
24,7,10.0097,0.0012207,0.00396729,-2.42592,0.0550706,-0.0747579,0.0529073,0.0700548,-0.0919257,0.146539,-0.125461,-0.0822652,0.0148773,0.025444,0.0294876,0.0490189,0.0488663,0.0792313,-0.0294495,0.0324249,-9.97986,0.014801,-0.00183105,-0.0992203,0.674019,0.229263,-0.0114441,0.0925446,-0.0159454
24,8,10.0097,0.000305176,0.00228882,-2.42776,0.0544603,-0.0759786,0.0535176,0.0853136,-0.0922309,0.143182,-0.124851,-0.0837911,0.011673,0.0338364,0.0306702,0.0512314,0.0598907,0.0865173,-0.030899,0.0275803,-9.97986,0.0088501,0.00301361,-0.10807,0.676804,0.225525,-0.00740051,0.0935745,-0.0198364
24,9,10.0097,-0.0012207,0.00396729,-2.42745,0.0541551,-0.075063,0.0519917,0.0792101,-0.0931465,0.142572,-0.126377,-0.0850118,0.00736237,0.0291443,0.0319672,0.0515366,0.0651932,0.0937653,-0.0327301,0.0255203,-9.97986,0.0161743,0.00106812,-0.115242,0.726204,0.227318,-0.00579834,0.0959778,-0.0226212
25,0,10.0097,0,0.00457764,-2.42959,0.0547655,-0.0756734,0.0519917,0.0694445,-0.0955879,0.143792,-0.126377,-0.0859274,0.00431061,0.0345993,0.0299835,0.0357437,0.0690842,0.0979233,-0.0372696,0.0256348,-9.97986,0.0138092,-0.000801086,-0.129395,0.778923,0.226212,-0.0094223,0.0884247,-0.0340271
25,1,10.0097,-0.000915527,0.00305176,-2.42867,0.0535448,-0.0753682,0.0529073,0.0697496,-0.0949775,0.143792,-0.127903,-0.0850118,0.00457764,0.0301743,0.0154877,0.0350189,0.0786972,0.0995255,-0.044632,0.0267029,-9.97986,0.0143814,0.00217438,-0.131111,0.805779,0.221558,-0.00743866,0.0747681,-0.0328445
25,2,10.0097,-0.000915527,0.00244141,-2.42867,0.0529344,-0.0756734,0.0513814,0.0688341,-0.0946723,0.142877,-0.127903,-0.0874532,0.00923157,0.0363922,0.00366211,0.0311661,0.0827789,0.106735,-0.0490189,0.0303268,-9.97986,0.0132751,0.00343323,-0.130539,0.815811,0.223885,-0.00846863,0.0585556,-0.0320053
25,3,10.0097,-0.000915527,-0.00350952,-2.42837,0.0547655,-0.0762837,0.0532125,0.0743273,-0.095893,0.143792,-0.128208,-0.0883688,0.0075531,0.0287628,-0.0109863,0.0297546,0.083847,0.107994,-0.0592422,0.0262451,-9.97986,0.0135803,-0.00465393,-0.127182,0.746574,0.222473,-0.00499725,0.0547409,-0.0283813
25,4,10.0097,0,-0.0062561,-2.42867,0.0541551,-0.0759786,0.0529073,0.0688341,-0.095893,0.141961,-0.127292,-0.0892843,0.00804901,0.0151825,-0.0193405,0.0218964,0.0804138,0.103645,-0.0629044,0.0214386,-9.97986,0.0139999,-0.00968933,-0.121574,0.663948,0.217514,-0.00835419,0.0518036,-0.0301361
25,5,10.0097,-0.000915527,-0.00732422,-2.42806,0.0547655,-0.075063,0.0532125,0.0694445,-0.0943672,0.143487,-0.127598,-0.0877584,0.00789642,0.00839233,-0.0226974,0.0150681,0.0792313,0.102425,-0.0597382,0.0241089,-9.97986,0.0105286,-0.0122833,-0.114212,0.572701,0.214882,-0.00591278,0.0504303,-0.0320053
25,6,10.0097,0.00244141,-0.00961304,-2.42806,0.0547655,-0.0744527,0.0532125,0.0694445,-0.0931465,0.143792,-0.125766,-0.0874532,0.00671387,0.00453949,-0.0175476,0.0128174,0.0807571,0.105629,-0.0638199,0.0229645,-9.97986,0.0128937,-0.0128555,-0.114632,0.459938,0.210533,-0.00629425,0.0471497,-0.0267792
25,7,10.0097,0.000915527,-0.00900269,-2.42714,0.0544603,-0.0744527,0.054128,0.0700548,-0.0934516,0.145013,-0.126377,-0.0868429,0.0112915,0.0191116,-0.00999451,0.00923157,0.0788879,0.107384,-0.061264,0.02491,-9.97986,0.0104523,-0.0141144,-0.124207,0.359688,0.199013,-0.00453949,0.0418091,-0.0281525
25,8,10.0097,0.00244141,-0.00915527,-2.42592,0.0559862,-0.0744527,0.0532125,0.07036,-0.0931465,0.145624,-0.125461,-0.0859274,0.00717163,0.0395966,-0.0115204,0.00617981,0.0765228,0.11116,-0.0550079,0.0248718,-9.97986,0.0112915,-0.0181961,-0.123711,0.258942,0.189476,-0.00377655,0.0384521,-0.0290298
25,9,10.0097,-0.000915527,-0.00854492,-2.42501,0.0559862,-0.0735371,0.0544332,0.0718859,-0.0916206,0.145318,-0.124546,-0.0834859,0.00862122,0.0403595,-0.00392914,-0.00324249,0.0806046,0.105324,-0.0562668,0.0299072,-9.97986,0.0105667,-0.0185776,-0.113525,0.176506,0.181656,-0.000152588,0.030365,-0.0262451
26,0,10.0097,0,-0.00732422,-2.42379,0.0559862,-0.0738423,0.055959,0.0715807,-0.0903999,0.145929,-0.124851,-0.0831808,0.00926971,0.0305176,-0.0082016,-0.00114441,0.0785828,0.10025,-0.0466537,0.0330734,-9.97986,0.0113678,-0.018692,-0.0981903,0.10273,0.172424,0.00263214,0.0318146,-0.0213623
26,1,10.0097,-0.0012207,-0.00686646,-2.42165,0.0569017,-0.0744527,0.0562642,0.0694445,-0.0916206,0.146539,-0.124851,-0.0831808,0.0111771,0.0268555,-0.0113678,0.02491,0.083313,0.0906372,-0.050354,0.0331116,-9.97986,0.0125122,-0.0191498,-0.0732803,0.0442123,0.157013,-0.000610352,0.0338364,-0.0206375
26,2,10.0097,0.000915527,-0.00137329,-2.42501,0.0562914,-0.0738423,0.0571797,0.0718859,-0.0910102,0.14776,-0.122715,-0.0804342,0.0108337,0.0224304,-0.00804901,0.0380707,0.085907,0.0920486,-0.0435638,0.0341415,-9.97986,0.0131226,-0.0123215,-0.0561905,0.0577927,0.152626,0.0031662,0.0356674,-0.00873566
26,3,10.0097,0.000610352,0.00213623,-2.4244,0.0587328,-0.0726216,0.0556539,0.0728014,-0.0910102,0.14776,-0.12363,-0.0798238,0.00896454,0.0326157,-0.00934601,0.0198364,0.0870514,0.08461,-0.0383759,0.029335,-9.97986,0.0115585,-0.0110626,-0.025177,0.108376,0.141563,0.00110626,0.0285721,-0.00946045
26,4,10.0097,0.00152588,0.000762939,-2.42653,0.055681,-0.0723164,0.054128,0.0517443,-0.0955879,0.144708,-0.126072,-0.0825704,0.00953674,0.0227737,-0.0107574,0.0143051,0.0917053,0.0756836,-0.0346756,0.0330353,-9.97986,0.013504,-0.00801086,-0.0156403,0.115509,0.130959,-0.000457764,0.0203323,-0.00648499
26,5,10.0097,0.00183105,-0.00442505,-2.42592,0.0550706,-0.0744527,0.0550435,0.0551012,-0.094062,0.145318,-0.125766,-0.0834859,0.0117111,0.0031662,-0.00991821,0.00915527,0.0951385,0.0754547,-0.0344086,0.030632,-9.97986,0.0143814,-0.010376,-0.0172424,0.0447464,0.119629,-0.00419617,0.0192261,-0.00385284
26,6,10.0097,0,-0.00473022,-2.42776,0.0553758,-0.0753682,0.054128,0.065172,-0.0925361,0.145624,-0.126072,-0.0840963,0.0105286,0.00938416,-0.00549316,0.00453949,0.101814,0.0726318,-0.0248337,0.0401306,-9.97986,0.0106049,-0.0196457,-0.0163269,-0.0135422,0.105553,-0.00370026,0.00984192,0.00469208
26,7,10.0097,-0.000305176,-0.00289917,-2.42653,0.0553758,-0.0741475,0.0538228,0.0709703,-0.0928413,0.145624,-0.125156,-0.0847066,0.00789642,0.0165939,0.001297,0.00038147,0.108223,0.0674438,-0.0299072,0.0523758,-9.97986,0.014534,-0.0270844,-0.00976563,-0.0321198,0.0922394,-0.00511169,-0.000343323,0.00679016
26,8,10.0097,0.00213623,-0.0012207,-2.42745,0.0550706,-0.0753682,0.054128,0.0868395,-0.0910102,0.145929,-0.125156,-0.0831808,0.0110626,0.030632,0.00648499,0.00347137,0.10746,0.0687027,-0.0162125,0.0624084,-9.97986,0.0117493,-0.0331879,-0.00659943,-0.0426865,0.0786209,-0.00225067,-0.00114441,0.00720978
26,9,10.0097,0.000915527,0.00411987,-2.42928,0.0547655,-0.0762837,0.0526021,0.0785997,-0.0955879,0.143182,-0.126987,-0.0850118,0.0120163,0.0256348,0.00297546,0.0117874,0.112991,0.0657272,-0.0150299,0.0638962,-9.97986,0.00953674,-0.0294495,-0.001297,0.0284195,0.0605774,-0.00431061,-0.00530243,0.00938416
27,0,10.0097,0.000915527,0.00610352,-2.42989,0.0541551,-0.0759786,0.0516866,0.0724962,-0.0949775,0.142877,-0.126377,-0.0850118,0.0104141,0.0272369,0.00221252,0.0215149,0.118561,0.0688553,-0.0105286,0.0540924,-9.97986,0.00873566,-0.0296402,0.00450134,0.109291,0.0468445,-0.0012207,-0.0088501,0.0120926
27,1,10.0097,0.000610352,0.00488281,-2.42867,0.0541551,-0.0753682,0.0519917,0.0676134,-0.0949775,0.144403,-0.129734,-0.085317,0.0117874,0.0341415,0.0168228,0.0162125,0.119133,0.0722504,-0.0133133,0.0372314,-9.97986,0.0109482,-0.0314713,0.0135422,0.175209,0.0334549,-0.00164032,-0.0138855,0.010643
27,2,10.0097,0.000305176,0.00411987,-2.42989,0.0529344,-0.075063,0.0513814,0.0682238,-0.0961982,0.142877,-0.126987,-0.0865377,0.00984192,0.0312805,0.0209808,0.0159454,0.120926,0.0702286,-0.00614166,0.0487137,-9.97986,0.0137329,-0.0256348,0.0234604,0.210037,0.0224304,-0.00167847,-0.0132751,0.0132751
27,3,10.0097,0.00244141,0.00198364,-2.4302,0.0526292,-0.0759786,0.0532125,0.0685289,-0.0943672,0.142877,-0.127903,-0.0859274,0.00888824,0.0277328,0.025177,0.0108719,0.125084,0.0704193,-0.00312805,0.0547028,-9.97986,0.0128937,-0.0249481,0.0276947,0.238533,0.00545502,-0.00328064,-0.0170517,0.0137329
27,4,10.0097,-0.000305176,0.00686646,-2.42837,0.0538499,-0.0771993,0.054128,0.0688341,-0.0952827,0.144403,-0.126072,-0.0840963,0.00968933,0.0302887,0.0312805,0.0101471,0.122871,0.0780487,-0.00198364,0.0498962,-9.97986,0.0115585,-0.0324631,0.0344849,0.34214,-0.00175476,-0.00232697,-0.018158,0.0149155
27,5,10.0097,0.0012207,0.00549316,-2.42867,0.0538499,-0.075063,0.0522969,0.0694445,-0.0943672,0.143792,-0.126072,-0.0844015,0.0132751,0.0272751,0.0331879,0.00335693,0.122948,0.0796509,0.00164032,0.0334549,-9.97986,0.00270844,-0.0350189,0.0364685,0.385933,-0.0186157,-0.00141144,-0.0185013,0.0172043
27,6,10.0097,0,0.00442505,-2.42776,0.0547655,-0.0756734,0.0547383,0.07036,-0.0934516,0.144098,-0.125766,-0.0834859,0.0075531,0.0157166,0.038147,0.0030899,0.119591,0.08255,-0.000610352,0.0268173,-9.97986,0.00598907,-0.0354767,0.0455475,0.426636,-0.0265884,-0.0038147,-0.0217438,0.0180435
27,7,10.0097,-0.0012207,0.00564575,-2.42837,0.0553758,-0.0756734,0.054128,0.0706652,-0.0937568,0.143792,-0.126682,-0.0834859,0.00141144,0.00991821,0.0394058,0.00152588,0.121384,0.084343,0.000419617,0.0205612,-9.97986,0.00556946,-0.0363922,0.0508881,0.478935,-0.0371552,0.00137329,-0.025444,0.019722
27,8,10.0097,0,0.00335693,-2.42684,0.0553758,-0.0741475,0.0535176,0.07036,-0.0937568,0.144708,-0.124851,-0.0822652,0.00537872,0.0184631,0.0374603,-0.00270844,0.124168,0.0881195,-0.00110626,0.00846863,-9.97986,0.0069046,-0.042038,0.0499344,0.508537,-0.0539398,-0.000953674,-0.0263977,0.01297
27,9,10.0097,0.000610352,0.00564575,-2.4247,0.0559862,-0.0723164,0.0529073,0.0700548,-0.0922309,0.147149,-0.124546,-0.0795187,0.0110626,0.0192261,0.0324631,-0.00331879,0.118561,0.0876617,-0.00450134,-0.00144958,-9.97986,0.00247955,-0.0365448,0.0594711,0.57827,-0.0617599,0.00167847,-0.0243378,0.0147247
28,0,10.0097,-0.00305176,0.00671387,-2.42501,0.0559862,-0.0729268,0.0553487,0.0712755,-0.0913154,0.144098,-0.124241,-0.0798238,0.0037384,0.0162506,0.0273132,-0.00549316,0.119209,0.088501,-0.00778198,-0.0183868,-9.97986,0.00782013,-0.0361633,0.0618362,0.640221,-0.0719833,0.0025177,-0.0279999,0.0164413
28,1,10.0097,0.000915527,0.00274658,-2.42684,0.0559862,-0.0744527,0.0556539,0.0700548,-0.0922309,0.147455,-0.12302,-0.080129,0.00484467,-0.00415802,0.0146484,-0.0205612,0.111542,0.0857544,-0.0126266,-0.0380707,-9.97986,0.00656128,-0.0377655,0.0669098,0.652809,-0.0787354,0.00213623,-0.0278091,0.0151443
28,2,10.0097,0.00305176,0.00244141,-2.42501,0.0572069,-0.0741475,0.0547383,0.0715807,-0.090705,0.147149,-0.125156,-0.080129,0.00255585,-0.0228119,0.0118637,-0.0318527,0.108337,0.0834274,-0.00411987,-0.000724792,-9.97986,-0.000190735,-0.0392151,0.0695038,0.665016,-0.0837326,0.00240326,-0.0243378,0.0201035
28,3,10.0097,0.00152588,0.00320435,-2.42501,0.055681,-0.0723164,0.0556539,0.0715807,-0.0916206,0.147149,-0.123935,-0.080129,0.00499725,-0.00385284,0.0164032,-0.018959,0.104256,0.0762558,-0.0018692,0.0265121,-9.97986,-0.00572205,-0.034256,0.0782013,0.700378,-0.091095,0.00522614,-0.030365,0.0222397
28,4,10.0097,0.000610352,0.000305176,-2.42623,0.0559862,-0.0744527,0.054128,0.0493029,-0.0949775,0.148065,-0.126072,-0.0825704,0.00862122,0.0356293,0.0240326,0.00408173,0.108223,0.0729752,0.00488281,0.0178146,-9.97986,-0.0123596,-0.0385666,0.0827789,0.694046,-0.0950623,0.00259399,-0.0243378,0.0237274
28,5,10.0097,0.000610352,-0.00305176,-2.42623,0.0553758,-0.0747579,0.0550435,0.0557115,-0.0937568,0.146234,-0.125461,-0.0837911,0.0113297,0.045166,0.0209427,-0.0131989,0.10231,0.0674057,0.015831,0.0125504,-9.97986,-0.0209808,-0.0362396,0.08564,0.641937,-0.099144,0.0069046,-0.0293732,0.0233078
28,6,10.0097,0.000915527,-0.00442505,-2.42684,0.0553758,-0.0738423,0.0538228,0.0654772,-0.0931465,0.145318,-0.125156,-0.0831808,0.0120163,0.0351715,0.0269699,-0.0281525,0.100899,0.0577545,0.0256729,0.019989,-9.97986,-0.0286102,-0.0338745,0.0937653,0.601196,-0.0997925,0.00225067,-0.0260544,0.026474
28,7,10.0097,0.00152588,-0.00549316,-2.42653,0.0553758,-0.0756734,0.0547383,0.0709703,-0.0922309,0.145013,-0.126377,-0.085317,0.0030899,0.0284195,0.0393677,-0.0337982,0.0981522,0.0490189,0.0293732,0.00682831,-9.97986,-0.0306702,-0.039978,0.0977325,0.518303,-0.107689,0.00518799,-0.0257111,0.0211334
28,8,10.0097,0.000915527,-0.00915527,-2.42745,0.0547655,-0.0747579,0.0550435,0.0850084,-0.0897895,0.145624,-0.124546,-0.0868429,0.00286102,0.0225449,0.0445557,-0.0446701,0.0906754,0.046463,0.0422668,-0.016861,-9.97986,-0.0143051,-0.0381851,0.107193,0.400276,-0.105019,0.00694275,-0.0257492,0.0245285
28,9,10.0097,0.0012207,-0.0100708,-2.42898,0.0541551,-0.0762837,0.0522969,0.0801256,-0.0928413,0.143792,-0.128208,-0.0889791,0.00293732,0.0259018,0.0406647,-0.0595093,0.0947952,0.0315857,0.0450516,-0.02491,-9.97986,-0.0123596,-0.0409317,0.108986,0.283585,-0.103531,0.00461578,-0.0285339,0.0243759
29,0,10.0097,0.000305176,-0.00915527,-2.42867,0.0541551,-0.0753682,0.0522969,0.072191,-0.0949775,0.144098,-0.126987,-0.0895895,0.00160217,0.0392151,0.0518036,-0.0507736,0.0891876,0.0239563,0.046196,-0.0292587,-9.97986,0.00408173,-0.033493,0.109215,0.195045,-0.104179,0.00728607,-0.0281525,0.0277328
29,1,10.0097,0.000610352,-0.0100708,-2.42928,0.0550706,-0.0744527,0.0526021,0.0706652,-0.0949775,0.143487,-0.126987,-0.0901998,0.00415802,0.048027,0.0502396,-0.0200272,0.0852203,0.0163269,0.0470734,-0.0485992,-9.97986,0.0182343,-0.0199127,0.120659,0.0875473,-0.101929,0.0110245,-0.0258636,0.0248718
29,2,10.0097,0.000610352,-0.0117493,-2.42959,0.0535448,-0.0762837,0.0516866,0.0694445,-0.0946723,0.142267,-0.126072,-0.0901998,0.00827789,0.0428772,0.0426865,0.032692,0.0825882,0.00137329,0.0564194,-0.0393295,-9.97986,0.0353241,-0.0164795,0.123901,-0.0424576,-0.101395,0.00873566,-0.0266266,0.0231934
29,3,10.0097,0.000915527,-0.0126648,-2.42928,0.0547655,-0.0762837,0.0529073,0.0691393,-0.0931465,0.143487,-0.127292,-0.0898946,0.0166321,0.0352859,0.0318527,0.0684357,0.0746155,-0.00869751,0.055809,0.00442505,-9.97986,0.0408936,-0.0170517,0.124817,-0.16983,-0.0977325,0.00564575,-0.0280762,0.0270844
29,4,10.0097,0.000305176,-0.00640869,-2.42867,0.0538499,-0.0753682,0.0526021,0.0691393,-0.0946723,0.142877,-0.127903,-0.0871481,0.0216675,0.020256,0.0180817,0.0774765,0.067215,-0.0199509,0.0593185,0.0520706,-9.97986,0.0503159,-0.0119781,0.132675,-0.182381,-0.0965881,0.00961304,-0.0290298,0.0289536
29,5,10.0097,0.000305176,0.0038147,-2.42776,0.0541551,-0.0744527,0.054128,0.0697496,-0.0937568,0.143487,-0.126072,-0.0828756,0.0249863,-0.00183105,0.00694275,0.0863647,0.0601196,-0.0361633,0.0598145,0.089035,-9.97986,0.0637436,-0.0112152,0.138512,-0.0759125,-0.0902557,0.00968933,-0.0334167,0.0210953
29,6,10.0097,-0.000610352,0.0128174,-2.42653,0.0553758,-0.0753682,0.0532125,0.07036,-0.0934516,0.144708,-0.126682,-0.0804342,0.0191879,0.00537872,-0.00659943,0.100899,0.053215,-0.0489044,0.0563049,0.100861,-9.97986,0.0603104,-0.00873566,0.140305,0.126419,-0.086937,0.00499725,-0.0324631,0.0223923
29,7,10.0097,-0.00244141,0.0189209,-2.42684,0.0562914,-0.075063,0.0522969,0.0691393,-0.0937568,0.145013,-0.126682,-0.0792135,0.0185776,0.0344849,-0.0223923,0.0929642,0.0488663,-0.0654221,0.061264,0.0838852,-9.97986,0.0548553,-0.0123978,0.147133,0.365829,-0.0776672,0.000114441,-0.0272751,0.0198746
29,8,10.0097,-0.000610352,0.0126648,-2.42562,0.0559862,-0.0741475,0.0538228,0.0706652,-0.0928413,0.146234,-0.125766,-0.0813497,0.0168228,0.0418091,-0.0246429,0.0743484,0.0415421,-0.0759506,0.0532532,0.0569153,-9.97986,0.0517654,-0.0228119,0.152779,0.439301,-0.0718689,0.00255585,-0.0315857,0.019722
29,9,10.0097,0.00305176,0.000762939,-2.42562,0.0550706,-0.0735371,0.0547383,0.0712755,-0.0928413,0.146844,-0.125766,-0.0825704,0.0164795,0.0258255,-0.0180435,0.0543594,0.0303268,-0.0857162,0.0508118,0.0365448,-9.97986,0.0454712,-0.0172806,0.152245,0.365257,-0.0653839,-0.00118256,-0.0339508,0.0169754
30,0,10.0097,0.000305176,-0.00717163,-2.4247,0.0562914,-0.0735371,0.0538228,0.0706652,-0.0910102,0.145624,-0.125461,-0.0847066,0.0114059,0.00087738,-0.0094223,0.0450516,0.0261307,-0.0995636,0.0515366,0.0141525,-9.97986,0.042038,-0.0137711,0.158882,0.232925,-0.0558472,0.00305176,-0.0390244,0.01297
30,1,10.0097,-0.000305176,-0.0120544,-2.4247,0.0569017,-0.0747579,0.0556539,0.0740221,-0.0916206,0.144708,-0.123935,-0.085317,0.0062561,-0.00511169,-0.00656128,0.0476837,0.011673,-0.106468,0.0435257,-0.0312424,-9.97986,0.0390244,-0.00759125,0.157509,0.0834274,-0.0503159,0.00221252,-0.0424957,0.0123215
30,2,10.0097,-0.000610352,-0.0119019,-2.4244,0.0565965,-0.0747579,0.0547383,0.0718859,-0.0919257,0.14776,-0.124546,-0.0825704,0.00396729,0.0121307,-3.8147e-005,0.0408936,0.0119019,-0.114021,0.0477219,-0.0758362,-9.97986,0.0334167,0.00549316,0.161743,-0.0460815,-0.0401688,0.00675201,-0.0427628,0.0138092
30,3,10.0097,0.000610352,-0.0123596,-2.42501,0.0569017,-0.0735371,0.0556539,0.0715807,-0.090705,0.147149,-0.12363,-0.0837911,0.00900269,0.0236511,0.00999451,0.0302505,0.000648499,-0.125847,0.0452805,-0.0813293,-9.97986,0.0304413,0.011673,0.166817,-0.176277,-0.0302124,0.0056839,-0.0473404,0.0106049
30,4,10.0097,0,-0.0115967,-2.42745,0.0559862,-0.0744527,0.0538228,0.0520494,-0.0937568,0.14776,-0.125461,-0.0844015,0.0120544,0.0373459,0.0149918,0.0313568,-0.00793457,-0.132294,0.0544739,-0.0507736,-9.97986,0.0292587,0.00350952,0.169601,-0.275993,-0.0193405,0.00366211,-0.0499725,0.00694275
30,5,10.0097,0.000915527,-0.0112915,-2.42592,0.0559862,-0.0741475,0.054128,0.0551012,-0.0922309,0.146539,-0.126072,-0.0859274,0.00358582,0.0551987,0.0239182,0.0259399,-0.0221252,-0.143433,0.0523758,-0.0324631,-9.97986,0.0225067,-0.00419617,0.169868,-0.392685,-0.0107956,0.00270844,-0.0556564,0.00648499
30,6,10.0097,0.000305176,-0.012207,-2.42623,0.055681,-0.0738423,0.054128,0.0639513,-0.0925361,0.145624,-0.124241,-0.0868429,0.00343323,0.0502777,0.0267792,0.0247192,-0.0366592,-0.156326,0.0538254,-0.0126266,-9.97986,0.0208282,0.0018692,0.167465,-0.520668,-0.00587463,0.00259399,-0.0549698,0.0018692
30,7,10.0097,0.000610352,-0.0109863,-2.42714,0.0541551,-0.0747579,0.0544332,0.0709703,-0.0922309,0.144708,-0.125156,-0.0859274,0.00850677,0.0208664,0.0288773,0.0275421,-0.0428391,-0.160904,0.0534821,0.026741,-9.97986,0.0195313,-0.0019455,0.16777,-0.634575,0.0037384,0.00152588,-0.0606537,-0.00236511
30,8,10.0097,0,-0.00961304,-2.42653,0.0541551,-0.0741475,0.0544332,0.0840929,-0.0913154,0.144403,-0.124546,-0.0871481,0.00667572,-0.00965118,0.0218964,0.0191116,-0.0587845,-0.179253,0.0496292,0.0364685,-9.97986,0.0181961,0.0062561,0.169601,-0.740128,0.0117111,0.00377655,-0.0627899,-0.00102997
30,9,10.0097,-0.0012207,-0.00915527,-2.42928,0.0541551,-0.0762837,0.0522969,0.0798204,-0.0943672,0.143487,-0.126377,-0.0883688,0.00431061,-0.00404358,0.0169373,0.0183487,-0.0690842,-0.185852,0.0533676,0.0378036,-9.97986,0.0157928,0.0019455,0.168686,-0.833206,0.017395,0.000152588,-0.0648499,-0.00621796
31,0,10.0097,0,-0.00900269,-2.4302,0.0532396,-0.0768941,0.0529073,0.0724962,-0.0955879,0.144098,-0.127292,-0.0886739,0.0111771,0.00823975,0.00701904,0.0178909,-0.0759506,-0.197182,0.0502014,0.0429153,-9.97986,0.0178146,0.00991821,0.16819,-0.916748,0.0231171,-0.00419617,-0.0654602,-0.00598907
31,1,10.0097,-0.000915527,-0.00900269,-2.42898,0.0532396,-0.0753682,0.0535176,0.0700548,-0.0946723,0.142877,-0.127598,-0.0886739,0.0177383,0.00522614,-0.000419617,0.0162888,-0.088501,-0.204849,0.050087,0.0254059,-9.97986,0.0143051,0.0183868,0.161667,-0.993881,0.0320053,-0.00434875,-0.0686264,-0.0119019
31,2,10.0097,0,-0.00579834,-2.42959,0.0523241,-0.0759786,0.0519917,0.0694445,-0.095893,0.142877,-0.127903,-0.0889791,0.0164795,0.000801086,0.0019455,0.00766754,-0.101814,-0.216942,0.0476074,-0.00888824,-9.97986,0.0108337,0.02491,0.168419,-1.02478,0.039444,-0.00247955,-0.0678253,-0.0133133
31,3,10.0097,0.000915527,-0.00411987,-2.42928,0.0544603,-0.0759786,0.0519917,0.0682238,-0.0943672,0.143792,-0.127903,-0.0886739,0.0137329,-0.000495911,0.00328064,-0.0121689,-0.109901,-0.223732,0.0436401,-0.0100708,-9.97986,0.00743866,0.0310135,0.161934,-1.05045,0.0421524,-0.00312805,-0.0695801,-0.0162125
31,4,10.0097,0.000610352,-0.00518799,-2.42898,0.0532396,-0.0747579,0.0532125,0.0700548,-0.0946723,0.143792,-0.126987,-0.0886739,0.0185013,-0.00564575,0.00812531,-0.00995636,-0.119057,-0.227776,0.0485229,-0.00576019,-9.97986,0.0087738,0.0283813,0.160103,-1.10241,0.051384,-0.00102997,-0.0677109,-0.018959
31,5,10.0097,0,-0.00457764,-2.42776,0.0550706,-0.073232,0.0529073,0.0694445,-0.0943672,0.144403,-0.126682,-0.0859274,0.0166702,-0.00484467,0.00919342,-0.00930786,-0.128555,-0.231972,0.0389481,-0.0101852,-9.97986,0.00541687,0.0408554,0.158348,-1.13945,0.0547791,0.00221252,-0.0736618,-0.0201416
31,6,10.0097,0.0012207,-0.00350952,-2.42745,0.0553758,-0.0741475,0.054128,0.0706652,-0.094062,0.145318,-0.126072,-0.0859274,0.0159836,0.00797272,0.00217438,-0.00484467,-0.135918,-0.238762,0.0370026,-0.015564,-9.97986,0.00679016,0.0375366,0.155678,-1.17588,0.062027,-0.00114441,-0.0717163,-0.0216293
31,7,10.0097,0.00152588,-0.00442505,-2.42684,0.0547655,-0.0741475,0.0538228,0.0715807,-0.0931465,0.145624,-0.126072,-0.0859274,0.0162125,0.018692,0.00133514,-0.00343323,-0.142365,-0.231018,0.0340271,-0.0289154,-9.97986,0.00862122,0.0354004,0.150566,-1.2252,0.066452,-0.00171661,-0.0732803,-0.0239563
31,8,10.0097,0.0012207,-0.00244141,-2.42714,0.0553758,-0.073232,0.054128,0.072191,-0.0919257,0.145013,-0.125766,-0.0831808,0.0191116,0.0189972,-0.00499725,-0.00114441,-0.145493,-0.234947,0.0378418,-0.0200653,-9.97986,0.0123215,0.0486755,0.150909,-1.23421,0.0764847,0.00236511,-0.0671387,-0.0273895
31,9,10.0097,0.000610352,-0.00106812,-2.4244,0.0559862,-0.0735371,0.0538228,0.0715807,-0.0913154,0.142877,-0.12363,-0.0816549,0.0231934,0.0094223,0.000953674,-0.00038147,-0.151443,-0.231476,0.03685,-0.0109482,-9.97986,0.0198746,0.060997,0.144577,-1.23394,0.079422,0.00453949,-0.0666809,-0.0294876
32,0,10.0097,0.000305176,-0.00137329,-2.42562,0.0565965,-0.0744527,0.054128,0.0709703,-0.0919257,0.147149,-0.123935,-0.0819601,0.0223541,0.00881195,0.00881195,0.00240326,-0.157814,-0.218277,0.0342178,-0.0170135,-9.97986,0.0115204,0.0526047,0.140839,-1.2466,0.0806808,0.00202179,-0.0666428,-0.0296021
32,1,10.0097,-0.000610352,-0.00137329,-2.42592,0.0544603,-0.0738423,0.0553487,0.0706652,-0.0916206,0.145318,-0.124546,-0.0813497,0.0181961,0.0203323,0.00923157,-0.00667572,-0.162125,-0.216026,0.0359726,-0.0216293,-9.97986,0.0192642,0.0359726,0.136948,-1.25,0.0882721,0.0069809,-0.0601196,-0.031662
32,2,10.0097,-0.000305176,-0.00152588,-2.42562,0.0553758,-0.0735371,0.0556539,0.0706652,-0.090705,0.147455,-0.12363,-0.0804342,0.0141907,0.0173187,0.0104141,-0.0443268,-0.171394,-0.211449,0.0351715,0.00797272,-9.97986,0.0163651,0.0157547,0.131187,-1.25,0.0965881,0.00148773,-0.0567627,-0.0365448
32,3,10.0097,0,-0.00198364,-2.4247,0.0569017,-0.0741475,0.0553487,0.0709703,-0.0916206,0.147149,-0.12363,-0.0813497,0.0111771,0.0102234,0.00873566,-0.0438309,-0.179672,-0.199013,0.0282669,0.0283051,-9.97986,0.0208664,0.000648499,0.12352,-1.25,0.102501,0.00148773,-0.0606918,-0.0334549
32,4,10.0097,0.00274658,-0.00350952,-2.42623,0.0547655,-0.0738423,0.0556539,0.0508287,-0.0931465,0.146539,-0.125461,-0.0828756,0.00991821,-0.000190735,0.00499725,-0.00614166,-0.173073,-0.188789,0.0289154,0.0424194,-9.97986,0.0171661,-0.000228882,0.120049,-1.25,0.101547,-0.0050354,-0.0525665,-0.0362778
32,5,10.0097,0.00152588,-0.00366211,-2.42653,0.055681,-0.0747579,0.054128,0.0557115,-0.090705,0.145624,-0.126072,-0.0828756,0.0108719,-0.0128174,-0.00762939,0.0245285,-0.178757,-0.183983,0.0215149,0.0680542,-9.97986,0.0235748,0.0159836,0.116081,-1.25,0.108681,-0.00423431,-0.0506973,-0.032959
32,6,10.0097,0.00274658,-0.00213623,-2.42684,0.055681,-0.0738423,0.0544332,0.0654772,-0.090705,0.146539,-0.125461,-0.0834859,0.00389099,-0.00873566,0.00530243,0.0177383,-0.175552,-0.173454,0.0201797,0.0949097,-9.97986,0.0263214,0.0069809,0.115395,-1.25,0.116539,-0.00411987,-0.0403214,-0.0343323
32,7,10.0097,0.000610352,-0.00228882,-2.42653,0.0550706,-0.0744527,0.0535176,0.0715807,-0.0919257,0.146234,-0.125766,-0.0834859,0.000343323,-0.00392914,0.0231552,-0.0204468,-0.175743,-0.160446,0.0164032,0.108681,-9.97986,0.0180817,0.00728607,0.111084,-1.25,0.116539,-0.0030899,-0.0404358,-0.0390244
32,8,10.0097,0.000305176,-0.00106812,-2.42745,0.0565965,-0.075063,0.0547383,0.0859239,-0.0879585,0.143792,-0.124851,-0.0840963,-0.00106812,0.00305176,0.0267029,-0.0269699,-0.172272,-0.143547,0.0117874,0.071907,-9.97986,0.0200272,-0.000419617,0.103531,-1.25,0.115852,-0.00255585,-0.0354004,-0.036087
32,9,10.0097,0.000305176,-0.000762939,-2.42867,0.0538499,-0.0747579,0.0513814,0.080736,-0.0931465,0.143487,-0.126072,-0.0868429,-0.00137329,0.00980377,0.0181198,-0.000762939,-0.167084,-0.141983,0.00598907,0.0416946,-9.97986,0.00923157,-0.0151825,0.0948715,-1.25,0.114899,-0.0038147,-0.032692,-0.036087
33,0,10.0097,0.000305176,-0.00228882,-2.42867,0.0544603,-0.0768941,0.0562642,0.0746324,-0.0955879,0.144403,-0.127903,-0.0871481,0.00671387,0.0138855,0.0134277,0.0242615,-0.159836,-0.128059,0.00530243,0.0645828,-9.97986,0.0056076,-0.00556946,0.0896454,-1.25,0.124474,-0.00541687,-0.0270844,-0.0389481
33,1,10.0097,0.000915527,-0.00228882,-2.42898,0.0547655,-0.0741475,0.0519917,0.07036,-0.0934516,0.143487,-0.126987,-0.0880636,0.00465393,0.0215912,0.0112915,0.0516891,-0.147858,-0.116348,0.00274658,0.089035,-9.97986,0.00740051,0.0056076,0.0818634,-1.25,0.116692,0.00335693,-0.0263977,-0.0387955
33,2,10.0097,0.00183105,-0.00213623,-2.4302,0.0535448,-0.0771993,0.0522969,0.0679186,-0.0968086,0.142572,-0.128513,-0.0877584,0.0062561,0.0222778,0.00923157,0.063591,-0.139923,-0.104561,-0.00202179,0.1548,-9.97986,0.0114059,0.0062561,0.0799561,-1.25,0.118484,-0.00267029,-0.018692,-0.0380707
33,3,10.0097,-0.000305176,-0.00152588,-2.42928,0.0538499,-0.0759786,0.0538228,0.0697496,-0.0934516,0.143182,-0.126987,-0.0874532,0.00110626,0.0317383,0.0115585,0.0587463,-0.137062,-0.0902557,-0.00915527,0.179329,-9.97986,0.0182343,0.0107956,0.0801849,-1.25,0.113907,-0.00263214,-0.0138474,-0.0375366
33,4,10.0097,-0.00213623,-0.000457764,-2.42898,0.0544603,-0.0768941,0.0526021,0.0688341,-0.0934516,0.143487,-0.126987,-0.0865377,0.00255585,0.0398636,0.0165176,0.0457382,-0.132141,-0.0848389,-0.00335693,0.089798,-9.97986,0.0191879,0.00835419,0.0679398,-1.25,0.112915,-0.00522614,-0.011673,-0.0347519
33,5,10.0097,0.000915527,0,-2.42867,0.0541551,-0.0762837,0.0522969,0.0697496,-0.0949775,0.145013,-0.127598,-0.0859274,0.00621796,0.0431824,0.0209427,0.0366211,-0.125618,-0.0770569,-0.00423431,0.0456619,-9.97986,0.0214767,0.0136948,0.063858,-1.25,0.11364,-0.00881195,-0.00946045,-0.0350952
33,6,10.0097,-0.000610352,0.000915527,-2.42714,0.0547655,-0.0747579,0.0553487,0.0700548,-0.0934516,0.145013,-0.126072,-0.0850118,0.00457764,0.0476074,0.0237656,0.0337982,-0.114937,-0.0639343,-0.00617981,0.0677109,-9.97986,0.0193405,0.00911713,0.063858,-1.25,0.115662,-0.0082016,-0.00564575,-0.031929
33,7,10.0097,-0.000610352,0.000762939,-2.42623,0.0559862,-0.0744527,0.0532125,0.0697496,-0.0934516,0.144098,-0.124851,-0.0840963,0.0012207,0.0514221,0.0290298,0.0286865,-0.107002,-0.0567245,-0.00953674,0.0396347,-9.97986,0.0124359,-0.000686646,0.0606537,-1.25,0.113297,-0.00732422,-0.00175476,-0.0307465
33,8,10.0097,-0.00335693,0.000762939,-2.42623,0.055681,-0.0747579,0.0532125,0.0697496,-0.0925361,0.145318,-0.126072,-0.0844015,0.000762939,0.0511169,0.0212097,0.0209045,-0.0962067,-0.0501633,-0.00682831,-0.0342941,-9.97986,0.0094986,-0.00267029,0.0482941,-1.25,0.111732,-0.00595093,0.00396729,-0.0318909
33,9,10.0097,-0.00183105,0.000305176,-2.42592,0.0590379,-0.073232,0.0526021,0.0712755,-0.0910102,0.145624,-0.124241,-0.0816549,0.00659943,0.0534821,0.0232315,0.0255585,-0.0824356,-0.042305,-0.00320435,-0.104942,-9.97986,0.00839233,-0.00198364,0.0455856,-1.25,0.114326,-0.0136185,0.00785828,-0.0279617
34,0,10.0097,-0.00152588,0.00183105,-2.42562,0.0562914,-0.0729268,0.0553487,0.0709703,-0.0913154,0.147149,-0.124546,-0.0813497,0.0178909,0.0424576,0.0287628,0.0198746,-0.0678635,-0.0340652,-0.0143433,-0.164795,-9.97986,0.00606537,-0.00190735,0.0428772,-1.25,0.112534,-0.0121689,0.00946045,-0.0278854
34,1,10.0097,0.00152588,0.00244141,-2.42592,0.0572069,-0.073232,0.0556539,0.0712755,-0.090705,0.146844,-0.124546,-0.0807394,0.0217056,0.0479889,0.0358582,0.0193024,-0.0511169,-0.027771,-0.0169373,-0.133858,-9.97986,0.00225067,0.00926971,0.0372696,-1.25,0.113144,-0.00953674,0.0115967,-0.0258636
34,2,10.0097,0.0012207,0.00366211,-2.4247,0.0562914,-0.0741475,0.0532125,0.07036,-0.0913154,0.147149,-0.124546,-0.0792135,0.0141525,0.0395966,0.0368881,0.0120926,-0.0443649,-0.0202179,-0.0111008,-0.0521088,-9.97986,0.00179291,0.01091,0.0315094,-1.25,0.114174,-0.00453949,0.0156784,-0.0224304
34,3,10.0097,0.000915527,0.00427246,-2.4244,0.0575121,-0.0738423,0.0556539,0.0715807,-0.0919257,0.14837,-0.123935,-0.078298,0.0062561,0.0297165,0.044632,0.0144196,-0.0300217,-0.00671387,-0.0109482,-0.0436401,-9.97986,-0.00457764,0.0186539,0.0274658,-1.25,0.113411,-0.00709534,0.019455,-0.0215149
34,4,10.0097,0.000915527,0.00350952,-2.42592,0.0565965,-0.0744527,0.0544332,0.0514391,-0.0949775,0.145318,-0.126072,-0.0816549,0.00705719,0.0342178,0.0529861,0.0133896,-0.0178528,-0.00228882,-0.0129318,-0.045433,-9.97986,-0.00602722,0.0188065,0.0224686,-1.25,0.110207,0.00442505,0.0232697,-0.0196457
34,5,10.0097,0.000610352,0.00274658,-2.42562,0.055681,-0.0744527,0.0522969,0.0557115,-0.0931465,0.145013,-0.126377,-0.0813497,0.00492096,0.0444794,0.055275,0.00522614,-0.00415802,0.00366211,-0.0154495,-0.0163651,-9.97986,-0.00461578,0.0182343,0.0212097,-1.20831,0.101089,0.00862122,0.0246429,-0.021019
34,6,10.0097,-0.000305176,0.00473022,-2.42623,0.0550706,-0.0747579,0.0532125,0.0645616,-0.0919257,0.147455,-0.125156,-0.0816549,0.00366211,0.0575256,0.0572586,0.0082016,0.00556946,0.0167465,-0.00728607,0.0152206,-9.97986,-0.00362396,0.026741,0.0113678,-1.15749,0.0983047,0.00713348,0.0302124,-0.0145721
34,7,10.0097,0.0012207,0.00534058,-2.42592,0.0541551,-0.0735371,0.0544332,0.0718859,-0.0916206,0.145929,-0.126072,-0.0819601,0.00114441,0.0597763,0.0462723,0.00831604,0.013237,0.0232697,-0.01194,0.0553131,-9.97986,-0.01194,0.0296402,0.0126648,-1.09657,0.0894547,0.00106812,0.0342178,-0.014267
34,8,10.0097,0.00152588,0.00610352,-2.42653,0.055681,-0.075063,0.0556539,0.0816515,-0.0900947,0.144403,-0.124851,-0.0822652,-0.00572205,0.0534821,0.0469971,0.00804901,0.0206757,0.0297165,-0.00926971,0.0675964,-9.97986,-0.0219727,0.0370026,0.00801086,-1.03561,0.0851059,-0.0050354,0.0318909,-0.0121307
34,9,10.0097,0.0012207,0.00640869,-2.42867,0.0538499,-0.075063,0.0513814,0.0789049,-0.0937568,0.143487,-0.126377,-0.085317,-0.00507355,0.0331497,0.053978,-0.00114441,0.0233841,0.0322342,-0.00999451,0.0704575,-9.97986,-0.0324631,0.0395966,0.00164032,-0.979767,0.0799942,-0.00190735,0.0336456,-0.0106812
35,0,10.0097,0,0.00579834,-2.42867,0.0541551,-0.0747579,0.0516866,0.0718859,-0.0949775,0.143182,-0.127598,-0.085317,-0.00427246,0.0233459,0.0616074,-0.0223923,0.0304413,0.0369263,-0.0120163,0.0733948,-9.97986,-0.0292969,0.0324631,-0.00617981,-0.918655,0.0731659,0.000953674,0.0405884,-0.00804901
35,1,10.0097,-0.000305176,0.00488281,-2.42898,0.055681,-0.0765889,0.0532125,0.0712755,-0.0949775,0.144403,-0.126682,-0.0850118,-0.00587463,0.0499344,0.061264,-0.0322723,0.0389862,0.0432587,-0.00774384,0.0608063,-9.97986,-0.0238419,0.0337219,-0.00617981,-0.86853,0.0670624,-0.00282288,0.0421143,-0.00598907
35,2,10.0097,0.000610352,0.00518799,-2.4305,0.0541551,-0.0771993,0.0516866,0.0694445,-0.094062,0.143487,-0.126682,-0.0850118,0.000610352,0.0782394,0.0649261,-0.0450897,0.0405502,0.0448608,-0.00862122,0.00740051,-9.97986,-0.0180435,0.0390625,-0.0125885,-0.813637,0.0603867,-0.00293732,0.0407791,-0.00537872
35,3,10.0097,0.00183105,0.00595093,-2.42959,0.0538499,-0.0756734,0.0526021,0.0694445,-0.0949775,0.144098,-0.126987,-0.085317,0.0128174,0.079689,0.0653076,-0.063858,0.0475693,0.0543594,-0.00583649,-0.0324249,-9.97986,-0.00164032,0.0279999,-0.0134659,-0.749283,0.0527573,0.00488281,0.0439453,-0.00377655
35,4,10.0097,0,0.00473022,-2.42928,0.0544603,-0.0756734,0.0532125,0.0691393,-0.0943672,0.143792,-0.126377,-0.0850118,0.0320816,0.0491333,0.0618744,-0.0556183,0.0553131,0.0575638,-0.0113678,-0.0323868,-9.97986,0.0111389,0.0088501,-0.0196457,-0.693893,0.0478363,0.00804901,0.0447083,-0.00232697
35,5,10.0097,0.0012207,0.00549316,-2.42867,0.0544603,-0.0759786,0.0532125,0.0706652,-0.0943672,0.143792,-0.126072,-0.0840963,0.0320816,0.0286865,0.0521088,-0.0512314,0.0584793,0.0623703,-0.00686646,-0.0120544,-9.97986,0.0283813,-0.000152588,-0.0230408,-0.633774,0.0412369,0.0110626,0.0457764,-0.00282288
35,6,10.0097,0.000915527,0.00610352,-2.42684,0.0553758,-0.075063,0.054128,0.0694445,-0.094062,0.145013,-0.126377,-0.0834859,0.0290298,-0.00427246,0.0377274,-0.0629425,0.0643158,0.0688934,-0.00312805,0.00175476,-9.97986,0.0359726,0.0322342,-0.0274658,-0.568695,0.0331116,0.00823975,0.0479889,0.00221252
35,7,10.0097,0,0.00701904,-2.42714,0.0541551,-0.0741475,0.054128,0.0709703,-0.0922309,0.144403,-0.126072,-0.0834859,0.028038,-0.0332642,0.0261307,-0.0330734,0.0708389,0.0675583,-0.00648499,0.0149536,-9.97986,0.0302887,0.0618362,-0.0291061,-0.500259,0.0267792,0.00427246,0.0492477,0.00171661
35,8,10.0097,0.00152588,0.00610352,-2.42562,0.0559862,-0.0747579,0.0532125,0.0694445,-0.0937568,0.145624,-0.125156,-0.0804342,0.0205994,-0.0330353,0.0291824,0.0300217,0.0734329,0.0821304,-0.00801086,0.0500107,-9.97986,0.029068,0.0680161,-0.0304794,-0.441055,0.022583,0.00598907,0.054245,0.00270844
35,9,10.0097,-0.000305176,0.00640869,-2.42501,0.0553758,-0.0741475,0.0547383,0.07036,-0.0916206,0.147149,-0.124851,-0.080129,0.0121307,-0.00286102,0.0481796,0.0580215,0.0760269,0.0979996,-0.00812531,0.0534821,-9.97986,0.028801,0.0734329,-0.0336838,-0.378685,0.0164032,0.0069046,0.0551987,0.0019455
36,0,10.0097,0.000610352,0.00564575,-2.42592,0.0559862,-0.0735371,0.0538228,0.0709703,-0.0919257,0.146844,-0.124241,-0.080129,0.00915527,0.0350952,0.0604248,0.0614929,0.0831223,0.115242,-0.0050354,0.00881195,-9.97986,0.0220108,0.0564575,-0.0421906,-0.32589,0.00801086,0.00728607,0.054245,0.00270844
36,1,10.0097,0.00152588,0.00595093,-2.42531,0.055681,-0.0735371,0.0544332,0.0706652,-0.0913154,0.146234,-0.124851,-0.0798238,0.00892639,0.0529861,0.0669098,0.0342178,0.0856781,0.127754,-0.000762939,0.0231552,-9.97986,0.0259018,0.0487137,-0.0376129,-0.255203,0.00644684,0.0108337,0.0627899,0.00297546
36,2,10.0097,0.00213623,0.00671387,-2.42318,0.0572069,-0.0729268,0.0550435,0.0715807,-0.0910102,0.146539,-0.123325,-0.078298,-0.000228882,0.0377655,0.0457764,-0.0239182,0.0839615,0.134773,-0.00156403,0.0388336,-9.97986,0.0220871,0.0258636,-0.0447845,-0.198669,-0.000228882,0.00919342,0.0598907,0.000648499
36,3,10.0097,-0.00335693,0.00610352,-2.42623,0.0565965,-0.0726216,0.0550435,0.0706652,-0.0913154,0.146234,-0.124851,-0.0792135,0.00495911,0.0252151,0.00434875,-0.0314331,0.0905609,0.147133,0.000534058,0.00957489,-9.97986,0.02388,0.0158691,-0.0465775,-0.138817,-0.00213623,0.0107956,0.0585175,0.00602722
36,4,10.0097,0.000610352,0.00518799,-2.42684,0.0559862,-0.0747579,0.0535176,0.0505236,-0.0943672,0.145013,-0.126072,-0.0798238,0.00484467,0.0104904,-0.0328064,-0.0315094,0.0928879,0.155029,0.0031662,0.00656128,-9.97986,0.0130081,-0.00999451,-0.0447464,-0.0720596,-0.00823975,0.0122833,0.062561,0.00476837
36,5,10.0097,-0.0012207,0.00579834,-2.42714,0.0553758,-0.0744527,0.054128,0.0575426,-0.0919257,0.145013,-0.126072,-0.0810445,-0.0025177,0.00679016,-0.0269699,-0.0409698,0.0907135,0.168839,-0.00450134,0.0233078,-9.97986,0.0012207,-0.0287628,-0.0497437,-0.00576019,-0.0119019,0.00408173,0.0624466,0.00629425
36,6,10.0097,0.000610352,0.00549316,-2.42562,0.0569017,-0.0747579,0.0529073,0.065172,-0.0928413,0.146234,-0.124851,-0.0819601,-0.00480652,0.0204849,-0.0162125,-0.0291824,0.0870514,0.17746,-0.000419617,0.0125122,-9.97986,-0.00110626,-0.00415802,-0.0489426,0.0412369,-0.0105286,0.00465393,0.063591,0.0107956
36,7,10.0097,0.0012207,0.00457764,-2.42714,0.055681,-0.0738423,0.0550435,0.0706652,-0.0922309,0.144403,-0.124241,-0.0816549,-0.00854492,0.0246811,-0.0187302,-0.018425,0.0920486,0.183754,-0.00102997,0.0230026,-9.97986,-0.0104904,0.0210953,-0.0522995,0.0676346,-0.0116348,-0.00102997,0.0608826,0.0112534
36,8,10.0097,0.000610352,0.0050354,-2.42714,0.0547655,-0.0759786,0.0538228,0.0853136,-0.090705,0.145013,-0.125156,-0.0816549,0.00289917,0.0082016,-0.0123978,-0.0234604,0.0902557,0.195351,-0.00499725,0.0447083,-9.97986,-0.00679016,0.0316238,-0.0525665,0.11158,-0.0158691,-0.00881195,0.0628281,0.0120926
36,9,10.0097,-0.000610352,0.00579834,-2.42898,0.0538499,-0.0759786,0.0516866,0.0767687,-0.0946723,0.143792,-0.126987,-0.0840963,0.0148773,0.00461578,-0.0153351,-0.0409317,0.0898361,0.204163,-7.62939e-005,0.0141525,-9.97986,-0.00831604,0.0347137,-0.0530243,0.160217,-0.0158691,-0.0147629,0.0637054,0.0168991
37,0,10.0097,0.000610352,0.0050354,-2.42867,0.0544603,-0.0753682,0.0522969,0.0731066,-0.0952827,0.144098,-0.126072,-0.0850118,0.00293732,0.0112915,-0.0252914,-0.0740814,0.0873566,0.203247,0.000305176,-0.0313568,-9.97986,-0.000839233,0.0285339,-0.0567627,0.214958,-0.0201797,-0.0273895,0.064621,0.0199127
37,1,10.0097,0.000305176,0.00534058,-2.42928,0.0535448,-0.0759786,0.0516866,0.0712755,-0.0946723,0.143792,-0.126377,-0.0847066,-0.00469208,0.0117874,-0.0294876,0.0119019,0.0912857,0.200462,-0.000190735,0.022316,-9.97986,0.0248337,0.0209045,-0.0579453,0.269051,-0.026207,-0.0299835,0.0624847,0.0224686
37,2,10.0097,0.000915527,0.00411987,-2.42989,0.0532396,-0.0768941,0.0516866,0.0682238,-0.0949775,0.143487,-0.127598,-0.0859274,0.00602722,0.0200272,-0.0227356,0.14698,0.0886917,0.195808,-0.000343323,0.103951,-9.97986,0.0336838,0.0105667,-0.0551605,0.313034,-0.0271988,-0.0231934,0.0629044,0.0224686
37,3,10.0097,0.00305176,0.00396729,-2.42928,0.0532396,-0.0762837,0.0519917,0.0706652,-0.0952827,0.143182,-0.127903,-0.0859274,0.013237,0.00827789,-0.00480652,0.159836,0.0887299,0.191689,-0.000686646,0.164795,-9.97986,0.0517273,-0.00602722,-0.0579453,0.345078,-0.019455,-0.0225449,0.0614929,0.0278091
37,4,10.0097,0.00244141,0.0038147,-2.4302,0.0535448,-0.0759786,0.0522969,0.0700548,-0.0946723,0.143792,-0.126987,-0.0847066,0.0211716,-0.0137329,0.0116348,0.136452,0.0906372,0.188675,0.00476837,0.239182,-9.97986,0.0600052,0.00694275,-0.0551224,0.392075,-0.0159073,-0.0193024,0.0632095,0.0257111
37,5,10.0097,-0.000610352,0.00366211,-2.42867,0.0541551,-0.075063,0.0519917,0.0700548,-0.0922309,0.143792,-0.127292,-0.0844015,0.0241852,-0.0118256,0.0208282,0.104103,0.0853348,0.186996,0.00728607,0.199776,-9.97986,0.0712585,0.0159836,-0.0590897,0.426025,-0.0144577,-0.0101852,0.0605392,0.0310516
37,6,10.0097,0.00183105,0.00320435,-2.42684,0.0541551,-0.0744527,0.054128,0.0706652,-0.0937568,0.145318,-0.12363,-0.0837911,0.0234222,0.00118256,0.027771,0.0592804,0.0912857,0.171089,0.0120544,0.180244,-9.97986,0.0728989,0.0189209,-0.0606537,0.46032,-0.0149536,0.00114441,0.0630951,0.0330734
37,7,10.0097,-0.00305176,0.00442505,-2.42714,0.0547655,-0.0747579,0.0544332,0.07036,-0.094062,0.144708,-0.125461,-0.0828756,0.018959,-0.0197601,0.021019,0.0307846,0.0861359,0.164986,0.0232697,0.158844,-9.97986,0.0725937,0.0151443,-0.0595093,0.496254,-0.0244904,0.00980377,0.0600433,0.034256
37,8,10.0097,-0.00183105,0.00442505,-2.42684,0.0541551,-0.0744527,0.0544332,0.0700548,-0.0925361,0.146539,-0.125461,-0.0825704,0.0151825,-0.031395,0.0311661,0.0315094,0.0869751,0.161018,0.0219727,-0.0234604,-9.97986,0.0601959,0.0111771,-0.0561142,0.5299,-0.0247574,0.00564575,0.0572586,0.0365448
37,9,10.0097,-0.000915527,0.00366211,-2.4247,0.0550706,-0.0747579,0.0550435,0.07036,-0.0903999,0.146539,-0.125766,-0.0810445,0.00968933,-0.0128555,0.0541687,0.0357056,0.0866699,0.154228,0.0233459,-0.145226,-9.97986,0.0421524,0.00778198,-0.0603867,0.555344,-0.0274658,-0.00679016,0.0582504,0.0398636
38,0,10.0097,-0.000610352,0.00289917,-2.42379,0.0562914,-0.073232,0.0547383,0.0706652,-0.0910102,0.14776,-0.124241,-0.080129,0.0152206,-0.00450134,0.0580215,0.0286102,0.0860214,0.149422,0.0242233,-0.167465,-9.97986,0.0310516,0.0139618,-0.0534058,0.582809,-0.0270844,-0.0117874,0.0566483,0.0407791
38,1,10.0097,-0.000305176,0.00350952,-2.4244,0.055681,-0.0744527,0.0550435,0.0709703,-0.0919257,0.14776,-0.124241,-0.0807394,0.0188828,0.0313568,0.0644684,0.026207,0.0841904,0.136719,0.0167465,-0.203285,-9.97986,0.026207,0.00732422,-0.0527954,0.61245,-0.0297546,-0.00892639,0.0524902,0.0447845
38,2,10.0097,0.000305176,0.00350952,-2.4247,0.0575121,-0.0738423,0.0547383,0.0706652,-0.0919257,0.148065,-0.124546,-0.0795187,0.0243759,0.0600815,0.0440598,0.0414276,0.0830841,0.133362,0.0151062,-0.205612,-9.97986,0.0185394,0.0195694,-0.0540161,0.640144,-0.025177,-0.00144958,0.0539017,0.0432587
38,3,10.0097,0.00152588,0.00366211,-2.42531,0.0575121,-0.0738423,0.0553487,0.0718859,-0.0922309,0.146844,-0.123325,-0.0804342,0.0241852,0.0335693,0.0275421,0.0481796,0.0864029,0.127335,0.0107956,-0.193291,-9.97986,0.0284958,0.0150299,-0.056076,0.674286,-0.0309753,0.00385284,0.0489044,0.04879
38,4,10.0097,0.000305176,0.00213623,-2.42653,0.0562914,-0.0741475,0.0538228,0.0514391,-0.0946723,0.146234,-0.125156,-0.0810445,0.0270844,0.0224304,0.0333405,0.0419235,0.0788498,0.108147,0.0175858,-0.138054,-9.97986,0.0349426,-0.00148773,-0.0577927,0.699883,-0.0315094,0.00556946,0.0452805,0.0473785
38,5,10.0097,0.000610352,0.00183105,-2.42501,0.0550706,-0.0738423,0.0538228,0.0541857,-0.0931465,0.145929,-0.125766,-0.0825704,0.0197983,0.0418854,0.0340271,0.0212479,0.0831985,0.0965118,0.0163269,-0.0688553,-9.97986,0.0395584,0.0114822,-0.0537491,0.725441,-0.027771,0.00659943,0.0482178,0.0486374
38,6,10.0097,0.000305176,0.00213623,-2.42684,0.055681,-0.0744527,0.054128,0.0648668,-0.090705,0.145624,-0.126377,-0.0837911,0.0131226,0.0455093,0.0175858,-0.000991821,0.083847,0.0912857,0.0144196,-0.0146866,-9.97986,0.0451279,0.0166702,-0.0517654,0.733109,-0.0297546,0.0120544,0.0429535,0.0519562
38,7,10.0097,0.000610352,0.00137329,-2.42653,0.055681,-0.0747579,0.0526021,0.0709703,-0.0919257,0.144708,-0.124851,-0.0837911,0.0134277,0.00900269,0.00728607,-0.0050354,0.0839615,0.079422,0.0114822,0.00926971,-9.97986,0.0421524,0.00694275,-0.0508118,0.737724,-0.0270844,0.0104141,0.0431061,0.0509644
38,8,10.0097,0,0.00213623,-2.42745,0.0529344,-0.0759786,0.0538228,0.0843981,-0.0919257,0.145318,-0.123935,-0.0840963,0.0114059,-0.00339508,0.0019455,-0.0204849,0.0806046,0.0722504,0.00404358,0.0115204,-9.97986,0.033226,0.00873566,-0.0530624,0.735855,-0.0285339,0.0062561,0.0428391,0.0547791
38,9,10.0097,0.000305176,0.00137329,-2.42867,0.0541551,-0.0768941,0.0522969,0.0792101,-0.0943672,0.144708,-0.126682,-0.0856222,0.0172806,0.0224304,0.00999451,-0.0701141,0.0805283,0.0673294,0.00671387,0.0167084,-9.97986,0.0148773,0.00743866,-0.0495148,0.738411,-0.0285721,-0.000648499,0.0371552,0.0535583
39,0,10.0097,0.00244141,-0.000305176,-2.42806,0.0544603,-0.0762837,0.0535176,0.0728014,-0.094062,0.144403,-0.126682,-0.0868429,0.0243378,0.0276947,0.00679016,-0.0875092,0.0824356,0.060463,-0.000114441,0.024147,-9.97986,0.0172424,-0.00137329,-0.0510406,0.721817,-0.0286102,0.00312805,0.0361633,0.054245
39,1,10.0097,0,-0.00183105,-2.42928,0.0541551,-0.0765889,0.0519917,0.0697496,-0.0949775,0.142572,-0.127598,-0.0862325,0.0232697,0.0226974,0.00656128,-0.0627518,0.0841522,0.0570679,0.00431061,0.0202179,-9.97986,0.0218582,-0.00259399,-0.0459671,0.702019,-0.0298309,0.000114441,0.0350189,0.0532532
39,2,10.0097,0.000305176,-0.00183105,-2.42928,0.0547655,-0.0765889,0.0510762,0.0700548,-0.0955879,0.143487,-0.127598,-0.0880636,0.021553,0.0388336,0,-0.051384,0.0831223,0.049057,0.00274658,-0.00408173,-9.97986,0.0258255,0.00804901,-0.043602,0.677757,-0.0219727,-0.00343323,0.029335,0.0575256
39,3,10.0097,0,-0.00305176,-2.42837,0.0532396,-0.0768941,0.0522969,0.0688341,-0.0946723,0.143182,-0.126682,-0.0874532,0.0168991,0.0806427,-0.00270844,-0.0448227,0.0800705,0.0469589,-0.00377655,-0.0415802,-9.97986,0.0188065,0.0100708,-0.0421524,0.641708,-0.0207901,0.000190735,0.0342941,0.0587845
39,4,10.0097,-0.000610352,-0.00244141,-2.42898,0.0541551,-0.0756734,0.0516866,0.0679186,-0.0946723,0.144098,-0.127903,-0.0874532,0.0182724,0.0710297,-0.00183105,0.00457764,0.0934219,0.0387955,0.00492096,-0.0537109,-9.97986,0.0202179,0.017662,-0.0435638,0.616455,-0.0182343,-0.000267029,0.0295639,0.0542068
39,5,10.0097,0,-0.00259399,-2.42806,0.0541551,-0.0756734,0.0532125,0.0676134,-0.0943672,0.143487,-0.126682,-0.0859274,0.0187302,0.025177,-0.00686646,0.0697708,0.0896072,0.0365448,0.00404358,-0.046463,-9.97986,0.0151443,-0.00431061,-0.0391769,0.603523,-0.0139236,-0.00217438,0.0278473,0.0571442
39,6,10.0097,-0.000610352,-0.00167847,-2.42745,0.0553758,-0.0747579,0.0526021,0.0700548,-0.0937568,0.143792,-0.125766,-0.085317,0.022316,0.0167465,-0.0273895,0.124054,0.0861359,0.0324631,0.00682831,-0.0373459,-9.97986,0.0106812,-0.0223923,-0.039444,0.57003,-0.0129318,-0.00499725,0.0257874,0.0582886
39,7,10.0097,0.00152588,-0.00228882,-2.42806,0.0547655,-0.0744527,0.054128,0.0691393,-0.094062,0.145013,-0.126072,-0.085317,0.0237274,0.021553,-0.0400162,0.171356,0.0836182,0.0296402,0.00225067,-0.0333405,-9.97986,0.0116348,-0.00286102,-0.0371933,0.527763,-0.00904083,-0.0031662,0.0282669,0.0579453
39,8,10.0097,-0.000305176,-0.00289917,-2.42653,0.055681,-0.0744527,0.0538228,0.0694445,-0.0919257,0.144403,-0.125461,-0.0834859,0.0256348,0.0239944,-0.0278091,0.173798,0.0839996,0.0293732,-0.00125885,-0.0207138,-9.97986,0.0101471,0.00370026,-0.031662,0.490913,-0.01091,-0.00404358,0.0231171,0.0556946
39,9,10.0097,0.000610352,-0.00274658,-2.42592,0.0547655,-0.0747579,0.054128,0.07036,-0.0919257,0.146234,-0.124546,-0.0822652,0.0139618,0.0130844,-0.0228119,0.111046,0.0806427,0.0234985,-0.00450134,-0.0122833,-9.97986,0.00453949,0.0272369,-0.0275803,0.460167,-0.0139236,-0.00282288,0.0204468,0.0564194
40,0,10.0097,0.00335693,-0.00274658,-2.42501,0.0565965,-0.0744527,0.0550435,0.0718859,-0.0928413,0.143792,-0.124851,-0.0816549,0.013237,0.0221634,-0.0307465,0.0528717,0.0779724,0.0207901,0.000228882,-0.00259399,-9.97986,0.00995636,0.039711,-0.0284576,0.430031,-0.0210953,-0.00843048,0.0156784,0.0572586
40,1,10.0097,0.000915527,-0.00244141,-2.4247,0.0572069,-0.0744527,0.0553487,0.0700548,-0.0910102,0.146539,-0.123935,-0.0813497,0.0114059,0.0574875,-0.026741,0.00682831,0.0793076,0.0142288,0.000801086,0.0122452,-9.97986,0.0118256,0.0120163,-0.0234985,0.409088,-0.0187683,-0.0197601,0.0124359,0.0557327
40,2,10.0097,0.0012207,-0.00198364,-2.42531,0.0553758,-0.073232,0.054128,0.0724962,-0.090705,0.14776,-0.124241,-0.0816549,0.00686646,0.0209427,-0.00946045,-0.00102997,0.071907,0.0152206,0.00148773,0.0257111,-9.97986,0.0146484,-0.0278854,-0.0221252,0.389595,-0.0146866,-0.0278473,0.0143814,0.0537872
40,3,10.0097,0.00305176,-0.00289917,-2.42562,0.0569017,-0.0738423,0.0556539,0.0709703,-0.0913154,0.145624,-0.123935,-0.0816549,0.00839233,-0.0256729,0.00556946,0.00469208,0.0734711,0.0156403,0.00827789,0.039444,-9.97986,0.00656128,-0.039711,-0.016098,0.359001,-0.0156784,-0.0386429,0.00923157,0.0534821
40,4,10.0097,0.00152588,-0.00427246,-2.42592,0.0565965,-0.0741475,0.0538228,0.052965,-0.0922309,0.145624,-0.125766,-0.0825704,0.00812531,-0.00682831,0.0292587,0.00831604,0.0731659,0.0123215,0.0087738,0.0559616,-9.97986,0.00514984,-0.00358582,-0.0187302,0.321617,-0.0118637,-0.0437546,0.00827789,0.0534439
40,5,10.0097,0.00305176,-0.00366211,-2.42714,0.0547655,-0.0753682,0.0532125,0.0551012,-0.0946723,0.145013,-0.125766,-0.0825704,0.0106049,0.00953674,0.0286865,-0.00888824,0.0750351,0.0120926,0.00865936,0.102692,-9.97986,0.00514984,0.0087738,-0.0101852,0.292282,-0.0140381,-0.0443649,0.0056839,0.0475311
40,6,10.0097,0.00213623,-0.00228882,-2.42501,0.055681,-0.073232,0.0544332,0.065172,-0.0925361,0.145624,-0.124546,-0.0840963,0.00705719,0.015564,0.0160217,-0.0044632,0.0664139,0.0141907,0.0140381,0.171471,-9.97986,0.00873566,0.0104523,-0.0112915,0.270996,-0.0106049,-0.0429535,0.0075531,0.0453949
40,7,10.0097,0.0012207,-0.00259399,-2.42745,0.0562914,-0.0741475,0.0547383,0.0728014,-0.0916206,0.145318,-0.124851,-0.0837911,0.0143433,0.0244904,0.0238037,0.0094223,0.0658417,0.0177383,0.0149918,0.229187,-9.97986,0.00591278,0.00984192,-0.00644684,0.244942,-0.0147629,-0.0312424,0.00038147,0.0460434
