
Devices
1200
,,BP Load cell - Voltage,String Length - Voltage,Clutch Active - Voltage,#7 iPecs - Voltage,,,,,,,,,EMG 1-8 Left - Voltage,,,,,,,,Pylon Force - Voltage,EMG 9-16 Right - Voltage,,,,,,,,
Frame,Sub Frame,BP Load Cell,String Length,From Arduino Logic,A45,A135,A225,A315,S0,S90,S180,S270,ZSum,EMG 1 Glut Max,EMG 2 Glut Med,EMG 3 Biceps Femoris Long,EMG 4 Rectus Femoris,EMG 5 Vastus Medialis,EMG 6 Tib Ant,EMG 7 Med Gas,EMG 8 Soleus,Pylon volts,EMG 9 Glut Max,EMG 10 Glut Med,EMG 11 Biceps Femoris Long,EMG 12 Rectus Femoris,EMG 13 Vastus Medialis,EMG 14 Tib Ant,EMG 15 Med Gas,EMG 16 Soleus
,,V,V,V,V,V,V,V,V,V,V,V,V,V,V,V,V,V,V,V,V,V,V,V,V,V,V,V,V,V
1,0,-8.80473,0.00152588,-0.00411987,-2.4247,0.0550706,-0.0741475,0.0535176,-0.0169203,-0.0955879,0.147149,-0.130344,-0.0819601,0.0157928,0.0197983,0.0209045,0.0130081,0.0178146,0.0115585,0.0201035,0.0276566,-9.97986,0.0219727,0.00118256,0.0138092,0.00873566,0.0179291,0.000190735,0.0170135,0.00671387
1,1,-9.99003,-0.000915527,-0.00350952,-2.42409,0.0565965,-0.073232,0.0568746,0.0187853,-0.0922309,0.146844,-0.128513,-0.080129,0.0143051,0.0216293,0.0160599,0.00957489,0.0179291,0.00843048,0.0215912,0.0204468,-9.97986,0.0186539,0.000572205,0.00587463,0.0069046,-0.00102997,-0.00198364,0.0175476,0.00450134
1,2,-9.99003,0.000610352,-0.00167847,-2.42379,0.0553758,-0.0753682,0.0565694,0.0499132,-0.0910102,0.145318,-0.125766,-0.0828756,0.0105286,0.0222778,0.0205231,0.0123596,0.0220871,0.00881195,0.0214386,0.0221252,-9.97986,0.0186157,-0.000839233,0.0133514,0.00766754,-0.00720978,-0.000114441,0.0167847,0.00751495
1,3,-9.99003,0.000610352,-0.000762939,-2.42562,0.0562914,-0.075063,0.0544332,0.0605944,-0.0916206,0.145318,-0.126072,-0.0825704,0.0088501,0.0183868,0.017662,0.00888824,0.016861,0.00888824,0.0260162,0.0188828,-9.97986,0.0139618,-0.000305176,0.0123596,0.0105667,-0.0088501,-0.00160217,0.0150299,0.00835419
1,4,-9.99003,0.000305176,0.000457764,-2.42562,0.0559862,-0.0741475,0.0553487,0.0816515,-0.088874,0.146539,-0.124546,-0.0822652,0.0126266,0.0244141,0.017395,0.0149155,0.0154114,0.00869751,0.0181198,0.0134277,-9.97986,0.018158,-0.00171661,0.0122833,0.0121689,0.00907898,-0.000152588,0.017662,0.00537872
1,5,-7.96855,0.000305176,0.00305176,-2.42623,0.0547655,-0.0723164,0.0580953,0.140245,-0.0858222,0.144403,-0.121494,-0.0828756,0.00839233,0.0250626,0.0180054,0.00656128,0.0174713,0.00667572,0.022049,0.0116348,-9.97986,0.00484467,-0.0030899,0.0109482,0.0044632,0.00812531,-0.00511169,0.0164413,0.00671387
1,6,-0.471906,0.00152588,0.00442505,-2.42714,0.0535448,-0.0756734,0.0535176,0.150926,-0.0873481,0.145318,-0.121189,-0.0844015,0.0191116,0.0345993,0.0197601,0.0127029,0.0198746,0.0159454,0.0249481,0.0128174,-9.97986,0.0142288,0.00148773,0.0148773,0.0109863,0.0212097,-0.000991821,0.0175476,0.00804901
1,7,7.26644,-0.000915527,0.00396729,-2.42837,0.0550706,-0.0747579,0.0529073,0.152452,-0.0891792,0.142877,-0.121494,-0.0844015,0.00541687,0.0190353,0.0124359,0.00606537,0.0127411,0.00530243,0.0148773,0.00854492,-9.97986,0.00858307,-0.00484467,0.00747681,0.00297546,0.0113297,-0.0069046,0.0125885,0.00209808
1,8,10.0097,0.000610352,0.00274658,-2.4302,0.0526292,-0.0762837,0.0504659,0.12285,-0.0949775,0.142572,-0.124851,-0.0889791,0.0138092,0.0246429,0.0188828,0.0147247,0.0206375,0.0108719,0.0246811,0.017128,-9.97986,0.0124359,0.000228882,0.0121307,0.0101089,0.0167084,-0.00587463,0.016098,0.00896454
1,9,10.0097,0.000305176,0.0012207,-2.43081,0.0532396,-0.0771993,0.0516866,0.0886705,-0.0983344,0.142877,-0.126377,-0.0874532,0.0148773,0.0247192,0.0197601,0.0103378,0.0141525,0.00610352,0.0208664,0.0114059,-9.97986,0.0129318,-0.000343323,0.0140762,0.0130081,0.0145721,-0.01091,0.015831,0.00415802
2,0,10.0097,-0.000610352,0,-2.42989,0.0535448,-0.0765889,0.0513814,0.0779894,-0.0977241,0.142572,-0.126987,-0.0883688,0.0102997,0.0257111,0.0121307,0.0118256,0.0170135,0.0114822,0.0168228,0.0136566,-9.97986,0.00999451,-0.00511169,0.0186539,0.00682831,0.0119019,-0.00957489,0.0147629,0.00675201
2,1,10.0097,0.000305176,-0.00106812,-2.42684,0.0553758,-0.0747579,0.0529073,0.0737169,-0.0949775,0.144708,-0.125766,-0.0871481,0.0110245,0.0242615,0.0148773,0.0129318,0.0206757,0.00926971,0.021286,0.0161743,-9.97986,0.0138092,-0.00495911,0.01297,0.00598907,0.018692,-0.0152588,0.0172424,0.00766754
2,2,10.0097,0.000610352,0.000610352,-2.42806,0.0538499,-0.0756734,0.0526021,0.0718859,-0.0943672,0.143792,-0.126072,-0.0856222,0.0131607,0.0236893,0.0205612,0.00965118,0.0162506,0.0087738,0.0168228,0.0172043,-9.97986,0.0121307,-0.00148773,0.0151062,0.0104141,0.0180435,-0.00976563,0.0156784,0.00522614
2,3,10.0097,0.000305176,0.000152588,-2.42745,0.0538499,-0.0747579,0.054128,0.072191,-0.0934516,0.145624,-0.125156,-0.0847066,0.0133896,0.0300217,0.0196457,0.0130081,0.0195313,0.0103378,0.022316,0.0147247,-9.97986,0.0120163,0.00118256,0.0172806,0.00705719,0.0171661,-0.00659943,0.0125885,0.0088501
2,4,10.0097,0.000915527,0.000762939,-2.42623,0.0553758,-0.075063,0.0538228,0.0718859,-0.0934516,0.145929,-0.125766,-0.0844015,0.0126266,0.0239944,0.0167465,0.0107956,0.0203323,0.00682831,0.0238419,0.0177383,-9.97986,0.0142288,-0.0018692,0.0136948,0.00743866,0.0147629,-0.0105286,0.0182724,0.00789642
2,5,10.0097,0.0012207,0.000152588,-2.42409,0.0569017,-0.0741475,0.0526021,0.0712755,-0.0922309,0.145624,-0.12363,-0.0807394,0.00717163,0.0193405,0.0201416,0.00782013,0.0179291,0.00926971,0.026474,0.0196457,-9.97986,0.0122452,0.000228882,0.0139236,0.00720978,0.0173187,-0.015564,0.016098,0.00728607
2,6,10.0097,-0.000305176,0,-2.42562,0.0550706,-0.0729268,0.0550435,0.0718859,-0.0922309,0.146234,-0.124851,-0.0810445,0.0112152,0.0254822,0.0174713,0.00572205,0.019722,0.0094223,0.0231552,0.0180054,-9.97986,0.0160217,0.00167847,0.016861,0.00747681,0.0156021,-0.0146484,0.0130463,0.00400543
2,7,10.0097,0.000305176,0,-2.42684,0.0547655,-0.0747579,0.0529073,0.0499132,-0.095893,0.146234,-0.126682,-0.0834859,0.0113678,0.0260544,0.0206757,0.01091,0.0175095,0.0104523,0.0255966,0.0217819,-9.97986,0.0130844,-0.00507355,0.0154114,0.00396729,0.021553,-0.0177765,0.0119019,0.00644684
2,8,7.95034,0.000610352,-0.00259399,-2.42837,0.0553758,-0.0747579,0.0519917,0.00230578,-0.100776,0.145624,-0.129734,-0.0840963,0.0148773,0.0242615,0.017128,0.0106049,0.0185776,0.00801086,0.0246048,0.0276566,-9.97986,0.0146484,0.000457764,0.0167465,0.00759125,0.0193405,-0.0181961,0.0151825,0.00648499
2,9,-0.832929,0.000610352,-0.00350952,-2.42623,0.0572069,-0.073232,0.0522969,-0.0105116,-0.0971137,0.146844,-0.130039,-0.0825704,0.0110626,0.0288773,0.021286,0.0101089,0.0170135,0.0088501,0.0235748,0.0289917,-9.97986,0.0218582,-0.00385284,0.0110626,0.00545502,0.0165176,-0.0181198,0.0127792,0.00724792
3,0,-8.46263,-0.000305176,-0.00442505,-2.42531,0.0559862,-0.0735371,0.0532125,-0.0153944,-0.0955879,0.145318,-0.129429,-0.0813497,0.0120163,0.0255585,0.0199127,0.0115585,0.0195313,0.0110626,0.0172806,0.0277328,-9.97986,0.0233078,0.00228882,0.0149536,0.00591278,0.0202942,-0.0179291,0.0146866,0.00671387
3,1,-9.99003,0.0012207,-0.00289917,-2.4247,0.0562914,-0.0714009,0.0547383,0.0169542,-0.0934516,0.147149,-0.127598,-0.0810445,0.00988007,0.0246429,0.0196075,0.0114441,0.0203705,0.00972748,0.0217056,0.0259399,-9.97986,0.0204468,-0.000495911,0.0120926,0.00545502,-0.00347137,-0.0226212,0.0157166,0.00324249
3,2,-9.99003,0.000610352,-0.000915527,-2.4244,0.0559862,-0.075063,0.0553487,0.049608,-0.0897895,0.146844,-0.126682,-0.0810445,0.0133133,0.0238037,0.0226593,0.0108719,0.0199509,0.0130081,0.0252151,0.020256,-9.97986,0.0167847,0.000839233,0.0136948,0.00751495,-0.00598907,-0.0154114,0.0160599,0.00736237
3,3,-9.99003,0.000305176,-0.000305176,-2.4247,0.0550706,-0.0741475,0.0547383,0.0605944,-0.0925361,0.145013,-0.125766,-0.0822652,0.0134277,0.0257874,0.0175095,0.0106049,0.0148392,0.00907898,0.0200272,0.0227737,-9.97986,0.0153732,0.000534058,0.0126648,0.0069046,-0.00549316,-0.0183105,0.01297,0.0087738
3,4,-9.99003,-0.000610352,0.000915527,-2.42714,0.0550706,-0.0744527,0.0553487,0.0843981,-0.0882636,0.146539,-0.125156,-0.0831808,0.00965118,0.0223541,0.0155258,0.00843048,0.0181961,0.0108337,0.021019,0.0120163,-9.97986,0.0136566,-0.00087738,0.0131989,0.00476837,0.0127029,-0.0188828,0.016098,0.00938416
3,5,-7.73997,0.000915527,0.00244141,-2.42379,0.0535448,-0.0753682,0.0568746,0.142687,-0.0852119,0.144098,-0.121494,-0.0828756,0.00537872,0.0246048,0.016098,0.0105667,0.0167084,0.00724792,0.0230026,0.0104523,-9.97986,0.0101089,0.00324249,0.0151825,0.00789642,0.0192261,-0.0136566,0.0167084,0.00751495
3,6,-0.219831,0.000610352,0.00320435,-2.42653,0.0535448,-0.0759786,0.0538228,0.152452,-0.0867378,0.144403,-0.122104,-0.0847066,0.0088501,0.0226974,0.0146484,0.00953674,0.0143051,0.0141525,0.0225067,0.0131226,-9.97986,0.00793457,-0.0012207,0.0152588,0.00507355,0.0144577,-0.0208282,0.0151825,0.00736237
3,7,7.69368,-0.000610352,0.0050354,-2.42867,0.0544603,-0.0762837,0.0535176,0.151842,-0.0910102,0.143487,-0.121494,-0.0862325,0.00839233,0.0283813,0.0180435,0.01091,0.0161743,0.0109863,0.0241089,0.0094223,-9.97986,0.0094986,-0.000686646,0.0147247,0.00469208,0.0183105,-0.0182343,0.0122452,0.00545502
3,8,10.0097,-0.000915527,0.00366211,-2.43142,0.0538499,-0.0762837,0.050771,0.119798,-0.0955879,0.142267,-0.125156,-0.0889791,0.00896454,0.0242996,0.0164413,0.0102615,0.0115585,0.00461578,0.0252151,0.0144958,-9.97986,0.00701904,0.000839233,0.0150681,0.0102234,0.01297,-0.0133514,0.0133514,0.00774384
3,9,10.0097,0.000610352,0.000457764,-2.4302,0.0541551,-0.0765889,0.050771,0.0889757,-0.0968086,0.142572,-0.126682,-0.0883688,0.0137711,0.0226212,0.021553,0.0154495,0.0133133,0.00976563,0.0261688,0.0120544,-9.97986,0.00904083,-0.00385284,0.0115585,0.0044632,0.0167084,-0.0110626,0.0191879,0.0069046
4,0,10.0097,0.000305176,-0.000152588,-2.42928,0.0535448,-0.0768941,0.0504659,0.0770738,-0.0980293,0.143182,-0.126682,-0.0880636,0.00770569,0.0260544,0.0165558,0.00980377,0.0170135,0.00907898,0.0234985,0.0128555,-9.97986,0.00953674,-0.00286102,0.0139618,0.00473022,0.0142288,-0.013504,0.0130463,0.00785828
4,1,10.0097,0,-0.000457764,-2.42837,0.0550706,-0.0744527,0.050771,0.0737169,-0.094062,0.145013,-0.126377,-0.0862325,0.0125885,0.0244904,0.0189209,0.00965118,0.0165939,0.0139236,0.0232697,0.017662,-9.97986,0.0160217,-0.0030899,0.0147247,0.01091,0.0130844,-0.00522614,0.0141525,0.00789642
4,2,10.0097,0.000305176,0,-2.42745,0.0550706,-0.0759786,0.0538228,0.0709703,-0.0931465,0.144708,-0.126377,-0.0844015,0.00862122,0.0275421,0.0196075,0.0104141,0.0198746,0.00938416,0.0214767,0.0139999,-9.97986,0.0105667,-0.00183105,0.0122452,0.00335693,0.0103378,-0.00724792,0.0144958,0.00862122
4,3,10.0097,0.000610352,0.000305176,-2.42837,0.055681,-0.075063,0.0538228,0.0709703,-0.0928413,0.143792,-0.126682,-0.0840963,0.0126648,0.0274277,0.0163651,0.0082016,0.017395,0.0108337,0.0196457,0.0156021,-9.97986,0.0120544,0.00293732,0.0125504,0.00522614,0.0197983,-0.0069809,0.0144196,0.0088501
4,4,10.0097,0.00274658,0.000305176,-2.42714,0.0547655,-0.0747579,0.0538228,0.0709703,-0.0931465,0.145318,-0.126072,-0.0834859,0.0123215,0.0274277,0.0193787,0.0101852,0.017395,0.00907898,0.0208282,0.0173569,-9.97986,0.0133514,-0.00289917,0.0105667,0.00492096,0.0180435,-0.00541687,0.0183868,0.00720978
4,5,10.0097,0.00152588,0.000152588,-2.42592,0.0562914,-0.0738423,0.0553487,0.0715807,-0.0925361,0.147455,-0.124851,-0.0816549,0.012207,0.0248718,0.0150299,0.0119781,0.0168228,0.0102615,0.0215149,0.0187683,-9.97986,0.0142288,-0.00213623,0.0160599,0.00694275,0.0204468,-0.00724792,0.0188065,0.00595093
4,6,10.0097,0.000915527,0,-2.42592,0.0559862,-0.0747579,0.0547383,0.072191,-0.0913154,0.146844,-0.124546,-0.0807394,0.0112152,0.0224304,0.0203323,0.00797272,0.0181961,0.0115585,0.0203705,0.0151443,-9.97986,0.0133514,-0.00324249,0.0118637,0.00526428,0.016861,-0.00598907,0.0152206,0.00511169
4,7,10.0097,-0.000305176,0,-2.42776,0.0550706,-0.0747579,0.0529073,0.0489977,-0.0952827,0.145318,-0.126072,-0.0816549,0.0111771,0.0235367,0.0159454,0.0101089,0.0153351,0.0124359,0.0226212,0.0212479,-9.97986,0.0169373,-0.00350952,0.0139236,0.00968933,0.0179291,-0.00408173,0.0175476,0.00846863
4,8,7.85268,0,-0.00183105,-2.42837,0.055681,-0.0747579,0.0519917,0.00169543,-0.0995551,0.145624,-0.128513,-0.0828756,0.013504,0.0220871,0.0187302,0.00823975,0.0167847,0.0125122,0.0246429,0.0260544,-9.97986,0.0153732,-0.00286102,0.0145721,0.00537872,0.0196075,-0.00427246,0.0113678,0.0044632
4,9,-0.933942,0.000305176,-0.00320435,-2.42684,0.0569017,-0.0738423,0.0519917,-0.00868054,-0.0965034,0.147149,-0.129429,-0.0813497,0.0134277,0.0265503,0.0178146,0.015831,0.0164032,0.00648499,0.0214386,0.0263596,-9.97986,0.0212097,-0.00495911,0.013504,0.00370026,0.0151443,-0.00530243,0.0160217,0.00705719
5,0,-8.62102,0,-0.00427246,-2.42501,0.0562914,-0.0735371,0.0532125,-0.0153944,-0.0974189,0.146539,-0.129734,-0.0819601,0.0148392,0.0229263,0.0146484,0.0111008,0.0159073,0.00709534,0.0225449,0.0233459,-9.97986,0.0197983,3.8147e-005,0.00747681,0.00709534,0.019722,-0.00297546,0.0167084,0.0037384
5,1,-9.99003,0.000610352,-0.00289917,-2.42318,0.0559862,-0.075063,0.0556539,0.0163439,-0.0931465,0.145318,-0.128208,-0.0810445,0.00961304,0.0250244,0.0188446,0.011673,0.0171661,0.0104523,0.0213623,0.0245285,-9.97986,0.0146484,-0.00347137,0.0150681,0.00904083,-0.00144958,-0.00205994,0.0161362,0.00854492
5,2,-9.99003,0,-0.00137329,-2.42684,0.0553758,-0.0738423,0.0556539,0.0489977,-0.0897895,0.146844,-0.126682,-0.0810445,0.0137711,0.0255203,0.0167847,0.011673,0.0150299,0.00900269,0.021553,0.0232697,-9.97986,0.0163651,-0.000839233,0.0169754,0.00774384,-0.00576019,0.00114441,0.0144577,0.00614166
5,3,-9.99003,0.000610352,-0.000457764,-2.42592,0.0553758,-0.0741475,0.0544332,0.0596788,-0.0913154,0.146234,-0.126377,-0.0825704,0.00988007,0.0225449,0.0202179,0.00881195,0.0149918,0.011673,0.0223541,0.0229645,-9.97986,0.0154877,0.000648499,0.0138855,0.00640869,-0.00289917,0.000991821,0.014801,0.0056839
5,4,-9.99003,0.0012207,0,-2.42592,0.0547655,-0.0741475,0.0553487,0.0837877,-0.0894843,0.145624,-0.125156,-0.0825704,0.00911713,0.0213623,0.0205612,0.00961304,0.0131607,0.0133514,0.0206375,0.0154114,-9.97986,0.0139999,0.000648499,0.0164795,0.0101089,0.0125122,0.00255585,0.0139618,0.00629425
5,5,-7.79399,0.0012207,0.00350952,-2.42592,0.0550706,-0.0756734,0.0571797,0.141466,-0.0849067,0.145318,-0.121494,-0.0825704,0.0115585,0.0250244,0.0170898,0.0111771,0.0157547,0.01194,0.0215149,0.0106049,-9.97986,0.0110626,0.00190735,0.0165558,0.00492096,0.0126648,0.000572205,0.015831,0.0056839
5,6,-0.247297,0.000305176,0.00396729,-2.42684,0.0535448,-0.075063,0.0553487,0.152147,-0.0870429,0.144403,-0.120578,-0.0850118,0.0103378,0.0245285,0.0216293,0.00789642,0.0108337,0.00862122,0.0225449,0.0141144,-9.97986,0.00591278,-0.000991821,0.0159073,0.00522614,0.014801,0.00270844,0.0150299,0.00816345
5,7,7.51119,0.000610352,0.00442505,-2.42867,0.0535448,-0.0747579,0.0526021,0.151842,-0.090705,0.144098,-0.121799,-0.0862325,0.0101089,0.0210571,0.0204468,0.00556946,0.0190353,0.0130463,0.0236893,0.0120926,-9.97986,0.00709534,0.00171661,0.0206757,0.00637054,0.0132751,0.000190735,0.0136566,0.00827789
5,8,10.0097,0.00183105,0.00350952,-2.43111,0.0538499,-0.0771993,0.0498555,0.121019,-0.0952827,0.142267,-0.125156,-0.0880636,0.0120163,0.0237656,0.0223923,0.0069046,0.0192261,0.00896454,0.0206757,0.0094986,-9.97986,0.00999451,0.00171661,0.0114059,0.00629425,0.0193405,0.00301361,0.0141144,0.00762939
5,9,10.0097,-0.000915527,0.000915527,-2.42989,0.0535448,-0.0771993,0.0498555,0.0901964,-0.0971137,0.141961,-0.126682,-0.0889791,0.0117874,0.0228882,0.0162888,0.0102615,0.0165558,0.00701904,0.0239944,0.0137329,-9.97986,0.0128937,0.00350952,0.0131607,0.00434875,0.0155258,0.000801086,0.0154495,0.00556946
6,0,10.0097,0.00183105,0,-2.4302,0.0547655,-0.0756734,0.0513814,0.0776842,-0.0955879,0.143792,-0.127292,-0.0874532,0.0115585,0.024147,0.0167084,0.0148773,0.0148392,0.010643,0.0227356,0.0140762,-9.97986,0.0164413,0.00175476,0.017662,0.0044632,0.0152206,0.00137329,0.0161362,0.00946045
6,1,10.0097,-0.000610352,-0.000305176,-2.42806,0.0535448,-0.075063,0.0516866,0.0731066,-0.0955879,0.143487,-0.126072,-0.0859274,0.00514984,0.0190353,0.0210953,0.00976563,0.0169754,0.0101852,0.0217056,0.0161362,-9.97986,0.0169754,0.001297,0.0112152,0.00812531,0.0152969,0.00286102,0.0159454,0.0043869
6,2,10.0097,0.000610352,-0.000457764,-2.42776,0.0547655,-0.0756734,0.0519917,0.0709703,-0.0928413,0.144403,-0.126682,-0.0844015,0.0105286,0.0189972,0.0190353,0.0126266,0.0196838,0.00774384,0.0218582,0.0202179,-9.97986,0.013504,-0.000228882,0.0183868,0.00682831,0.0125122,0.00221252,0.0186539,0.00473022
6,3,10.0097,0,0.000152588,-2.42714,0.0553758,-0.0747579,0.0544332,0.0715807,-0.094062,0.145929,-0.125766,-0.0840963,0.00782013,0.0227737,0.0174713,0.0108337,0.0216675,0.0069046,0.022049,0.018959,-9.97986,0.01194,-0.00217438,0.0182724,0.00778198,0.0117874,0.00354767,0.0160217,0.00526428
6,4,10.0097,0,0.000610352,-2.42653,0.0562914,-0.0738423,0.0529073,0.07036,-0.0934516,0.144708,-0.125461,-0.0837911,0.0127411,0.022049,0.0181198,0.0102615,0.0155258,0.0107956,0.0204086,0.0186157,-9.97986,0.0138474,0.000991821,0.0137329,0.00835419,0.0135422,0.00205994,0.0165939,0.00476837
6,5,10.0097,-0.00152588,0.0012207,-2.42531,0.055681,-0.0744527,0.0535176,0.0718859,-0.0922309,0.147149,-0.12363,-0.0813497,0.00946045,0.0171661,0.017128,0.0131989,0.0208282,0.0103378,0.0216293,0.0144958,-9.97986,0.0151443,7.62939e-005,0.0167084,0.00640869,0.0150681,0.00102997,0.0149155,0.0038147
6,6,10.0097,0.00152588,0.000457764,-2.42592,0.0562914,-0.0741475,0.0568746,0.0706652,-0.0922309,0.146234,-0.12363,-0.0813497,0.0128174,0.0182724,0.0167847,0.0138092,0.0167847,0.00995636,0.0196075,0.0154877,-9.97986,0.0144577,-0.00240326,0.0183487,0.00652313,0.0131607,-0.000991821,0.0162506,0.0056076
6,7,10.0097,0.000610352,0,-2.42684,0.055681,-0.0744527,0.0532125,0.049608,-0.0949775,0.144708,-0.126987,-0.0828756,0.0132751,0.0208282,0.0200272,0.0146103,0.0218201,0.0135422,0.0252151,0.0230789,-9.97986,0.0159073,0.000534058,0.0192642,0.0104904,0.0183487,0.0056076,0.0165558,0.00621796
6,8,7.86214,0.00183105,-0.00228882,-2.42745,0.055681,-0.075063,0.0519917,0.00200061,-0.0995551,0.147149,-0.130039,-0.0831808,0.0102615,0.0170898,0.0187683,0.0134277,0.0164413,0.00797272,0.0207901,0.0246048,-9.97986,0.018692,0.000228882,0.016861,0.00934601,0.0147629,0.00171661,0.016098,0.00583649
6,9,-1.03648,-0.000305176,-0.00473022,-2.42531,0.0553758,-0.075063,0.0532125,-0.0092909,-0.0961982,0.146234,-0.129734,-0.0822652,0.0108719,0.0211334,0.0198746,0.0125122,0.0128937,0.01194,0.0236511,0.0302124,-9.97986,0.0212479,-0.00297546,0.0131989,0.00411987,0.0133133,0.00144958,0.0133514,0.00644684
7,0,-8.62773,-0.000610352,-0.00427246,-2.42592,0.0562914,-0.0735371,0.0544332,-0.0153944,-0.0968086,0.145929,-0.129734,-0.0816549,0.0105667,0.0226974,0.0225449,0.0165939,0.0183868,0.00907898,0.0245667,0.0287247,-9.97986,0.0175476,-0.000343323,0.0156784,0.0088501,0.0175476,0.00209808,0.0169754,0.00865936
7,1,-9.99003,0,-0.00289917,-2.4244,0.055681,-0.0747579,0.055959,0.016649,-0.0928413,0.146539,-0.128513,-0.0810445,0.0127411,0.0218582,0.0172043,0.0139618,0.0181198,0.00968933,0.0228882,0.0210571,-9.97986,0.0172043,-0.0019455,0.0151062,0.00606537,-0.00457764,0.0025177,0.0144958,0.00743866
7,2,-9.99003,0.000915527,-0.00137329,-2.42562,0.0565965,-0.0747579,0.054128,0.0486925,-0.0894843,0.146844,-0.126987,-0.0813497,0.0122833,0.0194168,0.0165558,0.0156021,0.0180054,0.0135803,0.024147,0.0211716,-9.97986,0.0212479,-0.00202179,0.0139618,0.0082016,-0.00656128,0.00331879,0.0163269,0.00717163
7,3,-9.99003,0.00152588,0.000305176,-2.42592,0.0553758,-0.0744527,0.055959,0.0612047,-0.0910102,0.145318,-0.126682,-0.0822652,0.0116348,0.0233841,0.0164413,0.0127411,0.0170135,0.0117111,0.0246048,0.0140762,-9.97986,0.0152206,-0.000419617,0.0172424,0.00907898,-0.00930786,0.00385284,0.0178528,0.00679016
7,4,-9.99003,0.0012207,0.000305176,-2.42501,0.055681,-0.0747579,0.0550435,0.0834825,-0.0882636,0.145318,-0.123935,-0.0822652,0.0106049,0.0205231,0.0166702,0.00953674,0.0183487,0.0143814,0.0205612,0.0134277,-9.97986,0.0136948,-0.0025177,0.0117874,0.00526428,0.00595093,0.00137329,0.0137329,0.00682831
7,5,-7.79674,0,0.00350952,-2.42562,0.0535448,-0.075063,0.0565694,0.142992,-0.0858222,0.145318,-0.121494,-0.0822652,0.00854492,0.0209427,0.0170517,0.0127411,0.0209427,0.00926971,0.0177002,0.0111771,-9.97986,0.0131989,-0.00328064,0.0127029,0.00644684,0.0120544,3.8147e-005,0.0144577,0.00652313
7,6,-0.244245,0.000610352,0.0038147,-2.42684,0.0529344,-0.0762837,0.0547383,0.150316,-0.0879585,0.143182,-0.121189,-0.085317,0.00873566,0.0182343,0.0183868,0.0141525,0.0178528,0.00961304,0.018692,0.00808716,-9.97986,0.0112152,-0.00301361,0.0151825,0.00827789,0.0111389,-0.00244141,0.0167465,0.00583649
7,7,7.54048,-0.000305176,0.00457764,-2.42806,0.0532396,-0.0753682,0.0544332,0.151842,-0.0891792,0.145013,-0.12241,-0.0847066,0.00797272,0.020256,0.0178146,0.0138855,0.0116348,0.0101089,0.0200653,0.00980377,-9.97986,0.00659943,-0.0050354,0.0112534,0.00347137,0.0109863,3.8147e-005,0.0151443,0.00366211
7,8,10.0097,0.000915527,0.00350952,-2.43111,0.0523241,-0.0771993,0.0510762,0.121324,-0.0968086,0.143182,-0.124546,-0.0880636,0.00934601,0.0243759,0.0177002,0.0120544,0.0133896,0.0102234,0.0186539,0.00911713,-9.97986,0.0100327,-0.0038147,0.0119019,0.00728607,0.0120163,0.00179291,0.0143814,0.00480652
7,9,10.0097,0.0012207,0.00106812,-2.42989,0.0535448,-0.0759786,0.0504659,0.0889757,-0.0968086,0.144098,-0.126682,-0.0883688,0.00980377,0.0214005,0.0164032,0.0094223,0.0160599,0.00797272,0.0249481,0.0160599,-9.97986,0.011673,-0.00286102,0.0110626,0.0069046,0.0121307,0.00385284,0.0177002,0.00537872
8,0,10.0097,0.00335693,-0.000152588,-2.42959,0.0535448,-0.0762837,0.0510762,0.0785997,-0.0971137,0.143182,-0.126987,-0.0877584,0.0119019,0.023613,0.0211334,0.0120163,0.016098,0.00862122,0.0185394,0.0124741,-9.97986,0.0126648,-0.00141144,0.0119781,0.0100708,0.016098,0.00137329,0.0147247,0.00480652
8,1,10.0097,-0.0012207,-0.000305176,-2.42959,0.0541551,-0.075063,0.0522969,0.0752428,-0.0949775,0.143792,-0.126072,-0.0859274,0.0130463,0.0212097,0.0152206,0.0143051,0.0128555,0.0110245,0.0179291,0.0159073,-9.97986,0.0130081,-0.000801086,0.0115967,0.00457764,0.0138474,0.00217438,0.0164413,0.0069046
8,2,10.0097,0.0012207,0.000457764,-2.42684,0.0547655,-0.0759786,0.0529073,0.072191,-0.0934516,0.145013,-0.126072,-0.0850118,0.00576019,0.0232697,0.0171661,0.0133896,0.0183868,0.00988007,0.0214005,0.0180817,-9.97986,0.0156784,0.000419617,0.013237,0.0094986,0.0148392,0.00377655,0.014801,0.00667572
8,3,10.0097,0,0.000762939,-2.42684,0.0553758,-0.0741475,0.0547383,0.0706652,-0.0943672,0.144708,-0.125461,-0.0847066,0.00850677,0.0228119,0.0181961,0.0087738,0.0154495,0.00934601,0.0194931,0.0195694,-9.97986,0.0149918,0.00102997,0.0146484,0.00812531,0.0145721,0.000114441,0.0151825,0.00476837
8,4,10.0097,0.000610352,-0.000152588,-2.42684,0.0562914,-0.0747579,0.0538228,0.0718859,-0.0928413,0.145624,-0.125156,-0.0834859,0.00965118,0.0258255,0.0133133,0.0101471,0.0146103,0.00667572,0.0177002,0.0173569,-9.97986,0.017128,0.000190735,0.0136566,0.00526428,0.0170135,0.00701904,0.0161743,0.00572205
8,5,10.0097,0.000915527,-0.000152588,-2.4244,0.0565965,-0.0729268,0.0544332,0.0715807,-0.0916206,0.146234,-0.124546,-0.0816549,0.0117874,0.022316,0.0179291,0.0101089,0.0136185,0.00766754,0.019989,0.0156403,-9.97986,0.0175858,-0.00270844,0.0149536,0.0050354,0.0152206,0.000419617,0.0134277,0.00606537
8,6,10.0097,0.000915527,0,-2.42531,0.0562914,-0.0735371,0.0556539,0.0715807,-0.0916206,0.147455,-0.123935,-0.0807394,0.01091,0.0189209,0.021286,0.00972748,0.017395,0.0107574,0.0198746,0.0194168,-9.97986,0.0179291,0.00259399,0.0123215,0.00667572,0.0155258,0.00167847,0.0149918,0.00751495
8,7,10.0097,0.000610352,0.000305176,-2.42684,0.0559862,-0.0735371,0.0532125,0.0486925,-0.0955879,0.145318,-0.126377,-0.0822652,0.00854492,0.0265121,0.0181198,0.0133896,0.0175476,0.00984192,0.0195694,0.0232697,-9.97986,0.0159073,-0.000228882,0.0167465,0.00823975,0.0154877,-0.00453949,0.017395,0.00778198
8,8,7.75716,0.000915527,-0.00259399,-2.42684,0.0569017,-0.0753682,0.0516866,0.00139026,-0.100776,0.145318,-0.129123,-0.0831808,0.00854492,0.02491,0.0202179,0.0115204,0.0164795,0.0094986,0.0218964,0.02388,-9.97986,0.0191879,-0.00190735,0.0130844,0.00705719,0.018692,-0.00427246,0.014267,0.0043869
8,9,-1.00169,-0.000305176,-0.00320435,-2.42562,0.055681,-0.0738423,0.054128,-0.0105116,-0.0983344,0.145624,-0.129429,-0.0822652,0.010643,0.0302505,0.016098,0.010376,0.0167465,0.00862122,0.0205994,0.0272751,-9.97986,0.0217819,0.00114441,0.0146103,0.0069809,0.0172806,0.00228882,0.0140381,0.00957489
9,0,-8.60942,0.000610352,-0.00457764,-2.42531,0.0559862,-0.0744527,0.0550435,-0.0150892,-0.0955879,0.146844,-0.129429,-0.0816549,0.0138092,0.0279999,0.0187683,0.0141525,0.0182343,0.00907898,0.0231934,0.0251389,-9.97986,0.0252914,-0.00144958,0.0138474,0.00370026,0.0157928,-0.00175476,0.0150299,0.00415802
9,1,-9.99003,0.000610352,-0.00305176,-2.4244,0.0547655,-0.0744527,0.0568746,0.0172594,-0.0931465,0.145624,-0.128208,-0.0804342,0.0149918,0.0248718,0.0173569,0.0133896,0.0189972,0.00869751,0.0234985,0.0216675,-9.97986,0.0183487,0.00038147,0.0160217,0.00339508,0.000534058,0.000801086,0.0179291,0.0120926
9,2,-9.99003,0.000610352,-0.00106812,-2.4247,0.0569017,-0.0735371,0.054128,0.0489977,-0.090705,0.145013,-0.126377,-0.0810445,0.00705719,0.0294876,0.016861,0.0144196,0.0167847,0.0100708,0.0212479,0.017662,-9.97986,0.0127792,-0.00232697,0.012207,0.00747681,-0.00976563,0.000534058,0.0144196,0.00659943
9,3,-9.99003,0.0012207,-0.000457764,-2.42684,0.0553758,-0.0747579,0.0547383,0.0602892,-0.0916206,0.144708,-0.126682,-0.0831808,0.0111008,0.0239182,0.0184631,0.00907898,0.0169373,0.00717163,0.0234604,0.0171661,-9.97986,0.0134277,0,0.0183105,0.0043869,-0.00850677,-0.000724792,0.016098,0.0069046
9,4,-9.99003,0.000610352,0.000762939,-2.4247,0.0547655,-0.075063,0.0547383,0.0834825,-0.0885688,0.145624,-0.12363,-0.0819601,0.0110245,0.0264359,0.0201416,0.0139236,0.0204086,0.0136948,0.0222015,0.0151443,-9.97986,0.0104904,-0.000267029,0.0122833,0.00595093,0.0148773,-0.001297,0.0143814,0.00488281
9,5,-7.77171,-0.000610352,0.00320435,-2.42562,0.0550706,-0.0753682,0.0568746,0.141771,-0.0849067,0.145013,-0.121189,-0.0819601,0.0094223,0.0244141,0.0157547,0.00846863,0.0167465,0.00778198,0.0266647,0.0117111,-9.97986,0.00968933,-0.00202179,0.0125122,0.00457764,0.0134659,-0.00522614,0.0151443,0.0056076
9,6,-0.370893,0,0.00396729,-2.42806,0.0532396,-0.0771993,0.0544332,0.151537,-0.0873481,0.144708,-0.121494,-0.0840963,0.00972748,0.0246811,0.0196075,0.0110626,0.0167847,0.00839233,0.0243378,0.0105286,-9.97986,0.0101089,0.00205994,0.0136185,0.00686646,0.0159836,0.00236511,0.0193024,0.00808716
9,7,7.44741,0.000610352,0.00457764,-2.42837,0.0535448,-0.0765889,0.0529073,0.151232,-0.0894843,0.143792,-0.121189,-0.0856222,0.00598907,0.0224304,0.0204086,0.00835419,0.0196838,0.0125885,0.0269318,0.00850677,-9.97986,0.0101471,-0.000839233,0.0123978,0.00782013,0.0137711,-0.001297,0.0136948,0.00736237
9,8,10.0097,-0.00152588,0.00350952,-2.43081,0.0535448,-0.0768941,0.050771,0.121324,-0.0955879,0.142572,-0.124546,-0.0892843,0.0075531,0.0226974,0.0187683,0.01194,0.0186539,0.0102615,0.0234985,0.0144196,-9.97986,0.00892639,-0.00377655,0.0147629,0.00652313,0.0182343,0.00179291,0.0154877,0.0062561
9,9,10.0097,0.000610352,0.000915527,-2.43081,0.0529344,-0.0762837,0.0510762,0.0901964,-0.0974189,0.142877,-0.126377,-0.0886739,0.0108337,0.0229263,0.0217056,0.00919342,0.0196075,0.00991821,0.0165558,0.0100327,-9.97986,0.0108337,-0.0031662,0.0127411,0.00858307,0.0144958,0.000152588,0.0184631,0.00583649
10,0,10.0097,-0.00152588,0.0012207,-2.42989,0.0538499,-0.0759786,0.0513814,0.0782946,-0.0952827,0.143182,-0.127292,-0.0877584,0.00961304,0.0193024,0.0225067,0.0133514,0.0180054,0.00839233,0.0231552,0.011673,-9.97986,0.0110626,-0.00221252,0.0107574,0.00682831,0.0179291,0.00278473,0.0177765,0.00717163
10,1,10.0097,0.0012207,-0.000305176,-2.42837,0.0541551,-0.0762837,0.0522969,0.0728014,-0.0946723,0.144708,-0.127292,-0.0862325,0.00926971,0.0246429,0.0175858,0.00934601,0.0210953,0.00667572,0.0222778,0.0136185,-9.97986,0.0123215,-0.00213623,0.0110626,0.00629425,0.0183868,-0.00148773,0.0157547,0.00282288
10,2,10.0097,0.000305176,-0.000305176,-2.42806,0.0550706,-0.0753682,0.0538228,0.0718859,-0.094062,0.143182,-0.126072,-0.085317,0.0142288,0.0234985,0.0190353,0.00778198,0.0205612,0.0116348,0.0242615,0.0169373,-9.97986,0.014267,-0.00110626,0.0128555,0.00648499,0.0154495,-0.00404358,0.0135422,0.00499725
10,3,10.0097,0.000610352,0.000152588,-2.42745,0.0553758,-0.0738423,0.0529073,0.0709703,-0.0946723,0.145318,-0.126377,-0.0850118,0.00972748,0.025177,0.0201416,0.0125885,0.0188446,0.00915527,0.0226212,0.0150681,-9.97986,0.0130844,0,0.015831,0.00682831,0.0193024,0.000419617,0.0159454,0.00453949
10,4,10.0097,0,0.000457764,-2.42653,0.055681,-0.075063,0.054128,0.0712755,-0.0934516,0.146234,-0.125766,-0.0831808,0.00888824,0.02388,0.0191498,0.00846863,0.0191116,0.013237,0.0211334,0.0188065,-9.97986,0.0156403,-0.00453949,0.0124741,0.0043869,0.0157166,-0.00209808,0.0137711,0.00759125
10,5,10.0097,-0.000915527,0.000152588,-2.4244,0.0547655,-0.073232,0.0547383,0.0709703,-0.090705,0.146539,-0.123935,-0.0819601,0.0130844,0.0260162,0.0212479,0.0134277,0.0182343,0.00743866,0.0213242,0.0161362,-9.97986,0.0172806,-0.00453949,0.0140762,0.0069046,0.0178528,-0.00213623,0.0163269,0.00946045
10,6,10.0097,-0.000305176,-0.000305176,-2.4247,0.0569017,-0.075063,0.0550435,0.0718859,-0.0916206,0.148675,-0.124851,-0.0804342,0.0146103,0.0224686,0.0160217,0.0103378,0.0185013,0.0088501,0.0234604,0.0210571,-9.97986,0.0128174,-0.0069809,0.0144958,0.00854492,0.0176239,-0.00183105,0.0156403,0.00450134
10,7,10.0097,0.00183105,0.000152588,-2.42714,0.0544603,-0.0747579,0.0538228,0.049608,-0.0955879,0.145929,-0.127598,-0.0834859,0.0131226,0.0263214,0.0231934,0.013504,0.0198746,0.0117874,0.0217819,0.0234604,-9.97986,0.0175858,-0.00514984,0.0156021,0.00762939,0.0171661,-0.00591278,0.0202179,0.00492096
10,8,7.8301,-0.00183105,-0.00274658,-2.42806,0.0562914,-0.0747579,0.0529073,0.00261096,-0.09925,0.146539,-0.129123,-0.0837911,0.0123215,0.0228119,0.0188446,0.0139236,0.0184631,0.00904083,0.0193787,0.027504,-9.97986,0.0210953,-0.00244141,0.0174713,0.00713348,0.0193024,3.8147e-005,0.0198746,0.00797272
10,9,-1.00169,0.00213623,-0.00350952,-2.42592,0.0569017,-0.0738423,0.0532125,-0.00990125,-0.0971137,0.147149,-0.130039,-0.0816549,0.0127792,0.0239182,0.0196075,0.0154495,0.0199509,0.00911713,0.0205231,0.0261688,-9.97986,0.0214005,-0.00484467,0.0148392,0.0037384,0.0183868,-0.00362396,0.0172043,0.00411987
11,0,-8.5966,-0.000305176,-0.0038147,-2.42592,0.0553758,-0.0744527,0.0544332,-0.0169203,-0.0965034,0.146844,-0.129429,-0.0819601,0.00854492,0.0230408,0.0160599,0.0139618,0.0211716,0.00740051,0.0214005,0.0275803,-9.97986,0.0216293,-0.00576019,0.0142288,0.00541687,0.0187683,-0.00270844,0.0159073,0.00724792
11,1,-9.99003,0.000915527,-0.0038147,-2.42531,0.0562914,-0.0738423,0.0556539,0.0172594,-0.094062,0.146234,-0.127598,-0.0810445,0.00926971,0.023613,0.0182343,0.0115967,0.0165558,0.0094223,0.0254059,0.0238419,-9.97986,0.0224686,-0.00209808,0.013504,0.0069809,0.00522614,-0.00137329,0.0196075,0.00724792
11,2,-9.99003,0.00213623,-0.00106812,-2.42409,0.0569017,-0.0738423,0.0565694,0.0505236,-0.090705,0.145013,-0.127292,-0.0813497,0.00831604,0.0213623,0.0173187,0.0144958,0.0201797,0.00961304,0.02491,0.022316,-9.97986,0.0191116,-0.00160217,0.0110626,0.00175476,-0.00576019,0.00175476,0.015831,0.00835419
11,3,-9.99003,-0.000915527,-0.000610352,-2.42653,0.055681,-0.0738423,0.0553487,0.059984,-0.0931465,0.145013,-0.126072,-0.0825704,0.0114441,0.0213242,0.0181198,0.0106049,0.0175476,0.0102234,0.023613,0.0209045,-9.97986,0.0175095,-0.00709534,0.0163651,0.00728607,-0.00740051,0.00175476,0.0159836,0.00495911
11,4,-9.99003,0.000915527,0.000457764,-2.42531,0.0553758,-0.073232,0.0544332,0.0831774,-0.090705,0.146234,-0.125156,-0.0819601,0.00911713,0.020752,0.0149155,0.0105667,0.0185013,0.00926971,0.0212097,0.0140762,-9.97986,0.00972748,-0.000610352,0.0151062,0.00423431,0.0107193,0.000190735,0.0179672,0.00347137
11,5,-7.78087,-0.000915527,0.00274658,-2.4244,0.0547655,-0.0759786,0.0571797,0.141466,-0.0842964,0.145624,-0.120884,-0.0825704,0.0119781,0.0180817,0.0192642,0.00926971,0.0167465,0.0102615,0.0206375,0.0141525,-9.97986,0.00907898,-0.00137329,0.013237,0.00400543,0.0156403,-0.00343323,0.0202179,0.00339508
11,6,-0.324506,0.000915527,0.00335693,-2.42776,0.0541551,-0.0756734,0.0550435,0.151842,-0.0882636,0.143487,-0.120578,-0.0847066,0.00858307,0.0234604,0.0143051,0.0126266,0.0144577,0.00988007,0.0226212,0.0111008,-9.97986,0.0138474,0.000152588,0.0125504,0.00427246,0.0154114,-0.00274658,0.0169754,0.00511169
11,7,7.57619,-0.000915527,0.00457764,-2.42867,0.0541551,-0.0762837,0.0538228,0.152757,-0.0897895,0.143792,-0.120884,-0.0850118,0.00724792,0.0235367,0.0182343,0.010643,0.0142288,0.0075531,0.0195694,0.00785828,-9.97986,0.0118256,0.000686646,0.0152588,0.00602722,0.0131607,-0.00282288,0.0184631,0.00774384
11,8,10.0097,-0.000305176,0.0038147,-2.43142,0.0532396,-0.0765889,0.050771,0.119798,-0.0952827,0.143182,-0.124241,-0.0883688,0.0139236,0.0214005,0.0167465,0.0140762,0.0191498,0.0110626,0.0214386,0.0123596,-9.97986,0.0146866,0.00358582,0.0167084,0.00686646,0.0168228,-0.000305176,0.0180054,0.00411987
11,9,10.0097,0.000915527,0.000152588,-2.43081,0.0529344,-0.0759786,0.0513814,0.0901964,-0.0971137,0.143182,-0.125461,-0.0883688,0.0110245,0.0229263,0.016098,0.0114059,0.0151062,0.00652313,0.0154495,0.0094986,-9.97986,0.0094223,-0.00164032,0.0131989,0.0038147,0.0122833,-0.00144958,0.0173187,0.00408173
12,0,10.0097,0.000305176,0.000915527,-2.4305,0.0529344,-0.0756734,0.0504659,0.077379,-0.0965034,0.142572,-0.127292,-0.0880636,0.0100327,0.0219345,0.0172424,0.0109863,0.0154495,0.0104141,0.0232697,0.0150299,-9.97986,0.0141525,-0.000343323,0.0163269,0.00469208,0.0147247,0.00106812,0.0125122,0.00617981
12,1,10.0097,0.00152588,0.000610352,-2.42867,0.0544603,-0.0756734,0.0522969,0.0724962,-0.0943672,0.144098,-0.126377,-0.0862325,0.0103378,0.0243378,0.0215149,0.0125885,0.0170517,0.00923157,0.021553,0.0164795,-9.97986,0.0125885,0.0012207,0.0138092,0.00720978,0.0180435,-0.001297,0.0159073,0.00827789
12,2,10.0097,0.000610352,0,-2.42714,0.0544603,-0.0762837,0.0532125,0.0718859,-0.0955879,0.143487,-0.126377,-0.0847066,0.0104523,0.0227356,0.0198746,0.0135803,0.0185013,0.0130081,0.0220108,0.0183868,-9.97986,0.0149536,-0.00106812,0.017395,0.00713348,0.0150681,-0.0031662,0.0177765,0.00564575
12,3,10.0097,0.000305176,0.000305176,-2.42714,0.0541551,-0.0738423,0.0532125,0.0715807,-0.0937568,0.144708,-0.126072,-0.085317,0.0119019,0.0227737,0.0188065,0.0136185,0.0191498,0.00999451,0.0233459,0.016098,-9.97986,0.0152206,0.00259399,0.0141144,0.0056839,0.0162506,-0.00415802,0.0161743,0.00621796
12,4,10.0097,0,0.000457764,-2.42653,0.0559862,-0.0741475,0.054128,0.0712755,-0.0925361,0.144708,-0.124851,-0.0831808,0.0101471,0.0214767,0.0184631,0.0115585,0.0174332,0.00793457,0.0214005,0.0141144,-9.97986,0.0141907,0.00183105,0.0136185,0.00354767,0.0150299,-0.00267029,0.0174713,0.00354767
12,5,10.0097,0.000915527,0.000305176,-2.42623,0.055681,-0.0747579,0.0550435,0.072191,-0.0916206,0.147149,-0.124546,-0.0816549,0.0122833,0.0242615,0.0197983,0.0177765,0.016861,0.00831604,0.0186539,0.0196838,-9.97986,0.013237,-0.000724792,0.0113678,0.00858307,0.0202942,-0.00144958,0.0180054,0.00450134
12,6,10.0097,0.00152588,0.000152588,-2.42409,0.0569017,-0.0735371,0.0562642,0.0715807,-0.0919257,0.14776,-0.12302,-0.0810445,0.00869751,0.0238419,0.0170135,0.0169754,0.0157928,0.00679016,0.0188446,0.0197601,-9.97986,0.0172424,0.000572205,0.0167465,0.0105286,0.018425,-0.00038147,0.016861,0.00518799
12,7,10.0097,0.00183105,0.000152588,-2.42714,0.0575121,-0.0741475,0.054128,0.0486925,-0.095893,0.145624,-0.126377,-0.0819601,0.00843048,0.0253296,0.0170898,0.0136948,0.0186539,0.0118256,0.0234604,0.0229263,-9.97986,0.0157928,0.00225067,0.0123596,0.00713348,0.0185013,-0.00411987,0.0174713,0.00629425
12,8,7.72084,0.000305176,-0.00244141,-2.42714,0.055681,-0.0741475,0.0519917,0.000474729,-0.0983344,0.147149,-0.130649,-0.0840963,0.0134277,0.0228882,0.0165939,0.0141907,0.0161743,0.014534,0.0216293,0.0254059,-9.97986,0.0207901,-0.000534058,0.0149536,0.00541687,0.0201035,-0.00743866,0.0172806,0.00976563
12,9,-1.11217,0.000915527,-0.00335693,-2.42562,0.0559862,-0.0738423,0.0532125,-0.00990125,-0.0977241,0.146844,-0.129734,-0.0810445,0.0140762,0.0262833,0.0237656,0.0118637,0.0143814,0.00667572,0.0192642,0.0255966,-9.97986,0.020752,0.000991821,0.010376,0.00652313,0.0175476,-0.00137329,0.0145721,0.00522614
13,0,-8.7202,0.000305176,-0.00457764,-2.42501,0.0572069,-0.0735371,0.054128,-0.0147841,-0.0952827,0.146539,-0.130649,-0.0813497,0.0139236,0.0255585,0.017395,0.0152588,0.0195313,0.012207,0.0198364,0.0257874,-9.97986,0.0203323,0.000839233,0.0165558,0.00736237,0.018692,-0.00328064,0.0167465,0.00610352
13,1,-9.99003,0.000305176,-0.00305176,-2.42531,0.0562914,-0.073232,0.0553487,0.016649,-0.0919257,0.145624,-0.129429,-0.0819601,0.0119019,0.022049,0.0154495,0.014267,0.0191498,0.0101471,0.0257874,0.0238419,-9.97986,0.0190735,0.000648499,0.0172424,0.00823975,0.00305176,-0.00152588,0.0183105,0.00526428
13,2,-9.99003,0.0012207,-0.00152588,-2.42623,0.0559862,-0.0753682,0.0553487,0.0493029,-0.0910102,0.145318,-0.126682,-0.0807394,0.0124359,0.0219345,0.0225067,0.0141144,0.0166702,0.00926971,0.0230408,0.0230789,-9.97986,0.0188446,0.000190735,0.0130081,0.0088501,-0.0030899,-0.00358582,0.0154877,0.00415802
13,3,-9.99003,0.000305176,-0.000152588,-2.42653,0.0547655,-0.0753682,0.0550435,0.0596788,-0.090705,0.145318,-0.125766,-0.0825704,0.0075531,0.0201416,0.017662,0.00980377,0.018425,0.0120544,0.0201416,0.0151062,-9.97986,0.0144577,-0.00556946,0.0159836,0.00720978,-0.00335693,-0.00396729,0.0170898,0.00423431
13,4,-9.99003,0.000305176,-0.000152588,-2.42653,0.0553758,-0.0744527,0.0553487,0.0819567,-0.0897895,0.147149,-0.124546,-0.0822652,0.00801086,0.0236893,0.0193405,0.0148773,0.022316,0.0104904,0.0186539,0.013504,-9.97986,0.0110245,-0.00320435,0.0154114,0.00331879,0.0105286,-0.00213623,0.0151825,0.00534058
13,5,-7.85319,-0.000915527,0.0038147,-2.42501,0.0547655,-0.0753682,0.0568746,0.142076,-0.0830757,0.145013,-0.120884,-0.0831808,0.00988007,0.0214005,0.0214767,0.0138092,0.0175476,0.0134659,0.018158,0.0114441,-9.97986,0.00778198,-0.00289917,0.016861,0.00644684,0.0143051,-0.00263214,0.0157928,0.00659943
13,6,-0.371504,0.00213623,0.00411987,-2.42806,0.0541551,-0.0744527,0.0553487,0.151537,-0.0870429,0.143792,-0.121494,-0.0850118,0.00808716,0.0189972,0.0151443,0.0116348,0.0192261,0.0128174,0.0242996,0.00762939,-9.97986,0.0105286,0,0.0167084,0.010376,0.0152588,-0.00457764,0.0170135,0.00522614
13,7,7.41475,-0.000610352,0.00411987,-2.42714,0.0547655,-0.0753682,0.0526021,0.151842,-0.0900947,0.144708,-0.122715,-0.0850118,0.000648499,0.0216675,0.0160599,0.012207,0.0190353,0.0113297,0.0242996,0.0104904,-9.97986,0.0056076,-0.00350952,0.0134277,0.00881195,0.0191498,-0.00637054,0.015564,0.00614166
13,8,10.0097,-0.00183105,0.00305176,-2.43081,0.0541551,-0.0765889,0.0501607,0.121324,-0.0965034,0.141961,-0.125156,-0.0883688,0.00911713,0.0228882,0.0216293,0.0110245,0.0226212,0.0180054,0.0229645,0.0127792,-9.97986,0.0111008,0.000572205,0.0182343,0.00770569,0.019722,-0.00312805,0.0134659,0.00656128
13,9,10.0097,0.00183105,0.000762939,-2.4305,0.0523241,-0.0753682,0.0513814,0.0901964,-0.0983344,0.143182,-0.126377,-0.0883688,0.00396729,0.0174713,0.0117874,0.00606537,0.0146103,0.00587463,0.0177765,0.0107193,-9.97986,0.0102234,0.000495911,0.0165558,0.00965118,0.0145721,-0.00255585,0.0167465,0.00663757
14,0,10.0097,0.000305176,0.000152588,-2.43081,0.0541551,-0.0765889,0.0510762,0.0792101,-0.0971137,0.143182,-0.126377,-0.0883688,0.00968933,0.0231552,0.0180435,0.0139236,0.0185013,0.00991821,0.0202942,0.0105286,-9.97986,0.0104141,-0.00648499,0.0144577,0.00843048,0.0183487,-0.00282288,0.0165558,0.00312805
14,1,10.0097,-0.00274658,0.000152588,-2.42806,0.0547655,-0.0762837,0.0519917,0.0734117,-0.0952827,0.143792,-0.126072,-0.0868429,0.0111389,0.0236893,0.0188446,0.0136948,0.0204468,0.0124359,0.0230026,0.0164413,-9.97986,0.0124741,-0.00164032,0.0185394,0.00991821,0.0175095,-0.000991821,0.0200272,0.00770569
14,2,10.0097,0.000610352,0,-2.42806,0.0562914,-0.0747579,0.0535176,0.0734117,-0.0946723,0.145318,-0.126377,-0.0850118,0.00968933,0.0226593,0.0211334,0.00850677,0.0182724,0.0129318,0.0188065,0.0159454,-9.97986,0.0104141,-0.00217438,0.0144577,0.0075531,0.0185013,-0.0025177,0.0147247,0.00888824
14,3,10.0097,0.00213623,0.000457764,-2.42806,0.0553758,-0.0756734,0.0532125,0.072191,-0.0934516,0.144708,-0.126072,-0.0847066,0.00965118,0.0235748,0.0148773,0.0100327,0.0182343,0.00957489,0.0223923,0.0182724,-9.97986,0.0128937,-3.8147e-005,0.0148773,0.00808716,0.0205612,-0.000534058,0.015831,0.00602722
14,4,10.0097,0.000610352,-0.000152588,-2.42592,0.0550706,-0.0744527,0.0532125,0.0706652,-0.0925361,0.145929,-0.124851,-0.0831808,0.00991821,0.0202942,0.0257111,0.012207,0.0180817,0.00904083,0.0243378,0.0193787,-9.97986,0.0141144,-0.000686646,0.0150681,0.00961304,0.0183105,-0.00164032,0.0157547,0.00522614
14,5,10.0097,-0.000610352,0.000305176,-2.42531,0.0569017,-0.0744527,0.0544332,0.0709703,-0.0928413,0.146234,-0.125156,-0.0816549,0.0123215,0.025444,0.0172424,0.0115204,0.0157547,0.00953674,0.0239563,0.0159454,-9.97986,0.0110245,0.00152588,0.00904083,0.00423431,0.0230789,-0.00602722,0.0170517,0.00835419
14,6,10.0097,-0.000915527,-0.000305176,-2.42531,0.0572069,-0.0723164,0.0544332,0.0706652,-0.0913154,0.147455,-0.123325,-0.0813497,0.0151062,0.0234222,0.0175095,0.0141144,0.0162506,0.00972748,0.0234985,0.0180817,-9.97986,0.0164795,-0.000152588,0.0152969,0.00461578,0.0188065,-0.00179291,0.0150681,0.0063324
14,7,10.0097,-0.000305176,0.000305176,-2.42745,0.0562914,-0.075063,0.0522969,0.0505236,-0.0937568,0.146844,-0.126072,-0.0825704,0.0120544,0.0249863,0.018959,0.0144958,0.0156021,0.0139999,0.0231552,0.0236893,-9.97986,0.0154495,-0.00247955,0.0118637,0.00595093,0.0172806,-0.00537872,0.0174713,0.00534058
14,8,7.79897,0.0012207,-0.00167847,-2.42745,0.0550706,-0.0744527,0.0519917,-0.000135623,-0.0998603,0.147149,-0.128513,-0.0837911,0.0150299,0.0276947,0.0192261,0.0143814,0.0178146,0.0107574,0.0226974,0.0257874,-9.97986,0.0226212,-0.00286102,0.0159454,0.00892639,0.0206375,-0.00396729,0.0187683,0.00705719
14,9,-0.962019,0.0012207,-0.00396729,-2.42653,0.0572069,-0.0726216,0.0535176,-0.011122,-0.0971137,0.147149,-0.130039,-0.0822652,0.012207,0.0294876,0.0157166,0.0109482,0.0159836,0.010376,0.0257492,0.0264359,-9.97986,0.0191879,-0.00415802,0.0159836,0.00247955,0.0204849,-0.001297,0.0208282,0.00770569
15,0,-8.57524,0.000915527,-0.00518799,-2.42623,0.055681,-0.0735371,0.0535176,-0.0156996,-0.0961982,0.147455,-0.130039,-0.0813497,0.0100327,0.0233841,0.0194168,0.0122452,0.0193787,0.00907898,0.0224304,0.0252914,-9.97986,0.0208282,0.000572205,0.0159836,0.00740051,0.017662,-0.00514984,0.0133896,0.00644684
15,1,-9.99003,0.00244141,-0.00305176,-2.42409,0.0559862,-0.0726216,0.0553487,0.0163439,-0.0922309,0.145929,-0.128208,-0.080129,0.0115967,0.0250244,0.0211334,0.0136566,0.0170517,0.013237,0.0236893,0.0302887,-9.97986,0.0208664,0.000953674,0.018158,0.00324249,0.00343323,-0.00415802,0.0151825,0.00526428
15,2,-9.99003,0.0012207,-0.00137329,-2.42501,0.055681,-0.0729268,0.055959,0.0486925,-0.0900947,0.146539,-0.126377,-0.0819601,0.00991821,0.0283432,0.0156403,0.00961304,0.0167465,0.0141144,0.0196075,0.0216675,-9.97986,0.0201416,0.0038147,0.0151443,0.00621796,-0.00804901,-0.0038147,0.013504,0.00606537
15,3,-9.99003,0.000305176,0,-2.42562,0.0541551,-0.0747579,0.0538228,0.0602892,-0.0916206,0.146844,-0.125766,-0.0819601,0.00835419,0.0239944,0.0172424,0.0116348,0.0161743,0.0111008,0.0179672,0.0167847,-9.97986,0.0173569,0.00305176,0.0116348,0.00766754,-0.00495911,-0.00282288,0.0156403,0.00236511
15,4,-9.99003,0.00244141,0.000152588,-2.42562,0.055681,-0.0747579,0.054128,0.0834825,-0.0885688,0.145929,-0.124546,-0.0822652,0.00724792,0.0232697,0.0163651,0.00972748,0.015831,0.0112152,0.0221252,0.0159454,-9.97986,0.017662,0.00179291,0.0146484,0.00720978,0.00862122,-0.00175476,0.017395,0.00518799
15,5,-7.81657,0.000610352,0.00320435,-2.42562,0.0547655,-0.0744527,0.0565694,0.141771,-0.0839912,0.145318,-0.120578,-0.0825704,0.00495911,0.0247192,0.0178146,0.0125122,0.0161362,0.00686646,0.0236893,0.00846863,-9.97986,0.0117874,0.00553131,0.0101471,0.00583649,0.0164032,-0.0025177,0.0173187,0.0031662
15,6,-0.322675,0.000610352,0.00442505,-2.42745,0.0544603,-0.0756734,0.0538228,0.149706,-0.0876533,0.144403,-0.121799,-0.0844015,0.00991821,0.0252151,0.0194168,0.0104904,0.0151825,0.00846863,0.0196457,0.00801086,-9.97986,0.00938416,-0.000953674,0.0157928,0.00770569,0.0160217,-0.00125885,0.0162125,0.00362396
15,7,7.51882,-0.000305176,0.00442505,-2.42837,0.0535448,-0.0753682,0.0538228,0.153368,-0.0897895,0.143487,-0.121494,-0.0850118,0.00934601,0.0230408,0.0148392,0.013237,0.0150681,0.00888824,0.0172424,0.0135803,-9.97986,0.00789642,-0.00232697,0.0143051,0.00614166,0.0170135,-0.00133514,0.0194931,0.00553131
15,8,10.0097,-0.000305176,0.00442505,-2.43111,0.0544603,-0.0765889,0.0483296,0.120714,-0.0961982,0.144098,-0.124241,-0.0883688,0.0116348,0.0222778,0.0204468,0.00972748,0.0144577,0.00991821,0.0211334,0.0123596,-9.97986,0.0110245,-0.00110626,0.0154495,0.00789642,0.0161743,0,0.0179291,0.00831604
15,9,10.0097,0.000610352,0.00183105,-2.4305,0.0532396,-0.0771993,0.0498555,0.0895861,-0.095893,0.142267,-0.125156,-0.0886739,0.0110626,0.0230408,0.019722,0.0109863,0.0186157,0.00907898,0.0193024,0.0130844,-9.97986,0.00934601,0.00225067,0.0122452,0.00576019,0.0140381,-0.00087738,0.0178528,0.00934601
16,0,10.0097,0.000305176,-0.000305176,-2.42867,0.0535448,-0.0768941,0.0504659,0.0782946,-0.0977241,0.143182,-0.127598,-0.0877584,0.011673,0.023613,0.0170135,0.00965118,0.0176239,0.00621796,0.0233841,0.0151062,-9.97986,0.00999451,0.000190735,0.0140381,0.00453949,0.0165176,-0.00709534,0.0132751,0.00526428
16,1,10.0097,-0.000610352,-0.000305176,-2.42898,0.0541551,-0.0768941,0.0522969,0.0731066,-0.0943672,0.143792,-0.126377,-0.085317,0.0120544,0.0272369,0.0190353,0.0127411,0.0170135,0.0118256,0.0264359,0.0164413,-9.97986,0.0136566,-0.00343323,0.0144958,0.00717163,0.0153732,-0.000534058,0.0166702,0.00965118
16,2,10.0097,0.000305176,-0.000457764,-2.42745,0.0544603,-0.0762837,0.0529073,0.0718859,-0.0934516,0.145318,-0.126072,-0.0847066,0.0114441,0.0231552,0.0200272,0.00862122,0.0166321,0.0132751,0.0231171,0.0182343,-9.97986,0.0131607,0.00106812,0.00915527,0.00312805,0.0159454,0,0.0170135,0.00579834
16,3,10.0097,0.000915527,0.000305176,-2.42806,0.055681,-0.0753682,0.0532125,0.07036,-0.0934516,0.145624,-0.125766,-0.0847066,0.00896454,0.0246429,0.0170135,0.0110626,0.0162888,0.0111008,0.0199127,0.0182724,-9.97986,0.0146484,0.00404358,0.015564,0.00213623,0.0134277,0.000724792,0.0171661,0.00614166
16,4,10.0097,0.000305176,0.000610352,-2.42653,0.0550706,-0.0747579,0.0538228,0.0712755,-0.0919257,0.146234,-0.125461,-0.0840963,0.0105286,0.0225067,0.0150681,0.011673,0.0182343,0.00740051,0.0212097,0.0212479,-9.97986,0.0145721,0.00377655,0.0151443,0.0043869,0.0174332,-0.00213623,0.0159454,0.00926971
16,5,10.0097,0.000610352,0.000305176,-2.42562,0.0572069,-0.073232,0.055959,0.0712755,-0.0931465,0.146234,-0.124241,-0.0810445,0.0115967,0.0250244,0.0164413,0.0117111,0.022049,0.00793457,0.0231552,0.0148392,-9.97986,0.0179291,0.0031662,0.00785828,0.00576019,0.0178146,-0.00389099,0.0126266,0.00789642
16,6,10.0097,0.00457764,-0.000152588,-2.42592,0.0572069,-0.0741475,0.0544332,0.0706652,-0.0910102,0.146844,-0.12302,-0.0804342,0.0119781,0.0211334,0.0169754,0.00892639,0.0151062,0.00980377,0.019455,0.0187302,-9.97986,0.0186539,0.00343323,0.0115204,0.00995636,0.0170135,-0.00289917,0.0144958,0.00801086
16,7,10.0097,0.00183105,-0.000152588,-2.42684,0.055681,-0.0747579,0.0519917,0.0486925,-0.0943672,0.145624,-0.126377,-0.0819601,0.0134277,0.0259018,0.0159454,0.0130081,0.0149155,0.01194,0.0218201,0.022049,-9.97986,0.0182343,0.00244141,0.0144958,0.00514984,0.0151443,-0.000114441,0.0143433,0.00644684
16,8,7.68392,0.000915527,-0.00244141,-2.42684,0.0562914,-0.0747579,0.0513814,-0.000135623,-0.0995551,0.146234,-0.130344,-0.0840963,0.00907898,0.0260544,0.0169754,0.0112534,0.0151443,0.0110626,0.0200272,0.0257492,-9.97986,0.0207138,0.000152588,0.0157928,0.00518799,0.017128,-0.00663757,0.0133514,0.00476837
16,9,-1.07707,-0.000610352,-0.00411987,-2.42684,0.0569017,-0.0738423,0.0538228,-0.011122,-0.0977241,0.146844,-0.129734,-0.0813497,0.0142288,0.0242996,0.0165176,0.0104141,0.019989,0.0152969,0.0238419,0.0273132,-9.97986,0.0218201,0.0030899,0.0131989,0.00614166,0.0167084,-0.0030899,0.0178909,0.00854492
17,0,-8.74614,0.000915527,-0.00534058,-2.42623,0.0565965,-0.073232,0.0538228,-0.0141737,-0.0977241,0.147149,-0.130344,-0.0819601,0.0120163,0.0205994,0.0137711,0.00926971,0.0167084,0.0102615,0.0227356,0.025444,-9.97986,0.0227737,-0.00247955,0.0136566,0.0094223,0.0140381,-0.00434875,0.0175095,0.00778198
17,1,-9.99003,0.00152588,-0.00320435,-2.42379,0.055681,-0.0729268,0.0565694,0.0181749,-0.0922309,0.146844,-0.127292,-0.0807394,0.0133896,0.022049,0.0164032,0.00938416,0.0166321,0.00705719,0.0181198,0.0261307,-9.97986,0.0175858,-0.00331879,0.0135803,0.00667572,0.00236511,-0.00652313,0.014801,0.00961304
17,2,-9.99003,-0.000915527,-0.0012207,-2.42653,0.0547655,-0.0741475,0.055959,0.0499132,-0.0897895,0.146234,-0.126682,-0.0819601,0.00976563,0.0222397,0.0173569,0.0107574,0.0175476,0.0117874,0.0188446,0.0246811,-9.97986,0.0203705,-0.00038147,0.00846863,0.00556946,-0.00774384,-0.000534058,0.0150299,0.00602722
17,3,-9.99003,-0.000305176,-0.000610352,-2.42531,0.0562914,-0.0738423,0.0553487,0.0615099,-0.0919257,0.145318,-0.126682,-0.0819601,0.0082016,0.0213623,0.0141525,0.00862122,0.0143051,0.0110245,0.0221252,0.0208664,-9.97986,0.0157547,-0.000534058,0.0128174,0.00865936,-0.00907898,-0.00228882,0.0170898,0.00576019
17,4,-9.99003,-0.000305176,0.000457764,-2.42623,0.055681,-0.0747579,0.0553487,0.0816515,-0.0900947,0.146234,-0.123935,-0.0825704,0.0107956,0.0227356,0.0167847,0.00938416,0.0154495,0.0127029,0.0217819,0.0123978,-9.97986,0.0154495,-0.000648499,0.0177002,0.00576019,0.00984192,-0.0025177,0.0167465,0.00576019
17,5,-7.79857,0.0012207,0.00335693,-2.42623,0.055681,-0.0747579,0.0562642,0.141161,-0.0861274,0.144098,-0.121494,-0.0816549,0.0111389,0.0240707,0.0192642,0.0132751,0.0173187,0.0088501,0.0195313,0.0094986,-9.97986,0.0100327,-0.00400543,0.013504,0.00759125,0.018425,-0.0044632,0.0127411,0.00709534
17,6,-0.298567,0.00183105,0.00411987,-2.42745,0.0535448,-0.0753682,0.0544332,0.150011,-0.0873481,0.144708,-0.121494,-0.0844015,0.0131607,0.0226974,0.0165558,0.0118637,0.0166702,0.0151825,0.0183487,0.0129318,-9.97986,0.0112534,-0.00328064,0.0133896,0.00907898,0.0132751,-0.00305176,0.0159454,0.00801086
17,7,7.52278,-0.000305176,0.00457764,-2.42806,0.0538499,-0.0753682,0.0538228,0.151537,-0.0910102,0.143487,-0.120884,-0.0847066,0.0131226,0.0225067,0.0224304,0.0140762,0.0171661,0.00766754,0.0196838,0.010643,-9.97986,0.00827789,-0.00450134,0.00938416,0.0113678,0.016098,-0.00148773,0.0161743,0.00778198
17,8,10.0097,-0.000610352,0.00350952,-2.43142,0.0523241,-0.0775044,0.0486348,0.121019,-0.0961982,0.142877,-0.124851,-0.0889791,0.00869751,0.0257492,0.0208664,0.00843048,0.0142288,0.0122452,0.0209427,0.00892639,-9.97986,0.0105667,-0.00518799,0.0157547,0.00888824,0.0159454,-0.00293732,0.0134277,0.00556946
17,9,10.0097,0.00152588,0.000762939,-2.43081,0.0550706,-0.0759786,0.0504659,0.0889757,-0.0971137,0.143487,-0.126377,-0.0874532,0.0110626,0.0245667,0.0200272,0.0141144,0.0202179,0.0114059,0.0237656,0.0128555,-9.97986,0.0119781,0.000648499,0.0161743,0.00148773,0.0153732,-0.00202179,0.0130844,0.00953674
18,0,10.0097,0.0012207,0.000152588,-2.42837,0.0532396,-0.0753682,0.050771,0.0776842,-0.0965034,0.142877,-0.126987,-0.0880636,0.012207,0.0253296,0.0220871,0.0131226,0.019455,0.0140381,0.0212097,0.0153351,-9.97986,0.0104523,0.00144958,0.01297,0.00350952,0.0151443,-0.00324249,0.0154495,0.00411987
18,1,10.0097,0.000610352,0.000152588,-2.42928,0.0547655,-0.0756734,0.0522969,0.0724962,-0.0965034,0.144403,-0.127292,-0.0859274,0.00747681,0.024147,0.0194931,0.0125504,0.0181198,0.00595093,0.0229645,0.0150299,-9.97986,0.0128937,-0.00476837,0.0108337,0.00545502,0.0143433,-0.00282288,0.0148773,0.00804901
18,2,10.0097,0.000610352,0.000152588,-2.42684,0.0550706,-0.0747579,0.0535176,0.072191,-0.0946723,0.143792,-0.127292,-0.0856222,0.00747681,0.0208282,0.0178528,0.0117493,0.0186157,0.0114059,0.0188065,0.0140762,-9.97986,0.0173569,0.000190735,0.0164032,0.00576019,0.0127792,0.00217438,0.0170898,0.00743866
18,3,10.0097,0.00152588,-0.000152588,-2.42776,0.0550706,-0.0741475,0.0529073,0.0709703,-0.0943672,0.145013,-0.126377,-0.085317,0.00980377,0.0247574,0.0183868,0.0107574,0.0181961,0.0152206,0.0217438,0.0128937,-9.97986,0.0160217,-0.000114441,0.0149918,0.00541687,0.0137711,-0.00644684,0.0128174,0.00396729
18,4,10.0097,0.0012207,0.000305176,-2.42623,0.0550706,-0.0747579,0.0538228,0.0700548,-0.0934516,0.145929,-0.125766,-0.0834859,0.0105286,0.0214005,0.0166321,0.00995636,0.0146103,0.0112152,0.0220108,0.0180817,-9.97986,0.0167084,-0.000419617,0.014534,0.00469208,0.0156021,-0.0043869,0.0141144,0.00473022
18,5,10.0097,0.000305176,0.000152588,-2.42409,0.0547655,-0.0741475,0.0535176,0.0718859,-0.0922309,0.146844,-0.124546,-0.0816549,0.0120544,0.0241852,0.0210571,0.0101089,0.0164413,0.0100327,0.0206375,0.0171661,-9.97986,0.015564,-0.000724792,0.0162125,0.00720978,0.019722,-0.00152588,0.0157547,0.00450134
18,6,10.0097,0.000305176,0.000152588,-2.4247,0.0562914,-0.073232,0.0550435,0.072191,-0.0916206,0.147149,-0.124851,-0.0813497,0.0134277,0.0237274,0.0214767,0.00656128,0.017128,0.0123978,0.0215912,0.015564,-9.97986,0.0168991,0.00392914,0.0150681,0.00804901,0.0162506,-0.0025177,0.0211716,0.00774384
18,7,10.0097,0,0.000762939,-2.42623,0.0559862,-0.0744527,0.0532125,0.0502184,-0.0949775,0.145929,-0.126987,-0.0825704,0.0147247,0.0259781,0.0180054,0.00953674,0.0152588,0.010643,0.016861,0.0212479,-9.97986,0.0196075,0.00209808,0.0116348,0.0111771,0.0119019,-0.00747681,0.0178909,0.0069046
18,8,7.91066,0.000915527,-0.00274658,-2.42714,0.0569017,-0.0741475,0.0522969,0.00322131,-0.0995551,0.145318,-0.129429,-0.0837911,0.0131989,0.0219727,0.0186539,0.00812531,0.0133514,0.0137329,0.0221252,0.0295258,-9.97986,0.0203323,-0.000686646,0.0118256,0.00751495,0.0196075,-0.00686646,0.0102615,0.0069046
18,9,-0.855207,0.000305176,-0.00366211,-2.42653,0.0569017,-0.0738423,0.0532125,-0.0102064,-0.0971137,0.146844,-0.128818,-0.0822652,0.0146103,0.0224686,0.0184631,0.00785828,0.0185013,0.0062561,0.0221252,0.0214386,-9.97986,0.0231552,-0.00400543,0.0167847,0.00495911,0.0186539,-0.00602722,0.0119781,0.00774384
19,0,-8.53496,0,-0.00488281,-2.42501,0.0553758,-0.0747579,0.0535176,-0.0169203,-0.0961982,0.147149,-0.130344,-0.0813497,0.0127411,0.0231934,0.0180817,0.0139999,0.0149536,0.0115967,0.0226974,0.0290298,-9.97986,0.0205231,-0.00255585,0.0134277,0.00637054,0.0179672,-0.00148773,0.0175095,0.00839233
19,1,-9.99003,0.00244141,-0.00350952,-2.4247,0.0562914,-0.0747579,0.0550435,0.0163439,-0.0931465,0.145929,-0.126987,-0.0810445,0.010643,0.0213623,0.016098,0.0114822,0.0163651,0.0125885,0.0196838,0.0233078,-9.97986,0.0215149,-0.00102997,0.0128937,0.00804901,0.00259399,-0.00259399,0.0149918,0.00637054
19,2,-9.99003,0.000305176,-0.0012207,-2.4244,0.0562914,-0.0723164,0.055959,0.0474718,-0.0910102,0.146234,-0.126377,-0.0819601,0.0106049,0.0223541,0.0195313,0.0125122,0.015831,0.0117874,0.0175476,0.0233459,-9.97986,0.0225449,-0.000991821,0.0153351,0.00415802,-0.0063324,-0.00644684,0.0178528,0.00663757
19,3,-9.99003,-0.000610352,-0.000152588,-2.42562,0.055681,-0.0747579,0.0553487,0.0608995,-0.0916206,0.146234,-0.126682,-0.0822652,0.00972748,0.0186539,0.0198746,0.0133514,0.0185013,0.00930786,0.0151825,0.0214767,-9.97986,0.015831,-0.00682831,0.0100327,0.00671387,-0.0062561,-0.00450134,0.0177383,0.00736237
19,4,-9.99003,0.000305176,0.000457764,-2.42592,0.055681,-0.0738423,0.055959,0.0847032,-0.0885688,0.144403,-0.123935,-0.0825704,0.0130463,0.0229645,0.0193405,0.00804901,0.0154495,0.0113297,0.0197601,0.0127411,-9.97986,0.0143433,-0.001297,0.0113297,0.00675201,0.0123215,-0.00377655,0.0141525,0.00534058
19,5,-7.62034,0.000610352,0.00350952,-2.42653,0.0547655,-0.0741475,0.0571797,0.142687,-0.0849067,0.145013,-0.120578,-0.0825704,0.00904083,0.0244904,0.0201797,0.00988007,0.0167465,0.0128174,0.0210953,0.0125122,-9.97986,0.0124359,-0.00156403,0.0136948,0.010643,0.0185394,-0.00598907,0.0159454,0.00926971
19,6,-0.204572,-0.000915527,0.00335693,-2.42776,0.0541551,-0.0753682,0.0553487,0.150926,-0.0882636,0.144403,-0.121494,-0.0837911,0.0102615,0.019722,0.0200653,0.00717163,0.0179672,0.00396729,0.0193024,0.00617981,-9.97986,0.00770569,-0.00476837,0.0149155,0.00808716,0.0156403,-0.00419617,0.0147247,0.00286102
19,7,7.66194,-0.000305176,0.00427246,-2.42745,0.0541551,-0.0756734,0.0544332,0.152147,-0.0900947,0.143792,-0.122104,-0.0859274,0.0101471,0.0219727,0.0211334,0.0108719,0.0152969,0.00930786,0.0193787,0.00999451,-9.97986,0.00953674,-0.00247955,0.00988007,0.00488281,0.0164032,-0.00385284,0.0179291,0.0044632
19,8,10.0097,-0.0012207,0.00320435,-2.4305,0.0514085,-0.0778096,0.0504659,0.119493,-0.0974189,0.142267,-0.123935,-0.0886739,0.0122452,0.0216293,0.0196457,0.0121689,0.0143051,0.00980377,0.0212479,0.00984192,-9.97986,0.0100327,-0.000915527,0.0161362,0.00740051,0.0165176,-0.00499725,0.0168228,0.00480652
19,9,10.0097,-0.000305176,0.000915527,-2.42959,0.0541551,-0.0765889,0.0501607,0.0886705,-0.0974189,0.142877,-0.126377,-0.0886739,0.00675201,0.0252151,0.0229645,0.00663757,0.0186539,0.00785828,0.0191879,0.0094986,-9.97986,0.0161362,-0.00286102,0.0135803,0.00530243,0.0118256,-0.0037384,0.0175858,0.00801086
20,0,10.0097,0.000305176,0.000305176,-2.4305,0.0538499,-0.0771993,0.050771,0.077379,-0.0968086,0.143487,-0.127292,-0.0877584,0.0121307,0.0279999,0.020752,0.0127411,0.013504,0.00972748,0.0217438,0.0156784,-9.97986,0.00907898,-0.00102997,0.0118256,0.00434875,0.0124359,-0.00331879,0.0148773,0.00534058
20,1,10.0097,-0.000305176,-0.000305176,-2.42806,0.0535448,-0.0756734,0.0522969,0.0737169,-0.0952827,0.143792,-0.127598,-0.0868429,0.0105286,0.0237274,0.0185394,0.0159073,0.0150681,0.00713348,0.0212479,0.0168991,-9.97986,0.0130844,-3.8147e-005,0.0111771,0.00717163,0.0134277,-0.00350952,0.0164795,0.00686646
20,2,10.0097,0.00183105,0.000457764,-2.42745,0.055681,-0.0747579,0.0519917,0.0724962,-0.0934516,0.143792,-0.127292,-0.085317,0.00450134,0.0237274,0.0210571,0.0137329,0.0198364,0.0121307,0.0223541,0.0112152,-9.97986,0.0159454,0.000915527,0.0125885,0.00495911,0.017128,-0.00160217,0.016098,0.00675201
20,3,10.0097,-0.000305176,-0.000610352,-2.42592,0.0547655,-0.075063,0.0532125,0.0712755,-0.0913154,0.144403,-0.126377,-0.0840963,0.00965118,0.0206375,0.0206375,0.0140381,0.0177002,0.0100327,0.0244904,0.0172043,-9.97986,0.0137329,0.00087738,0.0162506,0.00530243,0.0185394,-0.00392914,0.0172424,0.0056839
20,4,10.0097,-0.000305176,-0.000152588,-2.42684,0.0553758,-0.0741475,0.0547383,0.0697496,-0.094062,0.145318,-0.126072,-0.0825704,0.00782013,0.0205231,0.0151825,0.00583649,0.013504,0.00648499,0.0222015,0.0187683,-9.97986,0.0138092,-0.00164032,0.0115204,0.00232697,0.014801,-0.00595093,0.0110626,0.00705719
20,5,10.0097,-0.000610352,0.000305176,-2.42501,0.0553758,-0.0747579,0.054128,0.07036,-0.0910102,0.145929,-0.125766,-0.0825704,0.0106049,0.0202179,0.0210953,0.00831604,0.0193405,0.00991821,0.0231934,0.0188065,-9.97986,0.0141907,-0.00232697,0.0157928,0.00240326,0.0167847,-0.00202179,0.0185776,0.0102234
20,6,10.0097,0.000610352,0.000305176,-2.42501,0.0565965,-0.0741475,0.054128,0.0724962,-0.0919257,0.146234,-0.123935,-0.0816549,0.0131607,0.0234985,0.0214005,0.0109863,0.0138092,0.0104523,0.0192261,0.0220871,-9.97986,0.0179672,0.000572205,0.0147247,0.0056839,0.0194168,-0.00576019,0.0150299,0.00648499
20,7,10.0097,-0.000305176,-0.000305176,-2.42653,0.0553758,-0.0747579,0.0532125,0.0493029,-0.094062,0.145624,-0.126682,-0.0825704,0.0144577,0.0266266,0.0178909,0.0150681,0.0130463,0.0131607,0.0201797,0.0214005,-9.97986,0.016098,-0.00354767,0.0134277,0.0062561,0.0193024,-0.00785828,0.0185013,0.00461578
20,8,7.81789,0.0012207,-0.00183105,-2.42714,0.0547655,-0.0738423,0.0516866,-0.000135623,-0.100776,0.146234,-0.129429,-0.0828756,0.0136566,0.0271988,0.0226212,0.014801,0.0192642,0.0123215,0.0200653,0.0255966,-9.97986,0.0211334,0.00087738,0.0177765,0.00946045,0.0192642,-0.00301361,0.0153732,0.00637054
20,9,-0.96385,0.00152588,-0.00350952,-2.42653,0.0575121,-0.0744527,0.0535176,-0.0114271,-0.0974189,0.146844,-0.129429,-0.0822652,0.0121307,0.0250626,0.0161362,0.0148392,0.0149918,0.0106812,0.0222778,0.0252914,-9.97986,0.0232315,-0.00499725,0.014534,0.00965118,0.0154495,-0.00404358,0.0166321,0.00904083
21,0,-8.64146,-0.000610352,-0.00396729,-2.42501,0.0569017,-0.0744527,0.0544332,-0.0163099,-0.0961982,0.145624,-0.130954,-0.0810445,0.0116348,0.0282288,0.0185013,0.0104904,0.0184631,0.0115967,0.0196457,0.0237274,-9.97986,0.0224686,0.00530243,0.0158691,0.00514984,0.0185776,-0.00465393,0.0162125,0.00793457
21,1,-9.99003,0.000610352,-0.00289917,-2.42501,0.0562914,-0.0729268,0.0562642,0.0163439,-0.0919257,0.147455,-0.128818,-0.0813497,0.0113297,0.0242996,0.0177002,0.0101471,0.0172806,0.00770569,0.0251389,0.0178528,-9.97986,0.0240326,-0.00404358,0.0137711,0.00457764,-0.000724792,-0.00392914,0.0138855,0.00240326
21,2,-9.99003,0.000305176,-0.000915527,-2.42592,0.055681,-0.0741475,0.055959,0.049608,-0.0903999,0.146844,-0.126682,-0.0804342,0.0125885,0.0274277,0.0173569,0.0159454,0.0177002,0.0105667,0.0244904,0.0208664,-9.97986,0.0207901,-0.00331879,0.0151443,0.0088501,-0.0104523,-0.00411987,0.0159836,0.00816345
21,3,-9.99003,0.000915527,-0.000457764,-2.42592,0.0541551,-0.0744527,0.0553487,0.0618151,-0.0919257,0.145318,-0.126072,-0.0822652,0.00984192,0.0228882,0.0198364,0.0112152,0.0216675,0.00938416,0.0213623,0.0184631,-9.97986,0.0178528,0.00606537,0.010643,0.00919342,-0.00644684,-0.0037384,0.0183868,0.00816345
21,4,-9.99003,0.000305176,-0.000152588,-2.42623,0.0553758,-0.0747579,0.0556539,0.0850084,-0.0885688,0.145929,-0.124851,-0.0819601,0.00831604,0.0236893,0.0186539,0.0125122,0.0193405,0.0140762,0.0242996,0.0127029,-9.97986,0.0130463,-0.000724792,0.0122833,0.00602722,0.0125885,-0.00137329,0.0177383,0.00629425
21,5,-7.72319,0.000610352,0.00350952,-2.42562,0.0544603,-0.0744527,0.0565694,0.142992,-0.083686,0.144403,-0.120884,-0.0825704,0.00804901,0.0226212,0.0183868,0.0137711,0.0156021,0.0107193,0.0218582,0.0094223,-9.97986,0.0094223,-0.00198364,0.0142288,0.0110245,0.0166321,-0.000724792,0.0156403,0.00530243
21,6,-0.177107,-0.000305176,0.00411987,-2.42684,0.0544603,-0.0747579,0.0556539,0.151842,-0.0882636,0.143792,-0.121189,-0.0850118,0.00995636,0.0233078,0.0209808,0.0126648,0.0146484,0.0105667,0.0222397,0.0126648,-9.97986,0.0128174,-0.00293732,0.0146866,0.00782013,0.0172043,-0.00148773,0.0145721,0.00465393
21,7,7.69521,-0.000610352,0.00457764,-2.42714,0.0544603,-0.0753682,0.0532125,0.152757,-0.090705,0.143487,-0.121494,-0.0847066,0.0101089,0.0246048,0.014801,0.0118256,0.015564,0.00667572,0.0186539,0.00869751,-9.97986,0.0113678,0.00179291,0.014534,0.00537872,0.0175095,-0.0038147,0.0156021,0.0038147
21,8,10.0097,0.000610352,0.00350952,-2.4305,0.0520189,-0.0762837,0.0501607,0.118883,-0.0965034,0.142572,-0.123935,-0.0880636,0.0138855,0.0238037,0.014534,0.0138855,0.0153351,0.0102615,0.0232697,0.0100708,-9.97986,0.00930786,-0.00156403,0.0144577,0.0043869,0.0152969,-0.0030899,0.0140762,0.00514984
21,9,10.0097,-0.0012207,0.00106812,-2.43081,0.0532396,-0.0768941,0.0498555,0.0889757,-0.0983344,0.141961,-0.126377,-0.0889791,0.0113297,0.0243378,0.0193024,0.0165176,0.0151443,0.0146484,0.0217056,0.0142288,-9.97986,0.011673,-0.00175476,0.00957489,0.00640869,0.0150681,-0.00217438,0.0136948,0.00640869
22,0,10.0097,0.000915527,-0.000152588,-2.42898,0.0532396,-0.0759786,0.0519917,0.0767687,-0.0955879,0.142877,-0.127598,-0.0880636,0.00751495,0.0253677,0.0178146,0.00995636,0.0144958,0.00614166,0.0205612,0.00946045,-9.97986,0.0147629,-0.00442505,0.0149155,0.00453949,0.0196457,-0.00198364,0.0148392,0.0069046
22,1,10.0097,-0.000305176,-0.000152588,-2.42867,0.0547655,-0.0768941,0.0516866,0.0734117,-0.094062,0.144098,-0.126987,-0.0868429,0.00812531,0.0226593,0.0154877,0.0157928,0.0128174,0.0125122,0.0201797,0.0154114,-9.97986,0.00907898,-0.00240326,0.0143814,0.00541687,0.0136185,-0.0018692,0.013504,0.00328064
22,2,10.0097,0.000305176,0.000152588,-2.42653,0.0559862,-0.0744527,0.0529073,0.07036,-0.0937568,0.143792,-0.126072,-0.085317,0.012207,0.0263214,0.0170898,0.0115204,0.0170135,0.0111771,0.0231934,0.0184631,-9.97986,0.0164413,0.000228882,0.0121689,0.00865936,0.0151443,0.000152588,0.0165558,0.00354767
22,3,10.0097,0,0.000152588,-2.42653,0.0547655,-0.0741475,0.0535176,0.0706652,-0.094062,0.143487,-0.125766,-0.0847066,0.00946045,0.0245285,0.0165558,0.0141907,0.0174332,0.0110626,0.0251007,0.0142288,-9.97986,0.0154114,-0.00087738,0.0162125,0.00324249,0.0176239,-0.00335693,0.0157166,0.00694275
22,4,10.0097,0.0012207,-0.000152588,-2.42684,0.055681,-0.0738423,0.0553487,0.0718859,-0.0919257,0.145624,-0.125156,-0.0837911,0.0117493,0.0223541,0.0187302,0.0121307,0.0173187,0.0120163,0.0196838,0.0161362,-9.97986,0.0131226,-0.00457764,0.0150681,0.00610352,0.0166702,-7.62939e-005,0.0122833,0.00534058
22,5,10.0097,-0.000305176,0.000457764,-2.42562,0.0565965,-0.075063,0.0538228,0.0715807,-0.0916206,0.147149,-0.12363,-0.0810445,0.0126648,0.0227356,0.0183487,0.0114822,0.0185013,0.0143051,0.0190735,0.0119019,-9.97986,0.019455,-0.000534058,0.0131989,0.00377655,0.0170135,-0.000419617,0.0143051,0.0050354
22,6,10.0097,-0.000915527,0.000305176,-2.4247,0.0559862,-0.0729268,0.0556539,0.0697496,-0.0922309,0.145929,-0.123935,-0.0813497,0.00896454,0.0220871,0.0187683,0.0103378,0.0132751,0.00854492,0.0230789,0.0173569,-9.97986,0.0177765,-0.00495911,0.0139618,0.00831604,0.0147629,-0.00427246,0.0139618,0.00679016
22,7,10.0097,0.000610352,0.000305176,-2.42623,0.0559862,-0.0747579,0.0538228,0.0493029,-0.0965034,0.146234,-0.126377,-0.0828756,0.0104904,0.0231552,0.0185013,0.0133133,0.019722,0.0133896,0.0205231,0.021286,-9.97986,0.017128,-0.00659943,0.0186539,0.00736237,0.0169373,0.0012207,0.0174332,0.00652313
22,8,7.71321,0.000915527,-0.00244141,-2.42776,0.0559862,-0.0747579,0.0519917,0.00108508,-0.0998603,0.146234,-0.129429,-0.0828756,0.0131226,0.0229263,0.020256,0.0139618,0.0187302,0.0139999,0.0230789,0.0263596,-9.97986,0.0174332,-0.000190735,0.0170517,0.00751495,0.0179672,-0.00167847,0.0153351,0.00598907
22,9,-0.839338,-0.00152588,-0.00335693,-2.42653,0.055681,-0.073232,0.0535176,-0.0102064,-0.0961982,0.147455,-0.129734,-0.0819601,0.0138092,0.02491,0.0173569,0.0127792,0.021286,0.0102615,0.0226212,0.0291061,-9.97986,0.0258255,-0.00839233,0.0162888,0.00946045,0.0165176,0.000152588,0.0139999,0.00576019
23,0,-8.47331,0.00305176,-0.00457764,-2.42806,0.0559862,-0.0741475,0.054128,-0.0166151,-0.0968086,0.147149,-0.130649,-0.0819601,0.0104523,0.0162888,0.0200653,0.0107574,0.0174713,0.0094223,0.0207901,0.028801,-9.97986,0.0207901,-0.00522614,0.0159454,0.00801086,0.0175858,-0.000610352,0.0159454,0.00732422
23,1,-9.99003,0.000915527,-0.00335693,-2.42409,0.0553758,-0.075063,0.0547383,0.0175646,-0.0913154,0.145624,-0.127292,-0.0810445,0.00976563,0.0246429,0.0178909,0.00751495,0.0170898,0.0109863,0.0238037,0.0272369,-9.97986,0.0193787,-0.000534058,0.0165939,0.0037384,0.00411987,0.00114441,0.0141144,0.00816345
23,2,-9.99003,0,-0.00137329,-2.42592,0.0550706,-0.0738423,0.0556539,0.0474718,-0.0903999,0.146844,-0.126377,-0.0816549,0.0100708,0.0210953,0.0158691,0.00816345,0.0162888,0.00679016,0.0234222,0.0214005,-9.97986,0.0154877,-0.00392914,0.0160217,0.00270844,-0.00938416,-0.00247955,0.0145721,0.0094986
23,3,-9.99003,0.000610352,0.000305176,-2.42623,0.0544603,-0.0744527,0.0553487,0.0605944,-0.0913154,0.145013,-0.126682,-0.0822652,0.0112534,0.0250626,0.0180435,0.0109863,0.018959,0.00999451,0.0221634,0.0179672,-9.97986,0.0137711,-0.00137329,0.017395,0.00511169,-0.00862122,-0.00114441,0.0181198,0.0063324
23,4,-9.99003,-0.000305176,0.000915527,-2.42531,0.0559862,-0.0744527,0.0562642,0.0862291,-0.0882636,0.145318,-0.124851,-0.0825704,0.0108719,0.0244904,0.0197601,0.0124741,0.0180435,0.0101089,0.0223541,0.0107193,-9.97986,0.0141525,-0.000152588,0.0181198,0.00530243,0.0147247,-0.00255585,0.0162125,0.00370026
23,5,-7.33928,0.000610352,0.00335693,-2.42653,0.0550706,-0.0744527,0.0577901,0.143297,-0.0839912,0.144708,-0.121494,-0.0822652,0.00995636,0.0198746,0.020256,0.01297,0.0136566,0.0122833,0.0196838,0.0123978,-9.97986,0.0127792,-0.00354767,0.0149918,0.00816345,0.0154495,-0.00240326,0.0117493,0.00255585
23,6,0.116778,0.0012207,0.00427246,-2.42653,0.0538499,-0.075063,0.0544332,0.151842,-0.0867378,0.143792,-0.120884,-0.0837911,0.00846863,0.0255966,0.0196457,0.00812531,0.0152206,0.00839233,0.0226974,0.01297,-9.97986,0.00865936,-0.00289917,0.0146103,0.00644684,0.0137329,0.00125885,0.0143433,0.00556946
23,7,7.94484,0,0.00442505,-2.42806,0.0535448,-0.0762837,0.0532125,0.152452,-0.0897895,0.143792,-0.119968,-0.0862325,0.0136185,0.0265121,0.0180817,0.0111771,0.0146866,0.0108337,0.0212097,0.00938416,-9.97986,0.00743866,-0.00461578,0.0161362,0.00736237,0.0162125,-0.00179291,0.0156403,0.00896454
23,8,10.0097,-0.000305176,0.00320435,-2.4305,0.0532396,-0.0765889,0.0504659,0.116442,-0.0968086,0.142877,-0.124241,-0.0883688,0.0111771,0.0225449,0.0179672,0.00930786,0.0162888,0.00740051,0.0209045,0.0142288,-9.97986,0.00892639,-0.00347137,0.0177002,0.00732422,0.0166321,-0.000991821,0.0147247,0.00549316
23,9,10.0097,0.000610352,0.0012207,-2.4305,0.0535448,-0.0771993,0.0501607,0.0868395,-0.0971137,0.142877,-0.128208,-0.0883688,0.00961304,0.0214767,0.0165939,0.00961304,0.0127411,0.0107574,0.025177,0.012207,-9.97986,0.0135803,-0.00240326,0.0162888,0.00289917,0.016098,-0.00331879,0.0146103,0.00492096
24,0,10.0097,-0.000305176,-0.000305176,-2.42928,0.0532396,-0.0756734,0.0519917,0.077379,-0.0965034,0.144403,-0.127903,-0.0880636,0.0100708,0.0240326,0.0234604,0.0114822,0.016861,0.00888824,0.0206375,0.0115204,-9.97986,0.0115967,-0.00282288,0.0162125,0.00728607,0.0169754,-0.000419617,0.0141525,0.00617981
24,1,10.0097,-0.000915527,0.000305176,-2.42837,0.0550706,-0.0753682,0.0526021,0.0737169,-0.094062,0.145013,-0.126987,-0.0865377,0.0159073,0.0211334,0.0161743,0.0133896,0.018692,0.013237,0.0244904,0.0149155,-9.97986,0.0138474,-0.00534058,0.0110245,0.00694275,0.0170135,-0.00274658,0.017395,0.00614166
24,2,10.0097,-0.000915527,0,-2.42745,0.055681,-0.0744527,0.0532125,0.0715807,-0.0946723,0.144708,-0.126682,-0.0840963,0.0110245,0.02285,0.0207901,0.0120163,0.0157166,0.0136566,0.0189209,0.0168991,-9.97986,0.0176239,-0.00843048,0.0127411,0.00629425,0.013237,-0.0018692,0.0128555,0.00549316
24,3,10.0097,0.000305176,-0.000457764,-2.42714,0.0559862,-0.0756734,0.0544332,0.0715807,-0.0946723,0.144403,-0.126682,-0.0847066,0.00911713,0.0222015,0.0165176,0.00789642,0.0139236,0.0102997,0.0214005,0.0170898,-9.97986,0.0160217,-0.00335693,0.0133514,0.0069809,0.0164795,-0.00167847,0.0180817,0.00743866
24,4,10.0097,0.000610352,0.000152588,-2.42684,0.0547655,-0.0738423,0.054128,0.0715807,-0.0934516,0.144403,-0.125766,-0.0840963,0.0114822,0.0233078,0.0173187,0.0119019,0.0177383,0.00850677,0.0262451,0.019455,-9.97986,0.0152588,-0.00259399,0.0127792,0.00457764,0.0130463,-0.00255585,0.0193405,0.00839233
24,5,10.0097,-0.0012207,0.000152588,-2.42562,0.055681,-0.0735371,0.054128,0.0731066,-0.0928413,0.147455,-0.125156,-0.0822652,0.0117493,0.02491,0.0209808,0.0111008,0.0177383,0.00782013,0.0243759,0.0190353,-9.97986,0.0168228,-0.00164032,0.0154114,0.00507355,0.0157166,-0.00370026,0.0151443,0.00511169
24,6,10.0097,0.000305176,0.000305176,-2.42501,0.0562914,-0.0735371,0.0550435,0.0737169,-0.0916206,0.146844,-0.12363,-0.0810445,0.0117111,0.0166702,0.0183487,0.00648499,0.0195694,0.0063324,0.0226593,0.0162506,-9.97986,0.0179672,-0.000114441,0.0131607,0.00652313,0.0169373,-0.000724792,0.0152969,0.00617981
24,7,10.0097,-0.00183105,0.000152588,-2.42684,0.0553758,-0.0747579,0.0529073,0.0514391,-0.095893,0.145624,-0.125766,-0.0834859,0.0110245,0.0242233,0.0210953,0.0109482,0.0156403,0.00736237,0.0216675,0.0218582,-9.97986,0.0175858,-0.00358582,0.00770569,0.00762939,0.0182343,-0.00179291,0.0141144,0.00598907
24,8,7.93965,0.000610352,-0.00274658,-2.42714,0.055681,-0.0744527,0.0516866,0.00200061,-0.0998603,0.146234,-0.130039,-0.0828756,0.0113678,0.0231552,0.0193787,0.0110626,0.014534,0.0167847,0.0284576,0.0290298,-9.97986,0.0237656,-0.00118256,0.0193024,0.0109482,0.0198364,-0.0031662,0.0157547,0.00610352
24,9,-0.85948,0.000305176,-0.00366211,-2.42653,0.0569017,-0.0729268,0.0544332,-0.0105116,-0.0971137,0.146844,-0.129429,-0.0825704,0.0169754,0.0244141,0.0205231,0.0121307,0.0173569,0.00907898,0.023613,0.0240326,-9.97986,0.0251007,-0.000419617,0.0157166,0.00778198,0.021553,-0.00171661,0.0173187,0.0069046
25,0,-8.48369,0.000305176,-0.00442505,-2.42531,0.0565965,-0.073232,0.0538228,-0.0153944,-0.0983344,0.14776,-0.129123,-0.0819601,0.0108719,0.0255203,0.0209427,0.0111389,0.0222397,0.0134277,0.0209808,0.025177,-9.97986,0.0215912,0.000495911,0.0151443,0.00743866,0.0186157,-0.000534058,0.0166702,0.00930786
25,1,-9.99003,0,-0.00289917,-2.4247,0.0559862,-0.0744527,0.055959,0.0160387,-0.0925361,0.145624,-0.127903,-0.0810445,0.00968933,0.0230408,0.0184631,0.00789642,0.0156784,0.00907898,0.0241089,0.0249863,-9.97986,0.017662,-0.000305176,0.0124741,0.00823975,0.00507355,3.8147e-005,0.0147629,0.00679016
25,2,-9.99003,0.000610352,-0.00137329,-2.4247,0.0550706,-0.073232,0.0565694,0.0480822,-0.0919257,0.145013,-0.126072,-0.0810445,0.0130081,0.0230789,0.0159836,0.0133514,0.0145721,0.0166321,0.0210571,0.0236511,-9.97986,0.0179291,0.00278473,0.0174713,0.0069046,-0.00732422,0.00183105,0.016098,0.0101471
25,3,-9.99003,0.000915527,-0.000305176,-2.42684,0.0559862,-0.0741475,0.0550435,0.059984,-0.0913154,0.145013,-0.126072,-0.0822652,0.00743866,0.0245285,0.0219345,0.0134659,0.0177765,0.0128937,0.0205994,0.0189209,-9.97986,0.0170517,-3.8147e-005,0.014267,0.00843048,-0.00614166,-0.00598907,0.0147247,0.00591278
25,4,-9.99003,-0.000915527,0.000457764,-2.42592,0.0553758,-0.0744527,0.0562642,0.0847032,-0.088874,0.145624,-0.12363,-0.0819601,0.0109863,0.0237274,0.0167084,0.0112534,0.0146103,0.0082016,0.0170898,0.0125122,-9.97986,0.0087738,-0.00110626,0.0143814,0.00621796,0.0123215,-0.000305176,0.0143433,0.00354767
25,5,-7.40397,0.00183105,0.00350952,-2.42501,0.0538499,-0.0747579,0.0568746,0.143602,-0.0849067,0.143182,-0.121189,-0.0828756,0.00751495,0.0239563,0.0180054,0.0130844,0.0170898,0.0123596,0.0227737,0.0140381,-9.97986,0.0121689,-0.000839233,0.0150299,0.0044632,0.0167084,-0.00339508,0.0153732,0.00793457
25,6,0.0868705,0.000305176,0.00411987,-2.42776,0.0538499,-0.0747579,0.0538228,0.152757,-0.0867378,0.145318,-0.120884,-0.0844015,0.00762939,0.0214767,0.0148392,0.0133133,0.0142288,0.0124359,0.0250626,0.0115967,-9.97986,0.0120163,0.000190735,0.0114441,0.00995636,0.01194,-0.00038147,0.0178909,0.00743866
25,7,7.86916,0.00274658,0.00411987,-2.42776,0.0541551,-0.0759786,0.0526021,0.152452,-0.0913154,0.143182,-0.121494,-0.0859274,0.00747681,0.0238419,0.0183868,0.0139618,0.0187683,0.0101089,0.022583,0.00549316,-9.97986,0.00923157,-0.00228882,0.0176239,0.00598907,0.0124359,-0.00354767,0.0151062,0.00709534
25,8,10.0097,-0.000610352,0.00335693,-2.43111,0.0544603,-0.0775044,0.0492452,0.118578,-0.0968086,0.143182,-0.125156,-0.0886739,0.0112152,0.0231552,0.0202179,0.0113297,0.0201035,0.0120544,0.0203705,0.0126648,-9.97986,0.00984192,0.00205994,0.0141525,0.00694275,0.0151825,0.00282288,0.0166321,0.00766754
25,9,10.0097,0.000915527,0.00152588,-2.43081,0.0532396,-0.0765889,0.0501607,0.087755,-0.095893,0.142572,-0.126987,-0.0886739,0.00804901,0.0227356,0.0214386,0.0102615,0.0150681,0.00732422,0.0203705,0.0133896,-9.97986,0.0144958,-0.00133514,0.0157166,0.00617981,0.0172806,0.00152588,0.0165176,0.00427246
26,0,10.0097,-0.00213623,-0.000305176,-2.42898,0.0529344,-0.0762837,0.0513814,0.0779894,-0.095893,0.144708,-0.126377,-0.0898946,0.0111389,0.019722,0.0127029,0.00934601,0.0207138,0.0117111,0.0194168,0.0156021,-9.97986,0.0104904,-0.00583649,0.0152588,0.00709534,0.0151062,-0.0031662,0.0156403,0.00934601
26,1,10.0097,0.000610352,0.000457764,-2.42867,0.0538499,-0.075063,0.0526021,0.0728014,-0.0946723,0.143792,-0.126987,-0.0865377,0.0157166,0.0242615,0.0238419,0.0147247,0.0228882,0.0087738,0.02491,0.0215912,-9.97986,0.0160217,3.8147e-005,0.0161362,0.00919342,0.0210571,0.00347137,0.0173187,0.00972748
26,2,10.0097,0.000305176,-0.000305176,-2.42592,0.0547655,-0.0747579,0.0522969,0.0718859,-0.0937568,0.145013,-0.127292,-0.0862325,0.0105286,0.0161362,0.0148773,0.00278473,0.00782013,0.00762939,0.0172806,0.0138855,-9.97986,0.00919342,-0.00801086,0.0121689,0.00495911,0.00907898,-0.00442505,0.0125885,0.00354767
26,3,10.0097,0,-0.0012207,-2.42745,0.0547655,-0.0756734,0.0535176,0.0697496,-0.0943672,0.145318,-0.126072,-0.0840963,0.010376,0.0234604,0.0205231,0.0141144,0.0165558,0.0125885,0.0215912,0.0167847,-9.97986,0.0101471,-0.000724792,0.0109482,0.00579834,0.0112152,-0.00141144,0.0129318,0.00354767
26,4,10.0097,-0.000610352,0.000915527,-2.42623,0.0559862,-0.0744527,0.0526021,0.0724962,-0.0934516,0.145013,-0.125766,-0.0831808,0.0144577,0.022583,0.0191498,0.0101471,0.0150681,0.0133896,0.0262451,0.0158691,-9.97986,0.0161743,-0.00141144,0.0162888,0.00671387,0.015564,0.000610352,0.0149536,0.00747681
26,5,10.0097,0.000610352,-0.000610352,-2.42501,0.0569017,-0.0741475,0.0547383,0.0715807,-0.0925361,0.145929,-0.123935,-0.0825704,0.0122452,0.0233078,0.0160599,0.0143433,0.0157166,0.00732422,0.0231552,0.0188828,-9.97986,0.0169373,0.00179291,0.0136948,0.00362396,0.0168228,-0.00286102,0.0133133,0.00606537
26,6,10.0097,-0.000915527,0.000305176,-2.42653,0.0569017,-0.0747579,0.0550435,0.072191,-0.0919257,0.146844,-0.122715,-0.0807394,0.01194,0.0257111,0.0165558,0.0102615,0.0204468,0.0113678,0.0248718,0.0169754,-9.97986,0.0193405,0.00190735,0.0147247,0.00911713,0.0196457,-0.000419617,0.0153351,0.00602722
26,7,10.0097,0.000305176,-0.000762939,-2.42592,0.0553758,-0.0744527,0.0532125,0.0499132,-0.0952827,0.145929,-0.125156,-0.0834859,0.00934601,0.0244522,0.0212097,0.0121307,0.0173187,0.00717163,0.0195694,0.021019,-9.97986,0.0201416,-0.00125885,0.0124741,0.00488281,0.0202942,-0.00617981,0.0163651,0.00740051
26,8,7.78401,0.00183105,-0.00289917,-2.42776,0.0559862,-0.0744527,0.0519917,0.00200061,-0.09925,0.145929,-0.129734,-0.0840963,0.0104904,0.022316,0.0192642,0.0121307,0.0174713,0.00995636,0.0166702,0.0213623,-9.97986,0.0200272,-0.00320435,0.0135422,0.00724792,0.0180817,-0.00354767,0.0152588,0.00732422
26,9,-0.947675,0.00274658,-0.00396729,-2.42531,0.0575121,-0.0741475,0.0529073,-0.0102064,-0.095893,0.146539,-0.130039,-0.0828756,0.013237,0.0237656,0.0179291,0.00988007,0.0217819,0.0108719,0.0177002,0.0250244,-9.97986,0.0202179,-0.0019455,0.0112534,0.00873566,0.0153351,-0.00534058,0.0156403,0.00743866
27,0,-8.55052,0,-0.00473022,-2.42562,0.055681,-0.0747579,0.0532125,-0.0166151,-0.095893,0.145013,-0.129123,-0.0810445,0.0106049,0.027504,0.0204849,0.0144196,0.0166321,0.0112915,0.0212479,0.0251389,-9.97986,0.0191116,0.0012207,0.0150681,0.0043869,0.0170517,-0.00469208,0.0174713,0.00762939
27,1,-9.99003,0.000915527,-0.00305176,-2.42409,0.055681,-0.075063,0.0544332,0.0154283,-0.0922309,0.145624,-0.128818,-0.080129,0.0131989,0.0251389,0.0200272,0.0120163,0.0169373,0.00946045,0.0203705,0.0258636,-9.97986,0.0172424,0.00282288,0.0111771,0.00583649,0.000724792,-0.00278473,0.0150681,0.00732422
27,2,-9.99003,0.000305176,-0.00106812,-2.4247,0.0562914,-0.0744527,0.0562642,0.0483873,-0.0903999,0.146234,-0.126682,-0.0816549,0.0121689,0.0242996,0.0169754,0.0125504,0.0142288,0.00984192,0.0247955,0.0198364,-9.97986,0.0205231,-0.00507355,0.0119019,0.00499725,-0.00606537,-0.00282288,0.0147247,0.00747681
27,3,-9.99003,-0.000610352,-0.000915527,-2.42653,0.0541551,-0.0741475,0.0550435,0.0608995,-0.0922309,0.144708,-0.125461,-0.0822652,0.00682831,0.0220108,0.0191879,0.0088501,0.018425,0.0107574,0.0214767,0.0213242,-9.97986,0.0174713,-0.00297546,0.0111389,0.00598907,-0.011673,-0.00247955,0.0127411,0.00679016
27,4,-9.99003,0.00183105,0.0012207,-2.42562,0.0559862,-0.0744527,0.0562642,0.0843981,-0.0879585,0.146844,-0.124546,-0.0819601,0.00919342,0.0251007,0.0226593,0.0144196,0.0156021,0.0107956,0.023613,0.0125504,-9.97986,0.0150299,-0.00175476,0.0173569,0.00968933,0.0146103,0.000953674,0.0172043,0.00831604
27,5,-7.58891,-0.000610352,0.00366211,-2.42562,0.055681,-0.075063,0.0571797,0.142992,-0.0849067,0.144403,-0.12241,-0.0828756,0.0116348,0.0244141,0.0198364,0.0141907,0.0177002,0.00801086,0.0212097,0.013504,-9.97986,0.0106049,-0.00392914,0.00892639,0.00667572,0.0200272,-0.00225067,0.0167847,0.00659943
27,6,-0.0617501,0.00183105,0.00411987,-2.42806,0.0541551,-0.0744527,0.0550435,0.153063,-0.0873481,0.144708,-0.121494,-0.0834859,0.00663757,0.0230026,0.0193405,0.0069809,0.0169373,0.00389099,0.0170135,0.0129318,-9.97986,0.00759125,0.00217438,0.0144196,0.00343323,0.0172043,-0.00240326,0.0153351,0.00495911
27,7,7.89754,0.0012207,0.00473022,-2.42867,0.0535448,-0.075063,0.0550435,0.152147,-0.090705,0.144098,-0.121494,-0.085317,0.00751495,0.025177,0.021019,0.0100708,0.0181961,0.00736237,0.0209808,0.00930786,-9.97986,0.0119781,0.00274658,0.0185013,0.00835419,0.0141525,-0.00301361,0.0146103,0.00423431
27,8,10.0097,0.00183105,0.00320435,-2.43081,0.0523241,-0.0759786,0.0516866,0.118273,-0.0971137,0.142572,-0.125156,-0.0889791,0.0112915,0.0266647,0.0145721,0.0142288,0.0146866,0.00671387,0.0226212,0.0167465,-9.97986,0.00705719,0.0019455,0.0124359,0.00484467,0.0163651,0.00118256,0.0182343,0.00728607
27,9,10.0097,0.00152588,0.00106812,-2.42989,0.0538499,-0.0775044,0.0498555,0.0889757,-0.0971137,0.143487,-0.126682,-0.0886739,0.0107193,0.022049,0.0178146,0.0119019,0.0185013,0.00595093,0.0235367,0.00968933,-9.97986,0.0132751,0.001297,0.0147247,0.00724792,0.0226974,0.000801086,0.0172424,0.00572205
28,0,10.0097,0.000915527,-0.000610352,-2.42928,0.0532396,-0.075063,0.0519917,0.0782946,-0.0965034,0.144098,-0.127292,-0.0871481,0.0121689,0.022316,0.0197983,0.0126648,0.0178146,0.0136948,0.019989,0.013504,-9.97986,0.0141144,0.00427246,0.017128,0.00812531,0.0187302,-0.00473022,0.0146103,0.00865936
28,1,10.0097,0.000915527,-0.000152588,-2.42898,0.0529344,-0.075063,0.0519917,0.0728014,-0.0955879,0.145929,-0.126987,-0.0868429,0.00896454,0.0205994,0.0171661,0.0149536,0.0177002,0.0125504,0.0207138,0.0186539,-9.97986,0.0127792,-0.00434875,0.0132751,0.00705719,0.0164795,-0.000534058,0.0162888,0.00713348
28,2,10.0097,0.000305176,0.000305176,-2.42806,0.0547655,-0.075063,0.0529073,0.0718859,-0.0946723,0.145318,-0.126987,-0.0850118,0.0112915,0.0205612,0.0223923,0.00892639,0.0149918,0.00965118,0.0211334,0.0138092,-9.97986,0.0111771,-0.00236511,0.0123215,0.00389099,0.0149155,-0.00225067,0.016861,0.00732422
28,3,10.0097,0.00244141,0,-2.42745,0.0544603,-0.0744527,0.0526021,0.0700548,-0.0937568,0.144403,-0.126682,-0.0834859,0.0116348,0.0215149,0.0144958,0.0106812,0.0172424,0.00888824,0.0266647,0.0163651,-9.97986,0.0172043,-0.00289917,0.0164413,0.00679016,0.0192261,0.00148773,0.0175095,0.00423431
28,4,10.0097,0.0012207,0.000610352,-2.42745,0.0559862,-0.0738423,0.054128,0.0712755,-0.0922309,0.145624,-0.124851,-0.0844015,0.0140762,0.0208282,0.0190735,0.0115967,0.0197601,0.0104141,0.0212097,0.0183487,-9.97986,0.0134277,0.00148773,0.0131989,0.0109482,0.0182724,-0.00305176,0.0195694,0.0088501
28,5,10.0097,-0.000610352,0.000457764,-2.42531,0.0565965,-0.0741475,0.054128,0.0712755,-0.090705,0.146234,-0.124241,-0.0822652,0.0123978,0.0204849,0.0181198,0.0139999,0.0188828,0.0126266,0.0230789,0.0131607,-9.97986,0.0148773,-0.00164032,0.0134659,0.00671387,0.0177002,-0.000991821,0.0198746,0.00782013
28,6,10.0097,0.000610352,0.000457764,-2.42531,0.0572069,-0.0738423,0.0547383,0.0709703,-0.0900947,0.145929,-0.124241,-0.0804342,0.012207,0.0203323,0.0166702,0.00457764,0.0222778,0.0112152,0.0235748,0.0218201,-9.97986,0.0133896,-0.0044632,0.0116348,0.00480652,0.0162125,-0.0012207,0.0165558,0.00766754
28,7,10.0097,0,0.000305176,-2.42684,0.0559862,-0.0756734,0.0526021,0.0493029,-0.0955879,0.146234,-0.126072,-0.0825704,0.0126266,0.0233078,0.0161362,0.0138855,0.0189972,0.0106049,0.0202179,0.0226593,-9.97986,0.0164413,-0.00404358,0.0159454,0.0107193,0.0147629,-0.0019455,0.0160599,0.00831604
28,8,7.72847,0,-0.00213623,-2.42714,0.0575121,-0.0738423,0.0522969,0.00169543,-0.0983344,0.145318,-0.129429,-0.0837911,0.0113297,0.0183868,0.0218964,0.0143433,0.0181961,0.01091,0.0244522,0.0257492,-9.97986,0.0196838,-0.00297546,0.0124741,0.00358582,0.0147629,-0.00434875,0.017395,0.00812531
28,9,-1.00902,-0.000915527,-0.00335693,-2.42653,0.0569017,-0.0753682,0.0532125,-0.00898572,-0.0971137,0.146539,-0.130039,-0.0825704,0.0106049,0.0213623,0.021019,0.0137711,0.0201416,0.0136566,0.0224304,0.0284195,-9.97986,0.0214386,0.00370026,0.00919342,0.00831604,0.0181198,-0.00324249,0.0165176,0.00648499
29,0,-8.65855,0.000305176,-0.0050354,-2.42562,0.055681,-0.0735371,0.0538228,-0.0160048,-0.0968086,0.146539,-0.130344,-0.0813497,0.0111389,0.0243759,0.0222015,0.0130844,0.019455,0.00804901,0.0210571,0.0287628,-9.97986,0.0245667,0.00118256,0.0128174,0.00766754,0.0167084,-0.00801086,0.0141144,0.00705719
29,1,-9.99003,0.000915527,-0.00335693,-2.42562,0.055681,-0.0735371,0.0556539,0.0175646,-0.0925361,0.147455,-0.127292,-0.0807394,0.0125122,0.0187683,0.021286,0.00930786,0.0175095,0.0134659,0.0196075,0.0253677,-9.97986,0.019455,-0.00259399,0.0138092,0.00648499,-0.00263214,-0.0056076,0.0167847,0.00736237
29,2,-9.99003,-0.000610352,-0.000915527,-2.42562,0.0550706,-0.0747579,0.0553487,0.0489977,-0.090705,0.145624,-0.125156,-0.0804342,0.0127411,0.0237656,0.0144196,0.0116348,0.017395,0.00988007,0.0218964,0.0230789,-9.97986,0.016861,0.000686646,0.0163651,0.00667572,-0.0043869,-0.00205994,0.0173569,0.00701904
29,3,-9.99003,0.0012207,0.000305176,-2.42714,0.055681,-0.0738423,0.0550435,0.0615099,-0.0910102,0.145318,-0.125461,-0.0825704,0.0125122,0.0249863,0.0192642,0.0137711,0.0194931,0.0136566,0.0256348,0.019989,-9.97986,0.018158,0.000572205,0.0148392,0.00801086,-0.00782013,-0.00118256,0.0153351,0.00465393
29,4,-9.99003,0.000915527,0.000457764,-2.42501,0.055681,-0.075063,0.0553487,0.0828722,-0.0894843,0.145929,-0.123935,-0.0822652,0.00858307,0.0252151,0.0175476,0.0112534,0.0138092,0.0114441,0.0228119,0.0133896,-9.97986,0.0148392,0.00267029,0.0152969,0.00770569,0.0148773,0.000190735,0.0168991,0.00576019
29,5,-7.5236,0.00152588,0.00335693,-2.4247,0.0538499,-0.0753682,0.0562642,0.142381,-0.0852119,0.143792,-0.121799,-0.0831808,0.00385284,0.0234604,0.0187302,0.0102615,0.0194168,0.00686646,0.0201035,0.010376,-9.97986,0.00892639,-0.0075531,0.0123978,0.00713348,0.0150299,-0.00614166,0.0141525,0.00324249
29,6,-0.0205514,-0.000305176,0.00396729,-2.42623,0.0535448,-0.0762837,0.0532125,0.152147,-0.0885688,0.144708,-0.121494,-0.0847066,0.0128174,0.0286102,0.0213623,0.014534,0.0179672,0.0110626,0.0196457,0.00762939,-9.97986,0.0107956,-0.00305176,0.018692,0.00743866,0.0165176,7.62939e-005,0.0169373,0.00648499
29,7,7.7834,0.000915527,0.00457764,-2.42776,0.0541551,-0.0765889,0.0544332,0.152757,-0.090705,0.143792,-0.122104,-0.0859274,0.00938416,0.0249863,0.0185013,0.0108337,0.0185013,0.00774384,0.0219727,0.00900269,-9.97986,0.0107956,0.00293732,0.0121307,0.00598907,0.0182343,-0.000953674,0.0153351,0.00751495
29,8,10.0097,0,0.00335693,-2.43172,0.0526292,-0.0771993,0.0492452,0.118578,-0.0949775,0.142267,-0.126072,-0.0874532,0.00915527,0.0215912,0.018158,0.0131607,0.0191116,0.0134277,0.025444,0.00965118,-9.97986,0.00991821,-0.00125885,0.0161743,0.00442505,0.0160599,0.000495911,0.0163269,0.00514984
29,9,10.0097,0.000610352,0.000762939,-2.4302,0.0541551,-0.0765889,0.0501607,0.0880602,-0.0977241,0.143487,-0.126682,-0.0880636,0.0152588,0.025177,0.0154877,0.0114822,0.016861,0.0146103,0.0209427,0.0154114,-9.97986,0.012207,-0.00350952,0.00957489,0.0069809,0.0162125,-0.00114441,0.0149155,0.00785828
30,0,10.0097,-0.000610352,0.000152588,-2.42959,0.0535448,-0.0765889,0.050771,0.077379,-0.095893,0.142877,-0.126987,-0.0880636,0.00591278,0.0201416,0.0182343,0.0088501,0.0205994,0.0112915,0.0256729,0.0143814,-9.97986,0.0114441,0.00038147,0.0156021,0.00804901,0.0185394,0.00240326,0.0178528,0.00850677
30,1,10.0097,-0.000610352,-0.000457764,-2.42867,0.0541551,-0.0756734,0.0522969,0.0728014,-0.0946723,0.144098,-0.126072,-0.0856222,0.0109863,0.0236893,0.0165176,0.0105667,0.0211716,0.0117874,0.0235367,0.0133514,-9.97986,0.0121689,-0.00518799,0.0148773,0.00732422,0.0128937,-0.00137329,0.0169754,0.00514984
30,2,10.0097,0.000915527,0.000152588,-2.42837,0.0541551,-0.075063,0.0535176,0.0718859,-0.0949775,0.144098,-0.126377,-0.085317,0.00720978,0.023613,0.0220871,0.0133133,0.0209045,0.011673,0.0223541,0.0157547,-9.97986,0.0167465,-0.00473022,0.014801,0.00617981,0.0150299,-0.00476837,0.0186539,0.0056076
30,3,10.0097,-0.000305176,0.000610352,-2.42776,0.0535448,-0.0762837,0.0538228,0.0706652,-0.094062,0.144708,-0.126072,-0.0844015,0.0110245,0.02285,0.0213242,0.0116348,0.0201797,0.0133514,0.0226593,0.0186157,-9.97986,0.0114441,-0.00144958,0.0144958,0.0056839,0.014801,-0.00137329,0.0179291,0.00629425
30,4,10.0097,-0.0268555,0.000457764,-2.42745,0.0550706,-0.0747579,0.0532125,0.0715807,-0.0934516,0.132196,-0.126072,-0.0840963,0.00991821,0.0239944,0.016861,0.0123978,0.019455,0.0132751,0.0205231,0.016098,-9.97986,0.0128937,-0.00434875,0.0123978,0.00717163,0.0141144,-0.00305176,0.0160599,0.00598907
30,5,10.0097,-0.000915527,0.000305176,-2.42409,0.0562914,-0.0744527,0.0556539,0.0706652,-0.0913154,0.141351,-0.123935,-0.0807394,0.0125504,0.0226974,0.018158,0.0111771,0.0211334,0.0121307,0.0234222,0.0170898,-9.97986,0.0178146,-0.00331879,0.0130463,0.00537872,0.0171661,-0.0031662,0.0163651,0.0056076
30,6,10.0097,-0.000915527,0,-2.42501,0.0569017,-0.0741475,0.0562642,0.0728014,-0.0903999,0.144403,-0.12363,-0.0807394,0.0114059,0.0226212,0.0222397,0.0114059,0.0189972,0.00911713,0.0222778,0.0200653,-9.97986,0.0193787,-0.00518799,0.0175476,0.00991821,0.0159836,0.0025177,0.016098,0.00732422
30,7,10.0097,0.000305176,-0.000457764,-2.42714,0.0562914,-0.0759786,0.0522969,0.0480822,-0.0952827,0.145013,-0.126987,-0.0822652,0.00991821,0.022583,0.0182724,0.0122452,0.0159836,0.0115967,0.0209808,0.0244141,-9.97986,0.0149155,-0.001297,0.0127792,0.00808716,0.0163269,-0.00133514,0.0157928,0.00766754
30,8,7.46846,0.000305176,-0.00320435,-2.42806,0.0553758,-0.0747579,0.0519917,0.000474729,-0.09925,0.144708,-0.129429,-0.0831808,0.0114822,0.0203323,0.0192642,0.0160599,0.0189209,0.0107193,0.0231552,0.0259781,-9.97986,0.0194168,-0.00652313,0.013504,0.00671387,0.018959,-0.00572205,0.0173187,0.00652313
30,9,-1.17625,-0.00152588,-0.00473022,-2.42531,0.0562914,-0.0735371,0.0532125,-0.0108168,-0.0961982,0.146234,-0.130039,-0.0825704,0.0112152,0.0199127,0.0177002,0.014267,0.0178528,0.0137329,0.0235748,0.026741,-9.97986,0.0233078,-0.00495911,0.0153351,0.00835419,0.0172806,-0.00797272,0.0152206,0.000534058
31,0,-8.84562,0.000305176,-0.00427246,-2.42562,0.0569017,-0.0738423,0.0547383,-0.018141,-0.0961982,0.146539,-0.130344,-0.0810445,0.0152206,0.0223541,0.0242996,0.00793457,0.0213242,0.0118637,0.0203705,0.0271225,-9.97986,0.0174332,-0.00225067,0.0141144,0.00759125,0.0179672,-0.0025177,0.0144577,0.0062561
31,1,-9.99003,0.000610352,-0.00305176,-2.42348,0.0572069,-0.073232,0.0565694,0.0193956,-0.0922309,0.146234,-0.127292,-0.0813497,0.0112534,0.0221634,0.024147,0.0123215,0.0231552,0.01297,0.026207,0.0265121,-9.97986,0.0159454,-0.00102997,0.0124359,0.00900269,-0.00389099,-0.00278473,0.0156021,0.00770569
31,2,-9.99003,-0.00213623,-0.0012207,-2.4247,0.0559862,-0.0747579,0.0547383,0.0493029,-0.0900947,0.146539,-0.126072,-0.0810445,0.013237,0.0236893,0.018425,0.0117111,0.0196838,0.00679016,0.0268555,0.0187683,-9.97986,0.0155258,-0.00591278,0.0117493,0.00793457,-0.00709534,-0.00511169,0.0141907,0.00648499
31,3,-9.99003,0,0.000457764,-2.42531,0.0553758,-0.075063,0.0547383,0.059984,-0.090705,0.145013,-0.125766,-0.0819601,0.0120544,0.0220871,0.0172424,0.00980377,0.0126266,0.0151443,0.0216293,0.019455,-9.97986,0.0197601,-0.00392914,0.0140762,0.0117874,-0.00953674,-0.00598907,0.0161362,0.00583649
31,4,-9.99003,0,0,-2.42501,0.055681,-0.0741475,0.0553487,0.0828722,-0.0897895,0.144403,-0.125766,-0.0819601,0.00774384,0.0261307,0.0180435,0.00961304,0.0198746,0.00839233,0.0232697,0.0128174,-9.97986,0.0136566,-0.0043869,0.0159454,0.00873566,0.00720978,-0.00137329,0.0148773,0.00576019
31,5,-7.66765,0.000610352,0.00335693,-2.42653,0.0547655,-0.0747579,0.0574849,0.141466,-0.0864326,0.145318,-0.120273,-0.0828756,0.0101471,0.0217819,0.0167465,0.0143051,0.0177765,0.011673,0.0204468,0.00720978,-9.97986,0.00896454,-0.000686646,0.0145721,0.00507355,0.0149155,-0.00331879,0.0169373,0.0082016
31,6,-0.194502,0.000610352,0.00442505,-2.42745,0.0532396,-0.0753682,0.0544332,0.150621,-0.0870429,0.144098,-0.120884,-0.0844015,0.0108719,0.0225067,0.0177002,0.0152206,0.014267,0.0115967,0.0231171,0.00530243,-9.97986,0.00999451,0.00038147,0.0153732,0.00743866,0.0161362,-0.00320435,0.0173187,0.00873566
31,7,7.5945,0.000610352,0.00442505,-2.42745,0.0544603,-0.0771993,0.0544332,0.152147,-0.088874,0.143792,-0.121189,-0.0859274,0.0105286,0.0238419,0.0191498,0.00946045,0.0138092,0.00785828,0.0207138,0.00667572,-9.97986,0.00667572,-0.000801086,0.00976563,0.0107193,0.0156403,-0.00301361,0.0164795,0.00770569
31,8,10.0097,0.000305176,0.00305176,-2.4305,0.0532396,-0.0778096,0.050771,0.120409,-0.0965034,0.142267,-0.124851,-0.0880636,0.00930786,0.0192261,0.0147247,0.01091,0.0138092,0.0109863,0.0217819,0.00991821,-9.97986,0.0118637,-0.00144958,0.0158691,0.00862122,0.0159836,-0.00118256,0.0141907,0.00789642
31,9,10.0097,0.000305176,0.000305176,-2.43111,0.0541551,-0.0762837,0.050771,0.0889757,-0.0971137,0.142572,-0.126682,-0.0883688,0.00682831,0.0200272,0.0218582,0.00900269,0.0111008,0.0111008,0.0198364,0.0108719,-9.97986,0.0114059,-0.00236511,0.0145721,0.00858307,0.0144577,-0.000419617,0.0178528,0.00598907
32,0,10.0097,-0.000305176,-0.000305176,-2.42928,0.0541551,-0.0765889,0.0513814,0.0776842,-0.0965034,0.143182,-0.126682,-0.0880636,0.00751495,0.0291824,0.0157928,0.00930786,0.014267,0.0121307,0.0234222,0.0104904,-9.97986,0.00804901,0.000190735,0.0127792,0.00534058,0.0143814,-0.00839233,0.015564,0.00770569
32,1,10.0097,-0.000305176,0.000152588,-2.42776,0.0529344,-0.0765889,0.0529073,0.0731066,-0.094062,0.144098,-0.126682,-0.085317,0.0114441,0.0249863,0.0139999,0.0125504,0.0172043,0.0102997,0.0203323,0.014267,-9.97986,0.0143051,0.000686646,0.0123596,0.00576019,0.018158,-0.00183105,0.0168991,0.00572205
32,2,10.0097,0.000610352,0.000152588,-2.42837,0.0553758,-0.0756734,0.0519917,0.0731066,-0.0937568,0.143487,-0.125766,-0.085317,0.0120926,0.0246048,0.0183868,0.0154495,0.0185394,0.00663757,0.0239944,0.0121307,-9.97986,0.0119019,-0.00110626,0.0124741,0.00782013,0.0191116,-0.00144958,0.0115204,0.0056076
32,3,10.0097,0.000305176,0.000610352,-2.42684,0.0553758,-0.0744527,0.0532125,0.0706652,-0.0937568,0.146234,-0.126682,-0.0847066,0.0112915,0.0258636,0.0200272,0.0131226,0.0165939,0.00881195,0.0240707,0.0157928,-9.97986,0.0163269,-7.62939e-005,0.016861,0.00816345,0.018158,-0.00469208,0.0174713,0.00759125
32,4,10.0097,0.000305176,0.000305176,-2.42684,0.0550706,-0.0744527,0.0526021,0.0718859,-0.0931465,0.144403,-0.126987,-0.0834859,0.00808716,0.0228119,0.0144577,0.0124741,0.0207138,0.00831604,0.022049,0.0168228,-9.97986,0.0160599,-0.001297,0.0141907,0.00778198,0.017395,-0.00423431,0.0137711,0.00644684
32,5,10.0097,0,0,-2.42501,0.0565965,-0.0738423,0.0544332,0.072191,-0.0922309,0.147149,-0.124546,-0.0807394,0.00984192,0.0249481,0.0115967,0.0111389,0.0180054,0.00972748,0.0236511,0.0175476,-9.97986,0.0118256,-0.00106812,0.0175858,0.00614166,0.0148392,-0.00442505,0.0157547,0.00408173
32,6,10.0097,0.00152588,0,-2.42531,0.0559862,-0.0744527,0.0553487,0.0712755,-0.0922309,0.146539,-0.126072,-0.0810445,0.0132751,0.0248337,0.0204086,0.0126648,0.015564,0.00984192,0.0203323,0.0157928,-9.97986,0.0165558,-0.00228882,0.0143433,0.0110626,0.0135803,-0.0038147,0.0169373,0.00831604
32,7,10.0097,-0.000305176,0,-2.42684,0.055681,-0.0768941,0.0519917,0.0493029,-0.0949775,0.146844,-0.125766,-0.0828756,0.0119019,0.0216675,0.0194168,0.00850677,0.0193405,0.0108337,0.018692,0.0204849,-9.97986,0.0195313,-0.00396729,0.0136566,0.00545502,0.0167847,-0.00648499,0.0141525,0.00537872
32,8,7.62136,0.000915527,-0.00259399,-2.42806,0.0559862,-0.0753682,0.0519917,0.00139026,-0.100776,0.145318,-0.128513,-0.0834859,0.0119019,0.0247192,0.0173569,0.0139999,0.0167847,0.00785828,0.0256348,0.0226593,-9.97986,0.0210953,0.00152588,0.0143051,0.0102234,0.0186157,-0.0104523,0.0154495,0.00682831
32,9,-1.0432,0.00213623,-0.00350952,-2.42501,0.0562914,-0.0744527,0.0535176,-0.0114271,-0.0965034,0.145929,-0.129429,-0.0822652,0.00984192,0.02285,0.0192642,0.0130081,0.0164032,0.0131607,0.021553,0.0233841,-9.97986,0.0217819,0.000686646,0.0141144,0.00858307,0.0130081,-0.00320435,0.0178909,0.0088501
33,0,-8.7675,-0.000610352,-0.00427246,-2.42592,0.0565965,-0.073232,0.0544332,-0.0163099,-0.0983344,0.146844,-0.130954,-0.0816549,0.0157166,0.0196457,0.0184631,0.0121689,0.0173569,0.0147247,0.0252151,0.0273514,-9.97986,0.0183105,-0.00282288,0.014267,0.00782013,0.0189209,-0.0037384,0.0185013,0.0087738
33,1,-9.99003,0.00183105,-0.00274658,-2.42531,0.0562914,-0.073232,0.0565694,0.016649,-0.0913154,0.146234,-0.127903,-0.080129,0.0108337,0.0233078,0.0172043,0.0094223,0.0159454,0.00762939,0.0249481,0.0204086,-9.97986,0.0174713,7.62939e-005,0.0174713,0.00732422,0.000190735,-0.00572205,0.0139999,0.00694275
33,2,-9.99003,0.000915527,-0.00152588,-2.42531,0.0547655,-0.0738423,0.0553487,0.0499132,-0.0903999,0.145318,-0.126682,-0.0807394,0.0122833,0.020752,0.0209045,0.0107956,0.0167084,0.0122452,0.0243378,0.0201416,-9.97986,0.020256,-0.00183105,0.011673,0.00709534,-0.00762939,-0.00541687,0.0176239,0.0094223
33,3,-9.99003,0.000915527,-0.000305176,-2.42592,0.0547655,-0.0741475,0.0556539,0.0596788,-0.0916206,0.146234,-0.126072,-0.0825704,0.0111771,0.0231934,0.0203705,0.010643,0.0203323,0.00801086,0.0209045,0.0166321,-9.97986,0.0169754,-0.00270844,0.0111008,0.00480652,-0.00907898,-0.00434875,0.0130081,0.00831604
33,4,-9.99003,0.00152588,0.000457764,-2.4247,0.0550706,-0.0738423,0.0553487,0.0847032,-0.0894843,0.145929,-0.124851,-0.0828756,0.00846863,0.0222778,0.0185776,0.0159454,0.0185776,0.0112152,0.0247955,0.015564,-9.97986,0.0144196,-0.00152588,0.0189972,0.00812531,0.0162506,-0.000648499,0.0195694,0.0063324
33,5,-7.54619,0.00213623,0.00274658,-2.42623,0.0544603,-0.075063,0.0553487,0.142687,-0.0855171,0.145013,-0.121189,-0.0825704,0.0117874,0.0238419,0.0186157,0.0151443,0.0159454,0.0128937,0.0271225,0.00770569,-9.97986,0.00850677,-0.00217438,0.0117111,0.00808716,0.017128,-0.00408173,0.014801,0.0075531
33,6,-0.00498744,-0.000915527,0.00320435,-2.42776,0.0544603,-0.0759786,0.0544332,0.151842,-0.0882636,0.143487,-0.121189,-0.0844015,0.0108719,0.0242233,0.0204468,0.00984192,0.0185776,0.011673,0.0259399,0.0107574,-9.97986,0.00850677,-0.00366211,0.0141144,0.000534058,0.0155258,-0.00442505,0.0165176,0.00751495
33,7,7.7892,0.0012207,0.00442505,-2.42898,0.0535448,-0.0753682,0.0544332,0.151842,-0.0900947,0.142877,-0.121189,-0.085317,0.0056076,0.0243378,0.0180817,0.0140762,0.0131607,0.00976563,0.0224304,0.0109863,-9.97986,0.00984192,-0.000457764,0.0135422,0.00843048,0.0161743,-0.00415802,0.0185776,0.00785828
33,8,10.0097,0.00274658,0.00289917,-2.43142,0.0523241,-0.0768941,0.0501607,0.119798,-0.0971137,0.142572,-0.124241,-0.0880636,0.0114441,0.0196075,0.0167465,0.0135422,0.0157547,0.00892639,0.0205612,0.0125504,-9.97986,0.0113678,0.0030899,0.0125885,0.0101471,0.0147629,-0.00621796,0.0154877,0.00598907
33,9,10.0097,0.000305176,0.00106812,-2.43142,0.0529344,-0.0759786,0.0504659,0.0883654,-0.095893,0.142877,-0.126072,-0.0886739,0.0113297,0.02285,0.0201416,0.0109482,0.018425,0.0088501,0.022316,0.0141907,-9.97986,0.0087738,-0.00411987,0.0156021,0.00541687,0.0161362,-0.00595093,0.0170135,0.00499725
34,0,10.0097,0.000610352,0.000305176,-2.4305,0.0538499,-0.0762837,0.050771,0.0767687,-0.0955879,0.143487,-0.127292,-0.0880636,0.00946045,0.0226212,0.0162506,0.0056839,0.0137711,0.00747681,0.0201797,0.0128937,-9.97986,0.0164795,-0.00156403,0.0141525,0.00850677,0.017128,-0.00358582,0.0172424,0.00862122
34,1,10.0097,0.00152588,0,-2.42867,0.0547655,-0.0759786,0.0513814,0.0731066,-0.0949775,0.143487,-0.125766,-0.0862325,0.00930786,0.0241852,0.0191498,0.00839233,0.0191116,0.00659943,0.0211716,0.0189972,-9.97986,0.0151062,-0.000152588,0.0165558,0.00656128,0.00888824,-0.00198364,0.0146866,0.00881195
34,2,10.0097,0,0.000457764,-2.42684,0.0544603,-0.075063,0.0529073,0.072191,-0.0946723,0.145624,-0.125766,-0.085317,0.0103378,0.024147,0.0212479,0.0107956,0.0152969,0.00537872,0.0219727,0.0180435,-9.97986,0.0141907,0.00175476,0.0154877,0.00499725,0.0176239,-0.00209808,0.0165939,0.00762939
34,3,10.0097,-0.000610352,0.000305176,-2.42745,0.0538499,-0.075063,0.0532125,0.0712755,-0.095893,0.145929,-0.125461,-0.0847066,0.0122833,0.0250626,0.0199509,0.011673,0.0175858,0.00934601,0.0223923,0.0156403,-9.97986,0.0154114,0.00114441,0.0153732,0.00629425,0.0143051,-0.00137329,0.0175095,0.00328064
34,4,10.0097,0,0.000457764,-2.42562,0.0553758,-0.075063,0.0535176,0.0712755,-0.0934516,0.144403,-0.125461,-0.0831808,0.00907898,0.0221252,0.0222778,0.0126266,0.0196838,0.00476837,0.0212097,0.0169373,-9.97986,0.0128555,-0.000267029,0.0183868,0.00816345,0.0164795,-0.00160217,0.0202179,0.00541687
34,5,10.0097,0.000610352,0.000457764,-2.4247,0.0565965,-0.0729268,0.0544332,0.072191,-0.0910102,0.147149,-0.125156,-0.0819601,0.0118637,0.0224686,0.0206757,0.0100327,0.0211334,0.00801086,0.0241089,0.0181961,-9.97986,0.0175095,0.00141144,0.0141525,0.00740051,0.0152206,-0.00450134,0.0159454,0.00366211
34,6,10.0097,0.0012207,-0.000305176,-2.42623,0.0553758,-0.0744527,0.0544332,0.0728014,-0.0919257,0.147149,-0.12363,-0.0816549,0.00862122,0.0242615,0.0174713,0.011673,0.0167465,0.00930786,0.0237274,0.0158691,-9.97986,0.0178146,0.00190735,0.0140381,0.00572205,0.0139999,-0.000686646,0.0139999,0.0050354
34,7,10.0097,-0.000305176,0.000152588,-2.42745,0.0550706,-0.0747579,0.0526021,0.0447252,-0.0968086,0.145013,-0.126682,-0.0831808,0.0125122,0.022316,0.0208664,0.0141144,0.0165558,0.0105286,0.0227356,0.0229645,-9.97986,0.0216293,-0.00217438,0.0138855,0.00751495,0.020752,-0.00511169,0.0188446,0.00713348
34,8,7.4532,0.000610352,-0.00259399,-2.42714,0.0559862,-0.075063,0.0516866,-0.000135623,-0.0998603,0.145013,-0.129429,-0.0828756,0.0120163,0.0218201,0.0182343,0.0149536,0.0187302,0.00972748,0.0220108,0.0257492,-9.97986,0.018425,-0.0050354,0.0120926,0.00370026,0.0159454,-0.00495911,0.0148392,0.00617981
34,9,-1.16588,0.000305176,-0.00366211,-2.42562,0.0559862,-0.0744527,0.054128,-0.0117323,-0.095893,0.146844,-0.129429,-0.0825704,0.0109863,0.0216675,0.0214005,0.0127029,0.0178528,0.00869751,0.023613,0.026207,-9.97986,0.0270844,0.00171661,0.0160599,0.00209808,0.0166321,-0.00244141,0.016098,0.00701904
35,0,-8.86607,-0.000915527,-0.00457764,-2.42562,0.0572069,-0.0744527,0.0550435,-0.0166151,-0.0968086,0.146539,-0.130344,-0.0816549,0.0114822,0.0228119,0.0172043,0.0142288,0.0149536,0.0114822,0.021019,0.0268936,-9.97986,0.0183105,-0.00038147,0.0148773,0.0082016,0.0204849,-0.00827789,0.0133514,0.00766754
35,1,-9.99003,-0.00152588,-0.00350952,-2.42501,0.0572069,-0.0738423,0.0556539,0.0181749,-0.0913154,0.145624,-0.126682,-0.0807394,0.0125504,0.0232697,0.0192642,0.0105286,0.0217438,0.0124359,0.0208664,0.0232315,-9.97986,0.0203323,-0.00350952,0.0167465,0.00637054,-0.00728607,-0.00518799,0.0161362,0.00766754
35,2,-9.99003,0.000610352,-0.000915527,-2.42501,0.0559862,-0.0744527,0.0562642,0.0508287,-0.0897895,0.146234,-0.126682,-0.0816549,0.00980377,0.0217056,0.018425,0.0125122,0.0198364,0.00801086,0.0202179,0.0229645,-9.97986,0.0247955,-0.0075531,0.0143814,0.00518799,-0.00556946,-0.00587463,0.0158691,0.00743866
35,3,-9.99003,0,0,-2.42562,0.0559862,-0.075063,0.0544332,0.0608995,-0.0910102,0.146234,-0.125766,-0.0822652,0.0130844,0.0259781,0.0208282,0.00976563,0.0131989,0.00629425,0.018959,0.0193024,-9.97986,0.017128,0.000801086,0.0167465,0.00831604,-0.00545502,-0.000915527,0.0151825,0.00671387
35,4,-9.99003,0.00152588,0.000305176,-2.42592,0.0553758,-0.0753682,0.0553487,0.0837877,-0.0903999,0.146539,-0.125156,-0.0828756,0.0103378,0.0218964,0.019455,0.00957489,0.018425,0.0117874,0.0218201,0.0165939,-9.97986,0.0125504,0.00087738,0.0138092,0.00572205,0.00782013,-0.000572205,0.0151062,0.00484467
35,5,-7.73417,-0.00183105,0.00396729,-2.4247,0.0550706,-0.075063,0.0556539,0.143297,-0.0842964,0.144403,-0.12241,-0.0828756,0.00854492,0.0249481,0.0200272,0.00862122,0.015831,0.011673,0.0189209,0.0125122,-9.97986,0.0141907,0.000457764,0.0151062,0.0069809,0.0175858,-0.00556946,0.0157166,0.00637054
35,6,-0.22624,0.00213623,0.00427246,-2.42745,0.0535448,-0.0759786,0.0547383,0.150926,-0.0864326,0.144098,-0.12241,-0.0847066,0.0101852,0.0204468,0.0177765,0.0127411,0.0139236,0.0088501,0.0228882,0.0115204,-9.97986,0.0122833,-0.00228882,0.0154877,0.00541687,0.0182724,-0.00579834,0.015831,0.00808716
35,7,7.59175,0.000610352,0.00427246,-2.42928,0.0532396,-0.0759786,0.0538228,0.152757,-0.0891792,0.145013,-0.122104,-0.085317,0.00869751,0.0207901,0.0162506,0.0125885,0.017128,0.00801086,0.0242233,0.00686646,-9.97986,0.00865936,-0.000915527,0.01297,0.00495911,0.0177002,-0.00671387,0.0155258,0.00892639
35,8,10.0097,0.000915527,0.00335693,-2.4302,0.0535448,-0.0768941,0.0501607,0.120409,-0.095893,0.141961,-0.125766,-0.0886739,0.00507355,0.0204468,0.0182724,0.0144577,0.0190735,0.00984192,0.0233459,0.0125122,-9.97986,0.0150681,-0.00148773,0.0133133,0.00415802,0.0181961,-0.000495911,0.0124359,0.00591278
35,9,10.0097,0.00152588,0.00137329,-2.4305,0.0535448,-0.0765889,0.0501607,0.0892809,-0.0965034,0.143182,-0.126682,-0.0874532,0.0106049,0.020752,0.0185013,0.00812531,0.0151825,0.0100327,0.0188065,0.0144958,-9.97986,0.0137711,0.0018692,0.016098,0.00675201,0.0180054,-0.000762939,0.0149155,0.00606537
36,0,10.0097,-0.000305176,0.000457764,-2.42928,0.0541551,-0.0759786,0.0510762,0.0767687,-0.0968086,0.143487,-0.127598,-0.0877584,0.0087738,0.0196457,0.0233459,0.01297,0.0193024,0.0094223,0.0189209,0.0156784,-9.97986,0.0135803,-0.00148773,0.0136185,0.00453949,0.0180817,-0.00343323,0.0137329,0.00404358
36,1,10.0097,0.00213623,-0.000610352,-2.42898,0.0544603,-0.0753682,0.0519917,0.0737169,-0.0949775,0.144403,-0.126987,-0.0865377,0.0108719,0.0285721,0.0193024,0.0094986,0.0172043,0.0131989,0.0223923,0.0157547,-9.97986,0.0126648,0.00270844,0.0121689,0.000686646,0.0133896,-0.00213623,0.0156784,0.00511169
36,2,10.0097,0.00244141,0.000305176,-2.42776,0.0544603,-0.075063,0.0532125,0.0709703,-0.0943672,0.145318,-0.126377,-0.0847066,0.0119781,0.0263596,0.0120926,0.0111771,0.016861,0.00488281,0.0252151,0.0151825,-9.97986,0.0116348,3.8147e-005,0.0167084,0.00526428,0.0171661,-0.0038147,0.0161743,0.00347137
36,3,10.0097,0.0012207,0.000762939,-2.42714,0.0544603,-0.0747579,0.0529073,0.0712755,-0.0931465,0.145318,-0.126072,-0.0847066,0.0119019,0.0244522,0.0204086,0.0107574,0.0125885,0.0109482,0.0236511,0.0179291,-9.97986,0.0192642,0.00255585,0.0160599,0.00865936,0.0181198,-0.000610352,0.0117111,0.00682831
36,4,10.0097,0.000305176,0.000915527,-2.42592,0.0553758,-0.0741475,0.0529073,0.0709703,-0.0934516,0.146234,-0.125766,-0.0840963,0.00957489,0.0211334,0.0169754,0.0101471,0.019455,0.0113297,0.0211716,0.0167465,-9.97986,0.0188065,-0.00392914,0.0138855,0.00759125,0.0175476,0.000991821,0.0134277,0.00984192
36,5,10.0097,0.000610352,0.000762939,-2.42409,0.0572069,-0.0738423,0.0544332,0.0712755,-0.0910102,0.146234,-0.124546,-0.0816549,0.0087738,0.0230026,0.0190353,0.0147629,0.0191879,0.00968933,0.0178146,0.0136566,-9.97986,0.0184631,0.00282288,0.0167847,0.00976563,0.0202942,-0.00202179,0.014534,0.00637054
36,6,10.0097,0,0.000762939,-2.42592,0.0562914,-0.073232,0.0538228,0.0728014,-0.0928413,0.147455,-0.12363,-0.0813497,0.00907898,0.0214767,0.0189209,0.00911713,0.0156784,0.010376,0.0243759,0.0209808,-9.97986,0.0142288,-0.00164032,0.0142288,0.00610352,0.0138474,-0.00362396,0.0160599,0.0082016
36,7,10.0097,0.000305176,-0.000152588,-2.42592,0.0559862,-0.0744527,0.0538228,0.052965,-0.0943672,0.145013,-0.125156,-0.0816549,0.0109482,0.0292206,0.0205994,0.0111008,0.0192642,0.0112534,0.0233078,0.0221634,-9.97986,0.0205231,0.0018692,0.0188065,0.00431061,0.0190735,-0.00743866,0.0162506,0.00717163
36,8,7.52309,-0.000610352,-0.00274658,-2.42684,0.0553758,-0.0744527,0.0516866,0.000474729,-0.0998603,0.145624,-0.129123,-0.0834859,0.013504,0.0232697,0.0201416,0.0124359,0.0194931,0.00923157,0.0218582,0.0222015,-9.97986,0.0241089,-0.00591278,0.0158691,0.00858307,0.017662,-0.00244141,0.015831,0.00858307
36,9,-1.04075,0.000610352,-0.00350952,-2.42592,0.0575121,-0.0744527,0.0538228,-0.0092909,-0.0977241,0.144708,-0.129429,-0.0819601,0.0160217,0.0289536,0.0192642,0.014801,0.0211334,0.00976563,0.0258255,0.0298691,-9.97986,0.0229263,-0.00164032,0.0131607,0.00812531,0.0195694,-0.00419617,0.0165558,0.00988007
37,0,-8.61796,-0.000610352,-0.00411987,-2.42562,0.0562914,-0.073232,0.0532125,-0.0153944,-0.0968086,0.145624,-0.130954,-0.0816549,0.00930786,0.0181198,0.0165939,0.0107956,0.0159454,0.00873566,0.0195694,0.0222397,-9.97986,0.0232697,-0.00289917,0.0141525,0.00534058,0.0154877,-0.00713348,0.014267,0.0069809
37,1,-9.99003,0.000915527,-0.00350952,-2.4247,0.0559862,-0.0747579,0.0556539,0.0181749,-0.0925361,0.145929,-0.126987,-0.0816549,0.0149918,0.0273514,0.0228882,0.0141144,0.0206375,0.0117493,0.0210953,0.0267029,-9.97986,0.0163651,-0.00293732,0.0149918,0.00751495,0.00362396,-0.00293732,0.0188446,0.00732422
37,2,-9.99003,0.00213623,-0.00106812,-2.42409,0.0559862,-0.0753682,0.0562642,0.0483873,-0.0910102,0.147149,-0.127598,-0.0813497,0.0154114,0.0232697,0.0202179,0.0109482,0.0173187,0.00873566,0.0199127,0.0196075,-9.97986,0.0169754,-0.000724792,0.0147247,0.00705719,-0.0100708,-0.00488281,0.017395,0.00549316
37,3,-9.99003,-0.000305176,-0.000152588,-2.42592,0.0547655,-0.0741475,0.0553487,0.0615099,-0.0922309,0.145318,-0.126072,-0.0834859,0.0137329,0.0267029,0.0179672,0.0103378,0.0178909,0.0121689,0.0256729,0.0164795,-9.97986,0.0135422,-0.00164032,0.0123978,0.0062561,-0.00587463,-0.00255585,0.0165176,0.00946045
37,4,-9.99003,0.00244141,0.000762939,-2.42592,0.0541551,-0.0747579,0.0553487,0.0862291,-0.0885688,0.144708,-0.123935,-0.0816549,0.0130081,0.0264359,0.0157547,0.0122833,0.0144196,0.0112915,0.0181961,0.0147247,-9.97986,0.0105286,-0.00183105,0.0139999,0.00846863,0.0156784,0,0.0180817,0.00713348
37,5,-7.29258,0.000610352,0.00320435,-2.42501,0.0541551,-0.0747579,0.0571797,0.142687,-0.0846015,0.145318,-0.121799,-0.0831808,0.0106812,0.02491,0.0203705,0.00793457,0.0179291,0.0133133,0.0248718,0.0108719,-9.97986,0.0124741,-0.00236511,0.0141144,0.00469208,0.0130463,-0.00476837,0.0149918,0.00640869
37,6,0.185137,0.000305176,0.00366211,-2.42806,0.0538499,-0.0747579,0.0547383,0.152452,-0.0867378,0.143792,-0.121189,-0.0834859,0.0101852,0.0247574,0.0183868,0.0107574,0.0163269,0.00968933,0.0180817,0.00858307,-9.97986,0.00717163,0.00228882,0.0126266,0.00808716,0.0122452,-0.00362396,0.0161743,0.00759125
37,7,8.49996,0.000610352,0.00518799,-2.42867,0.0523241,-0.0762837,0.0532125,0.147875,-0.0897895,0.143792,-0.122715,-0.0859274,0.0131226,0.0261688,0.0209808,0.0121307,0.0187302,0.0115585,0.0195694,0.00785828,-9.97986,0.0101852,-0.00164032,0.0175476,0.00709534,0.0147247,-0.00225067,0.0159454,0.00701904
37,8,10.0097,0.000305176,0.00350952,-2.43142,0.0523241,-0.0759786,0.0492452,0.117662,-0.0949775,0.142877,-0.124241,-0.0886739,0.0104141,0.0297928,0.0171661,0.010643,0.021286,0.0126648,0.0224686,0.01194,-9.97986,0.00823975,0.000953674,0.014534,0.00938416,0.0154495,-0.00171661,0.016861,0.00495911
37,9,10.0097,0.0012207,0.000762939,-2.4305,0.0538499,-0.0768941,0.04894,0.0889757,-0.0961982,0.142877,-0.126682,-0.0880636,0.0101852,0.0242615,0.0215149,0.0170135,0.019989,0.0117874,0.0232315,0.0147629,-9.97986,0.0109863,-0.00038147,0.0110626,0.0056076,0.0157928,-0.00278473,0.0131226,0.00385284
38,0,10.0097,0.0012207,0.000305176,-2.43111,0.0538499,-0.0762837,0.0510762,0.0767687,-0.0961982,0.141961,-0.127598,-0.0874532,0.00682831,0.0212479,0.0195694,0.0127792,0.0160599,0.00919342,0.0200272,0.0180817,-9.97986,0.0124741,-0.00232697,0.00938416,0.00717163,0.0129318,-0.00167847,0.0154877,0.00564575
38,1,10.0097,0.000305176,-0.000457764,-2.42837,0.0547655,-0.0747579,0.0529073,0.0734117,-0.0949775,0.144098,-0.127598,-0.0859274,0.0110245,0.0257111,0.0230789,0.0117493,0.0187302,0.0112152,0.0165939,0.0136566,-9.97986,0.0134659,-0.00213623,0.0132751,0.0069046,0.00816345,0.000724792,0.0157166,0.00190735
38,2,10.0097,-0.00152588,0.000152588,-2.42745,0.0544603,-0.075063,0.0532125,0.0724962,-0.0946723,0.144098,-0.126377,-0.0850118,0.0135422,0.0221252,0.019722,0.0105667,0.0196457,0.0135422,0.0185394,0.0163651,-9.97986,0.0108337,0.00141144,0.0147629,0.00640869,0.0157166,-0.00038147,0.0188065,0.00732422
38,3,10.0097,0.000610352,0.000762939,-2.42623,0.0544603,-0.075063,0.0538228,0.0715807,-0.0931465,0.144403,-0.126377,-0.0834859,0.0128937,0.0229263,0.0197601,0.00934601,0.020256,0.0132751,0.0183487,0.0209045,-9.97986,0.0154495,0.000534058,0.0152969,0.0113678,0.0175095,-0.00141144,0.0175476,0.00751495
38,4,10.0097,-0.000305176,0.000305176,-2.42653,0.0550706,-0.0747579,0.0526021,0.0700548,-0.0928413,0.145929,-0.125156,-0.0834859,0.0094223,0.0251389,0.017128,0.0128937,0.018959,0.0120926,0.019722,0.00812531,-9.97986,0.0123978,-0.00736237,0.00816345,0.00507355,0.013237,-0.00549316,0.0144196,0.00362396
38,5,10.0097,0.000915527,0.000610352,-2.42501,0.0559862,-0.0747579,0.0544332,0.0737169,-0.0916206,0.148065,-0.123935,-0.0807394,0.0114822,0.0267029,0.0210571,0.0103378,0.0208664,0.00911713,0.0223923,0.0212479,-9.97986,0.0209427,0.00179291,0.0172806,0.0123596,0.0212479,0.000801086,0.0197983,0.00915527
38,6,10.0097,-0.000915527,0,-2.4247,0.055681,-0.0735371,0.0547383,0.0731066,-0.0916206,0.147149,-0.124241,-0.0813497,0.0115967,0.0176239,0.0180435,0.00984192,0.0112534,0.0117111,0.0217438,0.0220108,-9.97986,0.0159073,0.000686646,0.0165558,0.00682831,0.0121689,-0.00232697,0.0141525,0.00671387
38,7,10.0097,-0.000610352,0.000305176,-2.42653,0.0559862,-0.075063,0.0516866,0.049608,-0.095893,0.145624,-0.127598,-0.0816549,0.0114822,0.0215912,0.0186539,0.0134277,0.0200272,0.00770569,0.0224686,0.0253296,-9.97986,0.0159454,-0.00434875,0.0148773,0.00938416,0.0172043,-0.00389099,0.0186157,0.00724792
38,8,7.60427,0.000305176,-0.00137329,-2.42714,0.0565965,-0.0741475,0.0516866,0.00169543,-0.09925,0.145624,-0.129429,-0.0834859,0.0143814,0.0246048,0.018959,0.0119781,0.0159073,0.00968933,0.0245285,0.0242233,-9.97986,0.0203323,-0.00324249,0.0167847,0.00782013,0.0169754,-0.00541687,0.0160217,0.00469208
38,9,-1.09233,0,-0.00335693,-2.42653,0.0562914,-0.0735371,0.0532125,-0.0102064,-0.0977241,0.146234,-0.129734,-0.0819601,0.0136566,0.0222015,0.0168228,0.0130844,0.0185394,0.0133514,0.0220871,0.0283432,-9.97986,0.0233459,-0.00858307,0.0159836,0.00587463,0.0175476,-0.00164032,0.0134659,0.00312805
39,0,-8.75224,0.000305176,-0.00396729,-2.42501,0.0565965,-0.0741475,0.0532125,-0.0169203,-0.0961982,0.147455,-0.130344,-0.0813497,0.0104904,0.0222778,0.0205231,0.0117111,0.0188828,0.0152206,0.0231171,0.0248337,-9.97986,0.0245285,-0.00423431,0.0130463,0.00514984,0.022583,-0.00263214,0.0138092,0.00873566
39,1,-9.99003,0.000610352,-0.00320435,-2.42501,0.055681,-0.0735371,0.0553487,0.0181749,-0.0928413,0.145929,-0.127903,-0.0813497,0.0132751,0.0217056,0.0188446,0.0105286,0.0201797,0.00808716,0.0214386,0.0219345,-9.97986,0.0181961,-0.00427246,0.0129318,0.00415802,-0.00160217,-0.0012207,0.014534,0.00545502
39,2,-9.99003,0.000305176,-0.0012207,-2.4244,0.0559862,-0.075063,0.0562642,0.0493029,-0.0900947,0.146234,-0.126072,-0.0813497,0.0123978,0.0193787,0.0203705,0.0109863,0.0184631,0.00953674,0.022049,0.0201797,-9.97986,0.0173569,-0.00236511,0.0147629,0.00675201,-0.00988007,-0.00591278,0.0142288,0.00453949
39,3,-9.99003,0.000305176,-0.000152588,-2.42592,0.0562914,-0.0753682,0.0553487,0.0602892,-0.090705,0.144708,-0.125461,-0.0828756,0.00862122,0.0228119,0.0191116,0.0113297,0.019989,0.0132751,0.0231171,0.0205994,-9.97986,0.0151062,-0.00442505,0.0109863,0.00652313,-0.00907898,-0.00495911,0.0157166,0.00610352
39,4,-9.99003,0.000610352,0.000457764,-2.42562,0.0547655,-0.0753682,0.0544332,0.0837877,-0.088874,0.145318,-0.123935,-0.0822652,0.0124741,0.0257492,0.0182724,0.0114059,0.0165558,0.00747681,0.0182724,0.0134277,-9.97986,0.0120926,0.000686646,0.0175476,0.00919342,0.0138474,-0.001297,0.0166321,0.00839233
39,5,-7.53978,0.0012207,0.0038147,-2.42592,0.0547655,-0.0753682,0.0568746,0.141161,-0.0842964,0.145318,-0.120884,-0.0825704,0.00614166,0.0251389,0.0182724,0.0128937,0.0233841,0.0147247,0.0218201,0.00972748,-9.97986,0.0114822,0.00141144,0.0157547,0.00881195,0.0148773,-0.000114441,0.0178528,0.00675201
39,6,-0.131025,0.000610352,0.00366211,-2.42837,0.0544603,-0.0756734,0.0550435,0.150621,-0.0876533,0.144403,-0.121494,-0.0844015,0.0107574,0.023613,0.0167465,0.0122452,0.0171661,0.00793457,0.0213623,0.0115967,-9.97986,0.0111771,-0.0025177,0.0154114,0.0069809,0.0162125,-0.00312805,0.0154114,0.00488281
39,7,7.3943,0.000915527,0.00366211,-2.42837,0.0544603,-0.0771993,0.0532125,0.150621,-0.0903999,0.142572,-0.121494,-0.0862325,0.0136566,0.0236511,0.0174713,0.0123978,0.0169754,0.00682831,0.0219345,0.0126266,-9.97986,0.0112534,0.0019455,0.0127792,0.00648499,0.0136566,-0.0037384,0.0161743,0.00808716
39,8,10.0097,0,0.00350952,-2.43081,0.0532396,-0.0771993,0.0492452,0.118883,-0.095893,0.141656,-0.125156,-0.0886739,0.00751495,0.0243378,0.0179672,0.0136566,0.0178528,0.00751495,0.0226212,0.00930786,-9.97986,0.0108337,0.00183105,0.016861,0.00720978,0.0154114,-0.0043869,0.0167465,0.00816345
39,9,10.0097,0.00152588,0.000915527,-2.43142,0.0535448,-0.0762837,0.0510762,0.0883654,-0.0974189,0.142572,-0.126377,-0.0883688,0.00785828,0.0215149,0.020256,0.0166702,0.0166702,0.0101089,0.0239563,0.0126648,-9.97986,0.0119019,0.00267029,0.0163269,0.00785828,0.0147629,-0.00320435,0.0157928,0.00572205
40,0,10.0097,0,0.000305176,-2.43081,0.0541551,-0.0759786,0.0504659,0.077379,-0.0952827,0.143792,-0.127292,-0.0883688,0.00526428,0.0255585,0.0152206,0.016098,0.0146866,0.00839233,0.028038,0.00843048,-9.97986,0.0120544,3.8147e-005,0.0174332,0.00545502,0.0170898,-0.00358582,0.0180817,0.00587463
40,1,10.0097,0.000610352,-0.000305176,-2.42928,0.0538499,-0.0756734,0.0522969,0.0734117,-0.0949775,0.143487,-0.126072,-0.0856222,0.0105667,0.0215149,0.0174713,0.0101471,0.012207,0.00793457,0.0213242,0.015831,-9.97986,0.0107574,0.0012207,0.0172424,0.0102997,0.0145721,-0.00354767,0.0147629,0.00476837
40,2,10.0097,0.000915527,0,-2.42776,0.0547655,-0.0744527,0.0532125,0.072191,-0.0946723,0.144403,-0.126987,-0.085317,0.0107193,0.020752,0.0179672,0.0126266,0.020256,0.010643,0.0204086,0.0146484,-9.97986,0.0144958,-0.000534058,0.0134659,0.0107193,0.0141907,0.00133514,0.017662,0.00679016
40,3,10.0097,0.000610352,0.000305176,-2.42745,0.0550706,-0.0735371,0.0532125,0.0718859,-0.0931465,0.145318,-0.126377,-0.0837911,0.0111008,0.0243759,0.0191116,0.014534,0.018425,0.0101089,0.024147,0.0162506,-9.97986,0.0166702,0.00179291,0.0162125,0.00911713,0.0158691,-0.0030899,0.0171661,0.00453949
40,4,10.0097,0.000915527,-0.000152588,-2.42684,0.0544603,-0.0735371,0.0544332,0.0715807,-0.0934516,0.145318,-0.124851,-0.0840963,0.00846863,0.0225067,0.0196457,0.0144196,0.0179291,0.0125504,0.0230789,0.0167465,-9.97986,0.0130844,-0.00102997,0.0139999,0.00957489,0.0166321,-0.000495911,0.0187683,0.00812531
