
Devices
1200
,,BP Load cell - Voltage,String Length - Voltage,Clutch Active - Voltage,#7 iPecs - Voltage,,,,,,,,,EMG 1-8 Left - Voltage,,,,,,,,Pylon Force - Voltage,EMG 9-16 Right - Voltage,,,,,,,,
Frame,Sub Frame,BP Load Cell,String Length,From Arduino Logic,A45,A135,A225,A315,S0,S90,S180,S270,ZSum,EMG 1 Glut Max,EMG 2 Glut Med,EMG 3 Biceps Femoris Long,EMG 4 Rectus Femoris,EMG 5 Vastus Medialis,EMG 6 Tib Ant,EMG 7 Med Gas,EMG 8 Soleus,Pylon volts,EMG 9 Glut Max,EMG 10 Glut Med,EMG 11 Biceps Femoris Long,EMG 12 Rectus Femoris,EMG 13 Vastus Medialis,EMG 14 Tib Ant,EMG 15 Med Gas,EMG 16 Soleus
,,V,V,V,V,V,V,V,V,V,V,V,V,V,V,V,V,V,V,V,V,V,V,V,V,V,V,V,V,V
1,0,10.0097,0.00152588,-0.00106812,-2.42684,0.0562914,-0.0738423,0.0532125,0.0453356,-0.0965034,0.146234,-0.125766,-0.0822652,-0.0207901,0.0312805,0.0265121,0.0144958,0.0240326,0.010376,0.00900269,0.0244141,-9.97986,0.0268936,0.00118256,0.0165558,0.0627518,0.0191879,0.00686646,-0.00144958,-0.00846863
1,1,9.88545,0.000305176,-0.0012207,-2.42562,0.0547655,-0.0738423,0.0544332,0.0532701,-0.0931465,0.145624,-0.124851,-0.0810445,-0.0521851,0.0317001,0.0229645,0.0101089,0.0185394,0.0129318,0.0170517,0.0231552,-9.97986,0.026741,-0.00572205,0.0158691,0.0621414,0.0166321,0.00492096,-0.00850677,-0.00694275
1,2,9.26198,0.000915527,-0.000457764,-2.42531,0.0550706,-0.0735371,0.0538228,0.0608995,-0.0928413,0.147149,-0.125766,-0.0825704,-0.0566864,0.0352478,0.0248718,0.015564,0.0172043,0.0063324,0.0156784,0.0183487,-9.97986,0.022049,0.00164032,0.014801,0.0564575,0.0211716,0.0043869,-0.00606537,-0.00156403
1,3,9.3282,-0.000305176,-0.000457764,-2.42623,0.0575121,-0.0747579,0.054128,0.0673082,-0.0925361,0.145013,-0.125461,-0.0825704,-0.0448608,0.0380325,0.0274658,0.0173569,0.0191879,0.0114059,0.0195694,0.00831604,-9.97986,0.0237656,-0.00225067,0.0164032,0.0590897,0.0222778,0.00358582,-0.00682831,-0.000953674
1,4,10.0097,0.000305176,0.000305176,-2.42653,0.0544603,-0.0747579,0.0550435,0.0822618,-0.0900947,0.144708,-0.124546,-0.0831808,-0.0245667,0.0392151,0.0261688,0.0208282,0.0177765,0.00854492,0.0278473,0.00705719,-9.97986,0.0193787,-0.000991821,0.0135422,0.054245,0.0262451,0.00644684,0.00125885,-0.00114441
1,5,10.0097,0.000610352,0.00228882,-2.42653,0.0544603,-0.0771993,0.0535176,0.0923326,-0.0919257,0.143487,-0.125156,-0.085317,-0.030632,0.0423431,0.0326538,0.0229263,0.021286,0.0100708,0.0270462,0.00720978,-9.97986,0.0192642,0.000457764,0.0151825,0.0608444,0.0253677,0.010376,0.00366211,0.000457764
1,6,10.0097,0.000305176,0.000305176,-2.42959,0.0547655,-0.0756734,0.0529073,0.077379,-0.094062,0.143182,-0.126682,-0.0874532,-0.0234604,0.0345993,0.0304413,0.018692,0.0202179,0.0109482,0.0298309,0.0139618,-9.97986,0.0198364,-0.000534058,0.0146103,0.0648117,0.0239944,0.00782013,0.0075531,0.0018692
1,7,10.0097,-0.000915527,0.000152588,-2.42898,0.0541551,-0.0759786,0.0519917,0.0715807,-0.0943672,0.144098,-0.126377,-0.0865377,0.0137711,0.0357819,0.0308228,0.0164032,0.0265884,0.0109482,0.0275421,0.0154114,-9.97986,0.0186539,-0.00255585,0.0154877,0.0673294,0.0225449,0.0104904,0.0094223,-0.000686646
1,8,10.0097,0.000915527,-0.000305176,-2.42959,0.0538499,-0.0765889,0.0526021,0.0697496,-0.095893,0.142877,-0.127292,-0.0871481,0.032959,0.0336075,0.025444,0.0138855,0.0253296,0.00797272,0.0265503,0.0179291,-9.97986,0.0100708,-0.00358582,0.0156784,0.0691605,0.0197601,0.00762939,0.0131989,0.00461578
1,9,10.0097,0.00244141,-0.000457764,-2.42959,0.0547655,-0.0756734,0.0519917,0.0694445,-0.0955879,0.142267,-0.127292,-0.0862325,0.0174713,0.028801,0.0224686,0.0131226,0.0244141,0.0127792,0.0317764,0.0230408,-9.97986,-0.00289917,-0.00511169,0.016861,0.0703049,0.0221252,0.00324249,0.0148392,0.00202179
2,0,10.0097,0.00244141,-0.000610352,-2.42898,0.0538499,-0.0756734,0.0519917,0.0676134,-0.0943672,0.143792,-0.128513,-0.0862325,0.00602722,0.028038,0.0240326,0.0102615,0.0228119,0.00808716,0.0411224,0.0125504,-9.97986,-0.0218582,-0.00152588,0.0141525,0.0668335,0.0226212,3.8147e-005,0.0167084,0.00591278
2,1,10.0097,-0.000610352,-0.00106812,-2.42928,0.0538499,-0.0756734,0.0532125,0.0691393,-0.0943672,0.144708,-0.126682,-0.0850118,0.0262451,0.030365,0.0205612,0.0115585,0.0246811,0.00797272,0.0398254,0.0125885,-9.97986,-0.0376129,-0.00530243,0.0165558,0.0636673,0.022583,-0.00087738,0.0143051,0.00843048
2,2,10.0097,0,-0.000762939,-2.42745,0.0544603,-0.075063,0.0529073,0.0697496,-0.0943672,0.145013,-0.126072,-0.0847066,0.0685883,0.0304031,0.0219345,0.0133896,0.026741,0.00865936,0.0426483,0.0082016,-9.97986,-0.0534439,-0.0019455,0.0197983,0.0591278,0.0234985,0.00255585,0.0181961,0.00713348
2,3,10.0097,0.0012207,-0.00106812,-2.42714,0.0553758,-0.0753682,0.054128,0.0691393,-0.0931465,0.145624,-0.125766,-0.0844015,0.069809,0.0273514,0.0176239,0.0115967,0.0283051,0.00980377,0.0415039,0.0105667,-9.97986,-0.0754547,-0.00232697,0.0146866,0.0496674,0.0186539,0.0012207,0.0191116,0.0094223
2,4,10.0097,0.000305176,-0.000457764,-2.42745,0.055681,-0.0744527,0.0532125,0.07036,-0.0916206,0.145318,-0.125766,-0.0834859,0.0515366,0.0229645,0.0164032,0.0122833,0.0336075,0.0104904,0.0525665,0.0111389,-9.97986,-0.0839996,-0.00415802,0.0156403,0.0416946,0.0161362,-0.00270844,0.0190735,0.00976563
2,5,10.0097,-0.000305176,0.000457764,-2.42501,0.0575121,-0.0738423,0.0562642,0.0724962,-0.0913154,0.146844,-0.124546,-0.0813497,0.063858,0.0245667,0.0188828,0.013237,0.0384521,0.00789642,0.0593185,0.0075531,-9.97986,-0.0572968,-0.001297,0.0174713,0.0444794,0.0215912,-0.00362396,0.0183487,0.00995636
2,6,10.0097,0.000305176,0.000152588,-2.42531,0.0562914,-0.073232,0.0544332,0.0715807,-0.0922309,0.146234,-0.12363,-0.080129,0.052681,0.0220871,0.017662,0.0189972,0.0393677,0.00751495,0.0548172,0.0139999,-9.97986,-0.0213623,-0.00930786,0.0154495,0.0447464,0.015564,-0.00621796,0.0205612,0.00740051
2,7,10.0097,0.000305176,-0.000457764,-2.42379,0.0575121,-0.0735371,0.0550435,0.0712755,-0.0910102,0.145929,-0.123935,-0.0813497,0.0285339,0.026474,0.0146866,0.0139999,0.0415802,0.0133514,0.0573349,0.0143051,-9.97986,0.00106812,-0.00419617,0.0213623,0.0447464,0.0159836,-0.010643,0.0363159,0.00831604
2,8,10.0097,0.00152588,0.000152588,-2.42501,0.0559862,-0.0735371,0.0547383,0.072191,-0.0910102,0.146234,-0.12363,-0.0810445,0.0135422,0.0230408,0.0162888,0.0159073,0.0481415,0.00972748,0.0619507,0.00968933,-9.97986,0.00144958,-0.0100327,0.0168991,0.0422287,0.0112152,-0.018692,0.0471115,0.00717163
2,9,10.0097,-0.000915527,0.000457764,-2.4247,0.0550706,-0.0735371,0.0547383,0.0718859,-0.0903999,0.145929,-0.124241,-0.0810445,0.0140762,0.0214767,0.0165939,0.0146484,0.047493,0.0138092,0.0567627,0.0178528,-9.97986,0.000267029,-0.0030899,0.0182343,0.0488663,0.0123978,-0.0210571,0.0442123,0.0082016
3,0,10.0097,0.000610352,-0.000915527,-2.42592,0.0553758,-0.0744527,0.0532125,0.0462511,-0.0952827,0.145624,-0.126377,-0.0831808,0.0120544,0.0195313,0.0150299,0.014534,0.0452042,0.0185394,0.0554276,0.0193405,-9.97986,0.00347137,-0.00202179,0.0201797,0.0499344,0.0104141,-0.0219345,0.0481415,0.00785828
3,1,9.83571,0.00213623,-0.0012207,-2.42623,0.0559862,-0.0741475,0.0550435,0.0520494,-0.0937568,0.147455,-0.126072,-0.0816549,-0.0229645,0.0255966,0.0167084,0.0184631,0.0489044,0.0209427,0.0582504,0.0190735,-9.97986,-0.000572205,-0.0104141,0.0147629,0.0492859,0.00930786,-0.0135803,0.0512314,0.00823975
3,2,9.28395,-0.000610352,0.000305176,-2.42562,0.0562914,-0.0735371,0.0550435,0.0621202,-0.0919257,0.145013,-0.126377,-0.0834859,-0.0561523,0.0253296,0.0162506,0.0156784,0.046463,0.0156784,0.0487518,0.0151825,-9.97986,0.00717163,-0.00358582,0.0104904,0.0512695,0.00740051,-0.0122833,0.0552368,0.00598907
3,3,9.37276,0.000305176,0.000610352,-2.42592,0.0553758,-0.0741475,0.0547383,0.0694445,-0.0922309,0.145624,-0.126377,-0.0831808,-0.0442505,0.0241852,0.017395,0.0187302,0.0457382,0.0208282,0.0508118,0.0156021,-9.97986,0.0114822,-0.00362396,0.0142288,0.0539017,0.00274658,-0.0131989,0.0559998,0.00606537
3,4,10.0097,0,0.000457764,-2.42623,0.0547655,-0.0747579,0.0550435,0.0837877,-0.0894843,0.145624,-0.124546,-0.0828756,-0.00732422,0.0255585,0.0207138,0.0201797,0.0487137,0.0170135,0.0403595,0.00980377,-9.97986,0.033493,-0.0103378,0.0157928,0.0540924,0.00419617,-0.0138474,0.0618362,0.00522614
3,5,10.0097,0,0.0012207,-2.42928,0.0538499,-0.0759786,0.0535176,0.0920275,-0.0937568,0.144098,-0.125461,-0.0862325,-0.00793457,0.0260162,0.0178528,0.0140762,0.0498199,0.0144958,0.0364304,0.0114441,-9.97986,0.0439072,-0.00831604,0.0122833,0.055275,0.00362396,-0.0130844,0.0535965,0.0056076
3,6,10.0097,0.000610352,0.000915527,-2.42959,0.0532396,-0.0768941,0.0529073,0.077379,-0.0946723,0.143487,-0.127292,-0.0874532,-0.00442505,0.0280762,0.0175095,0.0150299,0.0529099,0.0199127,0.0347137,0.0143814,-9.97986,0.0556183,-0.00778198,0.0163651,0.05867,0.00812531,-0.0138474,0.0469971,0.00778198
3,7,10.0097,0.000610352,-0.000305176,-2.42959,0.0547655,-0.0756734,0.0519917,0.0724962,-0.0949775,0.143792,-0.126682,-0.0868429,0.0392151,0.0238037,0.0196075,0.0137329,0.0512695,0.0196457,0.0296021,0.018692,-9.97986,0.0646973,-0.00640869,0.0145721,0.0562668,0.00938416,-0.0111008,0.0373077,0.00473022
3,8,10.0097,0.000305176,-0.000610352,-2.42989,0.0538499,-0.0771993,0.0510762,0.0688341,-0.0965034,0.144403,-0.127598,-0.0871481,0.0264359,0.0310135,0.0172806,0.0127792,0.0556564,0.0180054,0.0341415,0.0154877,-9.97986,0.0545502,-0.00469208,0.0183105,0.0598907,0.0094223,-0.00549316,0.0308228,0.00907898
3,9,10.0097,0,-0.000152588,-2.42928,0.0544603,-0.0765889,0.0535176,0.0685289,-0.0955879,0.142572,-0.127292,-0.0868429,-0.00511169,0.0243378,0.0231934,0.014801,0.0505447,0.0154495,0.039711,-0.00152588,-9.97986,0.0483322,-0.00255585,0.0152206,0.0564957,0.0112534,-0.00614166,0.0270844,0.00751495
4,0,10.0097,0.00305176,-0.00106812,-2.42928,0.0532396,-0.0747579,0.0519917,0.0682238,-0.0946723,0.143182,-0.127292,-0.0868429,0.0225449,0.0258255,0.0283813,0.021019,0.0550079,0.0205231,0.0518799,0.00324249,-9.97986,0.0406265,-0.00549316,0.0192642,0.0568771,0.00904083,-0.0037384,0.0229263,0.00682831
4,1,10.0097,0,-0.000305176,-2.42745,0.0535448,-0.0756734,0.0544332,0.0691393,-0.0931465,0.145013,-0.126987,-0.0850118,0.101852,0.0281525,0.0282669,0.013504,0.0516129,0.0187302,0.050354,0.0114059,-9.97986,0.0340271,-0.00453949,0.0186539,0.0562286,0.0115204,-0.00312805,0.0120544,0.00923157
4,2,10.0097,0,-0.000152588,-2.42776,0.0535448,-0.0744527,0.0538228,0.0697496,-0.094062,0.144098,-0.126377,-0.0844015,0.150719,0.0271606,0.0313187,0.0164032,0.0543213,0.0201797,0.0443268,0.0243378,-9.97986,0.0300598,-0.00171661,0.0198364,0.0531387,0.0150299,-0.0056076,0.00534058,0.0100708
4,3,10.0097,0.000610352,-0.000152588,-2.42837,0.0550706,-0.0747579,0.0529073,0.0691393,-0.094062,0.145929,-0.126072,-0.0847066,0.112686,0.0276947,0.0268936,0.0162888,0.0494003,0.0182724,0.0404739,0.0269699,-9.97986,0.028801,-0.000152588,0.0147629,0.0556183,0.0106049,-0.00492096,-0.0050354,0.00904083
4,4,10.0097,0.000915527,0.000457764,-2.42776,0.0547655,-0.075063,0.0532125,0.0676134,-0.0934516,0.144403,-0.125156,-0.0837911,0.0226974,0.0300217,0.0277328,0.0180054,0.0534439,0.0154877,0.0438309,0.027504,-9.97986,0.0105667,-0.00411987,0.0154495,0.0515747,0.00968933,-0.00408173,-0.0144958,0.013237
4,5,10.0097,0,-0.000152588,-2.4244,0.0562914,-0.0738423,0.0547383,0.0697496,-0.0919257,0.145929,-0.125461,-0.0816549,-0.022049,0.0289536,0.0278473,0.0189209,0.0489807,0.0159454,0.0447083,0.0196838,-9.97986,-0.01091,-0.000457764,0.0174332,0.0540924,0.010643,-0.00282288,-0.0254059,0.0118256
4,6,10.0097,0.000915527,0.000610352,-2.42623,0.0575121,-0.0738423,0.0547383,0.0706652,-0.0922309,0.146234,-0.12363,-0.0813497,-0.0395584,0.0287247,0.0236893,0.0167465,0.0516129,0.0226974,0.0490189,0.00743866,-9.97986,-0.0310898,-0.00331879,0.0143814,0.0542831,0.0132751,0.00423431,-0.0310516,0.0137329
4,7,10.0097,-0.000305176,0,-2.42562,0.0550706,-0.0735371,0.0550435,0.0712755,-0.0919257,0.146234,-0.124241,-0.0816549,-0.0549698,0.0325012,0.0210953,0.00999451,0.0535965,0.0199127,0.0496674,-0.00125885,-9.97986,-0.0320816,0.000152588,0.0174332,0.0482178,0.0113678,0.00507355,-0.0355148,0.0136948
4,8,10.0097,0.00213623,-0.000305176,-2.42348,0.0565965,-0.0741475,0.0556539,0.0712755,-0.0922309,0.146234,-0.124851,-0.080129,-0.0569153,0.0298691,0.0125504,0.0143433,0.0532532,0.0173569,0.0585175,-0.00793457,-9.97986,-0.00358582,-0.00408173,0.021286,0.0514984,0.00705719,0.00518799,-0.0414276,0.0180817
4,9,10.0097,0.000915527,0.000152588,-2.4244,0.0572069,-0.073232,0.0547383,0.072191,-0.0916206,0.14776,-0.124241,-0.0807394,-0.0450897,0.0279236,0.00812531,0.00911713,0.0521851,0.022049,0.0564575,-0.00499725,-9.97986,0.029068,-0.00694275,0.0198746,0.0572586,0.00846863,0.00160217,-0.0411224,0.017128
5,0,10.0097,-0.000610352,-0.00106812,-2.42684,0.0559862,-0.0747579,0.0544332,0.0462511,-0.0949775,0.142877,-0.126682,-0.0816549,-0.022049,0.0248718,0.00587463,0.0088501,0.0508499,0.0143051,0.0515747,0.0127792,-9.97986,0.0455856,-0.00507355,0.0162506,0.0595856,0.00862122,0.00350952,-0.0396729,0.0223923
5,1,9.95717,-0.000915527,-0.00259399,-2.42623,0.0562914,-0.075063,0.0547383,0.054796,-0.0928413,0.145929,-0.125766,-0.0831808,0.00862122,0.0214386,0.0075531,0.012207,0.0530624,0.0165176,0.0453949,0.0164032,-9.97986,0.0416565,-0.00255585,0.0170135,0.0548172,0.0127792,0.00202179,-0.0328064,0.0249481
5,2,9.41457,0.000915527,-0.000457764,-2.4247,0.0553758,-0.0723164,0.0538228,0.0624254,-0.090705,0.145929,-0.125156,-0.0822652,0.0156021,0.0172043,0.00667572,0.00785828,0.0563049,0.017128,0.0387955,0.0166702,-9.97986,0.0462341,-0.00766754,0.0207901,0.0547028,0.012207,0.00564575,-0.0226974,0.0250626
5,3,9.50368,0.000610352,-0.000305176,-2.42714,0.0547655,-0.075063,0.054128,0.0682238,-0.0922309,0.149591,-0.124851,-0.0825704,0.0200653,0.0227737,0.00850677,0.00991821,0.0570297,0.0172043,0.0358963,0.0178528,-9.97986,0.0453949,-0.00724792,0.0180817,0.0500488,0.00522614,0.000648499,-0.0193787,0.0209808
5,4,10.0097,0.00244141,0.000457764,-2.42745,0.0550706,-0.075063,0.0544332,0.0831774,-0.0910102,0.145624,-0.124546,-0.0834859,0.0209808,0.0233841,0.0156784,0.012207,0.0582886,0.0173569,0.0421906,0.0112915,-9.97986,0.0416565,-0.00526428,0.0193405,0.0492096,0.00926971,-0.00331879,-0.0125504,0.0246811
5,5,10.0097,-0.000610352,0.00167847,-2.42837,0.0532396,-0.073232,0.0513814,0.0895861,-0.0934516,0.143792,-0.126377,-0.0865377,0.00411987,0.0193405,0.0151825,0.0153732,0.0511169,0.0180817,0.0469971,-0.00118256,-9.97986,0.0247955,-0.00400543,0.0135422,0.0385666,0.00930786,-0.00579834,-0.0130844,0.0198364
5,6,10.0097,0.000305176,-0.00137329,-2.42867,0.0541551,-0.0759786,0.0504659,0.0746324,-0.0946723,0.142572,-0.127598,-0.0862325,-0.0147629,0.0217819,0.0178909,0.0295639,0.0528336,0.0216675,0.0542068,-0.000114441,-9.97986,0.0157928,-0.00782013,0.0129318,0.0268173,0.00709534,-0.0112534,-0.00694275,0.0223541
5,7,10.0097,0.00244141,-0.000610352,-2.42806,0.0535448,-0.0756734,0.0516866,0.0724962,-0.0952827,0.143792,-0.126987,-0.0871481,-3.8147e-005,0.0215912,0.0163651,0.0395584,0.0540543,0.0185776,0.0577545,0.00534058,-9.97986,0.016861,-0.00427246,0.0137711,0.0211334,0.00972748,-0.00541687,-0.00556946,0.0216675
5,8,10.0097,-0.00213623,-0.00106812,-2.42837,0.0541551,-0.0756734,0.0516866,0.07036,-0.095893,0.144708,-0.126377,-0.0880636,-0.00228882,0.0188065,0.0113678,0.0332642,0.0557709,0.0180817,0.0556564,0.00514984,-9.97986,0.0181961,-0.00144958,0.0104523,0.0181961,0.0102615,-0.00232697,-0.00232697,0.0170135
5,9,10.0097,-0.000305176,-0.00137329,-2.42989,0.0535448,-0.0756734,0.0513814,0.0688341,-0.0965034,0.144708,-0.127292,-0.0871481,-0.0557709,0.0197601,0.0115585,0.0251007,0.0515366,0.0222778,0.0478745,0.0164795,-9.97986,0.0167465,-0.00484467,0.0094223,0.00675201,0.0114441,-0.00240326,0.00617981,0.018158
6,0,10.0097,-0.000305176,-0.00152588,-2.42837,0.0535448,-0.0756734,0.0522969,0.0691393,-0.094062,0.142877,-0.126682,-0.0874532,-0.0527954,0.0157928,0.0127411,0.0259781,0.0498581,0.0234985,0.0374222,0.0261688,-9.97986,0.0123215,-0.00511169,0.0110245,-0.00183105,0.00740051,-0.000953674,0.0133133,0.0171661
6,1,10.0097,0.000305176,-0.0012207,-2.42837,0.0550706,-0.0735371,0.0538228,0.0706652,-0.0934516,0.145013,-0.126987,-0.0856222,0.00740051,0.0185776,0.00656128,0.0207901,0.0537491,0.0204086,0.0148392,0.0269318,-9.97986,-0.00400543,-0.0050354,0.00900269,-0.00534058,0.00205994,0.00286102,0.0201035,0.0109482
6,2,10.0097,-0.000305176,-0.000305176,-2.42745,0.0547655,-0.075063,0.0529073,0.0706652,-0.0931465,0.145013,-0.126377,-0.085317,0.0403595,0.0151825,0.0106049,0.0182724,0.0534058,0.0220871,-0.00747681,0.0227737,-9.97986,-0.00621796,-0.000534058,0.00465393,-0.00831604,0.00198364,0.00175476,0.0270462,0.00991821
6,3,10.0097,-0.000305176,-0.000305176,-2.42745,0.0550706,-0.0747579,0.0526021,0.07036,-0.0919257,0.144708,-0.125766,-0.0837911,0.0405884,0.0153351,0.0125504,0.0115967,0.0494385,0.0264359,-0.0274277,0.0217056,-9.97986,0.000610352,-0.00141144,0.00148773,-0.0111389,0.00411987,-0.00144958,0.0292969,0.00537872
6,4,10.0097,-0.000915527,-0.000305176,-2.42745,0.055681,-0.0771993,0.0547383,0.0679186,-0.0928413,0.145318,-0.125766,-0.0834859,0.0131607,0.025177,0.0164795,0.0120926,0.0511169,0.0233078,-0.0296402,0.0138474,-9.97986,-0.0113297,0.00038147,0.00236511,-0.0108719,0.00289917,-0.00144958,0.031395,0.00324249
6,5,10.0097,0,-0.000305176,-2.42592,0.0578172,-0.0744527,0.0547383,0.0697496,-0.0925361,0.148065,-0.125461,-0.0816549,-0.0188065,0.0234604,0.0146866,0.0227356,0.0445175,0.0269699,-0.0194931,-0.00343323,-9.97986,-0.0151825,-0.00411987,0.00587463,-0.00709534,0.00663757,-0.00564575,0.0298691,0.000457764
6,6,10.0097,-0.000610352,-0.000152588,-2.42684,0.0569017,-0.0741475,0.0538228,0.0706652,-0.0922309,0.145929,-0.124241,-0.0816549,0.0038147,0.0226593,0.013237,0.0248718,0.0371933,0.0266647,-0.00537872,-0.00804901,-9.97986,-0.00896454,-0.00087738,0.00572205,-0.0117493,0.0075531,-0.000267029,0.0273514,-0.00221252
6,7,10.0097,-0.000305176,0,-2.42501,0.0559862,-0.0762837,0.0556539,0.072191,-0.0928413,0.147149,-0.125156,-0.0816549,0.0504684,0.0203323,0.0115585,0.0232315,0.0402451,0.0230408,0.0107574,0.000305176,-9.97986,0.00659943,0.000419617,0.00766754,-0.000801086,0.01091,-0.00339508,0.0166321,0.000839233
6,8,10.0097,0.000915527,-0.000152588,-2.4247,0.0569017,-0.073232,0.0556539,0.0718859,-0.0931465,0.146539,-0.12302,-0.0810445,0.0673676,0.018692,0.00732422,0.0241852,0.0373077,0.0218582,0.0119019,-0.00183105,-9.97986,0.0289154,-0.00465393,0.00881195,0.000190735,0.00858307,-0.0101089,0.0164032,0.00267029
6,9,10.0097,0,0.000305176,-2.4244,0.0572069,-0.0741475,0.0547383,0.0728014,-0.0916206,0.146844,-0.124241,-0.0810445,0.0527191,0.0139618,0.00667572,0.0152969,0.0341797,0.021286,0.0173569,0.0102997,-9.97986,0.0633621,-0.00839233,0.00793457,0.000762939,0.0128937,-0.0100327,0.0209808,-0.000495911
7,0,10.0097,0,-0.00167847,-2.4247,0.0562914,-0.0762837,0.0535176,0.0468614,-0.0943672,0.145318,-0.126377,-0.0828756,0.0355148,0.0157166,0.000305176,0.017128,0.026474,0.0190735,0.0229645,0.0129318,-9.97986,0.0680923,-0.00328064,0.0056839,-7.62939e-005,0.0151825,-0.0094223,0.0220108,0.00137329
7,1,10.0097,0.000610352,-0.00137329,-2.42623,0.0565965,-0.0738423,0.054128,0.054796,-0.0931465,0.145318,-0.126377,-0.0822652,0.0245667,0.00980377,0.00259399,0.0179672,0.0304031,0.019722,0.0284958,0.0147247,-9.97986,0.0510406,-0.00228882,0.00640869,0.00164032,0.015564,-0.00926971,0.0260925,0.0018692
7,2,9.68556,0.000610352,-0.000457764,-2.4247,0.055681,-0.0747579,0.0532125,0.0633409,-0.0913154,0.144403,-0.125461,-0.0828756,0.0281525,0.0111771,0.00854492,0.0182724,0.0230789,0.0183868,0.0325012,0.0211334,-9.97986,0.0576401,-0.00953674,0.00743866,0.00179291,0.0199127,-0.0107956,0.0166321,0.00114441
7,3,9.76552,-0.000915527,0,-2.42531,0.0535448,-0.0720113,0.0544332,0.0688341,-0.0919257,0.145013,-0.126072,-0.0831808,0.0293732,0.016098,0.00709534,0.0194168,0.0212479,0.0146484,0.0358963,0.0227737,-9.97986,0.0653839,-0.00232697,0.00518799,0.00457764,0.0202179,-0.0109863,0.0151062,0.00637054
7,4,10.0097,0,0.000762939,-2.42745,0.0553758,-0.0747579,0.0544332,0.0831774,-0.0913154,0.145013,-0.124851,-0.0840963,0.0476074,0.0142288,0.00804901,0.0204468,0.0211334,0.0141525,0.038414,0.0156403,-9.97986,0.0670624,-0.00255585,0.0082016,0.00640869,0.0165558,-0.00598907,0.00988007,0.00442505
7,5,10.0097,0.000915527,0.00183105,-2.42898,0.0535448,-0.0762837,0.0544332,0.0859239,-0.0922309,0.143487,-0.126682,-0.0859274,0.0452423,0.017128,0.0130081,0.0278854,0.0220871,0.01194,0.0357056,0.015831,-9.97986,0.0508118,0.00541687,0.0107956,0.00606537,0.0251389,0.0030899,0.00759125,0.00904083
7,6,10.0097,0.0012207,-0.000152588,-2.42745,0.0538499,-0.0738423,0.0513814,0.0752428,-0.0949775,0.143792,-0.126682,-0.0862325,0.0357437,0.0178528,0.0136185,0.0224686,0.019722,0.0128174,0.0323868,0.0167847,-9.97986,0.0279999,0.00926971,0.0203705,0.00778198,0.0270462,0.0162506,0.00797272,0.0140762
7,7,10.0097,0,-0.000305176,-2.42898,0.0532396,-0.0765889,0.0510762,0.0700548,-0.0955879,0.142877,-0.127598,-0.0868429,0.0282669,0.01194,0.0107956,-0.0169754,0.0170135,0.0094986,0.0310516,0.0146103,-9.97986,0.0103378,0.00808716,0.0030899,0.0063324,0.0245285,0.00915527,0.00419617,0.00782013
7,8,10.0097,0.00183105,0.000762939,-2.42867,0.0538499,-0.0762837,0.0532125,0.0685289,-0.0955879,0.143182,-0.127903,-0.0871481,0.0194931,0.0193405,0.016098,-0.0249863,0.0177383,0.012207,0.0290298,0.00793457,-9.97986,0.0127029,0.0105667,0.00919342,0.0199127,0.0300217,0.0174713,0.0120544,0.0183487
7,9,10.0097,0.000610352,-0.000610352,-2.42898,0.0550706,-0.0756734,0.0516866,0.0694445,-0.0949775,0.142572,-0.126987,-0.0865377,0.0106049,0.0142288,0.0186157,-0.00873566,0.0180054,0.0106812,0.0286865,0.00640869,-9.97986,0.00171661,0.010643,0.00724792,0.0144958,0.0292206,0.00865936,0.00770569,0.0184631
8,0,10.0097,-0.000610352,-0.000915527,-2.42928,0.0541551,-0.0771993,0.0529073,0.0691393,-0.0949775,0.142572,-0.126682,-0.0868429,0.00144958,0.0154877,0.0213623,-0.0044632,0.0190353,0.00663757,0.0278473,0.00675201,-9.97986,0.00236511,0.00782013,0.0105667,0.0152969,0.0314331,0.0127029,0.0108719,0.0196838
8,1,10.0097,0,0.000152588,-2.42776,0.0541551,-0.0741475,0.0532125,0.0691393,-0.0925361,0.145013,-0.126072,-0.0850118,0.0063324,0.018425,0.0272369,0.0130463,0.0169754,0.00629425,0.0206375,0.00118256,-9.97986,0.0254059,0.00862122,0.0118637,0.0169754,0.0338364,0.00869751,0.0135422,0.0165558
8,2,10.0097,0.00213623,0,-2.42684,0.0553758,-0.0726216,0.0532125,0.0709703,-0.0937568,0.144403,-0.126377,-0.0850118,0.0126266,0.0234985,0.033493,-0.00972748,0.0194931,0.00740051,0.0251389,0.0056076,-9.97986,0.0444412,0.0094223,0.00923157,0.0151062,0.0318909,-0.00118256,0.0127029,0.0159836
8,3,10.0097,0.000305176,0,-2.42745,0.0535448,-0.0738423,0.054128,0.0700548,-0.0937568,0.145013,-0.125766,-0.0844015,0.001297,0.0239944,0.0339127,-0.00881195,0.01297,0.00541687,0.028801,0.00766754,-9.97986,0.0498962,0.0043869,0.0117111,0.0278473,0.040741,-0.00167847,0.016861,0.0188828
8,4,10.0097,0.000610352,0.000610352,-2.42745,0.0544603,-0.0744527,0.0535176,0.0697496,-0.0916206,0.144708,-0.125766,-0.0834859,0.000915527,0.0229645,0.0355148,0.0274658,0.0156784,0.00675201,0.0232315,0.0131989,-9.97986,0.0391769,0.0102615,0.0135422,0.0344467,0.0366974,-0.00236511,0.0155258,0.0181961
8,5,10.0097,0.00152588,0,-2.4244,0.0575121,-0.0726216,0.0556539,0.07036,-0.0910102,0.147149,-0.124546,-0.0810445,-0.0117493,0.0214386,0.0284576,0.0310898,0.0166702,0.0056076,0.00709534,0.00873566,-9.97986,0.0245285,0.00267029,0.0120926,0.0318146,0.0379181,-0.00286102,0.0160599,0.0156021
8,6,10.0097,-0.000610352,0.000152588,-2.42531,0.0553758,-0.0735371,0.0544332,0.0706652,-0.0925361,0.146539,-0.124241,-0.0813497,-0.0107193,0.0236511,0.030899,0.0365067,0.0181198,0.000572205,7.62939e-005,0.0157928,-9.97986,0.0230026,0.00404358,0.0105667,0.0313187,0.0369263,-0.00465393,0.0247574,0.0162125
8,7,10.0097,0.000305176,-0.000305176,-2.4244,0.0550706,-0.0741475,0.0553487,0.0718859,-0.0922309,0.146539,-0.124241,-0.0810445,-0.00747681,0.0281906,0.0186539,0.0372314,0.0194168,0.000152588,0.00556946,0.0164413,-9.97986,0.0189972,0.00164032,0.0141907,0.0243378,0.0337982,-0.00881195,0.0308609,0.013504
8,8,10.0097,-0.000610352,-0.000152588,-2.42531,0.0565965,-0.0738423,0.0538228,0.0700548,-0.0913154,0.146234,-0.123935,-0.0807394,0.00576019,0.0290298,0.0107956,0.0342178,0.0199127,0.00549316,0.00656128,0.0141144,-9.97986,0.0119781,-0.000915527,0.0108337,0.0214767,0.0320053,-0.00812531,0.0285721,0.0172043
8,9,10.0097,0.000915527,-0.000152588,-2.42501,0.0565965,-0.0735371,0.0553487,0.0718859,-0.0913154,0.146234,-0.12363,-0.0813497,0.02285,0.0341797,0.00988007,0.0347519,0.0224304,0.00236511,0.0207138,0.0154877,-9.97986,0.00923157,-0.000457764,0.0101852,0.0172424,0.0302887,-0.00087738,0.0456619,0.0143814
9,0,10.0097,0.00183105,-0.00167847,-2.42531,0.0553758,-0.0741475,0.054128,0.0471666,-0.0943672,0.146844,-0.125461,-0.0825704,0.0262833,0.0362396,0.00423431,0.0263977,0.0242233,-0.000305176,0.034523,0.0187302,-9.97986,0.00217438,-0.00278473,0.0113678,0.00850677,0.0289536,-0.00488281,0.0616074,0.0145721
9,1,10.0097,-0.000610352,-0.00152588,-2.42623,0.0553758,-0.0747579,0.054128,0.054796,-0.0943672,0.145624,-0.125461,-0.0819601,0.0134277,0.0365829,0.00774384,0.0253296,0.0234985,0.0025177,0.0341034,0.0168228,-9.97986,0.0069809,0.00137329,0.00991821,0.00499725,0.0267029,-0.00610352,0.0649643,0.0120544
9,2,9.6819,-0.000305176,-0.000915527,-2.42562,0.0562914,-0.0759786,0.0553487,0.0630358,-0.0922309,0.145624,-0.125156,-0.0822652,0.00740051,0.0289536,0.0103378,0.0172043,0.0222397,0.000305176,0.0195313,0.0173569,-9.97986,0.00659943,0.00190735,0.00537872,-0.00244141,0.0247955,-0.00499725,0.0663757,0.0102615
9,3,9.75484,0.00244141,-0.00106812,-2.42745,0.055681,-0.0744527,0.0535176,0.0682238,-0.0928413,0.145318,-0.125461,-0.0831808,0.0115967,0.0286865,0.0103378,0.0160599,0.0164413,0.000686646,0.0146103,0.0172424,-9.97986,0.00518799,-0.000190735,0.0101852,-0.00621796,0.0252151,-0.00679016,0.0667191,0.00862122
9,4,10.0097,-0.000915527,-0.000152588,-2.42653,0.055681,-0.0747579,0.0544332,0.0840929,-0.0913154,0.144403,-0.124851,-0.0834859,0.0144958,0.0271606,0.0105286,0.0171661,0.0178146,-0.000610352,-0.00434875,0.0177002,-9.97986,0.00862122,0.00110626,0.00576019,-0.014267,0.0166702,-0.00572205,0.064888,0.00782013
9,5,10.0097,-0.000915527,0.000457764,-2.42898,0.0529344,-0.0762837,0.0544332,0.0871447,-0.0934516,0.142877,-0.126987,-0.0859274,0.0126648,0.0274658,0.00881195,0.0104523,0.0191498,-0.000495911,-0.0136566,0.0244522,-9.97986,0.00812531,0.00198364,0.0043869,-0.0201797,0.015564,-0.00938416,0.0630569,0.00118256
9,6,10.0097,0.000610352,-0.000457764,-2.42837,0.0538499,-0.0753682,0.0522969,0.0752428,-0.0946723,0.142572,-0.127292,-0.0865377,0.0117111,0.0218964,0.0136566,0.00900269,0.0174713,-0.000762939,0.00476837,0.0187683,-9.97986,0.0111389,0.00400543,0.00156403,-0.018158,0.015831,-0.0088501,0.0535965,-0.00190735
9,7,10.0097,-0.000305176,-0.000915527,-2.42928,0.0535448,-0.0759786,0.0510762,0.0712755,-0.0961982,0.144403,-0.126377,-0.0868429,0.00995636,0.0229263,0.00808716,0.00102997,0.0175095,0.00087738,0.0131989,0.0232697,-9.97986,0.00808716,0.000686646,0.00789642,-0.0214005,0.013504,-0.00663757,0.0432205,-0.00259399
9,8,10.0097,0.000915527,-0.000762939,-2.42959,0.0550706,-0.0762837,0.0526021,0.0682238,-0.0955879,0.144098,-0.126987,-0.0880636,0.00827789,0.0263596,0.00946045,-0.00164032,0.00988007,0.00133514,0.00984192,0.0241852,-9.97986,-0.00293732,0.0030899,0.01091,-0.0231934,0.016861,-0.00797272,0.0261688,0
9,9,10.0097,-0.000610352,-0.000610352,-2.42867,0.0541551,-0.0759786,0.0510762,0.0685289,-0.0955879,0.142877,-0.126987,-0.0874532,0.00537872,0.0279236,0.0106049,-0.00919342,0.00907898,-0.000419617,-0.00202179,0.0265503,-9.97986,-0.00205994,-0.00259399,0.0120163,-0.0239182,0.017395,-0.012207,0.00965118,0.00164032
10,0,10.0097,-0.000915527,-0.000915527,-2.42959,0.0538499,-0.0753682,0.0526021,0.0688341,-0.0946723,0.144098,-0.127903,-0.0868429,-0.00640869,0.029068,0.0134659,-0.00720978,0.00862122,0.000686646,0.01091,0.0225449,-9.97986,-0.00980377,0.00484467,0.013237,-0.0239563,0.0248718,-0.0112534,-0.00293732,0.00110626
10,1,10.0097,0.0012207,-0.000762939,-2.42806,0.0535448,-0.0759786,0.0544332,0.0688341,-0.0931465,0.145013,-0.126377,-0.085317,-0.0120926,0.0318527,0.0178528,-0.0141525,0.00892639,0.00518799,0.0217819,0.0221634,-9.97986,-0.0122452,0.00236511,0.0152969,-0.0239182,0.0283813,-0.00946045,-0.010376,0.00354767
10,2,10.0097,0.00152588,0.000305176,-2.42776,0.0535448,-0.075063,0.0532125,0.0691393,-0.0946723,0.145013,-0.126072,-0.0850118,-0.0087738,0.0344467,0.0196838,-0.0249481,0.0112915,0.0031662,0.0247574,0.0249481,-9.97986,-0.0166702,0.00404358,0.0158691,-0.0160599,0.0354767,-0.0106049,-0.0190735,0.00591278
10,3,10.0097,0.000915527,0.000610352,-2.42531,0.0553758,-0.0759786,0.0522969,0.07036,-0.0922309,0.145318,-0.125156,-0.0834859,-0.0170898,0.0306702,0.0207138,-0.0136566,0.0107193,0.00408173,0.022583,0.0246048,-9.97986,-0.0214005,0.00305176,0.0130081,-0.0104904,0.0432587,-0.00606537,-0.0204849,0.00465393
10,4,10.0097,0.000915527,0.000610352,-2.42623,0.0559862,-0.0744527,0.0538228,0.0697496,-0.0916206,0.145318,-0.125156,-0.0828756,-0.00858307,0.0329208,0.0262451,0.00408173,0.0146103,0.00339508,0.0194168,0.0322723,-9.97986,-0.0259781,-0.000152588,0.0135803,-0.00984192,0.0431824,-0.000953674,-0.0230026,0.0103378
10,5,10.0097,-0.000610352,0,-2.42409,0.0565965,-0.0741475,0.0547383,0.0709703,-0.0931465,0.146539,-0.124851,-0.0813497,-0.00865936,0.0306702,0.0300598,-0.00247955,0.00968933,0.00087738,0.0296783,0.0291824,-9.97986,-0.0192261,0.00175476,0.00869751,-0.00587463,0.0508118,0.00282288,-0.0257492,0.0128555
10,6,10.0097,0.0012207,0.000305176,-2.42501,0.0559862,-0.0735371,0.0556539,0.0709703,-0.0925361,0.147149,-0.124241,-0.0813497,-0.00526428,0.0326157,0.0309372,-0.026741,0.00907898,-0.00274658,0.0330734,0.0293732,-9.97986,-0.0172043,0.00362396,0.0110245,-0.0082016,0.0544739,-0.00240326,-0.0198746,0.0147629
10,7,10.0097,-0.000915527,-0.000152588,-2.42501,0.0569017,-0.0738423,0.0556539,0.0715807,-0.0919257,0.145624,-0.124241,-0.0816549,-0.0211334,0.030899,0.032196,-0.0238037,0.0113297,0.000495911,0.0341797,0.0302124,-9.97986,-0.0137711,0.00110626,0.0165176,-0.00839233,0.0555801,-0.00175476,-0.012207,0.0172806
10,8,10.0097,0.000610352,0.000610352,-2.42409,0.0565965,-0.0741475,0.0568746,0.0706652,-0.0916206,0.147455,-0.123935,-0.0807394,-0.055542,0.0331497,0.033493,0.0104523,0.0129318,0.00217438,0.0338745,0.0235367,-9.97986,-0.0108337,-0.00232697,0.0120544,-0.010376,0.0548172,0.00278473,-0.0087738,0.0205612
10,9,10.0097,0.000610352,0.000152588,-2.4244,0.0572069,-0.0738423,0.0556539,0.0728014,-0.0903999,0.146844,-0.124241,-0.0804342,-0.0337219,0.0344849,0.0371552,0.0370026,0.0102615,-0.00209808,0.030365,0.0188828,-9.97986,-0.00335693,-0.00148773,0.0151443,-0.00598907,0.0551605,0.00339508,0.00289917,0.017395
11,0,10.0097,0,-0.000762939,-2.42623,0.055681,-0.0735371,0.0526021,0.0486925,-0.0934516,0.145318,-0.125156,-0.0816549,0.0207138,0.0388336,0.0480652,0.0641251,0.0127792,0.00148773,0.0288773,0.0190353,-9.97986,0.00110626,0.00217438,0.0114059,0.00179291,0.0544739,0.00740051,0.0108719,0.0244141
11,1,9.99318,0.0012207,-0.000610352,-2.42653,0.0562914,-0.0747579,0.0544332,0.054796,-0.0919257,0.145318,-0.126072,-0.0822652,0.0439453,0.0324631,0.0437164,0.0679016,0.00862122,-0.001297,0.030632,0.0195313,-9.97986,0.00408173,-0.00335693,0.01297,0.00156403,0.0554276,0.00171661,0.0115585,0.0221634
11,2,9.47164,0.000305176,0.000152588,-2.42531,0.0550706,-0.0747579,0.0547383,0.0636461,-0.0913154,0.146234,-0.125156,-0.0828756,0.0679398,0.0312042,0.0543976,0.0654984,0.0148773,-0.00297546,0.0336838,0.0208282,-9.97986,0.0127411,0.00183105,0.0169373,0.00179291,0.0558853,0.00488281,0.0212479,0.0230789
11,3,9.52809,0.000305176,0,-2.42623,0.0559862,-0.0735371,0.0547383,0.0688341,-0.0928413,0.145624,-0.125156,-0.0837911,0.0566101,0.0291061,0.0468445,0.0386429,0.0136185,0.000114441,0.0437927,0.0186157,-9.97986,0.0250244,0.000610352,0.0188828,0.00637054,0.0539398,0.00087738,0.0230026,0.0206757
11,4,10.0097,-0.000610352,0.000457764,-2.42745,0.0553758,-0.075063,0.0538228,0.0822618,-0.0910102,0.145013,-0.125156,-0.0837911,0.0273132,0.0294113,0.0385666,0.0107574,0.011673,-0.00282288,0.0506592,0.0174332,-9.97986,0.029335,-0.000953674,0.0225449,0.00469208,0.0495148,-0.00564575,0.0268173,0.0224686
11,5,10.0097,-0.000915527,0.00183105,-2.42806,0.0538499,-0.0756734,0.0535176,0.0883654,-0.0955879,0.143182,-0.125766,-0.085317,0.00553131,0.0248718,0.0245285,-0.00530243,0.0147247,-0.000915527,0.0437546,0.0123978,-9.97986,0.030632,-0.00766754,0.0162125,0.00480652,0.0501633,-0.000457764,0.0289917,0.0212479
11,6,10.0097,0,0.000457764,-2.43081,0.0532396,-0.0759786,0.0513814,0.0761583,-0.0955879,0.144098,-0.127598,-0.0862325,0.0025177,0.0268555,0.0119019,0.0156784,0.014534,0.00244141,0.0375748,-0.00411987,-9.97986,0.0185013,-0.000915527,0.0151825,0.0115585,0.0456619,-3.8147e-005,0.0315857,0.018959
11,7,10.0097,0,-0.000457764,-2.42776,0.0538499,-0.0756734,0.0526021,0.072191,-0.0949775,0.143487,-0.126987,-0.0871481,0.00747681,0.0294113,0.000343323,0.026741,0.0154495,0.0102997,0.0283051,-0.0037384,-9.97986,0.00812531,0.00366211,0.0164413,0.00774384,0.0466919,0.00537872,0.0340652,0.0198364
11,8,10.0097,-0.000305176,-0.000915527,-2.42928,0.0532396,-0.0759786,0.0513814,0.0697496,-0.0946723,0.142877,-0.127292,-0.0868429,0.0263214,0.0238037,-0.00167847,0.0179291,0.0139236,0.00686646,0.0202179,0.00247955,-9.97986,0.00514984,-0.00389099,0.0151062,0.00511169,0.0388718,0.00110626,0.0337982,0.0205231
11,9,10.0097,-0.000610352,-0.000457764,-2.42959,0.0538499,-0.0762837,0.0519917,0.0688341,-0.0946723,0.143792,-0.126987,-0.0871481,0.0252533,0.0175095,-0.00965118,0.0111008,0.0165939,0.0063324,0.014534,0.00255585,-9.97986,0.00988007,-0.00343323,0.0170135,0.00305176,0.0408554,0.00152588,0.0397491,0.0193024
12,0,10.0097,0,-0.000915527,-2.42867,0.0514085,-0.0756734,0.0513814,0.0688341,-0.0955879,0.143792,-0.127903,-0.0865377,-0.00648499,0.0125885,-0.0126266,0.00328064,0.014267,0.00400543,0.00671387,0.0056076,-9.97986,0.016861,-0.00389099,0.016861,0.0056076,0.0389099,-0.00152588,0.0406265,0.0172043
12,1,10.0097,0.000610352,-0.000762939,-2.42806,0.0547655,-0.0759786,0.0529073,0.0694445,-0.0952827,0.145318,-0.126987,-0.0859274,-0.0337601,0.0145721,-0.00759125,0.00495911,0.0161743,0.00137329,0.00358582,0.00717163,-9.97986,0.0222778,0.00270844,0.0173569,0.0037384,0.0376129,0.000648499,0.0419617,0.0175476
12,2,10.0097,0.0012207,-0.000457764,-2.42776,0.0544603,-0.075063,0.0519917,0.0691393,-0.0928413,0.143792,-0.125766,-0.085317,-0.0410461,0.0157928,-0.00499725,0.0044632,0.0154877,0.00167847,0.00137329,0.0104141,-9.97986,0.0259399,0.00350952,0.0156784,-0.00102997,0.0362396,0.00152588,0.0448227,0.0112915
12,3,10.0097,0.00366211,0,-2.42684,0.0547655,-0.0741475,0.054128,0.0694445,-0.0928413,0.144708,-0.125766,-0.085317,-0.045929,0.027771,0.00335693,-0.00106812,0.0177002,0.00434875,0.00488281,0.0157547,-9.97986,0.0105286,0.00602722,0.018425,0.00297546,0.0344849,0.00549316,0.0568008,0.0131607
12,4,10.0097,0.000305176,0,-2.42684,0.0562914,-0.0741475,0.054128,0.0694445,-0.0931465,0.145624,-0.125461,-0.0837911,-0.0582123,0.0296402,0.00644684,-0.00171661,0.0166702,0.0031662,0.00263214,0.0153351,-9.97986,-0.0107956,0.00980377,0.0147629,-0.00396729,0.0288391,0.00743866,0.0620651,0.0111008
12,5,10.0097,0,-0.000152588,-2.42501,0.0562914,-0.0744527,0.0547383,0.0724962,-0.0925361,0.146844,-0.12363,-0.0825704,-0.0449371,0.030899,0.0109863,0.00537872,0.0154495,0.0044632,0.00339508,0.00946045,-9.97986,-0.0151825,0.0044632,0.0179291,-0.00602722,0.0313187,0.0124741,0.0662231,0.0101471
12,6,10.0097,0.000305176,-0.000305176,-2.42562,0.0572069,-0.0720113,0.0550435,0.0731066,-0.0913154,0.146234,-0.124546,-0.0807394,0.0443268,0.0284195,0.0167465,0.00347137,0.0175095,0.00770569,0.00675201,0.00923157,-9.97986,-0.0157547,0.0056839,0.0130081,-0.00236511,0.0265121,0.0214386,0.0636292,0.0102615
12,7,10.0097,0.000305176,0,-2.42501,0.055681,-0.0735371,0.0550435,0.0715807,-0.0916206,0.145318,-0.123935,-0.0807394,0.103416,0.0315094,0.0203323,0.00751495,0.0127029,0.00137329,0.00164032,0.00732422,-9.97986,0.0111389,0.00518799,0.013504,-0.00236511,0.0280762,0.0148773,0.0685501,0.00461578
12,8,10.0097,0.0012207,-0.000152588,-2.4247,0.0575121,-0.0735371,0.0565694,0.0718859,-0.0913154,0.145929,-0.12363,-0.0807394,0.0494003,0.0297165,0.0234604,0.00274658,0.0163269,0.00476837,0.0075531,0.00339508,-9.97986,0.0430298,0.0031662,0.015564,0.00278473,0.0239182,0.0154495,0.0671387,0.0069046
12,9,10.0097,-0.000610352,0.000457764,-2.4247,0.0565965,-0.0741475,0.0562642,0.0709703,-0.0919257,0.145929,-0.124241,-0.0813497,0.0427246,0.0260162,0.0187302,-0.000762939,0.0109863,0.00293732,0.00732422,0.00335693,-9.97986,0.0588608,0.00572205,0.0125504,0.00175476,0.0216675,0.0119781,0.0629044,0.00526428
13,0,10.0097,0.00152588,-0.000152588,-2.42653,0.055681,-0.0741475,0.0519917,0.0468614,-0.0949775,0.145624,-0.125766,-0.0828756,0.050354,0.0294495,0.0198746,0.00125885,0.0144196,0.00713348,0.0152969,0.0131607,-9.97986,0.0470734,0.00888824,0.0141525,0.00991821,0.0203705,0.00431061,0.0574875,0.00679016
13,1,10.0097,0.000610352,-0.000305176,-2.42653,0.0559862,-0.0738423,0.0529073,0.0520494,-0.0952827,0.146234,-0.12363,-0.0816549,0.0176239,0.0311661,0.0201035,-0.00148773,0.0199509,0.00797272,0.0391388,0.0218964,-9.97986,0.0114059,0.00984192,0.0138092,0.0136948,0.016098,0.00518799,0.0549316,0.0030899
13,2,9.63765,-0.000305176,-0.000457764,-2.42623,0.0559862,-0.0738423,0.0544332,0.0615099,-0.0928413,0.145929,-0.126682,-0.0825704,-0.00556946,0.0235367,0.0165939,-0.00228882,0.0185013,0.00671387,0.0516129,0.0246048,-9.97986,-0.0165176,0.00366211,0.0152969,0.00923157,0.00839233,0.00759125,0.0531387,0.00385284
13,3,9.7527,0.000305176,-0.000305176,-2.42592,0.055681,-0.0744527,0.0574849,0.0694445,-0.0931465,0.145929,-0.126377,-0.0834859,-0.00278473,0.0194168,0.0156403,0.00167847,0.0222778,0.00541687,0.0398636,0.0230026,-9.97986,-0.0353241,0.00293732,0.0143814,0.00343323,0.0114059,0.0104904,0.0521851,0.0018692
13,4,10.0097,0.00152588,-0.000152588,-2.42653,0.0559862,-0.0744527,0.0544332,0.0831774,-0.0913154,0.145624,-0.125156,-0.0831808,-0.0110626,0.0178528,0.0159836,0.0044632,0.0168228,0.00804901,0.0160599,0.0230026,-9.97986,-0.0474167,-0.00118256,0.0164795,-0.00728607,0.00579834,0.00209808,0.041275,-0.00125885
13,5,10.0097,-0.000305176,0.00152588,-2.42898,0.0535448,-0.0756734,0.0522969,0.0874498,-0.0931465,0.142877,-0.126072,-0.0859274,-0.0557327,0.0236893,0.0177383,0.00144958,0.018959,0.0106812,0.00724792,0.0163269,-9.97986,-0.0354004,-0.00202179,0.0125885,-0.00289917,0.0056076,-0.0031662,0.036087,-0.00427246
13,6,10.0097,0.00213623,-0.000305176,-2.42867,0.0535448,-0.0756734,0.055959,0.0767687,-0.0943672,0.145013,-0.127292,-0.0865377,-0.0507736,0.019455,0.01194,-0.00209808,0.0206757,0.0108337,-0.00770569,0.0130463,-9.97986,-0.0131989,0.00362396,0.0139236,-0.000762939,0.00247955,-0.00286102,0.0291824,-0.000762939
13,7,10.0097,0.000610352,-0.000457764,-2.42837,0.0529344,-0.0765889,0.0516866,0.0724962,-0.0931465,0.142877,-0.127903,-0.0862325,0.0527954,0.0143051,0.00946045,-0.00408173,0.0151443,0.0115204,-0.0206757,0.0107193,-9.97986,-0.0031662,0.0018692,0.0118256,-0.00553131,0.00328064,0.000686646,0.0231171,-0.00240326
13,8,10.0097,0.000915527,-0.000610352,-2.42928,0.0562914,-0.0762837,0.0513814,0.0709703,-0.0961982,0.143487,-0.127292,-0.0877584,0.125237,0.0115204,0.00221252,-0.00530243,0.0180435,0.00907898,-0.0202942,0.0255966,-9.97986,0.0125504,-0.00205994,0.0123978,-0.00236511,0.00236511,0.0037384,0.0124359,-0.0025177
13,9,10.0097,-0.000610352,-0.000610352,-2.42867,0.0541551,-0.0765889,0.0556539,0.0697496,-0.0949775,0.143487,-0.127598,-0.0874532,0.114937,0.00507355,-0.00213623,-0.0120163,0.0162125,0.0128937,-0.0196457,0.0236511,-9.97986,0.0482559,0.00114441,0.0141907,-0.0119019,0.00717163,0.00869751,0.0120544,-0.00541687
14,0,10.0097,0.0012207,-0.0012207,-2.42714,0.0547655,-0.0756734,0.0526021,0.0688341,-0.0955879,0.144403,-0.126377,-0.0874532,0.0619125,0.00484467,-0.00343323,-0.00843048,0.0146484,0.0150299,-0.0141907,0.0226974,-9.97986,0.0885773,-0.00167847,0.00968933,-0.0172806,0.00232697,0.0123215,0.0166321,-0.00377655
14,1,10.0097,0.0012207,-0.00106812,-2.42745,0.0523241,-0.0756734,0.054128,0.0694445,-0.0952827,0.144708,-0.127292,-0.0859274,0.0226212,0.00331879,-0.00564575,-0.0044632,0.0102615,0.0139618,0.00801086,0.0199127,-9.97986,0.117722,-0.00209808,0.0111008,-0.0205231,-0.00160217,0.00736237,0.0170898,-0.00343323
14,2,10.0097,0.00274658,0.000610352,-2.42684,0.0544603,-0.0747579,0.0510762,0.0685289,-0.0946723,0.145013,-0.126682,-0.0840963,0.00778198,0.00286102,-0.000801086,0.000915527,0.0147247,0.0183105,0.015564,0.0214386,-9.97986,0.132828,-0.00743866,0.013504,-0.0225067,-0.000839233,0.00488281,0.0107193,-0.0031662
14,3,10.0097,-0.000915527,-0.000152588,-2.42623,0.0553758,-0.0762837,0.0532125,0.0685289,-0.0934516,0.144403,-0.126377,-0.0850118,0.00408173,0.00659943,0.00312805,-0.00656128,0.00862122,0.0144958,0.0105667,0.0200272,-9.97986,0.133476,-0.00213623,0.015831,-0.0204086,-0.000572205,0.00411987,0.00434875,-0.00110626
14,4,10.0097,0.000915527,-0.000457764,-2.42806,0.0526292,-0.0744527,0.0547383,0.0694445,-0.0928413,0.145624,-0.124546,-0.0844015,0.00816345,0.00556946,0.00232697,-0.00545502,0.0125122,0.0135422,0.00888824,0.0286865,-9.97986,0.095253,-0.00202179,0.017662,-0.0294113,-0.00289917,-0.00232697,0.000305176,0.00232697
14,5,10.0097,0.000610352,-0.000457764,-2.4247,0.0572069,-0.0735371,0.0580953,0.0700548,-0.0919257,0.146539,-0.124241,-0.0813497,0.01297,0.00743866,0.00534058,-0.00362396,0.00766754,0.0114059,-0.00179291,0.0264359,-9.97986,0.0740433,-0.000953674,0.0135803,-0.0348282,0.00473022,3.8147e-005,-0.00118256,0.00495911
14,6,10.0097,0.00274658,-0.000457764,-2.4247,0.0569017,-0.0735371,0.0544332,0.0706652,-0.0910102,0.147455,-0.124546,-0.0810445,0.0157547,0.00991821,0.0112534,-0.00534058,0.0112534,0.00988007,-0.00713348,0.0292969,-9.97986,0.047493,0.000610352,0.0130081,-0.0361252,0.00900269,-0.00270844,0.00347137,0.0019455
14,7,10.0097,0.00183105,-0.000305176,-2.42592,0.0532396,-0.0744527,0.0547383,0.0700548,-0.0922309,0.146234,-0.124241,-0.0813497,0.0142288,0.0130081,0.0141144,-0.00106812,0.00782013,0.000610352,-0.00495911,0.026474,-9.97986,0.0181961,-0.000534058,0.00694275,-0.0375748,0.00553131,-0.0025177,0.0094223,0.00598907
14,8,10.0097,0.0012207,0.000457764,-2.4247,0.0565965,-0.073232,0.0556539,0.0718859,-0.0946723,0.147455,-0.123325,-0.0804342,0.0120163,0.0182724,0.0173187,-0.00968933,0.00808716,-0.00331879,0.00293732,0.0253296,-9.97986,-0.00473022,-0.00167847,0.0105667,-0.0322723,0.00663757,-0.00247955,0.015564,0.00450134
14,9,10.0097,0.000610352,0.000305176,-2.4244,0.0572069,-0.0738423,0.0556539,0.0712755,-0.0919257,0.14776,-0.124546,-0.0819601,0.0117874,0.0156784,0.0215149,-0.0119019,0.0144196,-0.00469208,0.00793457,0.0243759,-9.97986,-0.0226974,0.00255585,0.0108337,-0.0365829,0.00846863,-0.0102234,0.01194,0.0063324
15,0,10.0097,0.000610352,-0.000762939,-2.4247,0.0593431,-0.0729268,0.054128,0.0462511,-0.0943672,0.145624,-0.126987,-0.0816549,0.0108719,0.0189972,0.0280762,-0.00164032,0.0125885,-0.00328064,0.0124741,0.0297546,-9.97986,-0.0417328,-0.00728607,0.0130081,-0.0321198,0.00995636,-0.00904083,0.0111008,0.0109482
15,1,10.0097,0.000305176,-0.00167847,-2.42592,0.0559862,-0.0744527,0.0544332,0.0538805,-0.088874,0.147455,-0.126377,-0.0819601,0.0108337,0.0270081,0.0302124,-0.00988007,0.00900269,-0.00202179,0.0201416,0.0288773,-9.97986,-0.0390244,-0.00274658,0.0122833,-0.028801,0.0140381,-0.011673,0.0128174,0.0100327
15,2,9.69014,0.000305176,0.000305176,-2.42592,0.0565965,-0.0744527,0.0538228,0.0624254,-0.0928413,0.145624,-0.124546,-0.0825704,0.0163651,0.0276566,0.0339508,-0.0037384,0.0127792,0.00659943,0.0184631,0.0310135,-9.97986,-0.0283432,-0.00473022,0.014267,-0.0260544,0.0100327,-0.0140381,0.0146866,0.00915527
15,3,9.76979,0.000305176,0.000152588,-2.42653,0.0507982,-0.0744527,0.054128,0.0691393,-0.0928413,0.144708,-0.125461,-0.0828756,0.00709534,0.023613,0.0361252,0.00511169,0.00968933,0.00858307,0.0191116,0.029335,-9.97986,-0.00953674,-0.00968933,0.0189972,-0.0217438,0.00812531,-0.010643,0.0145721,0.0133514
15,4,10.0097,-0.000305176,0.000915527,-2.42776,0.055681,-0.0744527,0.0522969,0.0828722,-0.0913154,0.146234,-0.125766,-0.0837911,0.0105286,0.030365,0.042572,0.00854492,0.0125122,0.00843048,0.0231934,0.0232697,-9.97986,0.00644684,-0.0037384,0.0283813,-0.0219727,0.0104523,-0.0044632,0.0129318,0.0105286
15,5,10.0097,0.000610352,0.00183105,-2.42745,0.0535448,-0.0765889,0.0526021,0.087755,-0.0925361,0.143487,-0.126377,-0.0862325,0.00617981,0.0388336,0.0458908,0.0151062,0.0142288,0.0138474,0.0234985,0.0246811,-9.97986,0.0139236,-0.00198364,0.0235748,-0.0157547,0.00999451,-0.000114441,0.0140381,0.010643
15,6,10.0097,0.00152588,0.000457764,-2.43081,0.0544603,-0.0756734,0.0526021,0.0758531,-0.0949775,0.143182,-0.126377,-0.0859274,0.0104523,0.0416565,0.0431824,0.0154877,0.0110245,0.016098,0.0320053,0.0206757,-9.97986,0.0127411,-0.00717163,0.0299835,-0.0165176,0.00709534,-0.0019455,0.0123978,0.0175858
15,7,10.0097,0.000305176,0.000152588,-2.42928,0.0532396,-0.0759786,0.0510762,0.0724962,-0.0928413,0.142877,-0.127598,-0.0865377,0.0128937,0.0376129,0.0501251,0.0143433,0.0114441,0.0189209,0.0291443,0.0231552,-9.97986,0.0230026,-0.00507355,0.032692,-0.0114441,0.00720978,-0.00236511,0.0101852,0.0147247
15,8,10.0097,-0.000305176,-0.000152588,-2.42959,0.0535448,-0.0759786,0.0526021,0.0697496,-0.0952827,0.143487,-0.127292,-0.0883688,0.00579834,0.0385284,0.0468445,0.0126266,0.00946045,0.0228882,0.0274658,0.0217438,-9.97986,0.0358963,-0.00320435,0.0281143,-0.011673,0.0037384,-0.00289917,0.00526428,0.00934601
15,9,10.0097,0.000915527,-0.0012207,-2.4305,0.0602586,-0.0762837,0.0516866,0.0685289,-0.0946723,0.143487,-0.127598,-0.0865377,0.0109482,0.0501251,0.0482941,0.00923157,0.013237,0.0254059,0.0293732,0.016861,-9.97986,0.0472641,-0.00385284,0.0303268,-0.00740051,0.00816345,-0.000839233,0.0120926,0.0136185
16,0,10.0097,-0.00183105,-0.000610352,-2.42928,0.0544603,-0.0765889,0.0526021,0.0697496,-0.0925361,0.142877,-0.127598,-0.0871481,0.00350952,0.0452423,0.0400162,0.00663757,0.0104523,0.0210953,0.0270081,0.0111008,-9.97986,0.0644684,-0.00461578,0.0246048,-0.0129318,0.00347137,-0.00499725,0.0128937,0.0117111
16,1,10.0097,-0.000915527,-0.000457764,-2.42837,0.0541551,-0.0756734,0.0522969,0.07036,-0.0934516,0.145013,-0.126987,-0.0859274,0.0127411,0.0477982,0.0331879,0.0018692,0.00675201,0.0212097,0.0284195,0.00968933,-9.97986,0.0664139,-0.0108719,0.0219727,-0.0160217,0.00484467,-0.00541687,0.0111389,0.00823975
16,2,10.0097,0.000305176,0,-2.42745,0.0565965,-0.075063,0.0532125,0.0697496,-0.094062,0.145013,-0.126682,-0.0847066,0.014534,0.0594711,0.0227356,-0.000419617,0.00694275,0.0242615,0.0311279,0.0139999,-9.97986,0.0630188,-0.0037384,0.0232315,-0.0111008,0.00679016,-0.00213623,0.00843048,0.00869751
16,3,10.0097,0.0012207,0.000457764,-2.42684,0.0553758,-0.0741475,0.0532125,0.0694445,-0.0974189,0.144098,-0.125766,-0.0850118,-0.00366211,0.0631332,0.0094223,0.0018692,0.00743866,0.02491,0.0302887,0.0164795,-9.97986,0.0544739,-0.00358582,0.0129318,-0.0134659,0.00656128,-0.00335693,3.8147e-005,0.00686646
16,4,10.0097,0.000915527,-0.000610352,-2.42714,0.0550706,-0.0747579,0.0535176,0.0694445,-0.0928413,0.146234,-0.125766,-0.0831808,-0.0199509,0.0418472,-0.00190735,0.00736237,0.00793457,0.028038,0.0289154,0.0262451,-9.97986,0.0375366,-0.0087738,0.00968933,-0.0148392,0.00602722,-0.00747681,0.00244141,0.00553131
16,5,10.0097,0.0012207,0.000305176,-2.4244,0.0572069,-0.0744527,0.0553487,0.0691393,-0.0919257,0.146539,-0.123935,-0.0810445,-0.0261688,0.0261688,-0.00759125,0.00808716,0.00793457,0.0250626,0.0368881,0.0288391,-9.97986,0.0219727,-0.00888824,0.00724792,-0.0125122,0.00541687,-0.00812531,0.000343323,0.00682831
16,6,10.0097,-0.000915527,0.000610352,-2.4247,0.0575121,-0.0738423,0.0535176,0.0709703,-0.0897895,0.145929,-0.123935,-0.0816549,-0.0318909,0.0212479,-0.0108337,0.00827789,0.00507355,0.0161743,0.032196,0.0302887,-9.97986,0.012207,-0.0143814,0.01091,-0.00656128,0.00415802,-0.00835419,-0.00354767,0.00179291
16,7,10.0097,0.000305176,-0.000152588,-2.42592,0.055681,-0.0735371,0.0556539,0.07036,-0.0916206,0.145929,-0.123325,-0.0807394,-0.0309753,0.0173187,-0.00816345,0.0101089,0.00385284,0.013237,0.0436783,0.0300598,-9.97986,0.00411987,-0.0141907,0.00915527,-0.00888824,-0.0019455,-0.00988007,-0.00419617,0.00312805
16,8,10.0097,0.00183105,0.000610352,-2.42409,0.0514085,-0.0729268,0.0547383,0.0709703,-0.0903999,0.14837,-0.125156,-0.0807394,-0.0191498,0.0236893,-0.00457764,0.00743866,0.00476837,0.016861,0.0439835,0.0365829,-9.97986,0.00556946,-0.0143814,0.00431061,-0.00221252,-0.000457764,-0.0128555,-0.00869751,0.0025177
16,9,10.0097,-0.000305176,-0.000152588,-2.42592,0.055681,-0.073232,0.0556539,0.0724962,-0.090705,0.146539,-0.123935,-0.0810445,0.00167847,0.0300598,0.00102997,0.00999451,0.00427246,0.0163269,0.0473785,0.0356674,-9.97986,-0.00106812,-0.0153351,0.00598907,-0.00663757,0.00328064,-0.00972748,-0.011673,-0.00179291
17,0,10.0097,-0.000915527,-0.000915527,-2.42623,0.0553758,-0.0741475,0.0526021,0.0450304,-0.0934516,0.143792,-0.125766,-0.0813497,0.000724792,0.0240326,0.00087738,0.00953674,0.00465393,0.0136185,0.0434494,0.0307465,-9.97986,-0.00511169,-0.017128,0.00450134,-0.00400543,0.000419617,-0.017128,-0.0163651,-0.00286102
17,1,9.92208,0.000915527,-0.00137329,-2.42623,0.0523241,-0.073232,0.0535176,0.0532701,-0.0931465,0.146234,-0.125766,-0.0828756,-0.00751495,0.0134277,0.000953674,0.0126648,0.00160217,0.0146484,0.041008,0.0268555,-9.97986,-0.00888824,-0.00743866,0.00377655,-0.00209808,0.000991821,-0.0157166,-0.0140762,-0.0030899
17,2,9.43105,0.000610352,-0.000457764,-2.42501,0.0559862,-0.0744527,0.055959,0.0627306,-0.0910102,0.145013,-0.125156,-0.0816549,0.00217438,-0.00144958,0.00362396,0.0143433,0.00434875,0.017395,0.0374603,0.0200272,-9.97986,-0.0088501,0.000686646,0.00774384,0.000572205,0.00297546,-0.0143433,-0.0177383,-0.00415802
17,3,9.54701,0.0012207,0.000152588,-2.42653,0.0559862,-0.0747579,0.0544332,0.0694445,-0.0910102,0.145013,-0.124851,-0.0831808,0.0222015,-0.00995636,0.00133514,0.011673,0.0018692,0.0180435,0.0401688,0.0260925,-9.97986,-0.00728607,0.0056839,0.00404358,-0.00240326,0.00358582,-0.00301361,-0.0185776,-0.0131226
17,4,10.0097,0,-0.000152588,-2.42714,0.0550706,-0.0744527,0.054128,0.0853136,-0.0910102,0.145624,-0.125156,-0.0837911,0.0320053,-0.00759125,0.00751495,0.00766754,0.0069046,0.0156021,0.0397491,0.0318527,-9.97986,0.00366211,0.00396729,0.0044632,-0.00694275,0.00175476,0.00469208,-0.02491,-0.0199127
17,5,10.0097,0.000305176,0.00137329,-2.42867,0.0535448,-0.0753682,0.0529073,0.0886705,-0.0919257,0.145929,-0.126987,-0.0856222,0.0521469,0.00236511,0.0162125,0.00968933,0.0135422,0.0127792,0.0442123,0.034523,-9.97986,0.00572205,-0.0063324,0.000724792,-0.00888824,-0.00183105,0.00782013,-0.0231171,-0.0179672
17,6,10.0097,0.000610352,-0.000305176,-2.42959,0.0538499,-0.0762837,0.0526021,0.075548,-0.0968086,0.144403,-0.126987,-0.0874532,0.0489426,0.0094223,0.0197601,0.0158691,0.0195694,0.0129318,0.0377655,0.0307465,-9.97986,-0.00202179,-0.00240326,0.00858307,-0.0124359,0.00469208,0.0117111,-0.0236893,-0.0190735
17,7,10.0097,-0.000305176,-0.000610352,-2.42928,0.0562914,-0.0756734,0.0519917,0.0712755,-0.0955879,0.144098,-0.127292,-0.0859274,0.0408936,0.0140762,0.0253677,0.0153732,0.0182343,0.0101471,0.0396729,0.0312042,-9.97986,-0.00720978,-0.00419617,0.00694275,-0.0133896,0.00648499,0.00762939,-0.0257874,-0.0140381
17,8,10.0097,0.00152588,-0.000152588,-2.42867,0.0538499,-0.0762837,0.0513814,0.0691393,-0.0900947,0.143487,-0.128513,-0.0868429,0.0455093,0.0177002,0.0259018,0.0145721,0.020256,0.0147629,0.0204849,0.0261688,-9.97986,-0.00640869,-0.00770569,0.00728607,-0.018692,0.00705719,0.00679016,-0.0259781,-0.0075531
17,9,10.0097,-0.000305176,-0.000610352,-2.42959,0.0538499,-0.0756734,0.0519917,0.0688341,-0.0949775,0.142572,-0.127903,-0.0868429,0.0196075,0.027504,0.0247955,0.0157166,0.0195694,0.0126266,0.0149918,0.028801,-9.97986,0.00247955,-0.00457764,0.00450134,-0.0156403,0.00644684,0.00312805,-0.0248718,0.00385284
18,0,10.0097,0.0012207,0.000305176,-2.42837,0.0559862,-0.0759786,0.0529073,0.0691393,-0.0955879,0.142877,-0.128208,-0.0868429,-0.0148773,0.0269699,0.0310898,0.0191498,0.0234985,0.0105286,0.0163651,0.0296402,-9.97986,0.0198364,-0.00537872,0.00801086,-0.0133514,0.00556946,7.62939e-005,-0.0257874,0.0190735
18,1,10.0097,0.000610352,0,-2.42806,0.0550706,-0.075063,0.0538228,0.0706652,-0.0882636,0.144403,-0.126377,-0.085317,-0.021286,0.0314331,0.0385284,0.0193024,0.0191879,0.00881195,0.02285,0.0258255,-9.97986,0.0509262,-0.0212479,0.0177002,-0.00991821,0.00831604,0.00328064,-0.0214767,0.0209045
18,2,10.0097,-0.000610352,-0.000305176,-2.42745,0.0553758,-0.0753682,0.054128,0.0697496,-0.0943672,0.145318,-0.127292,-0.085317,-0.0190353,0.0323105,0.0365448,0.0231934,0.014267,0.00823975,0.0215912,0.0179672,-9.97986,0.0649261,-0.0161743,0.0178909,-0.00499725,0.0120163,-0.00270844,-0.0174332,0.0254059
18,3,10.0097,-0.00152588,0.000305176,-2.42714,0.0529344,-0.075063,0.0544332,0.0697496,-0.0931465,0.145929,-0.127292,-0.0837911,-0.03685,0.0394821,0.0350952,0.0228882,0.00915527,0.0110626,0.0328445,0.0179672,-9.97986,0.062294,-0.00400543,0.0187683,-0.00713348,0.0130844,-0.00408173,-0.0156021,0.0251389
18,4,10.0097,0.0012207,0.000305176,-2.42592,0.055681,-0.0744527,0.0544332,0.0700548,-0.095893,0.146539,-0.125766,-0.0831808,-0.0273514,0.0405884,0.0425339,0.0183868,0.00423431,0.00846863,0.0395966,0.0120544,-9.97986,0.0405121,-0.00190735,0.0162125,-0.000648499,0.0152206,-0.00411987,-0.0108719,0.0239563
18,5,10.0097,0,0.000305176,-2.42501,0.0565965,-0.0741475,0.0547383,0.0715807,-0.090705,0.147455,-0.124546,-0.0813497,0.0275803,0.0489807,0.0437164,0.0113297,-0.00175476,0.00926971,0.0412369,0.00862122,-9.97986,0.0141907,0.00526428,0.0219345,-0.0087738,0.0207138,-0.00442505,-0.00865936,0.0245667
18,6,10.0097,0.000610352,0.000610352,-2.4247,0.0559862,-0.0738423,0.0556539,0.0700548,-0.090705,0.146234,-0.12363,-0.0810445,0.0624847,0.0571442,0.04776,0.0168991,0.00556946,0.00549316,0.0376892,0.0133133,-9.97986,-0.016098,0.00526428,0.0241852,0.000991821,0.0183487,-0.00480652,-0.0108719,0.0229645
18,7,10.0097,0.00244141,0.000457764,-2.42409,0.0575121,-0.0729268,0.054128,0.0706652,-0.0931465,0.145318,-0.123935,-0.0816549,0.0432587,0.0559235,0.0402832,0.00831604,0.00843048,0.0105286,0.0299072,0.0193787,-9.97986,-0.0343323,0.00152588,0.0231552,0.00358582,0.0196457,-0.00465393,-0.0037384,0.0235367
18,8,10.0097,0.00152588,0.000762939,-2.42379,0.0578172,-0.0729268,0.055959,0.0712755,-0.0925361,0.147149,-0.124241,-0.080129,0.00621796,0.0537109,0.0418091,0.00434875,0.00507355,0.00843048,0.0346756,0.0291061,-9.97986,-0.0380707,-0.00484467,0.0148392,-0.00408173,0.0197601,-0.00133514,-0.0025177,0.0162125
18,9,10.0097,-0.000610352,0.000610352,-2.42562,0.0541551,-0.0729268,0.0550435,0.0700548,-0.090705,0.145929,-0.12363,-0.0804342,-0.0186539,0.0317001,0.0370789,0.00892639,0.000343323,0.00774384,0.0333786,0.0321198,-9.97986,-0.0280762,-0.00591278,0.00705719,0.00888824,0.0285339,-0.000839233,0.00110626,0.0146866
19,0,10.0097,0,-0.000610352,-2.42684,0.0569017,-0.0741475,0.054128,0.0480822,-0.0946723,0.145318,-0.126377,-0.0816549,-0.017128,0.00679016,0.0310135,0.00988007,-0.00759125,0.0106812,0.0329208,0.0296021,-9.97986,-0.00465393,0.000648499,0.00919342,0.00999451,0.0248337,-0.00244141,0.0082016,0.0139236
19,1,9.82533,0.000610352,-0.000457764,-2.42653,0.0569017,-0.0747579,0.054128,0.052965,-0.0934516,0.145929,-0.125766,-0.0813497,-0.00431061,-0.000724792,0.0271225,0.0128174,-0.0127411,0.00762939,0.0391769,0.0290298,-9.97986,0.0183868,0.00785828,0.0129318,0.0179672,0.0301743,-0.000839233,0.00972748,0.0142288
19,2,9.32332,0.0012207,-0.000152588,-2.42653,0.0517137,-0.0747579,0.0535176,0.0618151,-0.0931465,0.147455,-0.126682,-0.0825704,0.030899,0.020256,0.0325012,0.00732422,-0.0172043,0.00278473,0.0416565,0.0255585,-9.97986,0.0175858,0.0165176,0.0156021,0.0221634,0.0281143,-0.00495911,0.0122833,0.00740051
19,3,9.45424,0.00152588,0.000762939,-2.42592,0.0547655,-0.0747579,0.0550435,0.0700548,-0.0903999,0.145929,-0.126682,-0.0831808,0.0522614,0.0417709,0.0310898,0.00644684,-0.0217438,0.00282288,0.0348282,0.0257111,-9.97986,0.0108337,0.0104904,0.0212479,0.0321198,0.0282288,-0.000724792,0.0105286,0.0101089
19,4,10.0097,-0.000915527,0.00167847,-2.42623,0.0553758,-0.0747579,0.0553487,0.0828722,-0.090705,0.144708,-0.124851,-0.0825704,0.0511169,0.054245,0.0339127,0.00976563,-0.0196457,0.00343323,0.0349808,0.0269318,-9.97986,0.01091,-0.00160217,0.0238037,0.0374222,0.0300598,0.00404358,0.0138092,0.00854492
19,5,10.0097,0.000915527,0.00244141,-2.42806,0.0529344,-0.0759786,0.0538228,0.0901964,-0.0925361,0.145013,-0.124546,-0.0856222,0.0505447,0.0596619,0.028038,0.0094986,-0.0206375,0.00507355,0.0362015,0.0249481,-9.97986,0.00728607,-0.0069809,0.0299072,0.0430298,0.0267792,0.0087738,0.0190735,0.00724792
19,6,10.0097,0.000915527,0.000305176,-2.43081,0.0529344,-0.0762837,0.0522969,0.0767687,-0.0946723,0.143487,-0.126682,-0.0871481,0.0623322,0.0684738,0.0251389,0.0106812,-0.0240326,0.000801086,0.0301361,0.0278473,-9.97986,0.00873566,-0.00141144,0.0286102,0.0491714,0.0250626,0.00831604,0.0180435,0.00614166
19,7,10.0097,-0.000305176,0.000152588,-2.42898,0.0541551,-0.0753682,0.0516866,0.0718859,-0.0952827,0.142267,-0.126682,-0.0871481,0.0608063,0.0534058,0.0188446,0.014534,-0.0223923,0.00427246,0.0241852,0.0349426,-9.97986,0.00694275,-0.000305176,0.034256,0.0512314,0.0255966,0.00484467,0.0196075,-0.0037384
19,8,10.0097,-0.000610352,-0.000610352,-2.42928,0.0569017,-0.0756734,0.0522969,0.0682238,-0.0955879,0.141961,-0.127903,-0.0865377,0.026474,0.0183105,0.0163651,0.0178909,-0.0238419,0.00595093,0.0144958,0.0330353,-9.97986,0.0144577,0.00507355,0.03582,0.0466156,0.02388,0.0113678,0.0275803,-0.00202179
19,9,10.0097,0.000305176,0.000152588,-2.42928,0.0532396,-0.075063,0.0526021,0.0688341,-0.0989448,0.143792,-0.128208,-0.0868429,-0.0130844,-0.00259399,0.00701904,0.021553,-0.0154877,0.00835419,0.00518799,0.0178909,-9.97986,0.0248718,0.012207,0.0402832,0.046196,0.0293732,0.0217819,0.0315857,-0.000495911
20,0,10.0097,-0.0012207,-0.0012207,-2.42837,0.0541551,-0.0762837,0.0516866,0.0691393,-0.0965034,0.143182,-0.126987,-0.0868429,-0.0224686,-0.0190735,-0.000114441,0.0183105,-0.0170898,0.000801086,-3.8147e-005,-0.00411987,-9.97986,0.0183105,-0.00320435,0.0310516,0.0415421,0.019455,0.0173569,0.0244904,-0.0170517
20,1,10.0097,0.0012207,-0.000305176,-2.42837,0.0553758,-0.0753682,0.0532125,0.0685289,-0.0937568,0.145013,-0.126682,-0.085317,-0.0112534,-0.0152588,0.00667572,0.0244522,-0.0102234,0.00213623,0.0112534,-0.001297,-9.97986,0.0208282,0.00423431,0.038147,0.0474167,0.0227737,0.0222778,0.0335312,-0.00461578
20,2,10.0097,-0.000305176,-0.000305176,-2.42653,0.0544603,-0.0753682,0.0529073,0.0697496,-0.094062,0.145318,-0.126682,-0.0850118,-0.0298691,-0.000343323,0.0120163,0.0245285,-0.00167847,0.00164032,0.0122452,-0.00606537,-9.97986,0.0155258,-0.0056076,0.0308609,0.053215,0.0183487,0.0209045,0.0318527,-0.00190735
20,3,10.0097,0.000915527,0.000305176,-2.42806,0.0550706,-0.0747579,0.0538228,0.0694445,-0.0946723,0.144403,-0.126377,-0.0847066,-0.034256,-0.00740051,0.0160599,0.021553,0.0056839,-0.00289917,0.0174713,0.00396729,-9.97986,0.00816345,-0.0087738,0.0211334,0.0590897,0.0140762,0.0142288,0.03685,0.0109482
20,4,10.0097,0.0012207,0.000305176,-2.42684,0.0541551,-0.075063,0.0532125,0.0694445,-0.0910102,0.144403,-0.126072,-0.0828756,-0.0228119,-0.019455,0.0144196,0.0225449,0.0101471,0.000190735,0.0201797,0.0141525,-9.97986,-0.00778198,-0.00793457,0.0120163,0.0546646,0.0183105,0.0179672,0.034256,0.0273132
20,5,10.0097,0.00183105,0.000152588,-2.4247,0.0559862,-0.0735371,0.0538228,0.0697496,-0.0919257,0.146844,-0.125766,-0.0810445,-0.0148773,-0.0165176,0.0185013,0.0250626,0.0221252,-0.00171661,0.0251389,0.0304413,-9.97986,-0.0337219,-0.000190735,0.000419617,0.0577545,0.0228119,0.0113678,0.031395,0.043602
20,6,10.0097,0.000305176,0.000610352,-2.42531,0.0559862,-0.0747579,0.0550435,0.0700548,-0.0916206,0.148675,-0.124241,-0.0847066,-0.0178146,0.00038147,0.026207,0.0165939,0.0365067,-0.000267029,0.0271225,0.030632,-9.97986,-0.0557327,0.000419617,-0.0159454,0.059166,0.0204086,0.0117874,0.0255203,0.0520325
20,7,10.0097,0.000915527,-0.000305176,-2.42898,0.0565965,-0.073232,0.0544332,0.0715807,-0.0925361,0.147455,-0.124241,-0.0810445,-0.0198364,0.00160217,0.0260544,0.0130081,0.0516129,0.00106812,0.0336075,0.0172806,-9.97986,-0.0772095,0.00110626,-0.0375366,0.0589371,0.0151443,0.00331879,0.0221252,0.046196
20,8,10.0097,-0.000915527,-0.000305176,-2.42501,0.0584276,-0.0729268,0.054128,0.0706652,-0.0931465,0.145929,-0.12363,-0.080129,-0.0144196,0.00679016,0.0144958,0.0212097,0.0679398,-0.000915527,0.0338364,0.0233078,-9.97986,-0.0833893,0.00190735,-0.0606155,0.0556946,0.0234985,-0.000762939,0.0218964,0.0194931
20,9,10.0097,-0.000610352,-0.000152588,-2.42531,0.0569017,-0.0744527,0.0553487,0.0712755,-0.0913154,0.147455,-0.123935,-0.0804342,0.0075531,-0.00259399,0.0137329,0.0150681,0.0731659,-0.00541687,0.0428772,0.0196838,-9.97986,-0.0743484,0.00144958,-0.0646591,0.0582123,0.0216293,0.00434875,0.0274658,-0.00522614
21,0,10.0097,0,-0.000915527,-2.42653,0.0572069,-0.0735371,0.0532125,0.0471666,-0.094062,0.145929,-0.126072,-0.0819601,0.0411987,-0.0143051,0.00701904,0.0159836,0.0788116,-0.0037384,0.0338745,0.0213242,-9.97986,-0.0471878,0.00839233,-0.0466156,0.0551224,0.0196075,-0.00297546,0.0272751,-0.0114822
21,1,9.86257,0.000305176,-0.00137329,-2.42653,0.0572069,-0.0747579,0.0550435,0.0523546,-0.0925361,0.146844,-0.126072,-0.0813497,0.052681,0.00495911,0.00137329,0.0170135,0.0760269,-0.00530243,0.0275803,0.02491,-9.97986,0.00617981,0.0144196,-0.0260162,0.0570679,0.0136566,0.00499725,0.0302124,-0.0148773
21,2,9.38741,0,-0.000305176,-2.42592,0.0550706,-0.075063,0.0550435,0.0636461,-0.0934516,0.146234,-0.126072,-0.0828756,0.0444412,0.0118256,-0.00343323,0.0169754,0.0704956,-0.00896454,0.02285,0.0301743,-9.97986,0.0733185,0.0114441,-0.00663757,0.0562668,0.0107956,0.00709534,0.0310135,-0.0191879
21,3,9.52046,0.00305176,0.000762939,-2.42684,0.0532396,-0.0747579,0.0556539,0.07036,-0.0913154,0.145624,-0.125156,-0.0828756,0.0295258,0.000686646,-0.000534058,0.0139999,0.0605011,-0.00202179,0.0165176,0.0315857,-9.97986,0.126343,0.00312805,0.0234604,0.0500488,0.0108719,0.0142288,0.0339508,-0.0176239
21,4,10.0097,0.000610352,-0.000152588,-2.42684,0.0547655,-0.0744527,0.0547383,0.0798204,-0.0900947,0.145624,-0.124851,-0.0831808,0.0198746,-0.0179672,0.00545502,0.017395,0.0327301,-0.000343323,0.0198364,0.0318527,-9.97986,0.109787,-0.00968933,0.0525665,0.0451279,0.0104904,0.0141525,0.031395,-0.0117874
21,5,10.0097,0,0.00167847,-2.42898,0.0538499,-0.0759786,0.0538228,0.0883654,-0.0922309,0.144098,-0.126072,-0.0862325,0.0284576,-0.0179291,0.00701904,0.0200653,0.00450134,-0.00537872,0.0140762,0.0341034,-9.97986,0.0754166,-0.00976563,0.0761414,0.0428391,0.00598907,0.00495911,0.0289536,-0.00656128
21,6,10.0097,0.000915527,0.00106812,-2.42867,0.050493,-0.0759786,0.0516866,0.0752428,-0.0952827,0.144098,-0.128208,-0.0874532,0.0269318,-0.0138855,0.00904083,0.0258636,-0.00804901,0.00312805,0.0159836,0.0354767,-9.97986,0.0580215,-0.00270844,0.0915527,0.0370026,0.00133514,-0.0025177,0.0278854,0.000419617
21,7,10.0097,0.00152588,-0.0012207,-2.42837,0.0535448,-0.0756734,0.0532125,0.0709703,-0.0931465,0.144403,-0.126072,-0.0874532,0.0247574,-0.00976563,0.015831,0.0220871,-0.0260544,0.00335693,0.0130463,0.0447845,-9.97986,0.0644302,0.00415802,0.101814,0.0357437,-3.8147e-005,-0.0019455,0.0251389,0.0192261
21,8,10.0097,0,-0.000610352,-2.42959,0.0541551,-0.0756734,0.0529073,0.0691393,-0.095893,0.143487,-0.127292,-0.0871481,0.0209045,-0.00255585,0.0210953,0.0283432,-0.0406265,0.0105286,0.0144958,0.0382233,-9.97986,0.0624084,0.00766754,0.103645,0.0298309,0.000305176,-0.00442505,0.0258255,0.0358963
21,9,10.0097,0.000915527,-0.000610352,-2.4302,0.0538499,-0.0759786,0.0522969,0.0679186,-0.0955879,0.143792,-0.126987,-0.0865377,0.0182343,0.00732422,0.0337601,0.0262833,-0.0431824,0.00934601,0.0140762,0.0406265,-9.97986,0.0499344,0.0112534,0.0965118,0.0214767,0.00640869,-0.00312805,0.0249481,0.0420761
22,0,10.0097,0,-0.00106812,-2.42928,0.0550706,-0.0765889,0.0519917,0.072191,-0.0949775,0.143487,-0.126987,-0.0871481,0.0148773,0.00579834,0.0353241,0.0220871,-0.0517654,0.0155258,0.0101471,0.0407028,-9.97986,0.041275,0.00774384,0.074501,0.0172806,0.00911713,-0.00522614,0.0262833,0.0409698
22,1,10.0097,-0.000610352,-0.000610352,-2.42806,0.0547655,-0.0756734,0.0529073,0.0697496,-0.0937568,0.142877,-0.126987,-0.085317,0.0139236,0.0137711,0.0401688,0.0183868,-0.0470352,0.0194931,0.00732422,0.0400925,-9.97986,0.0395203,0.00785828,0.0625992,0.00976563,0.00766754,-0.0120163,0.0310898,0.0107574
22,2,10.0097,0.0012207,-0.00106812,-2.42745,0.0535448,-0.0747579,0.0529073,0.0694445,-0.0922309,0.145013,-0.125766,-0.0850118,0.0147629,0.0217438,0.0480652,0.0218201,-0.0482559,0.0229645,0.00713348,0.0392532,-9.97986,0.0292969,0.00720978,0.0469208,0.00705719,0.0114822,-0.0202179,0.0295258,-0.0259018
22,3,10.0097,-0.000915527,-0.000152588,-2.42684,0.0550706,-0.0753682,0.0532125,0.0712755,-0.0934516,0.145624,-0.125766,-0.0840963,0.0151443,0.0410461,0.0534821,0.0106049,-0.0456238,0.0271988,0.0102615,0.0320816,-9.97986,0.0256729,0.00686646,0.0344467,0.000991821,0.0193787,-0.0291061,0.0282669,-0.0217438
22,4,10.0097,0.0012207,-0.000457764,-2.42653,0.0559862,-0.0747579,0.0529073,0.0709703,-0.0922309,0.145929,-0.125461,-0.0822652,0.0131226,0.0615311,0.0548172,0.00785828,-0.0488663,0.0327682,0.00511169,0.0222778,-9.97986,0.0282669,-0.00244141,0.0245285,-0.00682831,0.0225067,-0.025177,0.0308609,-0.000801086
22,5,10.0097,-0.000305176,0,-2.42501,0.0547655,-0.0735371,0.0553487,0.0712755,-0.0897895,0.146234,-0.124241,-0.0813497,0.0111389,0.0684357,0.0579071,0.00358582,-0.0447845,0.0415421,0.0106812,0.00694275,-9.97986,0.0223541,0.00385284,0.0087738,-0.00862122,0.0281906,-0.0204086,0.034523,0.00862122
22,6,10.0097,0.000915527,-0.00106812,-2.42501,0.0575121,-0.0738423,0.0544332,0.0688341,-0.0910102,0.146234,-0.124241,-0.0810445,0.00907898,0.0705338,0.0548172,0.00217438,-0.0305939,0.0399399,0.0111771,-0.00759125,-9.97986,0.0183487,0.0087738,0.00110626,-0.0160599,0.0297928,-0.018425,0.0382614,0.00453949
22,7,10.0097,0.000610352,-0.000457764,-2.42348,0.0562914,-0.0729268,0.0544332,0.0712755,-0.0922309,0.145929,-0.124546,-0.0810445,0.0173569,0.0777817,0.0556946,0.00164032,-0.0177765,0.0444412,0.0149155,-0.0112534,-9.97986,0.0159836,0.00873566,0.0044632,-0.0159836,0.0335693,-0.014801,0.0475693,-0.0307465
22,8,10.0097,0.000610352,-0.000152588,-2.42379,0.0578172,-0.073232,0.0544332,0.072191,-0.0910102,0.146234,-0.124851,-0.0804342,0.0160217,0.0722122,0.0458527,0.0030899,-0.0101852,0.0331116,0.0116348,-0.00896454,-9.97986,0.00938416,0.010643,0.00614166,-0.0141525,0.0369263,-0.0230026,0.0476456,-0.0658035
22,9,10.0097,0.000305176,0.000457764,-2.42409,0.0578172,-0.0738423,0.0532125,0.0694445,-0.0922309,0.147149,-0.12302,-0.080129,0.0168991,0.08255,0.0308228,0.00797272,-0.00293732,0.0224304,0.0108337,-0.0119781,-9.97986,0.0209045,0.00667572,0.0127029,-0.0135422,0.0405884,-0.0324249,0.0352097,-0.0562286
23,0,10.0097,0,-0.00137329,-2.42592,0.0550706,-0.0744527,0.0538228,0.0465563,-0.0952827,0.145929,-0.126072,-0.0825704,0.0115585,0.0922012,0.0167847,0.0115204,0.0122452,0.00701904,0.0128174,-0.0050354,-9.97986,0.0239563,0.00629425,0.0182724,-0.0116348,0.0537109,-0.0333405,0.0329971,-0.0362015
23,1,10.0097,-0.000305176,-0.00152588,-2.42714,0.0584276,-0.075063,0.0532125,0.054796,-0.0934516,0.146234,-0.125766,-0.0822652,0.0125504,0.065918,-0.00179291,0.0120544,0.0331497,-0.00770569,0.00804901,0.00396729,-9.97986,0.0251007,0.00286102,0.00534058,-0.0117111,0.05867,-0.0260544,0.0332642,-0.0120544
23,2,9.52687,0.000610352,-0.000152588,-2.42562,0.0565965,-0.0744527,0.0519917,0.0639513,-0.0919257,0.145013,-0.124851,-0.0828756,0.0062561,0.0223923,-0.0130081,0.0154877,0.0653458,-0.0154495,0.0082016,0.0105286,-9.97986,0.034523,0.00617981,-0.032196,-0.0169754,0.0484467,-0.0242233,0.0274658,0.0291824
23,3,9.62789,-0.000610352,-0.000457764,-2.42623,0.0550706,-0.0747579,0.0535176,0.0682238,-0.0913154,0.144708,-0.125461,-0.0834859,0.00720978,-0.00694275,-0.019989,0.0132751,0.103912,-0.0167847,0.00816345,0.0111389,-9.97986,0.0335312,0.0104523,-0.0712204,-0.0215149,0.0372314,-0.0282288,0.0194931,0.0302124
23,4,10.0097,-0.000305176,0.000457764,-2.42684,0.0544603,-0.0744527,0.054128,0.0813463,-0.0919257,0.144098,-0.126072,-0.0837911,0.00709534,-0.0111008,-0.0295639,0.0139236,0.148621,-0.0178146,0.00572205,0.0150681,-9.97986,0.0344086,0.0160599,-0.0938034,-0.0251007,0.0277328,-0.0350189,0.0181961,-0.0428772
23,5,10.0097,0.000915527,0.000762939,-2.42928,0.0538499,-0.0762837,0.0510762,0.0883654,-0.0943672,0.143182,-0.126377,-0.0859274,0.00579834,-0.00572205,-0.0272751,0.0102234,0.188408,-0.0191879,0.00679016,0.0151443,-9.97986,0.0376892,0.014801,-0.112076,-0.0270844,0.0195313,-0.0314713,0.00732422,-0.0765228
23,6,10.0097,0.000610352,-0.000610352,-2.42959,0.0538499,-0.0759786,0.0519917,0.0761583,-0.095893,0.145624,-0.126987,-0.0865377,0.00724792,0.00499725,-0.0244522,0.0127029,0.260201,-0.0151825,0.00404358,0.0107193,-9.97986,0.0338745,0.00667572,-0.117798,-0.0365448,0.0141144,-0.0262451,0.00335693,-0.00812531
23,7,10.0097,0.0012207,-0.000305176,-2.42806,0.0538499,-0.0744527,0.0526021,0.0709703,-0.095893,0.145318,-0.127598,-0.0871481,0.00907898,0.00812531,-0.00938416,0.0137711,0.316277,-0.0209427,0.00843048,0.0153351,-9.97986,0.0318146,0.000114441,-0.11837,-0.0320053,0.00808716,-0.0170135,0.00934601,0.081749
23,8,10.0097,0.000915527,-0.00106812,-2.42898,0.0544603,-0.0765889,0.0519917,0.0685289,-0.095893,0.145318,-0.127598,-0.0874532,0.00213623,0.00354767,-0.0101471,0.0118637,0.314903,-0.0124741,0.0056839,0.0160217,-9.97986,0.0234222,-0.0062561,-0.101814,-0.0366592,-0.00518799,-0.014534,0.0110245,0.171432
23,9,10.0097,0.000305176,-0.000457764,-2.43111,0.0535448,-0.075063,0.0519917,0.0700548,-0.095893,0.146539,-0.127598,-0.0874532,0.00850677,0.0201797,-0.00427246,0.021553,0.295372,-0.00305176,0.00511169,0.0256729,-9.97986,0.0224686,0.000762939,-0.0622559,-0.0286102,-0.00423431,-0.00484467,0.0143433,0.239296
24,0,10.0097,0.00366211,-0.0012207,-2.42806,0.0544603,-0.0759786,0.054128,0.0688341,-0.0946723,0.144098,-0.127598,-0.0859274,0.00205994,0.0229645,0.00137329,0.0191879,0.250282,0.00469208,0.00488281,0.0344849,-9.97986,0.0165939,0.00644684,-0.0193405,-0.0271988,-0.0115585,-0.0019455,0.00747681,0.251274
24,1,10.0097,0.000915527,0,-2.42898,0.0547655,-0.0753682,0.0535176,0.0700548,-0.0943672,0.143182,-0.126072,-0.0862325,0.00675201,0.000686646,-0.000762939,0.0217056,0.180054,0.0109863,0.001297,0.0396729,-9.97986,0.0128555,0.00801086,0.0218964,-0.0298691,-0.021553,-0.00881195,0.00934601,0.215225
24,2,10.0097,0.000305176,-0.000457764,-2.42745,0.0547655,-0.075063,0.0556539,0.07036,-0.0931465,0.143792,-0.127292,-0.0844015,0.00862122,-0.0119781,0.00190735,0.0222397,0.101852,0.0143051,0.00499725,0.0411224,-9.97986,0.00320435,0.00198364,0.0680161,-0.0291061,-0.0175476,-0.0138474,0.0122833,0.171814
24,3,10.0097,-0.00213623,0,-2.42837,0.0562914,-0.0747579,0.0544332,0.0712755,-0.0937568,0.143487,-0.125156,-0.0834859,0.0102615,-0.02285,0.0056076,0.0241852,0.00827789,0.02285,0.00911713,0.0385284,-9.97986,0.00606537,0.00331879,0.101204,-0.0302124,-0.0180054,-0.0274658,0.0117493,0.125122
24,4,10.0097,-0.0012207,0.000152588,-2.42623,0.0565965,-0.0747579,0.0544332,0.0718859,-0.0925361,0.144098,-0.125461,-0.0828756,0.00946045,-0.0178146,0.00606537,0.0245285,-0.0691223,0.0264359,0.00534058,0.0392151,-9.97986,0.00408173,0.0114441,0.121384,-0.0339508,-0.0155258,-0.0285339,0.0153351,0.0730896
24,5,10.0097,0.000610352,-0.000610352,-2.42531,0.0553758,-0.075063,0.0535176,0.0697496,-0.0919257,0.144708,-0.123935,-0.0810445,0.00789642,-0.011673,0.00682831,0.0234985,-0.126724,0.0263596,0.0025177,0.0366974,-9.97986,0.00427246,0.000686646,0.0937653,-0.0366211,-0.0116348,-0.0205612,0.0171661,0.0167465
24,6,10.0097,0.000305176,0.000152588,-2.42409,0.0581224,-0.0744527,0.054128,0.0715807,-0.0919257,0.145318,-0.122715,-0.0813497,0.00434875,-0.000305176,0.0151443,0.0216675,-0.160332,0.033989,0.00465393,0.0194168,-9.97986,0.0043869,0.00518799,0.0537872,-0.0332642,-0.00518799,-0.0123215,0.0209045,-0.0408173
24,7,10.0097,0.00244141,0.000152588,-2.42531,0.0569017,-0.0744527,0.0544332,0.0706652,-0.0910102,0.147149,-0.12363,-0.0810445,0.00160217,0.0128555,0.0330353,0.0260925,-0.15934,0.0484467,0.00312805,0.0103378,-9.97986,0.00331879,0.00995636,0.0566864,-0.0334549,0.000495911,-0.00431061,0.0208664,-0.0774384
24,8,10.0097,-0.000305176,0.000152588,-2.42501,0.0569017,-0.0741475,0.0544332,0.0718859,-0.0922309,0.145929,-0.123935,-0.0807394,0.0018692,0.0349426,0.0538635,0.0255203,-0.155869,0.0535965,0.00537872,0.00934601,-9.97986,-0.00415802,0.00774384,0.062561,-0.0362778,-0.00415802,0.00602722,0.0231552,-0.111961
24,9,10.0097,0.00183105,-0.000762939,-2.42531,0.0559862,-0.0735371,0.0553487,0.0715807,-0.0913154,0.146844,-0.124546,-0.080129,0.00358582,0.0639725,0.0675201,0.0244522,-0.146179,0.0593948,0.00137329,-0.00389099,-9.97986,-0.0101852,-0.000495911,0.0634766,-0.0370407,-0.0137329,0.0119019,0.0246048,-0.146942
25,0,10.0097,-0.000305176,-0.00137329,-2.42592,0.0559862,-0.0744527,0.0532125,0.04442,-0.0955879,0.148065,-0.126377,-0.0822652,0.00175476,0.0865936,0.0884247,0.0209427,-0.123558,0.0601196,0.0119019,0.00362396,-9.97986,-0.0147629,-0.00282288,0.0627899,-0.0414658,-0.0114059,0.00938416,0.0156021,-0.108376
25,1,9.82717,0.00396729,-0.00167847,-2.42806,0.0559862,-0.0744527,0.0529073,0.0535753,-0.0931465,0.147149,-0.125766,-0.0825704,0.00125885,0.107536,0.108719,0.0148392,-0.0813675,0.0666046,0.0075531,0.0251389,-9.97986,-0.0218964,-0.00614166,0.0327301,-0.0443268,0.00267029,0.0106049,0.0170135,-0.0736618
25,2,9.37673,0.00213623,-0.00106812,-2.42653,0.0553758,-0.0741475,0.054128,0.0618151,-0.0925361,0.145624,-0.125766,-0.0819601,0.000724792,0.14679,0.132408,0.0030899,-0.0452805,0.0567245,0.00679016,0.0284576,-9.97986,-0.0180817,-0.00938416,-0.0115204,-0.0497437,0.0094986,0.00400543,0.0307083,-0.0945663
25,3,9.48018,0,0,-2.42623,0.0550706,-0.0747579,0.0532125,0.0700548,-0.0894843,0.143792,-0.126377,-0.0828756,0.00164032,0.139351,0.133286,0.00324249,-0.0354767,0.0296402,0.00892639,0.0279999,-9.97986,-0.0144196,-0.00427246,-0.0608444,-0.0520706,0.0141525,-7.62939e-005,0.0518036,-0.106544
25,4,10.0097,-0.0012207,0.000305176,-2.42684,0.0553758,-0.0747579,0.0535176,0.0850084,-0.090705,0.142877,-0.125156,-0.0844015,0.00225067,0.0873184,0.107079,-0.0018692,0.0236893,0.00812531,0.010376,0.0289536,-9.97986,-0.0123978,0.000305176,-0.108299,-0.04879,0.0232315,-0.00244141,0.0696182,-0.170135
25,5,10.0097,-0.00152588,0.00137329,-2.42867,0.0523241,-0.075063,0.054128,0.0895861,-0.0931465,0.143487,-0.125766,-0.0859274,-0.0044632,0.0774002,0.0761414,-0.00488281,0.0872803,-0.00988007,0.0130463,0.0287628,-9.97986,-0.00537872,-0.00541687,-0.0944138,-0.0504684,0.0354767,-0.00106812,0.0801468,-0.203209
25,6,10.0097,-0.000610352,0.000305176,-2.42867,0.0529344,-0.0753682,0.0532125,0.077379,-0.0943672,0.145013,-0.127292,-0.0871481,-0.00671387,0.0758743,0.0437927,-0.00419617,0.101776,-0.0219727,0.014267,0.00236511,-9.97986,0.00339508,-0.00267029,-0.0559235,-0.0515747,0.0535583,0.00160217,0.0915527,-0.1091
25,7,10.0097,-0.000305176,0.000610352,-2.42837,0.0538499,-0.0756734,0.0532125,0.0718859,-0.0946723,0.145929,-0.127292,-0.0865377,0.00202179,0.0470352,0.0207901,-0.0063324,0.15583,-0.0342941,0.0205612,-0.0396729,-9.97986,0.0123978,-0.0100327,-0.0205612,-0.0485229,0.0677872,-0.00148773,0.109673,0.0094986
25,8,10.0097,0.0012207,0.000305176,-2.42898,0.0532396,-0.0759786,0.0526021,0.0688341,-0.0952827,0.146234,-0.127292,-0.0874532,0.0102997,0.038414,0.0130081,-0.00663757,0.154419,-0.0363159,0.0289154,-0.0481796,-9.97986,0.0133896,-0.00812531,0.0269318,-0.0473022,0.0791168,-0.00312805,0.111313,0.136032
25,9,10.0097,0.000915527,-0.000610352,-2.42928,0.0535448,-0.0765889,0.0526021,0.0688341,-0.0949775,0.146844,-0.126377,-0.0871481,0.0154877,0.0488281,0.0137329,-0.00434875,0.110588,-0.0322723,0.0285339,-0.0392151,-9.97986,0.0123596,-0.0151062,0.0841141,-0.0433731,0.0815201,-0.00160217,0.0942612,0.208435
26,0,10.0097,0.000305176,0.000762939,-2.42837,0.0523241,-0.0756734,0.0532125,0.0679186,-0.0955879,0.144098,-0.127598,-0.0868429,0.0161743,0.0637054,0.0102234,0.000572205,0.0887299,-0.0369263,0.0284576,-0.0237274,-9.97986,0.0115204,-0.011673,0.120888,-0.0410461,0.0745392,-0.000953674,0.0680542,0.188103
26,1,10.0097,0.000915527,0.000762939,-2.42867,0.0544603,-0.0756734,0.0526021,0.0682238,-0.095893,0.142572,-0.126987,-0.0856222,0.0162125,0.0611877,-0.00377655,-0.000495911,0.0852966,-0.0302887,0.0212479,-0.010376,-9.97986,0.0153351,-0.018959,0.123215,-0.0392532,0.0631714,0.00408173,0.0462341,0.148621
26,2,10.0097,-0.00152588,-0.000457764,-2.42806,0.0559862,-0.075063,0.0526021,0.0688341,-0.0946723,0.142572,-0.127598,-0.0847066,0.0131607,0.0117493,-0.0325775,0.000953674,0.0438309,-0.0222778,0.0240326,-0.00324249,-9.97986,0.0190735,-0.033226,0.117836,-0.0393295,0.0458527,0.00598907,0.0358963,0.120316
26,3,10.0097,0.000610352,0.000610352,-2.42592,0.0547655,-0.075063,0.0526021,0.0697496,-0.0934516,0.141961,-0.126072,-0.0840963,0.0166321,-0.0562286,-0.0529099,0.00766754,-0.023613,7.62939e-005,0.0249863,0.00694275,-9.97986,0.0295639,-0.0233841,0.09552,-0.0372314,0.0236511,-0.00263214,0.0334549,0.104485
26,4,10.0097,-0.0012207,-0.000152588,-2.42684,0.0553758,-0.0738423,0.0526021,0.0700548,-0.0919257,0.142877,-0.126072,-0.0831808,0.0124359,-0.0904465,-0.0717163,0.00869751,0.0139236,0.0247955,0.0218964,0.00904083,-9.97986,0.0328445,-0.0310516,0.0426102,-0.0416565,0.0063324,-0.00652313,0.0242996,0.083046
26,5,10.0097,0.00152588,0.000152588,-2.42531,0.0553758,-0.0747579,0.054128,0.0709703,-0.0922309,0.144098,-0.125156,-0.0819601,0.0105667,-0.101891,-0.075264,0.00774384,0.0863647,0.0334167,0.0213242,0.00881195,-9.97986,0.0362015,-0.026474,-0.0105286,-0.0431442,0.00648499,-0.00831604,0.0156021,-0.0195694
26,6,10.0097,-0.000610352,-0.000152588,-2.42379,0.0562914,-0.0738423,0.0538228,0.0712755,-0.0922309,0.144403,-0.124241,-0.0807394,0.00587463,-0.0923538,-0.0679779,0.00862122,0.116577,0.051384,0.0177002,0.00694275,-9.97986,0.0306702,-0.0226212,-0.0431442,-0.0482941,0.00343323,-0.00579834,0.0043869,-0.161324
26,7,10.0097,0.000305176,-0.000610352,-2.42501,0.0562914,-0.0723164,0.0547383,0.0728014,-0.0934516,0.146234,-0.12363,-0.0810445,0.00671387,-0.0652313,-0.0547791,0.0130844,0.179634,0.0665283,0.0118256,0.0102615,-9.97986,0.0314713,-0.0270081,-0.0574875,-0.0518799,-0.00724792,-0.00343323,0.00118256,-0.167427
26,8,10.0097,0.000915527,-0.000305176,-2.42379,0.0572069,-0.073232,0.0538228,0.0718859,-0.0922309,0.147149,-0.123935,-0.0807394,0.00537872,-0.0415421,-0.0440598,0.00926971,0.212784,0.07061,0.0132751,0.0137711,-9.97986,0.0212479,-0.02491,-0.105705,-0.0556564,-0.0175858,0.000343323,-0.00808716,-0.0986481
26,9,10.0097,-0.000305176,-0.000610352,-2.42531,0.0559862,-0.0735371,0.0529073,0.0691393,-0.0910102,0.14898,-0.124241,-0.080129,0.00724792,-0.0231934,-0.0247192,0.0154877,0.179482,0.0847626,0.0115967,0.0130081,-9.97986,0.0174713,-0.022583,-0.171051,-0.055809,-0.0383377,0.000991821,-0.0176239,-0.0287247
27,0,10.0097,0.000610352,-0.00152588,-2.42592,0.0572069,-0.0744527,0.0526021,0.0459459,-0.0943672,0.149286,-0.126377,-0.0825704,0.0102234,-0.0124741,-0.0130844,0.0177002,0.13504,0.0857544,0.0104523,0.0165558,-9.97986,0.0062561,-0.024147,-0.22728,-0.0589371,-0.0385666,-0.00152588,-0.021286,0.0749207
27,1,9.73897,0.000610352,-0.000915527,-2.42592,0.0565965,-0.0735371,0.0538228,0.0523546,-0.0928413,0.145929,-0.125766,-0.0819601,0.0111389,-0.00442505,7.62939e-005,0.0164413,0.0466919,0.0565338,0.0136185,0.0333023,-9.97986,0.00553131,-0.0148392,-0.214882,-0.0583649,-0.0268555,-0.00324249,-0.0135803,0.0753403
27,2,9.31264,-0.000915527,-0.000305176,-2.42623,0.0553758,-0.0756734,0.0556539,0.0627306,-0.0925361,0.146539,-0.126987,-0.0822652,0.00526428,0.00274658,-0.00278473,0.0260925,-0.0870895,0.0323868,0.017128,0.0317383,-9.97986,0.00553131,-0.010376,-0.137596,-0.0606918,0.00911713,-0.00602722,-0.00827789,0.00267029
27,3,9.39626,0.000610352,0.000457764,-2.42653,0.0550706,-0.0738423,0.0565694,0.0697496,-0.0925361,0.146539,-0.126072,-0.0825704,0.0110626,0.00961304,-0.00087738,0.0240326,-0.190048,0.00335693,0.0168228,0.0388718,-9.97986,-0.00190735,-0.00659943,-0.039444,-0.0547409,0.0569534,-0.00610352,0.000534058,0.0025177
27,4,10.0097,0.00366211,0.00152588,-2.42592,0.0559862,-0.0753682,0.0556539,0.0850084,-0.0894843,0.146844,-0.125156,-0.0834859,0.0069809,0.0247192,0.0203323,0.0284195,-0.243721,-0.0179672,0.0205612,0.049057,-9.97986,-0.00480652,-0.0030899,0.0193787,-0.0536346,0.0716782,0.00114441,0.0261688,0.0643158
27,5,10.0097,0.00152588,0.00198364,-2.42745,0.0535448,-0.0765889,0.0526021,0.0901964,-0.0928413,0.144098,-0.125461,-0.0856222,0.00545502,0.0440979,0.0368118,0.0240326,-0.219803,-0.0434875,0.024147,0.0563049,-9.97986,-0.00274658,-0.0121307,0.00732422,-0.051651,0.068512,0.00526428,0.0440216,0.0664139
27,6,10.0097,0,0.000610352,-2.42928,0.0535448,-0.0759786,0.0519917,0.0767687,-0.0943672,0.143487,-0.126377,-0.0865377,0.00473022,0.0419235,0.0495148,0.0227737,-0.149841,-0.032959,0.0190353,0.053215,-9.97986,-0.00400543,-0.0146103,-0.0196075,-0.0444412,0.0508881,0.00621796,0.0542831,0.0331116
27,7,10.0097,0.000305176,0.000305176,-2.42959,0.0541551,-0.0756734,0.050771,0.0724962,-0.0943672,0.144708,-0.127598,-0.0865377,0.00457764,0.0605774,0.0686646,0.0259399,-0.102234,-0.0263596,0.0259018,0.0372314,-9.97986,-0.00873566,-0.0131989,-0.0595474,-0.039444,0.0371552,0.0056076,0.042305,0.0358582
27,8,10.0097,0,0.000152588,-2.42989,0.0529344,-0.0765889,0.0519917,0.0688341,-0.0952827,0.144708,-0.127598,-0.0862325,0.00904083,0.0917816,0.0875092,0.0162506,-0.0661087,-0.0416183,0.0257874,0.0172806,-9.97986,-0.00736237,-0.0121307,-0.0952148,-0.0396729,0.0382233,0.00171661,0.0301743,0.0376892
27,9,10.0097,0.000305176,-0.000610352,-2.42898,0.0541551,-0.0762837,0.0532125,0.0673082,-0.0955879,0.143792,-0.127292,-0.0871481,0.00804901,0.101051,0.103302,0.0123596,-0.0481415,-0.0289917,0.0283432,0.00778198,-9.97986,-0.0075531,-0.00919342,-0.0608063,-0.0372696,0.036087,0.00522614,0.0306702,0.0112915
28,0,10.0097,0.00152588,-0.000915527,-2.42928,0.0535448,-0.0744527,0.0547383,0.0691393,-0.0949775,0.143487,-0.127292,-0.0868429,0.00991821,0.113525,0.114174,-0.00492096,-0.0527191,0.0037384,0.0291824,-0.0156403,-9.97986,-0.00495911,-0.00720978,-0.0157928,-0.0458145,0.0253677,0.00564575,0.0304031,0.00724792
28,1,10.0097,0.000915527,-0.00106812,-2.42714,0.0550706,-0.0756734,0.0550435,0.0694445,-0.0934516,0.146539,-0.126377,-0.0856222,0.0107193,0.125084,0.117035,-0.00843048,-0.0185776,0.0272369,0.0343704,-0.0363159,-9.97986,-0.00343323,-0.00286102,0.0592804,-0.0579071,0.0164795,0.0106812,0.0281525,0.047493
28,2,10.0097,0.000610352,-0.0012207,-2.42714,0.0553758,-0.0753682,0.0550435,0.0706652,-0.094062,0.146234,-0.125766,-0.0850118,0.0104141,0.119896,0.103951,-0.0105667,-0.0496674,0.0310135,0.0279617,-0.0555801,-9.97986,-0.00102997,0.0159454,0.149269,-0.0679398,0.0115585,0.0172806,0.0386047,0.0921631
28,3,10.0097,-0.000915527,-0.00106812,-2.42745,0.0541551,-0.0765889,0.0547383,0.0700548,-0.0937568,0.144403,-0.126072,-0.0844015,0.00919342,0.093689,0.0978851,-0.014534,-0.160561,0.0416183,0.0238419,-0.0617599,-9.97986,-0.00289917,0.0375748,0.201912,-0.0709915,0.0326538,0.0236511,0.0545502,0.129166
28,4,10.0097,0.00183105,-0.000915527,-2.42623,0.0562914,-0.075063,0.0553487,0.0712755,-0.0925361,0.144098,-0.125156,-0.0834859,0.0188446,0.0551605,0.0810623,-0.0188446,-0.272141,0.0500488,0.0225067,-0.0637817,-9.97986,0.000495911,0.0407028,0.272484,-0.0786591,0.0462723,0.0289154,0.0641632,0.128326
28,5,10.0097,0.00152588,0,-2.42592,0.0569017,-0.0729268,0.055959,0.0709703,-0.094062,0.145318,-0.124851,-0.0822652,0.0239944,0.0505829,0.0590897,-0.0133133,-0.364761,0.0565338,0.0297546,-0.0476074,-9.97986,0.00339508,0.0430298,0.302391,-0.0907516,0.0524139,0.0271988,0.058403,0.0682068
28,6,10.0097,-0.00213623,0.000152588,-2.42501,0.055681,-0.0738423,0.0556539,0.072191,-0.0916206,0.143792,-0.124851,-0.0810445,0.023613,0.032692,0.017662,-0.00827789,-0.466576,0.0533676,0.0303268,-0.0277328,-9.97986,0.0146103,0.053215,0.296555,-0.0984573,0.063858,0.0207901,0.057106,-0.0207901
28,7,10.0097,-0.00213623,-0.000610352,-2.42409,0.0553758,-0.0723164,0.0547383,0.0712755,-0.0913154,0.145013,-0.124851,-0.0807394,0.0203323,0.00339508,-0.0309753,-0.00205994,-0.526276,0.052948,0.0311279,-0.0242996,-9.97986,0.0182724,0.0541306,0.256538,-0.100136,0.0669861,0.0118637,0.0645447,-0.0888824
28,8,10.0097,0.000915527,-0.000152588,-2.42501,0.0569017,-0.0744527,0.054128,0.0728014,-0.0903999,0.145013,-0.124241,-0.0807394,0.0176239,-0.0377274,-0.0680542,0.00377655,-0.542068,0.049324,0.0324249,-0.0351715,-9.97986,0.0288391,0.0556946,0.212631,-0.0979996,0.0889587,0.0056076,0.0666046,-0.130043
28,9,10.0097,0.0012207,-0.000762939,-2.42318,0.0569017,-0.0735371,0.054128,0.07036,-0.0897895,0.145013,-0.123325,-0.0813497,0.0125122,-0.104179,-0.0855637,0.00205994,-0.548744,0.057106,0.0329971,-0.0245285,-9.97986,0.0358963,0.0505447,0.169601,-0.106621,0.110588,-0.00160217,0.0644302,-0.167885
29,0,10.0097,-0.00274658,-0.00198364,-2.42592,0.055681,-0.0738423,0.0498555,0.0450304,-0.0946723,0.145013,-0.125461,-0.0822652,0.0152588,-0.116119,-0.0790787,0.0082016,-0.518494,0.0635529,0.0409317,-0.0168991,-9.97986,0.0424194,0.0487518,0.0779724,-0.113525,0.10334,-0.00679016,0.0640488,-0.172806
29,1,9.83571,-0.00213623,-0.00198364,-2.42501,0.0590379,-0.075063,0.0513814,0.0526598,-0.0922309,0.145624,-0.126682,-0.0816549,0.01091,-0.115547,-0.0836563,0.010643,-0.449829,0.077095,0.0395966,-0.0130463,-9.97986,0.0389481,0.0405502,-0.0135803,-0.118561,0.0893784,-0.0056076,0.0785065,-0.191002
29,2,9.34926,0,-0.000457764,-2.42684,0.0562914,-0.0738423,0.0529073,0.0633409,-0.095893,0.145318,-0.125461,-0.0822652,0.0102615,-0.111504,-0.0806046,0.00801086,-0.363197,0.0949097,0.0421524,-0.00919342,-9.97986,0.0457382,0.0213623,-0.0333023,-0.119858,0.115204,-0.00427246,0.103874,-0.218735
29,3,9.46767,0.000610352,0.000152588,-2.42684,0.0547655,-0.0741475,0.0526021,0.0700548,-0.0916206,0.145929,-0.124851,-0.0831808,0.00797272,-0.089798,-0.0777054,0.0100327,-0.268517,0.0993729,0.041008,-0.00301361,-9.97986,0.0403976,0.0178528,-0.0488281,-0.119057,0.14801,0.00164032,0.124435,-0.248947
29,4,10.0097,0.00152588,0.000915527,-2.42653,0.0538499,-0.0744527,0.0538228,0.0834825,-0.090705,0.143182,-0.124241,-0.0834859,0.00831604,-0.0725174,-0.0738907,0.0138092,-0.188828,0.0998688,0.0445175,-0.00183105,-9.97986,0.037117,0.00526428,-0.042038,-0.125542,0.160637,0.00865936,0.149269,-0.290794
29,5,10.0097,0.000915527,0.00183105,-2.42806,0.0535448,-0.0762837,0.0532125,0.0892809,-0.0946723,0.142267,-0.126072,-0.0856222,0.00724792,-0.0645828,-0.0584412,0.00854492,-0.135345,0.0763321,0.0449753,-0.000419617,-9.97986,0.0374222,-0.00556946,0.00492096,-0.122528,0.154762,0.0107574,0.162277,-0.34729
29,6,10.0097,0,0.000305176,-2.42989,0.0538499,-0.0759786,0.0538228,0.0758531,-0.0931465,0.143792,-0.127292,-0.0868429,0.0112534,-0.0514221,-0.0447845,0.00812531,-0.0935745,0.0296402,0.0404358,0.00137329,-9.97986,0.0270462,-0.00694275,0.0544357,-0.119133,0.144386,0.0156784,0.161667,-0.344582
29,7,10.0097,-0.00152588,0.000152588,-2.42867,0.0541551,-0.0759786,0.0522969,0.0706652,-0.0955879,0.145013,-0.126987,-0.0871481,0.00831604,-0.0317383,-0.0262833,0.0133514,-0.0656891,0.00286102,0.0456238,0.00240326,-9.97986,0.0260162,-7.62939e-005,0.0712585,-0.111618,0.145111,0.0112534,0.139465,-0.271568
29,8,10.0097,0.000915527,0.000305176,-2.42776,0.0544603,-0.0762837,0.0526021,0.0679186,-0.0931465,0.145013,-0.126682,-0.0871481,0.0063324,-0.00164032,-0.0120926,0.0119781,-0.0794983,-0.0195694,0.0457001,0.00671387,-9.97986,0.0205612,-0.00675201,0.0820541,-0.0963593,0.125771,0.00183105,0.11158,-0.208626
29,9,10.0097,-0.0012207,-0.000152588,-2.42745,0.0535448,-0.0756734,0.0526021,0.0682238,-0.0961982,0.144403,-0.127598,-0.0862325,-0.000419617,0.00862122,0.00171661,0.00827789,-0.00362396,-0.034256,0.0455856,0.000228882,-9.97986,0.0146866,-0.00530243,0.0919724,-0.0979233,0.101357,-0.0075531,0.0780106,-0.141335
30,0,10.0097,0.000610352,0,-2.42928,0.0526292,-0.0756734,0.0529073,0.0679186,-0.0955879,0.144403,-0.126682,-0.0868429,-0.00457764,0.00831604,0.0146103,0.0100708,0.143166,-0.0373077,0.0389099,-0.00358582,-9.97986,0.00473022,-0.00751495,0.0777435,-0.0945282,0.0740433,-0.00934601,0.0536346,-0.0940704
30,1,10.0097,-0.000305176,-0.000457764,-2.42714,0.0547655,-0.0747579,0.0535176,0.0691393,-0.0983344,0.143792,-0.126072,-0.085317,-0.00442505,0.00770569,0.019722,0.0180054,0.215073,-0.0361252,0.0397873,0.00473022,-9.97986,-0.00118256,-0.0100708,0.0831985,-0.0942612,0.0496292,-0.0169373,0.0387955,-0.0698471
30,2,10.0097,0.00244141,0.000305176,-2.42684,0.055681,-0.0735371,0.0532125,0.0682238,-0.0928413,0.146844,-0.126377,-0.0844015,0.00648499,-0.0038147,0.0287247,0.0203705,0.261116,-0.0449371,0.0416183,0.00793457,-9.97986,0.000991821,-0.00801086,0.0922775,-0.0884247,0.0406647,-0.0111008,0.0235367,0.00450134
30,3,10.0097,0.00396729,0.000457764,-2.42653,0.055681,-0.0744527,0.0538228,0.0694445,-0.094062,0.14776,-0.126072,-0.0840963,0.0133133,0.000305176,0.030632,0.0260162,0.260162,-0.0450134,0.0376892,0.0183868,-9.97986,-0.00385284,-0.0113297,0.0775909,-0.0879669,0.0200272,-0.0143051,-0.00404358,0.13073
30,4,10.0097,0.0012207,0.000915527,-2.42684,0.0553758,-0.0738423,0.0544332,0.0685289,-0.0968086,0.147455,-0.126072,-0.0834859,0.0154114,0.0242996,0.032959,0.032692,0.203056,-0.0436401,0.0310898,0.0382614,-9.97986,-0.00549316,-0.00812531,0.093956,-0.0843048,0.00495911,-0.0218582,-0.0337601,0.203934
30,5,10.0097,0.00335693,-0.000457764,-2.42562,0.0565965,-0.0726216,0.0550435,0.0718859,-0.0931465,0.147455,-0.125156,-0.0813497,0.00774384,0.0381088,0.0515366,0.0350952,0.160789,-0.0544357,0.0286865,0.0567627,-9.97986,-0.00572205,-0.00236511,0.133438,-0.0742722,-0.0108719,-0.0273132,-0.0432968,0.206223
30,6,10.0097,0.000305176,0.000305176,-2.4247,0.0562914,-0.0738423,0.0553487,0.0712755,-0.0922309,0.147455,-0.125156,-0.0804342,0.00480652,0.0456619,0.0740433,0.0424576,0.126839,-0.0614548,0.0144958,0.0653839,-9.97986,-0.0106812,0.00972748,0.148926,-0.072403,-0.0417328,-0.0322723,-0.0531387,0.175858
30,7,10.0097,0.0012207,0.000762939,-2.42531,0.0559862,-0.0729268,0.0547383,0.0700548,-0.0931465,0.144708,-0.124546,-0.0813497,0.00541687,0.0524902,0.0945663,0.0446701,0.119476,-0.0665283,0.0150299,0.0738907,-9.97986,-0.00900269,0.0130844,0.161133,-0.0703049,-0.069809,-0.028801,-0.0617599,0.119324
30,8,10.0097,0.00152588,0.000152588,-2.4247,0.0569017,-0.0747579,0.0532125,0.0712755,-0.0913154,0.146539,-0.12302,-0.0816549,0.00522614,0.0653076,0.106087,0.0514984,0.134277,-0.0401688,0.00679016,0.0935364,-9.97986,-0.0225449,0.0152969,0.0913239,-0.068512,-0.0983047,-0.0291824,-0.0592804,0.0788116
30,9,10.0097,0.0012207,-0.000305176,-2.42409,0.0562914,-0.0747579,0.0504659,0.0706652,-0.0919257,0.14776,-0.125156,-0.0807394,0.00537872,0.101891,0.138741,0.0508499,0.137367,-0.00667572,0.00377655,0.103683,-9.97986,-0.020256,0.0127029,-0.127869,-0.068512,-0.118752,-0.0240326,-0.0567627,0.0697327
31,0,10.0097,0.0012207,-0.000610352,-2.42714,0.0569017,-0.0735371,0.0492452,0.0435045,-0.0974189,0.147149,-0.126072,-0.0822652,0.00740051,0.145493,0.165138,0.0445175,0.191803,-0.00102997,0.0031662,0.105171,-9.97986,-0.0269699,0.0181961,-0.289116,-0.0657272,-0.129204,-0.0191879,-0.0661087,0.0501633
31,1,9.69289,0.00152588,-0.00106812,-2.42531,0.0565965,-0.0741475,0.0522969,0.0535753,-0.0931465,0.148675,-0.125766,-0.0813497,0.00873566,0.186539,0.183334,0.0406265,0.356979,0.0149918,-0.00289917,0.100403,-9.97986,-0.022583,0.0139236,-0.319672,-0.0583649,-0.132561,-0.0188446,-0.0691223,0.128059
31,2,9.22261,0.0012207,0.000305176,-2.42592,0.0559862,-0.0744527,0.054128,0.0618151,-0.0913154,0.14898,-0.124851,-0.0828756,0.00968933,0.196724,0.193367,0.0282288,0.503387,0.00762939,-0.00247955,0.0879288,-9.97986,-0.0172043,0.00984192,-0.332222,-0.0523376,-0.136147,-0.0183105,-0.0704575,0.273666
31,3,9.33309,0.0012207,0.000152588,-2.42623,0.0565965,-0.073232,0.0553487,0.0694445,-0.0922309,0.147455,-0.125766,-0.0828756,0.00926971,0.197411,0.207024,0.0278473,0.602798,0.0159454,-0.00408173,0.0777817,-9.97986,-0.0204086,-0.00572205,-0.295143,-0.046196,-0.144806,-0.010376,-0.0771713,0.385704
31,4,10.0097,0.000915527,0.00152588,-2.42684,0.0559862,-0.0747579,0.0574849,0.0828722,-0.0916206,0.146539,-0.126072,-0.0825704,0.0120926,0.220909,0.206642,0.0222015,0.676765,0.0141525,-0.00114441,0.0675964,-9.97986,-0.0202942,-0.00724792,-0.186577,-0.0390244,-0.145416,-0.0115967,-0.0873184,0.416641
31,5,10.0097,-0.000610352,0.00228882,-2.42806,0.0532396,-0.0765889,0.0565694,0.0905016,-0.0937568,0.140741,-0.125461,-0.0865377,0.0166321,0.238228,0.18528,0.0121307,0.732765,-0.0285721,-0.00659943,0.0481033,-9.97986,-0.034256,-0.00762939,-0.0389481,-0.0301743,-0.158195,-0.00312805,-0.0854492,0.308647
31,6,10.0097,0.00152588,0.000915527,-2.42837,0.0541551,-0.0762837,0.0550435,0.0770738,-0.0943672,0.141961,-0.126377,-0.0862325,0.0157166,0.255737,0.162201,0.0019455,0.741005,-0.0216675,-0.00213623,0.0339508,-9.97986,-0.0299454,-0.0103378,0.0767136,-0.0177383,-0.154419,0.000953674,-0.0709534,0.176888
31,7,10.0097,-0.000915527,0.000915527,-2.42745,0.0529344,-0.0762837,0.0553487,0.0706652,-0.0949775,0.142572,-0.128208,-0.0865377,0.0187302,0.259705,0.143394,-0.00358582,0.625,0.0108337,0.00144958,0.0157928,-9.97986,-0.0259781,-0.00541687,0.15007,-0.0112534,-0.143013,-0.00614166,-0.0632477,0.157547
31,8,10.0097,0.000915527,-0.000305176,-2.42867,0.0535448,-0.0759786,0.0538228,0.07036,-0.0949775,0.142877,-0.126682,-0.0877584,0.00759125,0.241203,0.122299,-0.000228882,0.452538,0.0102997,0.00579834,0.0165176,-9.97986,-0.0237274,-0.00648499,0.187798,-0.00209808,-0.133133,-0.0180435,-0.0624084,0.173683
31,9,10.0097,-0.0012207,0.000152588,-2.42867,0.0538499,-0.0781148,0.0522969,0.0694445,-0.0943672,0.142572,-0.127598,-0.0862325,0.0156784,0.215263,0.0965118,0.000343323,0.222855,-0.00102997,0.0109482,0.0497818,-9.97986,-0.0237274,-0.0121307,0.154648,0.0056839,-0.115128,-0.0273895,-0.0533295,0.154343
32,0,10.0097,-0.000610352,-0.000152588,-2.42898,0.0538499,-0.0756734,0.0519917,0.0682238,-0.0946723,0.141351,-0.126987,-0.0865377,0.0119781,0.14286,0.0663376,-0.00167847,-0.04776,-0.0228882,0.0117111,0.102081,-9.97986,-0.0104523,-0.0117493,0.131683,0.00930786,-0.0935745,-0.0388718,-0.0519562,0.109253
32,1,10.0097,0,0,-2.42837,0.0532396,-0.075063,0.0516866,0.07036,-0.0968086,0.141046,-0.125766,-0.0856222,0.0121689,0.0830841,0.0279617,0.00148773,-0.282631,-0.0358963,0.0168228,0.141106,-9.97986,0.00278473,-0.000686646,0.12001,0.0136185,-0.0772095,-0.0365448,-0.0508881,0.0380325
32,2,10.0097,-0.000610352,0.000610352,-2.42776,0.0550706,-0.0744527,0.0532125,0.0709703,-0.0928413,0.141351,-0.126987,-0.0844015,0.0115967,0.0466919,-0.00488281,0.00694275,-0.43335,-0.0260162,0.0242996,0.122414,-9.97986,0.0201797,0.00606537,0.0662613,0.0243378,-0.0552368,-0.0307083,-0.0450516,-0.0354767
32,3,10.0097,0,0.000762939,-2.42745,0.0547655,-0.0735371,0.0513814,0.0691393,-0.0922309,0.14013,-0.126072,-0.0828756,0.00392914,-0.074234,-0.0507736,0.00797272,-0.540962,-0.000305176,0.0204849,0.0757599,-9.97986,0.0213623,-0.00511169,0.0318146,0.0228119,-0.0405502,-0.0323105,-0.0471115,-0.091629
32,4,10.0097,-0.0012207,0.00137329,-2.42623,0.0569017,-0.0753682,0.0535176,0.0709703,-0.0925361,0.143487,-0.124851,-0.0828756,0.0069046,-0.150185,-0.070076,0.0069809,-0.582047,0.0445938,0.0354767,0.03685,-9.97986,0.0379181,-0.00305176,0.0356674,0.0406647,0.0162888,-0.0157166,-0.0113678,-0.152245
32,5,10.0097,0.00152588,0.00167847,-2.42592,0.0553758,-0.0735371,0.0535176,0.0718859,-0.0897895,0.145929,-0.124241,-0.0810445,-0.000686646,-0.137177,-0.0728989,-0.000534058,-0.587692,0.0677872,0.0410843,-0.0289154,-9.97986,0.0429535,-0.0141144,0.0119019,0.0548172,0.0909042,-0.0183105,0.022049,-0.199699
32,6,10.0097,0.00213623,0.00183105,-2.42531,0.0575121,-0.0738423,0.0535176,0.0715807,-0.090705,0.148065,-0.124851,-0.0804342,-0.00110626,-0.0668335,-0.0483704,-0.0133133,-0.57663,0.0773621,0.0473785,-0.0458527,-9.97986,0.0405884,-0.0105667,0.00495911,0.0728989,0.138474,-0.0116348,0.0534058,-0.215683
32,7,10.0097,0.00183105,0.00259399,-2.42501,0.0575121,-0.073232,0.0547383,0.0709703,-0.090705,0.148675,-0.123935,-0.0813497,0.00411987,0.0164032,-0.0104904,-0.0312042,-0.504189,0.0944519,0.0484848,-0.0311661,-9.97986,0.0331879,-0.00221252,-0.0388718,0.097084,0.150299,-0.0129318,0.0684357,-0.253563
32,8,10.0097,-0.000915527,0.00213623,-2.4244,0.0575121,-0.073232,0.0535176,0.0734117,-0.0913154,0.14898,-0.124241,-0.0798238,0.00614166,0.0920486,0.0136185,-0.0400543,-0.449524,0.1017,0.0535965,-0.0237656,-9.97986,0.0231934,-0.00179291,-0.0882339,0.118256,0.139542,-0.000228882,0.0857925,-0.260696
32,9,10.0097,-0.00183105,0.00213623,-2.42623,0.0569017,-0.073232,0.0553487,0.0715807,-0.0922309,0.149591,-0.123935,-0.0792135,0.0222778,0.179138,0.0260925,-0.033989,-0.384254,0.10067,0.0626373,-0.069809,-9.97986,0.0154877,-0.00141144,-0.0769424,0.145683,0.135803,-0.00152588,0.0983429,-0.245972
33,0,10.0097,-0.000610352,0.000152588,-2.42684,0.0572069,-0.0744527,0.0538228,0.0456407,-0.0946723,0.145929,-0.125461,-0.0816549,0.0327682,0.167961,0.0294876,-0.0268555,-0.28244,0.0839996,0.0710678,-0.13134,-9.97986,0.0157166,-0.00556946,-0.0534821,0.156136,0.155907,0.00110626,0.0920486,-0.261765
33,1,9.93825,-0.00152588,0.000152588,-2.4247,0.0550706,-0.0747579,0.0553487,0.052965,-0.0934516,0.145013,-0.125766,-0.0819601,0.0367355,0.0884247,-0.0069046,-0.0262451,-0.225525,0.052681,0.0725555,-0.131912,-9.97986,0.0185013,-0.0209808,-0.0541687,0.167046,0.1688,0.000343323,0.0901413,-0.26783
33,2,9.52352,-0.000610352,0.000762939,-2.42684,0.0562914,-0.0756734,0.0556539,0.0639513,-0.0919257,0.144403,-0.125461,-0.0816549,0.034256,0.0614166,-0.0861359,-0.0307465,-0.143623,0.0204086,0.0760651,-0.108986,-9.97986,0.0382614,-0.0037384,-0.0362778,0.181122,0.177879,-0.00629425,0.086441,-0.23983
33,3,9.65535,-0.00274658,0.0012207,-2.42714,0.0559862,-0.0738423,0.0550435,0.0697496,-0.0931465,0.143792,-0.125766,-0.0822652,0.0304794,0.00125885,-0.174332,-0.017128,0.0168228,-0.0178909,0.0756073,-0.111771,-9.97986,0.0600052,0.0416946,0.00858307,0.202141,0.183792,-0.0038147,0.0823212,-0.213852
33,4,10.0097,0.000305176,0.00274658,-2.42592,0.0550706,-0.0753682,0.0550435,0.0837877,-0.0910102,0.142267,-0.124851,-0.0825704,0.0269318,-0.142212,-0.220261,-0.013504,0.185318,-0.0338364,0.0774002,-0.0995255,-9.97986,0.0956726,0.0318146,0.0309753,0.214462,0.167198,-0.00587463,0.0703812,-0.178337
33,5,10.0097,0.00183105,0.0038147,-2.42867,0.0532396,-0.0756734,0.0522969,0.0865343,-0.094062,0.141656,-0.125766,-0.085317,0.0263596,-0.263672,-0.227776,-0.0148773,0.331917,-0.00202179,0.0696945,-0.0925827,-9.97986,0.102692,-0.000534058,0.0120163,0.224991,0.133286,-0.0119781,0.0545883,-0.105858
33,6,10.0097,-0.000915527,0.00152588,-2.42837,0.0535448,-0.0729268,0.0516866,0.0758531,-0.095893,0.144098,-0.126987,-0.0850118,0.0263977,-0.302582,-0.210381,-0.00553131,0.50827,0.0185394,0.0667191,-0.091362,-9.97986,0.102844,0.00816345,-0.00766754,0.242119,0.0914001,-0.00957489,0.0465393,-0.000419617
33,7,10.0097,0.00152588,0.000610352,-2.42898,0.0541551,-0.0762837,0.0522969,0.0700548,-0.0952827,0.145318,-0.126987,-0.0868429,0.0222778,-0.25135,-0.198669,0.00228882,0.781975,0.0062561,0.0553894,-0.0793839,-9.97986,0.0964737,-0.000228882,-0.0179672,0.241661,0.0489044,-0.0139999,0.0286102,0.0682449
33,8,10.0097,0.00152588,-0.00259399,-2.42928,0.0526292,-0.0756734,0.0522969,0.0688341,-0.0961982,0.140741,-0.126987,-0.0883688,0.0241852,-0.253105,-0.1791,0.00968933,0.906334,-0.0102997,0.0492096,-0.0577545,-9.97986,0.098877,-0.0141144,-0.000305176,0.222435,0.00774384,-0.0123215,0.00415802,0.0536728
33,9,10.0097,0.000610352,-0.00228882,-2.42928,0.0532396,-0.075063,0.0532125,0.07036,-0.0971137,0.141351,-0.127598,-0.0874532,0.0242615,-0.311203,-0.180092,0.00728607,0.789833,-0.0419617,0.0466537,-0.029335,-9.97986,0.0917435,-0.0262833,0.0222015,0.196419,-0.0187683,-0.0136185,-0.0214386,0.0302505
34,0,10.0097,-0.000305176,-0.00213623,-2.42837,0.0541551,-0.0753682,0.0532125,0.067003,-0.0952827,0.145318,-0.127292,-0.0877584,0.0260925,-0.292282,-0.161095,0.0129318,0.56694,-0.0647736,0.0423813,0.00530243,-9.97986,0.0907898,-0.0349045,0.063858,0.181885,-0.0387573,-0.0133514,-0.0346375,0.0866699
34,1,10.0097,-0.000915527,-0.00213623,-2.42714,0.0553758,-0.075063,0.0529073,0.0700548,-0.0946723,0.147149,-0.126682,-0.0862325,0.0174713,-0.258865,-0.148277,0.0180817,0.289688,-0.0753784,0.03582,0.0215912,-9.97986,0.0891113,-0.0440979,0.05867,0.156136,-0.0526047,-0.0109482,-0.038414,0.234032
34,2,10.0097,-0.000305176,-0.00213623,-2.42745,0.0544603,-0.0723164,0.0526021,0.0682238,-0.0931465,0.148675,-0.126377,-0.085317,0.00835419,-0.235062,-0.133247,0.0172043,0.043335,-0.0914764,0.03479,0.036087,-9.97986,0.0889587,-0.0371933,0.0214005,0.145912,-0.0628281,-0.0115967,-0.0469589,0.340843
34,3,10.0097,0.00274658,-0.00137329,-2.42684,0.0544603,-0.0765889,0.0529073,0.0688341,-0.0925361,0.145624,-0.125461,-0.0850118,0.00869751,-0.193291,-0.117226,0.0192261,-0.130653,-0.0922775,0.0309372,0.043869,-9.97986,0.0761414,-0.0123978,0.0199127,0.126457,-0.060997,-0.0188446,-0.0513077,0.35614
34,4,10.0097,0.00213623,-0.00137329,-2.42623,0.0559862,-0.0753682,0.054128,0.07036,-0.0934516,0.146844,-0.125766,-0.0844015,0.00888824,-0.136147,-0.085144,0.0103378,-0.253639,-0.0618744,0.0318527,0.0489807,-9.97986,0.0722885,0.0239182,0.0149918,0.112114,-0.0654984,-0.0183105,-0.0447464,0.304108
34,5,10.0097,0,-0.000762939,-2.42501,0.0572069,-0.0714009,0.0553487,0.0715807,-0.0919257,0.146539,-0.124241,-0.0816549,0.0210571,-0.0693893,-0.0426483,0.0148773,-0.262451,-0.0266266,0.030365,0.0559616,-9.97986,0.0601196,0.0746536,-0.00450134,0.106506,-0.0662231,-0.0114441,-0.0418854,0.205536
34,6,10.0097,0.00213623,-0.00152588,-2.4244,0.0553758,-0.073232,0.0544332,0.0718859,-0.0910102,0.143182,-0.123935,-0.0810445,0.0229645,-0.0328827,-0.00522614,0.0193405,-0.233345,0.0183487,0.0318527,0.0630951,-9.97986,0.0533676,0.108223,0.0122452,0.095787,-0.0725555,-0.00896454,-0.0314713,0.0709534
34,7,10.0097,0.0012207,-0.000915527,-2.4247,0.0565965,-0.0756734,0.0553487,0.0700548,-0.0913154,0.145929,-0.124546,-0.0816549,0.0176239,-0.0157928,0.0136185,0.0233078,-0.203476,0.0505066,0.0265121,0.0712967,-9.97986,0.0519943,0.098114,0.0254059,0.0878906,-0.0794601,-0.00579834,-0.0378036,-0.0295639
34,8,10.0097,0.00152588,0.000762939,-2.42531,0.0569017,-0.0747579,0.055959,0.0709703,-0.0919257,0.145929,-0.12302,-0.080129,0.0209808,0.000457764,0.0247574,0.0246811,-0.154152,0.0531769,0.0228119,0.0743484,-9.97986,0.0481796,0.053215,0.0437927,0.0881577,-0.0746155,-0.00366211,-0.0432587,-0.0611496
34,9,10.0097,-0.000610352,-0.0012207,-2.42379,0.0569017,-0.073232,0.0547383,0.0715807,-0.0919257,0.145318,-0.125156,-0.0804342,0.0113297,0.014534,0.0282288,0.0226593,-0.120888,0.0622177,0.0276947,0.0713348,-9.97986,0.0440979,-0.0216675,0.0497055,0.080986,-0.0651169,-0.00217438,-0.0482559,-0.0330353
35,0,10.0097,0.000610352,-0.00167847,-2.42684,0.0572069,-0.0744527,0.0529073,0.0465563,-0.0946723,0.147455,-0.126377,-0.0813497,0.0149918,0.0162125,0.0254822,0.0214386,-0.138702,0.0548935,0.0282669,0.0668335,-9.97986,0.0335693,-0.0693893,0.0419235,0.0867081,-0.0342941,-0.00907898,-0.0651932,-0.00827789
35,1,9.86379,0.000915527,-0.000152588,-2.42623,0.0562914,-0.0695699,0.0538228,0.0541857,-0.0925361,0.146234,-0.125766,-0.0819601,0.0154877,0.00434875,0.0260162,0.0214386,-0.174103,0.0523376,0.0268936,0.056076,-9.97986,0.0265503,-0.0730133,0.019722,0.100822,0.0159073,-0.00629425,-0.0713348,-0.0267792
35,2,9.44051,0.000610352,0.00106812,-2.42592,0.0559862,-0.075063,0.0532125,0.0627306,-0.0910102,0.149286,-0.126072,-0.0825704,0.016098,0.0175095,0.0315475,0.0190735,-0.198097,0.0575638,0.0283432,0.0419235,-9.97986,0.0255966,-0.0666046,-0.0050354,0.119743,0.0577927,-0.00904083,-0.0526047,-0.0417328
35,3,9.5931,-0.000610352,0.00305176,-2.42806,0.0553758,-0.0756734,0.0535176,0.0694445,-0.0919257,0.147149,-0.124241,-0.0819601,0.0167465,0.0507736,0.0476456,0.0214386,-0.197067,0.0591278,0.0238037,0.0314713,-9.97986,0.0233078,-0.0538254,-0.0139618,0.153465,0.102806,-0.0114441,-0.0300217,-0.0527573
35,4,10.0097,0.000610352,0.00305176,-2.42623,0.0550706,-0.0729268,0.054128,0.0837877,-0.0894843,0.147149,-0.125156,-0.0825704,0.0123978,0.0856018,0.0634384,0.0142288,-0.178986,0.0448227,0.0222778,0.0411606,-9.97986,0.0164032,-0.0370789,-0.0133896,0.179214,0.153313,-0.0189209,-0.0122833,-0.063324
35,5,10.0097,0,0.00350952,-2.42928,0.0550706,-0.0771993,0.0532125,0.0880602,-0.0922309,0.14776,-0.126987,-0.0847066,0.0165939,0.151291,0.0751877,0.0148773,-0.1511,0.023613,0.0203705,0.0324631,-9.97986,0.0114441,-0.0407028,-0.0163651,0.198402,0.167847,-0.0244141,-0.00579834,-0.062294
35,6,10.0097,-0.000915527,0.0012207,-2.42837,0.0547655,-0.0759786,0.0526021,0.0752428,-0.0949775,0.144708,-0.126682,-0.0859274,0.0172806,0.189934,0.0759125,0.0101471,-0.105705,0.0102234,0.0196457,0.0246429,-9.97986,0.00659943,-0.0564194,-0.00652313,0.210876,0.153122,-0.0245667,-0.00991821,-0.0216675
35,7,10.0097,-0.000610352,0.000610352,-2.42989,0.0541551,-0.0808614,0.0501607,0.072191,-0.094062,0.144403,-0.127598,-0.0859274,0.0143814,0.16346,0.0571442,0.0109863,-0.0534821,-0.00198364,0.0150299,0.0174713,-9.97986,0.00904083,-0.066185,-0.0164032,0.215683,0.12886,-0.021019,-0.0139618,0.0610352
35,8,10.0097,0,0.000305176,-2.42806,0.0535448,-0.0765889,0.0498555,0.0700548,-0.094062,0.145318,-0.128513,-0.0868429,0.015564,0.0793076,0.0385666,0.0111771,0.000305176,-0.0175476,0.0154114,0.0264359,-9.97986,0.00499725,-0.0727844,-0.124702,0.217018,0.0981522,-0.0143051,-0.0197983,0.142059
35,9,10.0097,0.000305176,0.000610352,-2.42898,0.0541551,-0.0768941,0.0501607,0.0676134,-0.0955879,0.143182,-0.127598,-0.0874532,0.0134659,0.0281143,0.0317383,0.014534,0.0760651,-0.0317001,0.0133133,0.0466919,-9.97986,0.0121689,-0.0704956,-0.205688,0.218544,0.0778198,-0.00267029,-0.0298309,0.180969
36,0,10.0097,-0.0012207,-0.000457764,-2.42989,0.0535448,-0.0857442,0.0526021,0.0688341,-0.0952827,0.142877,-0.127292,-0.0865377,0.0130081,0.056839,0.0315857,0.0113678,0.186119,-0.049057,0.00831604,0.0540161,-9.97986,0.0116348,-0.067749,-0.182419,0.209122,0.0631332,0.00255585,-0.0402069,0.127335
36,1,10.0097,-0.000610352,-0.00152588,-2.42776,0.0541551,-0.075063,0.0532125,0.0694445,-0.0943672,0.141961,-0.126682,-0.0850118,0.0109863,0.050621,0.0131607,0.0197983,0.316238,-0.0640106,0.000495911,0.0605392,-9.97986,0.0175476,-0.0625992,-0.162125,0.191078,0.0440598,0.0062561,-0.0602722,0.000953674
36,2,10.0097,-0.0012207,-0.00106812,-2.42684,0.0544603,-0.0747579,0.0544332,0.0697496,-0.0934516,0.142572,-0.126682,-0.0847066,0.00984192,0.00389099,0.00637054,0.0232315,0.372391,-0.0637817,-0.00595093,0.0642776,-9.97986,0.0187302,-0.0490952,-0.113029,0.178757,0.0354385,-0.000190735,-0.0747299,-0.0600433
36,3,10.0097,0.00152588,-0.000762939,-2.42684,0.0553758,-0.0686543,0.0553487,0.0694445,-0.0937568,0.145013,-0.125156,-0.0847066,0.0088501,-0.0376129,-0.00282288,0.0214767,0.432129,-0.0740814,-0.0151443,0.0691605,-9.97986,0.0187302,-0.0531006,-0.0764084,0.158806,0.0349426,-0.00469208,-0.0886536,-0.04673
36,4,10.0097,-0.000915527,-0.0012207,-2.42531,0.0553758,-0.0747579,0.054128,0.0694445,-0.0925361,0.141351,-0.124851,-0.0834859,0.00934601,-0.0625229,-0.00419617,0.0277328,0.507813,-0.0653839,-0.0180054,0.0685883,-9.97986,0.0154495,-0.0548172,-0.0442123,0.148087,0.0307465,-0.00991821,-0.0950623,-0.121346
36,5,10.0097,0.00183105,-0.00152588,-2.42531,0.0559862,-0.0729268,0.0553487,0.0709703,-0.0919257,0.145013,-0.123935,-0.0810445,0.00831604,-0.0611877,-0.00667572,0.0264359,0.505219,-0.0588989,-0.021553,0.0720215,-9.97986,0.0219727,-0.0434875,0.0246811,0.13504,0.014534,-0.0169754,-0.092926,-0.215111
36,6,10.0097,0.00183105,-0.00106812,-2.42379,0.0572069,-0.0674336,0.0556539,0.0697496,-0.0910102,0.148065,-0.123935,-0.0813497,0.00740051,-0.0297546,0.00751495,0.0291061,0.514488,-0.055275,-0.0276184,0.0751495,-9.97986,0.0158691,-0.0397491,0.067215,0.123558,-0.00221252,-0.0201416,-0.092926,-0.159683
36,7,10.0097,0.00183105,-0.0012207,-2.4247,0.0559862,-0.0741475,0.0550435,0.0709703,-0.0913154,0.14776,-0.124546,-0.0822652,0.00774384,0.000991821,0.0298691,0.0260925,0.533981,-0.0309372,-0.033493,0.0723648,-9.97986,0.00770569,-0.0342941,0.0647354,0.11055,-0.016861,-0.0265121,-0.0762558,0.00682831
36,8,10.0097,0.00183105,-0.0012207,-2.42531,0.0562914,-0.0744527,0.0553487,0.0709703,-0.0903999,0.151117,-0.124546,-0.0804342,0.00686646,0.0165176,0.044136,0.026474,0.448837,-0.00450134,-0.0311279,0.0754929,-9.97986,0.00507355,-0.0284576,0.0729752,0.0934982,-0.0350571,-0.0280762,-0.063858,0.167236
36,9,10.0097,0.00183105,-0.00137329,-2.42348,0.0578172,-0.0759786,0.0562642,0.0709703,-0.0934516,0.14837,-0.124851,-0.0813497,0.00682831,0.0399399,0.0590515,0.0307465,0.341263,0.0273895,-0.0342941,0.086937,-9.97986,0.00259399,-0.0209045,0.0954819,0.0775909,-0.0554276,-0.0246811,-0.0593948,0.234451
37,0,10.0097,0.000915527,-0.00228882,-2.42684,0.0553758,-0.0747579,0.054128,0.0459459,-0.0952827,0.145624,-0.126072,-0.0825704,0.00770569,0.0550079,0.0700378,0.0318146,0.233002,0.042305,-0.0330734,0.110054,-9.97986,-0.00427246,-0.0252914,0.109138,0.0597,-0.0652313,-0.0169754,-0.0554657,0.181465
37,1,9.86806,0.000305176,-0.00183105,-2.42653,0.0553758,-0.0738423,0.0553487,0.0517443,-0.0919257,0.144403,-0.126682,-0.0822652,-0.00087738,0.0696945,0.0699997,0.0336456,0.101509,0.0574493,-0.0350952,0.119972,-9.97986,-0.00297546,-0.0198364,0.098877,0.0491333,-0.0619507,-0.00320435,-0.0521469,0.0742722
37,2,9.45088,-0.000610352,-0.00198364,-2.42592,0.0565965,-0.0735371,0.0538228,0.0630358,-0.0925361,0.145929,-0.125461,-0.0831808,-0.000267029,0.0688171,0.079422,0.0283432,-0.0330734,0.0667953,-0.0292587,0.106468,-9.97986,-0.00995636,-0.0154877,0.0849152,0.0362778,-0.0469208,0.0162506,-0.0395584,0.0247955
37,3,9.55403,-0.000915527,-0.0012207,-2.42623,0.0559862,-0.0744527,0.0547383,0.0694445,-0.090705,0.141961,-0.125766,-0.0828756,-0.00724792,0.0808716,0.0865555,0.0289536,-0.153389,0.0771332,-0.0243759,0.0820923,-9.97986,-0.0177383,-0.00400543,0.0937653,0.038414,-0.0398254,0.0273895,-0.0272751,0.0156403
37,4,10.0097,0.000610352,-0.000152588,-2.42562,0.0547655,-0.0744527,0.0547383,0.0828722,-0.0894843,0.144403,-0.124851,-0.0834859,-0.00591278,0.0955582,0.0925827,0.0323105,-0.253181,0.0839615,-0.0204849,0.0582504,-9.97986,-0.0287628,-0.00595093,0.0935745,0.0285339,-0.0198746,0.0349808,-0.016098,-0.0122833
37,5,10.0097,0.000305176,0.000762939,-2.42959,0.0541551,-0.0787251,0.0519917,0.0874498,-0.0934516,0.145929,-0.126072,-0.0859274,-0.00614166,0.102463,0.0992584,0.0323105,-0.333176,0.086441,-0.0130844,0.0403595,-9.97986,-0.041008,-0.0088501,0.0989914,0.0259399,0.0225449,0.0341415,0.0123978,-0.0231552
37,6,10.0097,0,-0.000457764,-2.42898,0.0547655,-0.0762837,0.0522969,0.0758531,-0.0937568,0.14776,-0.126072,-0.0874532,-0.00453949,0.110741,0.105362,0.0315475,-0.374641,0.0791168,-0.00114441,0.0320053,-9.97986,-0.0444794,-0.00160217,0.0918961,0.0167465,0.0640106,0.0278091,0.042572,-0.0180817
37,7,10.0097,-0.000610352,-0.000762939,-2.42928,0.0526292,-0.0765889,0.0516866,0.0715807,-0.0931465,0.144403,-0.127903,-0.0871481,-0.0043869,0.11982,0.113106,0.0265884,-0.385361,0.0761032,-0.000724792,0.0328064,-9.97986,-0.0440598,0.00190735,0.0807953,0.0163651,0.0852585,0.0249863,0.0788498,-0.0250626
37,8,10.0097,0.000610352,-0.00106812,-2.42898,0.0547655,-0.0723164,0.0519917,0.0700548,-0.0946723,0.144403,-0.127598,-0.0880636,-0.00473022,0.12516,0.109901,0.0167084,-0.385323,0.0720978,-0.0012207,0.0230789,-9.97986,-0.044632,-0.00408173,0.0596619,0.0094223,0.0706863,0.0151825,0.101967,-0.0405121
37,9,10.0097,0.000305176,-0.000915527,-2.42898,0.0532396,-0.0759786,0.0516866,0.0691393,-0.0946723,0.142877,-0.127292,-0.0874532,0.00358582,0.130501,0.119247,0.0170517,-0.364494,0.0617981,-0.00240326,0.0161362,-9.97986,-0.0444794,0.00389099,0.0444412,0.00343323,0.0447083,0.018692,0.124664,-0.0406265
38,0,10.0097,0.000915527,-0.00167847,-2.4302,0.0532396,-0.0756734,0.0522969,0.0691393,-0.0943672,0.144098,-0.126377,-0.0871481,0.0121689,0.127525,0.134201,0.0189972,-0.313797,0.0466156,0.00396729,0.0253296,-9.97986,-0.0426865,0.00984192,0.0283813,-0.00102997,0.0387192,0.0140762,0.148964,-0.033493
38,1,10.0097,0.000915527,-0.00152588,-2.42776,0.0550706,-0.0768941,0.0526021,0.0700548,-0.0934516,0.145624,-0.126987,-0.0856222,0.0209808,0.1511,0.154991,0.0187683,-0.244751,0.0453568,0.00637054,0.0301361,-9.97986,-0.0384521,0.00507355,0.0148392,-0.0105667,0.0553894,0.0135422,0.165138,-0.0421524
38,2,10.0097,0.000305176,-0.00152588,-2.42714,0.0544603,-0.0753682,0.0532125,0.0712755,-0.0931465,0.146234,-0.126377,-0.0850118,0.0265121,0.174522,0.17025,0.0175858,-0.194626,0.0382233,0.00507355,0.0271225,-9.97986,-0.0270844,-0.00549316,0.00274658,-0.0218964,0.0866318,0.00682831,0.166473,-0.0766373
38,3,10.0097,-0.0012207,-0.00137329,-2.42714,0.0547655,-0.0744527,0.0532125,0.0694445,-0.094062,0.145318,-0.125156,-0.0847066,0.0311661,0.184479,0.171013,0.0159454,-0.140533,0.0352859,0.00629425,0.0189209,-9.97986,-0.0255203,-0.0018692,-0.0138092,-0.0338364,0.112,0.00587463,0.148163,-0.0915909
38,4,10.0097,0.000610352,-0.000915527,-2.42592,0.0553758,-0.0771993,0.054128,0.0718859,-0.0922309,0.145929,-0.125156,-0.0837911,0.030098,0.203857,0.159798,0.0209808,-0.0902176,0.0160217,0.00934601,0.0226974,-9.97986,-0.0170898,0.018959,-0.0123215,-0.0449753,0.0999451,0.00385284,0.145493,-0.0795364
38,5,10.0097,0.000610352,-0.000457764,-2.4244,0.0569017,-0.0738423,0.0547383,0.0709703,-0.0913154,0.147149,-0.124546,-0.0819601,0.0268173,0.194244,0.144272,0.0250626,-0.0616074,-0.0018692,0.0275421,0.0428772,-9.97986,-0.00797272,0.0214386,-0.00465393,-0.0464249,0.0805664,0.00816345,0.146294,-0.0592422
38,6,10.0097,0.000305176,-0.000305176,-2.4244,0.055681,-0.0735371,0.0547383,0.0712755,-0.0922309,0.145929,-0.124241,-0.0807394,0.027771,0.164642,0.130501,0.0205231,-0.0220871,-0.0114822,0.0479507,0.0567627,-9.97986,0.0012207,0.0205612,0.00137329,-0.0409698,0.0628662,0.0153351,0.144196,-0.0245667
38,7,10.0097,-0.000915527,-0.000305176,-2.4247,0.0565965,-0.0692647,0.0547383,0.0715807,-0.0913154,0.146844,-0.123935,-0.0810445,0.0208664,0.139351,0.0947952,0.0101089,0.0193405,-0.0127411,0.0380325,0.0521088,-9.97986,0.00816345,0.0144577,0.0141144,-0.0378036,0.0491714,0.0242996,0.137711,-0.000305176
38,8,10.0097,0.00152588,0.000152588,-2.4247,0.0572069,-0.0729268,0.0547383,0.07036,-0.090705,0.143792,-0.12363,-0.0804342,0.0100708,0.0946808,0.0548553,0.00461578,0.0550079,-0.0169373,0.0241089,0.0444031,-9.97986,0.00999451,0.00770569,0.00873566,-0.0401688,0.0401688,0.0266647,0.119057,0.0170898
38,9,10.0097,-0.0012207,-0.000305176,-2.42287,0.0572069,-0.0735371,0.0553487,0.0694445,-0.0925361,0.146234,-0.124546,-0.0795187,0.0160217,0.0623322,0.0585175,0.0110245,0.0819778,-0.0116348,0.0362778,0.0362396,-9.97986,0.0150681,0.00888824,0.0111771,-0.0310898,0.0405884,0.0305176,0.0928497,0.0398254
39,0,10.0097,-0.000610352,-0.00106812,-2.42653,0.055681,-0.0729268,0.054128,0.04442,-0.0946723,0.147455,-0.126987,-0.0828756,0.00991821,0.0753403,0.0400925,0.0107956,0.0948715,-0.0178146,0.0388336,0.0185013,-9.97986,0.0123596,0.0088501,0.00724792,-0.0333786,0.0257492,0.0270844,0.0706863,0.0441742
39,1,9.74843,0,-0.00198364,-2.42592,0.0559862,-0.0747579,0.0547383,0.052965,-0.0937568,0.150201,-0.125156,-0.0822652,0.0168991,0.105057,0.00400543,0.0142288,0.114822,-0.0101089,0.0415039,0.00492096,-9.97986,0.0210953,0.00591278,0.00881195,-0.0424194,0.0206375,0.0258636,0.057106,0.0627518
39,2,9.27602,-0.000915527,-0.000915527,-2.42592,0.0550706,-0.0744527,0.0538228,0.0618151,-0.0925361,0.143182,-0.124546,-0.0828756,0.0147629,0.0556564,-0.0318146,0.0146484,0.150528,-0.0139999,0.051651,0.0012207,-9.97986,0.0262833,0.0141144,0.00408173,-0.0497055,0.00762939,0.0291443,0.044632,0.0608063
39,3,9.36971,0.000610352,-0.000457764,-2.42531,0.0547655,-0.0747579,0.0544332,0.0688341,-0.0931465,0.145318,-0.125766,-0.0828756,0.00801086,-0.00789642,-0.0615692,0.0149918,0.187721,-0.0124359,0.0432587,-0.00259399,-9.97986,0.0348663,0.0189972,-0.0159073,-0.0596237,-0.00862122,0.0219345,0.0405502,0.0517654
39,4,10.0097,0.000305176,0.000457764,-2.42623,0.0547655,-0.0747579,0.0556539,0.0831774,-0.0922309,0.145318,-0.125156,-0.0844015,0.00965118,-0.0467682,-0.0826263,0.0218582,0.204201,-0.00770569,0.0326157,0.000953674,-9.97986,0.0452423,0.0150299,-0.0300217,-0.0606155,-0.0107956,0.0202179,0.0293732,0.065155
39,5,10.0097,-0.000610352,0.00198364,-2.42928,0.0550706,-0.0756734,0.0516866,0.0892809,-0.0946723,0.143487,-0.126377,-0.0859274,0.0056839,-0.0870132,-0.084877,0.018158,0.204391,-0.00858307,0.0251007,-0.00236511,-9.97986,0.0392914,0.00801086,-0.0312042,-0.0554276,-0.0193787,0.0265503,0.0230789,0.0886536
39,6,10.0097,0,0.000610352,-2.42837,0.0535448,-0.0735371,0.0538228,0.0758531,-0.0949775,0.145624,-0.127598,-0.0859274,0.00946045,-0.088501,-0.0740814,0.0209808,0.2351,-0.0043869,0.00995636,0.00289917,-9.97986,0.0401688,0.0178528,-0.0219727,-0.042572,-0.0228119,0.0302124,0.0133896,0.0970459
39,7,10.0097,0.000915527,0.000762939,-2.42837,0.0544603,-0.0756734,0.0522969,0.0715807,-0.0952827,0.141046,-0.127292,-0.0859274,0.0113678,-0.0639725,-0.0529861,0.02285,0.28141,-0.0115204,0.00247955,0.0136185,-9.97986,0.0315857,0.0192642,-0.00549316,-0.0382996,-0.032196,0.0363159,0.00881195,0.0627518
39,8,10.0097,0.000610352,0.000152588,-2.4302,0.0535448,-0.0765889,0.0519917,0.0691393,-0.0946723,0.143487,-0.127598,-0.0874532,0.0119781,-0.0566483,-0.0251389,0.0247574,0.288963,-0.0100708,0.00591278,0.0201035,-9.97986,0.0273895,0.0265884,0.00522614,-0.0345612,-0.0323486,0.0341797,-0.00278473,0.0632477
39,9,10.0097,0.00274658,-0.000610352,-2.42898,0.0538499,-0.0747579,0.0526021,0.0694445,-0.0943672,0.142572,-0.127598,-0.0868429,0.0141525,-0.0456619,-0.000762939,0.0251007,0.277061,-0.00896454,0.0100327,0.0596237,-9.97986,0.022583,0.0348282,0.0136948,-0.0276947,-0.033989,0.0325394,-0.0101471,0.0359726
40,0,10.0097,0.00335693,0,-2.42867,0.0529344,-0.0759786,0.0519917,0.0694445,-0.0946723,0.145013,-0.126987,-0.0871481,0.0149536,-0.0178528,0.0221252,0.0217819,0.277367,-0.00396729,0.0177002,0.102425,-9.97986,0.0200653,0.0422668,0.0328445,-0.0270462,-0.0383377,0.0309372,-0.0110626,-0.00286102
40,1,10.0097,0.000610352,-0.000457764,-2.42745,0.0544603,-0.0753682,0.0538228,0.0700548,-0.0928413,0.146844,-0.126987,-0.0859274,0.00659943,0.00270844,0.0385666,0.0317383,0.272255,-0.00102997,0.0181198,0.127449,-9.97986,0.00679016,0.031395,0.0379181,-0.0263596,-0.0430298,0.0284576,-0.0151062,0.0442886
40,2,10.0097,0.00152588,0.000152588,-2.42776,0.0559862,-0.0759786,0.0532125,0.0694445,-0.0949775,0.145013,-0.126682,-0.0847066,0.00534058,0.0201416,0.0554276,0.0396729,0.237656,-0.00415802,0.0228882,0.134659,-9.97986,0.00171661,0.0150681,0.0256348,-0.0289917,-0.0468063,0.0258636,-0.0159836,0.0911331
40,3,10.0097,0.000915527,0,-2.42745,0.0547655,-0.0747579,0.0538228,0.0694445,-0.0934516,0.146844,-0.125766,-0.0844015,0.00144958,0.0341415,0.0734329,0.04879,0.222549,-0.000114441,0.0202942,0.133324,-9.97986,-0.00473022,0.0155258,0.0152206,-0.0386047,-0.0601959,0.0182724,-0.0174713,0.150261
