
Devices
1200
,,BP Load cell - Voltage,String Length - Voltage,Clutch Active - Voltage,#7 iPecs - Voltage,,,,,,,,,EMG 1-8 Left - Voltage,,,,,,,,Pylon Force - Voltage,EMG 9-16 Right - Voltage,,,,,,,,
Frame,Sub Frame,BP Load Cell,String Length,From Arduino Logic,A45,A135,A225,A315,S0,S90,S180,S270,ZSum,EMG 1 Glut Max,EMG 2 Glut Med,EMG 3 Biceps Femoris Long,EMG 4 Rectus Femoris,EMG 5 Vastus Medialis,EMG 6 Tib Ant,EMG 7 Med Gas,EMG 8 Soleus,Pylon volts,EMG 9 Glut Max,EMG 10 Glut Med,EMG 11 Biceps Femoris Long,EMG 12 Rectus Femoris,EMG 13 Vastus Medialis,EMG 14 Tib Ant,EMG 15 Med Gas,EMG 16 Soleus
,,V,V,V,V,V,V,V,V,V,V,V,V,V,V,V,V,V,V,V,V,V,V,V,V,V,V,V,V,V
1,0,10.0097,0,0.000457764,-2.42562,0.0541551,-0.0753682,0.0535176,0.0715807,-0.094062,0.144403,-0.126072,-0.0844015,0.0125885,0.0266647,0.0248718,0.00621796,0.0179291,0.0121307,0.0217819,0.0305176,-9.97986,0.0226974,-0.000648499,0.0112152,0.0056076,0.0237656,0.000305176,0.0152206,0.00766754
1,1,10.0097,0.000610352,-0.000152588,-2.42745,0.0541551,-0.075063,0.0532125,0.0709703,-0.0925361,0.145013,-0.124851,-0.0847066,0.0117874,0.0248718,0.0222397,0.0128174,0.0161362,0.0120926,0.020752,0.0234222,-9.97986,0.0190735,-0.00171661,0.0166702,0.00499725,0.0203705,-0.00175476,0.0180054,0.00553131
1,2,10.0097,0.00183105,0.000152588,-2.42684,0.0562914,-0.0756734,0.054128,0.0709703,-0.0925361,0.145929,-0.124241,-0.0819601,0.0112152,0.0258636,0.0196075,0.0115585,0.019722,0.0105667,0.0214005,0.0243759,-9.97986,0.0172043,0.00137329,0.0146484,0.00392914,0.0190735,-0.000114441,0.0157547,0.00469208
1,3,10.0097,-0.000915527,0.000305176,-2.42501,0.055681,-0.0735371,0.0544332,0.0715807,-0.0919257,0.146539,-0.125461,-0.0822652,0.00854492,0.0199127,0.019722,0.0075531,0.0169373,0.0102997,0.02388,0.0184631,-9.97986,0.0183868,-0.00164032,0.0127029,0.00160217,0.0183105,-0.00411987,0.0157928,0.00782013
1,4,10.0097,-0.0012207,-0.000305176,-2.42592,0.0562914,-0.0729268,0.0535176,0.0709703,-0.0919257,0.148065,-0.125461,-0.0810445,0.00869751,0.0258255,0.0236511,0.00473022,0.0146484,0.0125885,0.0209427,0.0207901,-9.97986,0.0162125,0.00133514,0.0114059,0.00648499,0.0128555,-0.00324249,0.0160217,0.00465393
1,5,10.0097,0.000610352,-0.000610352,-2.42714,0.0572069,-0.0753682,0.0529073,0.037401,-0.0974189,0.145929,-0.126072,-0.0831808,0.00888824,0.0214767,0.0196457,0.0111771,0.0123978,0.00961304,0.0183487,0.0107574,-9.97986,0.0087738,-0.00274658,0.0141144,0.00617981,0.0171661,0.000228882,0.0163269,0.00797272
1,6,4.20674,0.000610352,-0.00442505,-2.42684,0.0572069,-0.075063,0.0513814,-0.012953,-0.0983344,0.146844,-0.129734,-0.0825704,0.00457764,0.0255203,0.0192642,0.0113297,0.014534,0.00835419,0.0178909,0.0082016,-9.97986,0.00518799,0.00236511,0.0158691,0.00289917,0.0154877,-0.00270844,0.0128174,0.00652313
1,7,-3.32927,0.000915527,-0.00473022,-2.42562,0.0565965,-0.0735371,0.0535176,-0.0169203,-0.0968086,0.14837,-0.129123,-0.0828756,0.00946045,0.0273132,0.017395,0.0111389,0.0140381,0.0132751,0.0242233,0.00774384,-9.97986,0.0117493,0.00270844,0.0173187,0.00431061,0.0133514,0.00164032,0.0164032,0.00644684
1,8,-9.99003,0.000915527,-0.00366211,-2.42348,0.055681,-0.0729268,0.0550435,0.00627307,-0.0928413,0.147455,-0.128818,-0.0804342,0.0075531,0.0251007,0.0187683,0.011673,0.0146103,0.0107956,0.0178909,0.0104141,-9.97986,0.00865936,-0.00175476,0.01194,0.00732422,0.0175476,-0.00175476,0.0165939,0.00553131
1,9,-9.99003,0,-0.00320435,-2.42531,0.0559862,-0.0741475,0.0565694,0.0306871,-0.090705,0.146234,-0.128208,-0.0810445,0.0104523,0.0243378,0.0210571,0.0111008,0.0179291,0.0137329,0.0196838,0.0128937,-9.97986,0.0125122,-0.000190735,0.0177383,0.00354767,0.0019455,0.000457764,0.0165558,0.0025177
2,0,-9.99003,0.000610352,-0.00167847,-2.42623,0.0559862,-0.0735371,0.0547383,0.0511339,-0.0913154,0.145318,-0.126987,-0.0816549,0.00751495,0.0224304,0.0187683,0.0121689,0.0161743,0.0115585,0.0149155,0.0125885,-9.97986,0.0131989,-0.000419617,0.0169373,0.00392914,-0.00579834,-0.00507355,0.0143814,0.00644684
2,1,-9.99003,-0.000610352,0,-2.42623,0.0550706,-0.0738423,0.0547383,0.0676134,-0.0897895,0.145624,-0.125766,-0.0822652,0.0111389,0.0251389,0.0219345,0.0108719,0.0162125,0.0107574,0.0235748,0.0127029,-9.97986,0.0123215,0.000572205,0.0138092,0.00427246,-0.00167847,-0.00377655,0.0156784,0.00488281
2,2,-9.99003,-0.0012207,0.0012207,-2.42592,0.0544603,-0.0753682,0.0553487,0.103624,-0.0873481,0.145013,-0.123935,-0.0816549,0.0111771,0.0236893,0.0182724,0.0100327,0.0167084,0.0112915,0.0221634,0.017128,-9.97986,0.0125122,-0.00469208,0.0157166,0.00431061,0.0139618,-0.0018692,0.0162506,0.0031662
2,3,-2.61241,0.000915527,0.00427246,-2.42745,0.0547655,-0.0759786,0.0550435,0.137193,-0.0882636,0.145013,-0.122715,-0.0847066,0.0127029,0.0276184,0.0193024,0.0109482,0.0210571,0.0133514,0.0185013,0.0195313,-9.97986,0.0136185,0.000686646,0.0159454,0.00492096,0.0185013,-0.00331879,0.0161743,0.00469208
2,4,4.79421,0.0012207,0.0050354,-2.4302,0.0538499,-0.0753682,0.0532125,0.152147,-0.0885688,0.143792,-0.120884,-0.085317,0.0123596,0.0285721,0.0177765,0.00984192,0.014534,0.0118256,0.0207901,0.016098,-9.97986,0.0173187,0.00213623,0.0176239,0.0069809,0.0168228,-0.0063324,0.0153732,0.0025177
2,5,10.0097,0.000915527,0.00488281,-2.42989,0.0538499,-0.0768941,0.0522969,0.148485,-0.0910102,0.143792,-0.122104,-0.085317,0.0152969,0.0272751,0.018425,0.0125504,0.0189209,0.00587463,0.0205231,0.017395,-9.97986,0.0121307,-0.000305176,0.0169373,0.00362396,0.0147629,-0.00263214,0.0149536,0.00766754
2,6,10.0097,0.0012207,0.00167847,-2.43142,0.0523241,-0.0771993,0.0492452,0.098131,-0.0971137,0.142572,-0.126377,-0.0898946,0.00770569,0.0251389,0.0192261,0.0120544,0.018425,0.0119781,0.0234985,0.0195694,-9.97986,0.015831,0.00144958,0.0147629,0.00728607,0.0177002,-0.00244141,0.015831,0.00614166
2,7,10.0097,0.0012207,0.000305176,-2.42989,0.0550706,-0.0768941,0.050771,0.080736,-0.0968086,0.144098,-0.126987,-0.0886739,0.013504,0.0210571,0.0247574,0.00965118,0.0200272,0.0148392,0.0185776,0.0205994,-9.97986,0.0192642,-0.0018692,0.0163269,0.00663757,0.0203705,-0.00331879,0.017395,0.00778198
2,8,10.0097,-0.000915527,0.000305176,-2.42959,0.0544603,-0.0756734,0.0519917,0.0743273,-0.095893,0.144098,-0.126072,-0.0871481,0.0106049,0.02388,0.0185776,0.0146484,0.0163651,0.00434875,0.0228119,0.0268555,-9.97986,0.0172424,-0.000686646,0.0151443,0.00595093,0.0201416,3.8147e-005,0.0195313,0.00976563
2,9,10.0097,0.0012207,-0.000152588,-2.42745,0.0535448,-0.0747579,0.0522969,0.0728014,-0.0949775,0.145013,-0.126377,-0.0847066,0.0136948,0.0220108,0.0217056,0.00839233,0.0138092,0.00934601,0.0220108,0.0309753,-9.97986,0.022049,0.001297,0.0104523,0.00743866,0.0192261,-0.00236511,0.0185394,0.00717163
3,0,10.0097,0.000305176,0.000457764,-2.42684,0.0544603,-0.0753682,0.0535176,0.0718859,-0.0925361,0.145624,-0.127598,-0.0840963,0.0121307,0.0272369,0.0194931,0.010376,0.0162506,0.00930786,0.019989,0.0282288,-9.97986,0.0199127,-0.000839233,0.0186539,0.00694275,0.0170517,-0.00469208,0.0164032,0.00839233
3,1,10.0097,0.000305176,0.000152588,-2.42531,0.0547655,-0.0747579,0.0532125,0.0709703,-0.0928413,0.144403,-0.125766,-0.085317,0.0130463,0.0249481,0.017395,0.0127411,0.0152969,0.00736237,0.0193787,0.0263596,-9.97986,0.0215912,-0.00232697,0.0131226,0.00453949,0.0151062,-0.0043869,0.0163651,0.00934601
3,2,10.0097,0.0012207,-0.000152588,-2.42684,0.0559862,-0.0744527,0.0529073,0.0712755,-0.0928413,0.145929,-0.126377,-0.0828756,0.0125122,0.0242233,0.0191116,0.0148392,0.0212479,0.00747681,0.0228882,0.021019,-9.97986,0.0184631,-0.00312805,0.00930786,0.00774384,0.0149536,-0.00293732,0.0154877,0.00679016
3,3,10.0097,0.000610352,0.000457764,-2.42592,0.0559862,-0.0735371,0.0544332,0.0724962,-0.0928413,0.145624,-0.124241,-0.0819601,0.0123978,0.0217819,0.0156021,0.0127792,0.0189972,0.00816345,0.0189972,0.0225067,-9.97986,0.0201035,-0.000839233,0.0149155,0.00865936,0.0157166,0.0012207,0.0179291,0.0108719
3,4,10.0097,0.000305176,-0.000457764,-2.4244,0.0569017,-0.0735371,0.054128,0.0724962,-0.0913154,0.145624,-0.12363,-0.0810445,0.00907898,0.0224304,0.0144196,0.0121689,0.0172043,0.00873566,0.0192642,0.0171661,-9.97986,0.0141525,-0.00247955,0.0165558,0.0056076,0.017395,-0.00293732,0.0160599,0.00389099
3,5,10.0097,-0.000915527,-0.00152588,-2.42776,0.055681,-0.0738423,0.0535176,0.0380113,-0.0974189,0.145318,-0.128208,-0.0831808,0.0120163,0.0249863,0.0166321,0.0112915,0.0180054,0.00907898,0.0241852,0.00965118,-9.97986,0.00968933,-0.00213623,0.0117111,0.014534,0.0126648,-0.00354767,0.0152969,0.00415802
3,6,4.26778,0.00152588,-0.0038147,-2.42745,0.0559862,-0.0735371,0.0519917,-0.011122,-0.0989448,0.145929,-0.129734,-0.0831808,0.00854492,0.0230789,0.0183105,0.0113297,0.0189972,0.00751495,0.0202179,0.0134277,-9.97986,0.00919342,-0.00213623,0.014534,0.00854492,0.0143051,-0.00495911,0.0180435,0.00617981
3,7,-3.21452,-0.000915527,-0.00518799,-2.42623,0.055681,-0.0738423,0.0544332,-0.0166151,-0.0983344,0.146234,-0.130344,-0.0816549,0.00789642,0.0234985,0.0202179,0.0156021,0.018959,0.0120926,0.0200653,0.0088501,-9.97986,0.00541687,-0.00114441,0.0142288,0.00587463,0.0153351,-0.00495911,0.0181961,0.0044632
3,8,-9.99003,0.00183105,-0.00427246,-2.4247,0.0569017,-0.0735371,0.0556539,0.00596789,-0.0922309,0.145929,-0.128818,-0.0804342,0.0112534,0.0214767,0.0167084,0.0125504,0.0147629,0.0123215,0.0210571,0.0114822,-9.97986,0.00835419,-0.001297,0.0154877,0.00667572,0.0119019,-0.00663757,0.0148392,0.00450134
3,9,-9.99003,0.000305176,-0.00320435,-2.42409,0.0562914,-0.0735371,0.0556539,0.0306871,-0.090705,0.145013,-0.126987,-0.0813497,0.0108337,0.0194168,0.0168991,0.0117111,0.0179672,0.00717163,0.0244904,0.0109482,-9.97986,0.0127411,-0.00228882,0.0146484,0.00782013,0.00205994,-0.00518799,0.017128,0.0043869
4,0,-9.99003,0,-0.0012207,-2.42501,0.0550706,-0.0753682,0.0556539,0.0493029,-0.0903999,0.146234,-0.126682,-0.0816549,0.0123215,0.022316,0.0115585,0.00862122,0.0177383,0.00717163,0.0204086,0.0159454,-9.97986,0.010376,-0.00358582,0.0165176,0.00465393,-0.00572205,-0.00343323,0.0139999,0.0044632
4,1,-9.99003,-0.000915527,0,-2.42653,0.0532396,-0.0744527,0.0550435,0.0657823,-0.0903999,0.145929,-0.125156,-0.0822652,0.00926971,0.0200272,0.0167465,0.0124359,0.0216675,0.010376,0.0263214,0.0151062,-9.97986,0.0149155,-0.00556946,0.0162506,0.0094223,-0.00270844,-0.00305176,0.0165176,0.00587463
4,2,-9.99003,0.00152588,0.00137329,-2.42592,0.0544603,-0.073232,0.0556539,0.100878,-0.0870429,0.145318,-0.123935,-0.0831808,0.00984192,0.0195313,0.0164032,0.01091,0.022583,0.0082016,0.0224304,0.0168991,-9.97986,0.0146103,-0.00221252,0.013237,0.0106812,0.0141525,-0.00267029,0.0209427,0.00530243
4,3,-2.44792,0.000610352,0.00411987,-2.42776,0.0535448,-0.0759786,0.0553487,0.135362,-0.0891792,0.143487,-0.12302,-0.0837911,0.00976563,0.0173187,0.014267,0.0126266,0.017395,0.0120163,0.0232697,0.0193787,-9.97986,0.0183105,-0.0104141,0.0145721,0.00843048,0.0164413,-0.00175476,0.0174713,0.00896454
4,4,4.70326,0.000915527,0.00411987,-2.42837,0.0538499,-0.0756734,0.054128,0.153063,-0.0885688,0.144403,-0.121494,-0.0859274,0.0112534,0.016861,0.0172043,0.0128937,0.0196457,0.0136185,0.0252533,0.0194168,-9.97986,0.0200272,-0.00553131,0.0104141,0.00896454,0.0127029,-0.00236511,0.0163269,0.00652313
4,5,10.0097,-0.000305176,0.00442505,-2.42837,0.0538499,-0.0759786,0.0522969,0.150926,-0.0910102,0.142572,-0.121189,-0.085317,0.0112152,0.020752,0.0160217,0.0115585,0.0144577,0.0105667,0.0218964,0.0177765,-9.97986,0.0171661,-0.00679016,0.0136566,0.00621796,0.0120163,-0.00263214,0.0188446,0.00839233
4,6,10.0097,0.000305176,0.00183105,-2.43081,0.0535448,-0.0762837,0.0495503,0.0962999,-0.0961982,0.142572,-0.125766,-0.0895895,0.00854492,0.0225067,0.0168228,0.0147247,0.0195694,0.00679016,0.0228882,0.0187683,-9.97986,0.0182343,-0.00530243,0.0138855,0.00553131,0.015564,-0.00110626,0.0157928,0.00595093
4,7,10.0097,0,0.000152588,-2.42959,0.0541551,-0.0765889,0.0516866,0.0810411,-0.0968086,0.144403,-0.126377,-0.0889791,0.0144958,0.0205612,0.014267,0.0126648,0.0171661,0.0139618,0.0237274,0.0232315,-9.97986,0.0171661,-0.00328064,0.0152588,0.00930786,0.0180817,-0.00106812,0.017128,0.00804901
4,8,10.0097,0,0.000762939,-2.42867,0.0550706,-0.0759786,0.0519917,0.075548,-0.0968086,0.143487,-0.127292,-0.0871481,0.0114059,0.0201797,0.0151825,0.0141525,0.0156021,0.00766754,0.020752,0.0273514,-9.97986,0.0196838,-0.0050354,0.0149918,0.00305176,0.020752,-0.00480652,0.0182343,0.0101471
4,9,10.0097,0.00152588,-0.000457764,-2.42776,0.0547655,-0.0753682,0.0532125,0.0724962,-0.0943672,0.144403,-0.126682,-0.0862325,0.0125122,0.0256348,0.0224686,0.0114059,0.0180435,0.00801086,0.0191116,0.0286102,-9.97986,0.022583,-0.00404358,0.0117874,0.0043869,0.0209808,-0.00331879,0.013504,0.00587463
5,0,10.0097,0.0012207,0.000152588,-2.42776,0.0550706,-0.0756734,0.0529073,0.0712755,-0.0943672,0.145013,-0.126072,-0.0850118,0.01297,0.0170898,0.018425,0.00999451,0.0143814,0.013504,0.0218201,0.0326538,-9.97986,0.0193405,-0.00164032,0.0156784,0.00522614,0.0181961,-0.0069809,0.0154114,0.00671387
5,1,10.0097,-0.000305176,0.000305176,-2.42653,0.0550706,-0.0759786,0.0532125,0.0718859,-0.0931465,0.143792,-0.125156,-0.0834859,0.00869751,0.0190353,0.0165939,0.0121689,0.0165939,0.0102615,0.0198364,0.0284958,-9.97986,0.0242233,-0.00301361,0.0161362,0.00545502,0.0178146,-0.00297546,0.0122833,0.00934601
5,2,10.0097,-0.000305176,0.000152588,-2.42562,0.0569017,-0.0744527,0.054128,0.0709703,-0.0931465,0.145013,-0.125156,-0.0828756,0.0122833,0.0238419,0.0179672,0.0136566,0.0148392,0.00858307,0.0170898,0.0233841,-9.97986,0.017395,-0.0018692,0.0177383,0.00930786,0.0204468,-0.00217438,0.0138855,0.00888824
5,3,10.0097,0.00335693,-0.000457764,-2.42592,0.055681,-0.073232,0.0532125,0.0715807,-0.0922309,0.146539,-0.124241,-0.0807394,0.0116348,0.0214767,0.0173187,0.00976563,0.0180817,0.010643,0.0243378,0.0234985,-9.97986,0.0185776,0.00331879,0.0135803,0.00644684,0.0165558,-0.00347137,0.0159454,0.00869751
5,4,10.0097,0.000305176,-0.000305176,-2.42409,0.0559862,-0.0741475,0.0544332,0.072191,-0.0910102,0.145624,-0.124546,-0.0810445,0.0108719,0.0209427,0.0178146,0.00953674,0.0176239,0.00816345,0.0206757,0.018959,-9.97986,0.0152588,-0.00385284,0.0159454,0.00865936,0.0197983,-0.000534058,0.0172806,0.00839233
5,5,10.0097,0.000305176,-0.00106812,-2.42776,0.0559862,-0.0744527,0.0532125,0.0383165,-0.0974189,0.145013,-0.127292,-0.0828756,0.0107956,0.0194931,0.0169754,0.00492096,0.0195694,0.0115204,0.0231934,0.00793457,-9.97986,0.0101852,-0.00209808,0.0131989,0.00789642,0.0165939,-0.00507355,0.0139618,0.00793457
5,6,4.33522,0,-0.0038147,-2.42714,0.0562914,-0.0735371,0.0519917,-0.012953,-0.09925,0.146234,-0.130954,-0.0834859,0.00751495,0.0224304,0.0172043,0.00988007,0.0190353,0.0157547,0.022049,0.0069046,-9.97986,0.0113297,-0.00225067,0.0166702,0.00617981,0.017128,-0.00362396,0.0122452,0.00358582
5,7,-3.25938,-0.000305176,-0.00457764,-2.42562,0.0565965,-0.0741475,0.0532125,-0.0175306,-0.0971137,0.146234,-0.130039,-0.0822652,0.00930786,0.0217819,0.0146103,0.00846863,0.0164032,0.00514984,0.0238037,0.00831604,-9.97986,0.0094223,0.001297,0.0162506,0.00782013,0.0104523,-0.0038147,0.0163269,0.00583649
5,8,-9.99003,0.00152588,-0.00396729,-2.4244,0.0565965,-0.0735371,0.055959,0.00657824,-0.0925361,0.148065,-0.128208,-0.080129,0.00965118,0.0226593,0.0167847,0.0088501,0.0153732,0.0137711,0.0212479,0.00976563,-9.97986,0.00896454,-0.00499725,0.01297,0.00709534,0.0170517,-0.0025177,0.0185776,0.00614166
5,9,-9.99003,0,-0.00244141,-2.42501,0.0562914,-0.073232,0.0565694,0.030382,-0.0903999,0.145624,-0.127903,-0.0810445,0.0142288,0.02285,0.0181198,0.0106812,0.0145721,0.0102234,0.025177,0.00797272,-9.97986,0.0147247,-0.00293732,0.0153732,0.0102615,0.00141144,0.000495911,0.0151062,0.00507355
6,0,-9.99003,-0.000915527,-0.00106812,-2.42501,0.0550706,-0.0759786,0.0550435,0.0511339,-0.0916206,0.146234,-0.126377,-0.0825704,0.0107956,0.0214386,0.0175476,0.00785828,0.0169754,0.0107574,0.0233459,0.00915527,-9.97986,0.0105667,0.00247955,0.013237,0.00843048,-0.0094223,-0.00236511,0.0152206,0.00419617
6,1,-9.99003,0.000305176,-0.000457764,-2.42623,0.055681,-0.0747579,0.055959,0.0663927,-0.0913154,0.145318,-0.125461,-0.0819601,0.0117874,0.0202942,0.0182343,0.0113678,0.0165176,0.00865936,0.0224304,0.0111771,-9.97986,0.011673,-0.0038147,0.0144196,0.00644684,-0.0044632,-0.0056076,0.0150299,0.00602722
6,2,-9.99003,-0.000305176,0.00152588,-2.42531,0.0547655,-0.0735371,0.0553487,0.102098,-0.0867378,0.143487,-0.124546,-0.0825704,0.00801086,0.0237274,0.018158,0.0103378,0.0138855,0.0140381,0.0255966,0.0115967,-9.97986,0.0138474,-0.00465393,0.0114822,0.00915527,0.0162506,-0.00244141,0.0149918,0.00484467
6,3,-2.77171,-0.000915527,0.00411987,-2.42776,0.0535448,-0.0765889,0.0553487,0.135973,-0.0870429,0.144403,-0.121799,-0.0840963,0.0126648,0.0239944,0.0205231,0.0134277,0.0203705,0.0143433,0.0222778,0.0167465,-9.97986,0.0152206,-0.0069809,0.0130844,0.00667572,0.0143433,-0.00179291,0.0153351,0.0069046
6,4,4.36605,-0.000305176,0.00473022,-2.42806,0.0544603,-0.0762837,0.0538228,0.152757,-0.088874,0.144403,-0.121799,-0.0847066,0.0115967,0.0233459,0.0168228,0.0111389,0.0176239,0.0126266,0.0204849,0.0190353,-9.97986,0.0159454,-0.00259399,0.0128174,0.0075531,0.0148392,-0.00198364,0.0139236,0.00423431
6,5,10.0097,0.00152588,0.00411987,-2.42867,0.0535448,-0.0756734,0.0532125,0.152452,-0.0900947,0.144098,-0.120578,-0.0865377,0.0103378,0.0208664,0.0180435,0.0125122,0.0180054,0.0117874,0.027771,0.0174332,-9.97986,0.0142288,-0.00217438,0.014267,0.0069046,0.0151062,-0.00366211,0.0147247,0.00518799
6,6,10.0097,-0.000305176,0.00137329,-2.43203,0.0526292,-0.0771993,0.0501607,0.0984362,-0.0977241,0.142572,-0.126682,-0.0880636,0.0063324,0.0265503,0.0164795,0.0109863,0.0147247,0.0117874,0.0233078,0.0162506,-9.97986,0.0170135,0.00225067,0.0151443,0.00389099,0.0205231,-0.000915527,0.0167084,0.00572205
6,7,10.0097,0,0.000305176,-2.42928,0.0535448,-0.0771993,0.0504659,0.0819567,-0.0971137,0.143182,-0.126987,-0.0880636,0.0143814,0.0260162,0.0181198,0.00812531,0.0165176,0.0114059,0.0199127,0.0185776,-9.97986,0.0201797,0.00213623,0.0148392,0.00934601,0.0181198,-0.000801086,0.0165558,0.00480652
6,8,10.0097,0.000305176,0.000152588,-2.42806,0.0526292,-0.0765889,0.0522969,0.0752428,-0.0955879,0.144708,-0.126377,-0.0871481,0.0128937,0.0246048,0.0191116,0.0139236,0.0229263,0.0131607,0.022316,0.0258255,-9.97986,0.020256,-0.000686646,0.0131607,0.00724792,0.0172424,-0.00293732,0.0148773,0.0056076
6,9,10.0097,0.00152588,-0.000152588,-2.42867,0.0538499,-0.0753682,0.0532125,0.0731066,-0.0946723,0.144098,-0.126682,-0.0850118,0.0139999,0.0252151,0.0178146,0.0106049,0.0206375,0.0102997,0.0236511,0.0266266,-9.97986,0.020256,0.000228882,0.0149155,0.00610352,0.0186157,-0.00370026,0.018692,0.00785828
7,0,10.0097,0,0.000152588,-2.42684,0.055681,-0.0747579,0.0529073,0.0718859,-0.0934516,0.145013,-0.126377,-0.085317,0.00873566,0.0270462,0.0185776,0.0102615,0.0204849,0.0120544,0.0231552,0.0268936,-9.97986,0.0201797,-0.00209808,0.0141144,0.00480652,0.0209427,-0.0030899,0.0203705,0.00469208
7,1,10.0097,-0.000610352,0.000610352,-2.42653,0.0547655,-0.0756734,0.0535176,0.0706652,-0.0928413,0.145624,-0.126072,-0.0831808,0.01297,0.0252914,0.0209045,0.0149918,0.0212479,0.0122452,0.0252914,0.0267792,-9.97986,0.0247574,-0.00125885,0.0114059,0.0115204,0.0183868,-0.000419617,0.0180817,0.00526428
7,2,10.0097,-0.000915527,0.000152588,-2.42592,0.055681,-0.0744527,0.0535176,0.0709703,-0.0928413,0.146539,-0.125766,-0.0834859,0.0141525,0.0220108,0.0164795,0.0116348,0.0164795,0.0122833,0.0202179,0.0232315,-9.97986,0.0200653,-0.00610352,0.0141907,0.00717163,0.0171661,-0.00526428,0.0156021,0.00648499
7,3,10.0097,0.000915527,0.000152588,-2.42562,0.0547655,-0.0741475,0.0535176,0.0724962,-0.0919257,0.146844,-0.123935,-0.0819601,0.0129318,0.0269699,0.0203323,0.0141525,0.0236893,0.0146103,0.0206757,0.0245285,-9.97986,0.0164795,0.000419617,0.0105667,0.00934601,0.0147629,-0.000152588,0.016098,0.00556946
7,4,10.0097,-0.000305176,0,-2.42409,0.0565965,-0.073232,0.0547383,0.0706652,-0.0913154,0.145013,-0.12363,-0.0813497,0.0117111,0.0196075,0.0197983,0.00953674,0.0203323,0.00995636,0.02285,0.0204468,-9.97986,0.0132751,-0.00904083,0.0118256,0.0037384,0.0150681,-0.00457764,0.014801,0.00526428
7,5,10.0097,0.00244141,-0.000305176,-2.42653,0.0544603,-0.0747579,0.0532125,0.0380113,-0.0961982,0.145318,-0.127292,-0.0834859,0.00682831,0.0242233,0.0186539,0.00843048,0.0247574,0.0126266,0.0208282,0.0176239,-9.97986,0.00656128,-0.00644684,0.0118256,0.00709534,0.0187683,-0.00164032,0.0194931,0.00793457
7,6,4.5345,0.000610352,-0.00396729,-2.42653,0.0569017,-0.0744527,0.0529073,-0.012953,-0.0998603,0.146539,-0.130039,-0.0834859,0.0100327,0.0229645,0.0214386,0.0120926,0.0175858,0.00785828,0.0183487,0.00934601,-9.97986,0.00656128,-0.00419617,0.0138855,0.00461578,0.0165176,-0.00343323,0.0164795,0.00732422
7,7,-3.03599,0.000305176,-0.00427246,-2.42592,0.0559862,-0.0744527,0.0532125,-0.0163099,-0.0968086,0.146539,-0.130344,-0.0834859,0.00778198,0.0215912,0.015831,0.00812531,0.0161743,0.00682831,0.0206375,0.0069809,-9.97986,0.0123215,-0.00259399,0.0101471,0.0102997,0.0150299,-0.00278473,0.0164795,0.00617981
7,8,-9.99003,0.00274658,-0.00427246,-2.42501,0.0565965,-0.0738423,0.0550435,0.00413684,-0.0937568,0.147149,-0.128513,-0.0810445,0.00717163,0.0260162,0.0228119,0.0117111,0.0206375,0.0115967,0.021019,0.00843048,-9.97986,0.00793457,-0.00225067,0.0142288,0.00957489,0.0182343,-0.00263214,0.0177002,0.00343323
7,9,-9.99003,0.0012207,-0.00305176,-2.42409,0.0562914,-0.0741475,0.0568746,0.0300768,-0.0919257,0.146844,-0.128208,-0.0810445,0.0105667,0.0241852,0.0195313,0.00862122,0.0163269,0.00873566,0.016861,0.00873566,-9.97986,0.0120926,0.00118256,0.0122452,0.00865936,0.00785828,-0.00152588,0.0134659,0.00564575
8,0,-9.99003,-0.000915527,-0.000915527,-2.42562,0.0541551,-0.075063,0.0547383,0.0502184,-0.090705,0.145929,-0.126072,-0.0825704,0.0101852,0.0210953,0.0207138,0.0124741,0.0220871,0.00991821,0.024147,0.0117493,-9.97986,0.0106049,-0.0019455,0.0156021,0.00450134,-0.00183105,-0.000152588,0.0165558,0.00293732
8,1,-9.99003,0.000915527,0.000152588,-2.42623,0.0553758,-0.0744527,0.0553487,0.0654772,-0.0903999,0.144708,-0.125461,-0.0819601,0.0119019,0.02388,0.0211334,0.0124741,0.0203323,0.0088501,0.0210571,0.0159073,-9.97986,0.0122833,0.00156403,0.0136948,0.0118637,0.00114441,-0.00320435,0.0180054,0.00564575
8,2,-9.99003,0,0.00198364,-2.42592,0.0553758,-0.075063,0.0553487,0.0993517,-0.0870429,0.144403,-0.123935,-0.0828756,0.0109863,0.0277328,0.018425,0.00965118,0.0200272,0.00869751,0.0222397,0.0156021,-9.97986,0.01297,-0.000801086,0.0145721,0.00701904,0.019722,-0.00358582,0.0196457,0.00587463
8,3,-2.48057,-0.0012207,0.0038147,-2.42714,0.0535448,-0.075063,0.0538228,0.133226,-0.0897895,0.143792,-0.12363,-0.0847066,0.0130844,0.0265121,0.0223541,0.0125885,0.0213623,0.010376,0.0209045,0.0139999,-9.97986,0.0147247,0.000801086,0.0130463,0.00686646,0.0166321,-0.00354767,0.0152588,0.00827789
8,4,4.53633,0.0012207,0.00488281,-2.42806,0.0541551,-0.0753682,0.0538228,0.152452,-0.0894843,0.144098,-0.121189,-0.085317,0.0113297,0.0262451,0.0179291,0.0113678,0.0182724,0.00930786,0.0234985,0.018158,-9.97986,0.016098,0.00205994,0.0139236,0.00946045,0.0159836,-0.00534058,0.014801,0.00511169
8,5,10.0097,0.000305176,0.00442505,-2.42928,0.0535448,-0.0768941,0.0526021,0.150316,-0.0913154,0.144403,-0.122104,-0.0859274,0.0119781,0.0273514,0.0199127,0.00732422,0.0180435,0.00617981,0.0234985,0.0150681,-9.97986,0.0192261,-0.00144958,0.0136566,0.00961304,0.018158,-0.00213623,0.0161743,0.00740051
8,6,10.0097,0.000915527,0.00106812,-2.4305,0.0532396,-0.0762837,0.0504659,0.098131,-0.0961982,0.141656,-0.126072,-0.0883688,0.0105667,0.0294113,0.019989,0.0118637,0.0166702,0.00652313,0.0235367,0.013237,-9.97986,0.0196838,0.00366211,0.0150681,0.00671387,0.0175476,-0.00312805,0.014267,0.00392914
8,7,10.0097,0.000915527,0,-2.4302,0.0535448,-0.0756734,0.0513814,0.0813463,-0.0965034,0.143792,-0.127292,-0.0880636,0.00648499,0.0287628,0.0199127,0.0109863,0.014801,0.0113678,0.0217819,0.0196838,-9.97986,0.0163651,-7.62939e-005,0.0152206,0.0102615,0.0172043,-0.000228882,0.0132751,0.00629425
8,8,10.0097,0.000305176,-0.000152588,-2.42867,0.0547655,-0.0753682,0.0519917,0.075548,-0.0949775,0.144098,-0.126682,-0.0862325,0.0143433,0.0265884,0.018692,0.0150681,0.0143051,0.0128937,0.0206375,0.0254059,-9.97986,0.0186539,0.000343323,0.0129318,0.010643,0.0202179,0.00228882,0.0187683,0.00656128
8,9,10.0097,0.000915527,0.000457764,-2.42776,0.0547655,-0.0759786,0.0529073,0.0737169,-0.0943672,0.144708,-0.125766,-0.0856222,0.0137711,0.0252914,0.0200272,0.0147629,0.0134277,0.0111008,0.0228882,0.0251007,-9.97986,0.0191498,-0.001297,0.0134659,0.00717163,0.0206375,-0.000724792,0.0111771,0.00614166
9,0,10.0097,0.0012207,-0.000457764,-2.42745,0.0550706,-0.0744527,0.0532125,0.0709703,-0.094062,0.145318,-0.126377,-0.085317,0.0114822,0.0237656,0.0190735,0.0133896,0.0180054,0.00900269,0.0243759,0.0320816,-9.97986,0.0246048,0.00259399,0.0138855,0.00919342,0.0188828,3.8147e-005,0.0138092,0.01194
9,1,10.0097,-0.000305176,-0.000152588,-2.42684,0.0544603,-0.075063,0.0535176,0.0715807,-0.0946723,0.144708,-0.125766,-0.0847066,0.0131607,0.0220871,0.0177383,0.0102234,0.0180817,0.00862122,0.022049,0.0254822,-9.97986,0.0208282,0.000267029,0.0131607,0.00537872,0.0213623,-0.00190735,0.0214767,0.0094986
9,2,10.0097,0.000610352,0.000152588,-2.42592,0.0550706,-0.0741475,0.0544332,0.0712755,-0.0916206,0.145013,-0.124851,-0.0828756,0.0123978,0.0267792,0.0180054,0.0100708,0.0138092,0.0108337,0.0179672,0.0246811,-9.97986,0.0159073,-0.000610352,0.0153351,0.010376,0.0178909,-0.000152588,0.0159454,0.0104904
9,3,10.0097,0.000610352,-0.000305176,-2.42623,0.0565965,-0.0747579,0.0547383,0.0712755,-0.0922309,0.146234,-0.124546,-0.0813497,0.00999451,0.0217438,0.0191116,0.0137711,0.0160217,0.0128937,0.0242615,0.0252914,-9.97986,0.0180435,-0.000762939,0.0156021,0.00976563,0.0177765,-0.000495911,0.0166702,0.00724792
9,4,10.0097,0.000305176,0,-2.42562,0.0572069,-0.073232,0.0556539,0.0715807,-0.0919257,0.146234,-0.124546,-0.0819601,0.00667572,0.0224686,0.0174713,0.0126266,0.0119019,0.00926971,0.0202942,0.0175095,-9.97986,0.0146103,0.00267029,0.0128555,0.00793457,0.0185013,-0.00499725,0.0160599,0.00591278
9,5,10.0097,0.000305176,-0.00213623,-2.42531,0.0559862,-0.0741475,0.0532125,0.0370958,-0.095893,0.145318,-0.127292,-0.0840963,0.00724792,0.0258255,0.0205231,0.0125122,0.0111008,0.0100708,0.0205231,0.013504,-9.97986,0.0127029,-0.00453949,0.0148773,0.0104904,0.0171661,-0.00225067,0.016861,0.00656128
9,6,4.50704,0.00244141,-0.00411987,-2.42623,0.0559862,-0.0741475,0.0522969,-0.0144789,-0.100165,0.145929,-0.129123,-0.0840963,0.00938416,0.0233078,0.0186539,0.013504,0.0164413,0.00888824,0.0205994,0.0118256,-9.97986,0.00972748,-0.00312805,0.0140381,0.00957489,0.0159836,-0.00415802,0.017128,0.00389099
9,7,-3.14464,-0.000305176,-0.00442505,-2.42623,0.0550706,-0.0747579,0.0532125,-0.0172255,-0.0971137,0.146844,-0.129734,-0.0822652,0.0114441,0.0251389,0.0185013,0.0141907,0.016098,0.00934601,0.0251389,0.0094223,-9.97986,0.0109482,-0.00366211,0.0130081,0.00629425,0.018158,-0.00339508,0.0164032,0.00766754
9,8,-9.99003,0.000610352,-0.00534058,-2.42379,0.0569017,-0.0729268,0.055959,0.00291613,-0.0937568,0.146844,-0.128513,-0.0804342,0.00637054,0.0272751,0.0199127,0.0135422,0.0161362,0.0101471,0.0211334,0.0107574,-9.97986,0.0103378,-0.00160217,0.0145721,0.00610352,0.017128,-0.00118256,0.0201797,0.00591278
9,9,-9.99003,0.000915527,-0.00244141,-2.42409,0.0565965,-0.0738423,0.0562642,0.0294664,-0.0916206,0.145318,-0.127598,-0.0807394,0.0133133,0.0274277,0.0209808,0.0136948,0.0190353,0.0126648,0.0212479,0.00938416,-9.97986,0.0100708,0.000152588,0.015831,0.0107193,0.000305176,-0.00244141,0.0183105,0.00434875
10,0,-9.99003,-0.000610352,-0.000762939,-2.42562,0.0559862,-0.0747579,0.0562642,0.0511339,-0.090705,0.146234,-0.126072,-0.0807394,0.00984192,0.0288773,0.0154877,0.0152206,0.018158,0.00934601,0.0218201,0.0145721,-9.97986,0.00846863,0.00175476,0.0117874,0.00579834,-0.00862122,-0.00404358,0.0166321,0.00804901
10,1,-9.99003,-0.000305176,-0.000610352,-2.42653,0.0547655,-0.0753682,0.0547383,0.0645616,-0.0910102,0.145013,-0.124851,-0.0828756,0.00724792,0.0285721,0.0133514,0.0119019,0.0180054,0.0107193,0.0219345,0.0130081,-9.97986,0.0151825,-0.00289917,0.0104141,0.00526428,-0.0038147,-0.00457764,0.0139999,0.00720978
10,2,-9.99003,0.000610352,0.00198364,-2.42531,0.0547655,-0.0741475,0.0553487,0.0993517,-0.0885688,0.144708,-0.12363,-0.0831808,0.0136948,0.0228119,0.0163269,0.0118256,0.0170135,0.0113678,0.0249481,0.014534,-9.97986,0.017128,-0.0019455,0.0130081,0.00720978,0.0157928,-0.00671387,0.015831,0.00766754
10,3,-2.81383,-0.0012207,0.00457764,-2.42776,0.0547655,-0.0756734,0.0538228,0.133837,-0.0885688,0.142877,-0.12302,-0.0847066,0.0131607,0.028038,0.0147247,0.0139618,0.0172806,0.0108337,0.0240326,0.0170135,-9.97986,0.0146484,-0.000686646,0.0153351,0.00785828,0.0131989,-0.0038147,0.0151062,0.00717163
10,4,4.16646,0.000305176,0.00488281,-2.42714,0.0538499,-0.075063,0.0538228,0.153368,-0.0882636,0.144403,-0.122715,-0.0859274,0.0117493,0.0268555,0.0168228,0.0106049,0.0162506,0.0115585,0.0221634,0.0152588,-9.97986,0.0111389,0.00362396,0.0139999,0.00724792,0.017128,-0.00205994,0.0140381,0.0069046
10,5,10.0097,-0.000610352,0.00427246,-2.42837,0.0544603,-0.0768941,0.054128,0.152147,-0.0910102,0.143487,-0.121799,-0.085317,0.0103378,0.022316,0.0156403,0.01194,0.0149155,0.00843048,0.0218582,0.0154877,-9.97986,0.018959,-0.00183105,0.017662,0.00461578,0.0189972,-0.00152588,0.017128,0.00785828
10,6,10.0097,0,0.00198364,-2.43142,0.0529344,-0.0768941,0.0495503,0.099962,-0.0955879,0.142877,-0.126377,-0.0883688,0.00602722,0.020752,0.0189972,0.0111008,0.0139618,0.0127792,0.0220871,0.0188065,-9.97986,0.0169754,0.00087738,0.0114059,0.00717163,0.0146103,-0.00354767,0.0136185,0.00663757
10,7,10.0097,0.00274658,0.000152588,-2.4305,0.0532396,-0.0765889,0.0504659,0.0810411,-0.0965034,0.142877,-0.127292,-0.0889791,0.0108719,0.0246048,0.0168991,0.0125885,0.019722,0.0129318,0.018692,0.0217056,-9.97986,0.0180817,-0.00442505,0.0119781,0.00705719,0.0163651,-0.00411987,0.0149536,0.00453949
10,8,10.0097,0.000610352,0,-2.42806,0.0544603,-0.075063,0.0519917,0.0752428,-0.095893,0.143487,-0.127292,-0.0874532,0.0112152,0.0242996,0.0187683,0.0121307,0.015831,0.00823975,0.0249863,0.0243759,-9.97986,0.019455,-0.00289917,0.0144958,0.00526428,0.0192261,-0.000915527,0.0170517,0.0105286
10,9,10.0097,0.00152588,-0.000305176,-2.42837,0.0550706,-0.0756734,0.0519917,0.0731066,-0.0946723,0.143792,-0.126377,-0.0856222,0.0115204,0.022049,0.0233841,0.011673,0.0181198,0.00972748,0.0287247,0.0262451,-9.97986,0.0235367,-0.00144958,0.016098,0.0113297,0.0202179,-0.00331879,0.0143051,0.00831604
11,0,10.0097,-0.00152588,0.000305176,-2.42867,0.0550706,-0.0759786,0.0532125,0.0718859,-0.094062,0.144403,-0.125156,-0.085317,0.0102615,0.0216293,0.0215149,0.0120544,0.013504,0.0134277,0.0245667,0.0307465,-9.97986,0.0252151,-0.00278473,0.0134277,0.00705719,0.0195313,-0.00198364,0.0190735,0.0103378
11,1,10.0097,0.000610352,0,-2.42837,0.0550706,-0.0753682,0.0538228,0.0706652,-0.0928413,0.145318,-0.124546,-0.0840963,0.0121689,0.0233841,0.0178528,0.0110245,0.0143051,0.00919342,0.0218964,0.0267029,-9.97986,0.0206375,-0.00450134,0.0156021,0.00518799,0.0193405,-0.00267029,0.0164032,0.00926971
11,2,10.0097,0.00183105,0.000152588,-2.42562,0.0553758,-0.0744527,0.0544332,0.0715807,-0.0931465,0.146539,-0.124851,-0.0819601,0.00980377,0.0224304,0.0175095,0.00804901,0.0163269,0.0110245,0.0244522,0.0252914,-9.97986,0.0184631,-0.00408173,0.0143433,0.00686646,0.0195694,0.000495911,0.0170135,0.00797272
11,3,10.0097,0.00183105,0.000152588,-2.42592,0.0559862,-0.0738423,0.0544332,0.0709703,-0.0922309,0.147149,-0.124546,-0.0819601,0.010643,0.0223541,0.0177765,0.0138092,0.0190735,0.00926971,0.0198746,0.0210571,-9.97986,0.0138092,0.00267029,0.0150299,0.00621796,0.0183868,-0.00110626,0.0120163,0.00923157
11,4,10.0097,0.000305176,0.000305176,-2.42562,0.0559862,-0.073232,0.054128,0.0706652,-0.0903999,0.146539,-0.124546,-0.0810445,0.0106812,0.02388,0.0186157,0.0119019,0.0182724,0.0115967,0.0258636,0.0183487,-9.97986,0.0128174,-0.00202179,0.0123215,0.00480652,0.0167847,-0.00335693,0.0162888,0.00720978
11,5,10.0097,0.000305176,-0.000610352,-2.42623,0.055681,-0.0744527,0.0510762,0.0386217,-0.0971137,0.146539,-0.126377,-0.0831808,0.00629425,0.0209427,0.0132751,0.012207,0.0148392,0.0120544,0.0228882,0.0148392,-9.97986,0.00804901,0.00301361,0.0109482,0.00541687,0.0185013,-0.00541687,0.0139999,0.00629425
11,6,4.76338,0.000610352,-0.00457764,-2.42837,0.0547655,-0.0729268,0.0513814,-0.0132582,-0.09925,0.145624,-0.130344,-0.0831808,0.0124741,0.0221634,0.0154495,0.0104141,0.0141144,0.0105286,0.0204849,0.00873566,-9.97986,0.0130844,-0.00217438,0.0163269,0.0056076,0.0163269,-0.00595093,0.0141144,0.00217438
11,7,-2.82725,0.00152588,-0.00411987,-2.42684,0.0565965,-0.0735371,0.0532125,-0.0160048,-0.0974189,0.147455,-0.130344,-0.0813497,0.00862122,0.0226212,0.0192261,0.00968933,0.0219727,0.00774384,0.0179291,0.0120163,-9.97986,0.0101089,-0.000495911,0.0166321,0.00888824,0.018425,-0.001297,0.0178528,0.00728607
11,8,-9.99003,-0.00213623,-0.00366211,-2.4244,0.0559862,-0.0717061,0.055959,0.00383166,-0.0922309,0.146844,-0.128208,-0.080129,0.0120926,0.0229645,0.0193405,0.00972748,0.0143814,0.00907898,0.0244141,0.0131226,-9.97986,0.00919342,-0.0018692,0.0143814,0.00572205,0.0171661,-0.00541687,0.0165939,0.00717163
11,9,-9.99003,0.000915527,-0.00259399,-2.42409,0.0559862,-0.0726216,0.0562642,0.030382,-0.0913154,0.145929,-0.126682,-0.0813497,0.00598907,0.0230026,0.0180054,0.0110245,0.0173569,0.0141144,0.0238419,0.0129318,-9.97986,0.00915527,-0.0019455,0.0170898,0.00564575,0.00297546,-0.00392914,0.0169373,0.00518799
12,0,-9.99003,-0.000305176,-0.000610352,-2.4244,0.0553758,-0.0744527,0.0556539,0.0499132,-0.0922309,0.146234,-0.127292,-0.0822652,0.0102234,0.02285,0.0196457,0.00423431,0.0157166,0.0100708,0.0252151,0.0128937,-9.97986,0.0138855,0.000762939,0.0183868,0.00778198,-0.00255585,-0.0012207,0.0164413,0.00526428
12,1,-9.99003,0.00274658,0.000152588,-2.4247,0.055681,-0.0744527,0.0553487,0.065172,-0.0913154,0.145624,-0.124546,-0.0825704,0.0107193,0.0216293,0.0172424,0.00900269,0.0119781,0.0110626,0.0214767,0.0156021,-9.97986,0.0162125,0.00125885,0.0218964,0.00965118,0.00141144,-0.00106812,0.0190735,0.00610352
12,2,-9.99003,-0.000610352,0.00152588,-2.42623,0.0562914,-0.0744527,0.0553487,0.099962,-0.0885688,0.144098,-0.124546,-0.0831808,0.0087738,0.0189972,0.0154114,0.0120926,0.0151443,0.0114441,0.0181961,0.014534,-9.97986,0.0107193,0.00160217,0.0109482,0.000991821,0.0138855,-0.00320435,0.017395,0.00484467
12,3,-2.61912,0.000915527,0.00457764,-2.42684,0.0535448,-0.0756734,0.0547383,0.135668,-0.0870429,0.143487,-0.121189,-0.0844015,0.00980377,0.0176239,0.0184631,0.0143814,0.0187683,0.01194,0.0233841,0.0166321,-9.97986,0.0164413,-0.00236511,0.0120926,0.00335693,0.0136948,-0.00534058,0.0147247,0.00579834
12,4,4.42189,0.000610352,0.00473022,-2.42898,0.0532396,-0.0753682,0.0532125,0.152452,-0.0885688,0.143792,-0.121799,-0.0834859,0.0109863,0.0204468,0.0180817,0.0109482,0.0122833,0.00961304,0.0252533,0.0181961,-9.97986,0.0177383,-0.00366211,0.0199127,0.0038147,0.0157547,-0.00225067,0.0172806,0.0038147
12,5,10.0097,0.00213623,0.00457764,-2.42837,0.0538499,-0.0759786,0.0535176,0.152757,-0.0897895,0.145013,-0.121189,-0.0862325,0.00999451,0.0241852,0.0218964,0.0144577,0.0136948,0.0113678,0.0278854,0.0162888,-9.97986,0.0175476,0.00263214,0.0146103,0.00514984,0.0129318,0.00198364,0.0148773,0.0043869
12,6,10.0097,0.000610352,0.00137329,-2.43142,0.0523241,-0.0756734,0.0495503,0.0975206,-0.0980293,0.143487,-0.125766,-0.0898946,0.0102234,0.0214005,0.019989,0.0125885,0.0166702,0.00976563,0.0272751,0.0194168,-9.97986,0.0203705,0.0019455,0.0180054,0.00732422,0.0187302,-0.00133514,0.0158691,0.00583649
12,7,10.0097,-0.00152588,0.000610352,-2.4305,0.0538499,-0.0762837,0.0504659,0.080736,-0.0968086,0.143487,-0.126682,-0.0883688,0.0118637,0.0154877,0.0227737,0.00991821,0.0154495,0.00553131,0.0251389,0.0209427,-9.97986,0.016098,0,0.0115967,0.00652313,0.0162506,0.00202179,0.0160217,0.00270844
12,8,10.0097,0.000305176,-0.000152588,-2.42867,0.0547655,-0.0744527,0.0513814,0.0752428,-0.095893,0.143487,-0.127292,-0.0868429,0.0105286,0.0209427,0.0211716,0.0122833,0.0156403,0.0136185,0.021553,0.0263596,-9.97986,0.0235367,0.00217438,0.0170135,0.00740051,0.0185013,0.000762939,0.0164795,0.00648499
12,9,10.0097,-0.000610352,-0.000305176,-2.42714,0.0529344,-0.075063,0.0526021,0.0718859,-0.0946723,0.145013,-0.126072,-0.0862325,0.0112152,0.0204468,0.0200272,0.0147247,0.0145721,0.0105286,0.0218201,0.0273895,-9.97986,0.0203323,0.00537872,0.0120544,0.0025177,0.0209045,-0.00598907,0.0162506,0.00648499
13,0,10.0097,-0.000305176,-0.000152588,-2.42806,0.0565965,-0.0759786,0.0522969,0.0709703,-0.094062,0.145013,-0.126377,-0.085317,0.0162506,0.0188065,0.0274658,0.0164413,0.0205994,0.0164032,0.0236511,0.0331116,-9.97986,0.0299835,0.0031662,0.0192261,0.00595093,0.0247955,0.00293732,0.0200653,0.0119781
13,1,10.0097,0,-0.000305176,-2.42806,0.0553758,-0.0747579,0.0526021,0.0712755,-0.0937568,0.144098,-0.125766,-0.0834859,0.00736237,0.0169754,0.0139999,0.00946045,0.00682831,0.00759125,0.0164413,0.0249481,-9.97986,0.0166321,-0.00724792,0.0102997,-0.000228882,0.0133896,-0.00656128,0.01194,0.00492096
13,2,10.0097,0.000610352,0.000152588,-2.42592,0.055681,-0.0735371,0.0538228,0.0718859,-0.0928413,0.146539,-0.124851,-0.0831808,0.0140381,0.0237274,0.0217438,0.0163651,0.017662,0.0102615,0.0241852,0.0252151,-9.97986,0.0223923,0.000534058,0.0160599,0.00343323,0.0206757,-0.00102997,0.0149155,0.0104523
13,3,10.0097,0.000305176,0.000610352,-2.42562,0.0562914,-0.0741475,0.0538228,0.0709703,-0.0919257,0.146234,-0.124546,-0.0813497,0.0113678,0.0162125,0.018692,0.00801086,0.0111389,0.0130844,0.0255203,0.0192261,-9.97986,0.0187683,-0.00236511,0.013237,0.00854492,0.0186539,-0.00183105,0.0175858,0.00377655
13,4,10.0097,-0.000610352,0.000457764,-2.42531,0.0565965,-0.0741475,0.0547383,0.0728014,-0.0919257,0.14776,-0.12302,-0.0816549,0.0111771,0.0214005,0.0168228,0.0087738,0.0152969,0.0102234,0.0217056,0.0190735,-9.97986,0.0153732,-0.00644684,0.00984192,0.00209808,0.0181961,0.000267029,0.0141907,0.00732422
13,5,10.0097,0.000305176,-0.0012207,-2.42776,0.0565965,-0.075063,0.0519917,0.0364855,-0.0961982,0.147149,-0.128208,-0.0834859,0.0133133,0.0244904,0.0164032,0.0138092,0.0179291,0.0118637,0.0266266,0.0146484,-9.97986,0.0120163,-0.000495911,0.0125122,0.00442505,0.0157547,-0.00377655,0.0113678,0.00602722
13,6,4.72402,-0.000610352,-0.00411987,-2.42714,0.055681,-0.0747579,0.0516866,-0.0153944,-0.100165,0.146844,-0.130954,-0.0834859,0.00839233,0.021553,0.0170517,0.0101471,0.016861,0.0107956,0.0219727,0.00858307,-9.97986,0.00907898,-0.000762939,0.0123215,0.00389099,0.0136185,-0.0043869,0.0151062,0.00694275
13,7,-2.86265,0.000305176,-0.00366211,-2.42562,0.055681,-0.0744527,0.054128,-0.0172255,-0.0977241,0.146539,-0.129429,-0.0825704,0.0112152,0.0200272,0.0194931,0.0110626,0.0190353,0.01194,0.0212479,0.0146866,-9.97986,0.00537872,-0.00213623,0.0172806,0.00793457,0.0160599,-0.00286102,0.0170898,0.00614166
13,8,-9.99003,0.00244141,-0.0038147,-2.42531,0.0559862,-0.0741475,0.0553487,0.00444201,-0.0928413,0.147149,-0.127598,-0.080129,0.0126266,0.0247192,0.0217056,0.0119781,0.0161743,0.00804901,0.0203323,0.0102997,-9.97986,0.00965118,-0.0031662,0.0140762,0.00751495,0.0136566,-0.00465393,0.0166702,0.00587463
13,9,-9.99003,0,-0.00244141,-2.42409,0.0565965,-0.0744527,0.0556539,0.0285509,-0.0916206,0.146234,-0.126377,-0.0807394,0.00888824,0.019989,0.0210571,0.00797272,0.0144196,0.00988007,0.021553,0.010643,-9.97986,0.0104904,-0.00240326,0.0158691,0.00801086,0.00648499,-0.00106812,0.0201416,0.00450134
14,0,-9.99003,0.00183105,-0.00106812,-2.42592,0.0559862,-0.0747579,0.0550435,0.0505236,-0.0913154,0.145013,-0.125766,-0.0810445,0.00804901,0.0191498,0.0190735,0.00564575,0.0165939,0.0110245,0.0225449,0.0149536,-9.97986,0.0130081,-0.00213623,0.013237,0.00499725,-0.00843048,-0.00499725,0.0156784,0.00335693
14,1,-9.99003,0.000305176,-0.000152588,-2.42684,0.0547655,-0.0741475,0.054128,0.0636461,-0.0910102,0.145318,-0.126377,-0.0819601,0.0128555,0.0239182,0.0188446,0.00774384,0.0186157,0.00881195,0.0237656,0.0130463,-9.97986,0.0151062,-0.001297,0.0158691,0.00484467,3.8147e-005,-0.00377655,0.0170135,0.00736237
14,2,-9.99003,0.00183105,0.00183105,-2.42531,0.055681,-0.0747579,0.0556539,0.103014,-0.0879585,0.145624,-0.123935,-0.0822652,0.0102234,0.0236511,0.0221252,0.0120926,0.0181961,0.0139236,0.0216675,0.015831,-9.97986,0.0127029,-0.00289917,0.0201416,0.00473022,0.0206757,-0.00587463,0.0136185,0.00591278
14,3,-2.6295,-0.0012207,0.00427246,-2.42837,0.0538499,-0.0753682,0.0547383,0.135668,-0.0882636,0.143792,-0.122104,-0.0847066,0.0127411,0.0214386,0.0178909,0.0128555,0.0211334,0.0102997,0.023613,0.0178528,-9.97986,0.0159454,-0.000953674,0.0119019,0.00354767,0.015831,-0.00427246,0.0176239,0.00663757
14,4,4.3456,-0.000610352,0.00442505,-2.42776,0.0541551,-0.0768941,0.0535176,0.153673,-0.0882636,0.142267,-0.120884,-0.085317,0.0102615,0.0217438,0.021553,0.0104523,0.0158691,0.00896454,0.0177002,0.0149918,-9.97986,0.013504,-0.00267029,0.0127792,0.00598907,0.0172043,-0.00289917,0.0150299,0.00598907
14,5,10.0097,0.0012207,0.00457764,-2.42837,0.0535448,-0.0762837,0.0535176,0.153673,-0.0910102,0.143487,-0.121189,-0.085317,0.00938416,0.0233841,0.0210953,0.0110245,0.0212097,0.0112152,0.0220871,0.0186157,-9.97986,0.0174713,0.0025177,0.0173569,0.00873566,0.018692,-0.00610352,0.0180054,0.00770569
14,6,10.0097,0.000305176,0.00152588,-2.43111,0.0541551,-0.0762837,0.0495503,0.099962,-0.0974189,0.142572,-0.126377,-0.0892843,0.0112534,0.0247955,0.0148773,0.0108719,0.0210953,0.00995636,0.0215912,0.0197983,-9.97986,0.0165939,-0.000991821,0.0130463,0.0044632,0.0146103,-0.00511169,0.0167465,0.00629425
14,7,10.0097,0.000305176,0.000915527,-2.42928,0.0532396,-0.0768941,0.0504659,0.0828722,-0.0971137,0.143487,-0.126682,-0.0880636,0.010376,0.0241089,0.0232697,0.00980377,0.0179672,0.0108719,0.0224686,0.0241089,-9.97986,0.0152588,-0.00263214,0.0157166,0.00862122,0.0149536,-0.001297,0.015831,0.0063324
14,8,10.0097,-0.000915527,-0.000305176,-2.42989,0.0547655,-0.0759786,0.0513814,0.0746324,-0.095893,0.143487,-0.126072,-0.0871481,0.0157547,0.0254822,0.0233459,0.0139236,0.0192261,0.0117111,0.0244141,0.0268555,-9.97986,0.021019,-0.00656128,0.0154114,0.00591278,0.0189972,-0.00377655,0.0185394,0.00629425
14,9,10.0097,0.00244141,0,-2.42714,0.0535448,-0.075063,0.0532125,0.0712755,-0.0946723,0.145013,-0.126072,-0.0859274,0.0153351,0.025444,0.0188065,0.0165558,0.0219345,0.0111389,0.0203705,0.0259018,-9.97986,0.0166321,-0.00461578,0.0130463,0.00431061,0.0189972,-0.00362396,0.0159454,0.00984192
15,0,10.0097,0,0.000152588,-2.42684,0.0544603,-0.0741475,0.0538228,0.072191,-0.0928413,0.144708,-0.126072,-0.085317,0.0121689,0.0249481,0.0203323,0.0104523,0.015831,0.0104141,0.021553,0.0261688,-9.97986,0.0208664,-0.0030899,0.0127411,0.00896454,0.0220871,-0.00377655,0.0177765,0.00831604
15,1,10.0097,-0.000915527,0.000610352,-2.42776,0.0547655,-0.0759786,0.0532125,0.0697496,-0.0943672,0.145929,-0.125461,-0.0840963,0.010643,0.0264359,0.0182724,0.0152969,0.0165558,0.00965118,0.022583,0.0259018,-9.97986,0.0209427,-0.00144958,0.00972748,0.00160217,0.0198364,-0.00431061,0.0172043,0.00713348
15,2,10.0097,-0.000610352,0.000457764,-2.42562,0.0553758,-0.0729268,0.0544332,0.0709703,-0.0931465,0.145318,-0.125766,-0.0834859,0.0141525,0.0233841,0.0208282,0.00991821,0.015564,0.00881195,0.0201797,0.0221252,-9.97986,0.0196075,-0.00213623,0.0156403,0.00736237,0.0232697,-0.00846863,0.0195313,0.00843048
15,3,10.0097,0.00152588,0.000152588,-2.42684,0.0553758,-0.0741475,0.0547383,0.072191,-0.090705,0.146539,-0.125156,-0.0810445,0.0125122,0.0254822,0.0205994,0.0120163,0.0221634,0.0106049,0.0204849,0.0218964,-9.97986,0.0201416,-0.00759125,0.0137711,0.00804901,0.0144958,-0.00358582,0.0185776,0.00759125
15,4,10.0097,0.0012207,-0.000152588,-2.42379,0.0572069,-0.0735371,0.054128,0.072191,-0.0925361,0.146234,-0.12363,-0.0810445,0.00991821,0.025444,0.016861,0.010376,0.0222015,0.00835419,0.0183105,0.0180817,-9.97986,0.0143433,-0.00358582,0.0147629,0.00694275,0.017662,-0.00110626,0.0156021,0.00610352
15,5,10.0097,-0.00183105,-0.000762939,-2.42684,0.055681,-0.0738423,0.0532125,0.0377062,-0.0955879,0.144708,-0.127903,-0.0834859,0.00591278,0.0216293,0.0205231,0.0130844,0.0217438,0.00972748,0.0201035,0.0157166,-9.97986,0.0128555,-0.000343323,0.0148392,0.00492096,0.0163651,-0.00488281,0.0145721,0.00293732
15,6,4.9645,0.0012207,-0.00320435,-2.42867,0.0565965,-0.0738423,0.0516866,-0.0138685,-0.0995551,0.147455,-0.130039,-0.0828756,0.0121689,0.026207,0.0154114,0.0132751,0.0202179,0.0107574,0.0211334,0.0114441,-9.97986,0.013504,-0.00038147,0.0116348,0.00732422,0.014267,-0.00270844,0.0195313,0.00614166
15,7,-2.71647,0.000305176,-0.00442505,-2.42531,0.0572069,-0.0744527,0.0532125,-0.0169203,-0.0965034,0.147455,-0.129123,-0.0816549,0.00339508,0.0250626,0.0141907,0.0107193,0.0193787,0.0056076,0.018959,0.00846863,-9.97986,0.00671387,-0.00747681,0.0113297,0.00396729,0.0107193,-0.00576019,0.0147247,0.00362396
15,8,-9.99003,-0.0012207,-0.00549316,-2.4244,0.0562914,-0.073232,0.0550435,0.00169543,-0.0928413,0.14776,-0.127903,-0.0804342,0.01091,0.0279236,0.0190735,0.0141144,0.0221252,0.0123215,0.0217056,0.0108337,-9.97986,0.0104523,-0.00141144,0.0146484,0.00236511,0.0143051,-0.00114441,0.0121307,0.0075531
15,9,-9.99003,0.00183105,-0.00213623,-2.4244,0.0559862,-0.0741475,0.0565694,0.0294664,-0.0931465,0.145318,-0.127598,-0.0810445,0.0128555,0.0234604,0.0131226,0.0135803,0.015564,0.00961304,0.0174332,0.0141525,-9.97986,0.0110626,7.62939e-005,0.0164032,0.0069809,0.0012207,-0.00511169,0.015564,0.00514984
16,0,-9.99003,0.000915527,-0.000610352,-2.42531,0.0547655,-0.0747579,0.0556539,0.0514391,-0.0910102,0.145929,-0.126377,-0.0825704,0.0100708,0.0265884,0.019455,0.0125504,0.0168228,0.00980377,0.0182343,0.0113678,-9.97986,0.00965118,-0.00221252,0.0136948,0.00675201,-0.00270844,-0.00293732,0.0185013,0.00350952
16,1,-9.99003,-0.000915527,-0.000152588,-2.42592,0.0550706,-0.0756734,0.0556539,0.0645616,-0.0913154,0.145929,-0.125766,-0.0825704,0.00774384,0.0210953,0.0191116,0.0136185,0.0187302,0.012207,0.0193405,0.0151825,-9.97986,0.0104141,-0.0025177,0.0125504,0.00778198,-0.000648499,-0.00331879,0.0172043,-0.00152588
16,2,-9.99003,0.00152588,0.00274658,-2.42562,0.0553758,-0.0747579,0.0568746,0.103624,-0.0882636,0.144708,-0.123935,-0.0825704,0.00900269,0.0205994,0.0177765,0.00873566,0.0167084,0.0082016,0.0187302,0.0160599,-9.97986,0.013237,-0.00198364,0.0124741,0.00736237,0.0130844,-0.00335693,0.0150299,0.00225067
16,3,-2.63164,-0.000610352,0.00473022,-2.42776,0.0538499,-0.0762837,0.0547383,0.137804,-0.0894843,0.146234,-0.123325,-0.0847066,0.0111389,0.0260925,0.0209808,0.00991821,0.0167465,0.00801086,0.0161743,0.0205231,-9.97986,0.0104523,-0.00556946,0.0152206,0.0120163,0.0159454,-0.00488281,0.0151062,0.00629425
16,4,4.3691,0.000915527,0.00442505,-2.42714,0.0541551,-0.0756734,0.0544332,0.152757,-0.0885688,0.143182,-0.121799,-0.0850118,0.0115967,0.0255203,0.0154114,0.0130844,0.0195694,0.0115967,0.0179672,0.0169373,-9.97986,0.0152969,0.00156403,0.0209045,0.0075531,0.0170135,-0.00148773,0.0151443,0.00427246
16,5,10.0097,-0.000915527,0.00473022,-2.42837,0.0526292,-0.0747579,0.0532125,0.153368,-0.0903999,0.143182,-0.121494,-0.085317,0.0143051,0.0243378,0.0190735,0.0101089,0.0173187,0.010376,0.0185394,0.0154495,-9.97986,0.0162125,-0.00225067,0.0159073,0.00797272,0.0163269,-0.000572205,0.0168228,0.00297546
16,6,10.0097,0.00152588,0.0012207,-2.43172,0.0529344,-0.0768941,0.0498555,0.0987413,-0.0986396,0.141351,-0.126072,-0.0889791,0.0136948,0.0270081,0.0226212,0.0121307,0.0217819,0.0111008,0.0205612,0.0174332,-9.97986,0.0161743,-0.000839233,0.0161362,0.00637054,0.0174713,-0.000419617,0.0177383,0.00434875
16,7,10.0097,0.0012207,0.000305176,-2.43081,0.0544603,-0.0759786,0.0495503,0.0816515,-0.0965034,0.143487,-0.127598,-0.0883688,0.0135422,0.0276184,0.0219345,0.0127792,0.0183868,0.00671387,0.0209427,0.0201797,-9.97986,0.0200272,-0.00232697,0.0130081,0.00679016,0.0188065,-0.00495911,0.016861,0.00980377
16,8,10.0097,0.000610352,0,-2.42867,0.0541551,-0.075063,0.0519917,0.075548,-0.0952827,0.143487,-0.127292,-0.0868429,0.0106812,0.026474,0.0235367,0.0125885,0.0205994,0.0103378,0.0233459,0.0274658,-9.97986,0.0187683,-0.000305176,0.0158691,0.0031662,0.0202942,-0.000762939,0.0167465,0.00480652
16,9,10.0097,0.000610352,0.000305176,-2.42745,0.0535448,-0.0756734,0.0535176,0.0709703,-0.094062,0.144098,-0.126072,-0.085317,0.0115967,0.0258636,0.0189972,0.0101471,0.0167465,0.00930786,0.0221252,0.0270462,-9.97986,0.0195313,0.00545502,0.01194,0.00720978,0.0175858,0.000495911,0.0118637,0.00679016
17,0,10.0097,0.000610352,0.000610352,-2.42745,0.0544603,-0.0747579,0.0532125,0.0706652,-0.0931465,0.143792,-0.126072,-0.0844015,0.0126266,0.0243759,0.018158,0.00961304,0.0187302,0.00591278,0.02285,0.026741,-9.97986,0.0212479,-0.000801086,0.0108337,0.00659943,0.0178146,-0.00263214,0.0128937,0.00518799
17,1,10.0097,0.000305176,-0.000152588,-2.42776,0.0553758,-0.0747579,0.0535176,0.0706652,-0.0931465,0.145013,-0.125766,-0.0840963,0.0151825,0.0223541,0.0218582,0.0124741,0.0211716,0.0075531,0.0289536,0.0246048,-9.97986,0.0249863,-0.00164032,0.0151443,0.00537872,0.0205231,-0.000534058,0.0149536,0.0069046
17,2,10.0097,-0.000915527,0.000610352,-2.42531,0.055681,-0.0744527,0.0538228,0.0712755,-0.0922309,0.146539,-0.125156,-0.0831808,0.0127029,0.0256729,0.0180435,0.0123215,0.0233078,0.00843048,0.0267029,0.0215912,-9.97986,0.016861,-0.00358582,0.0121689,0.00770569,0.0182343,0.000419617,0.0100327,0.00816345
17,3,10.0097,0.000915527,0.000457764,-2.42653,0.0562914,-0.073232,0.0532125,0.0724962,-0.0913154,0.145929,-0.124241,-0.0816549,0.0105667,0.0234985,0.0144196,0.0101089,0.0181961,0.00801086,0.0299835,0.0247192,-9.97986,0.0164795,-0.00320435,0.0144196,0.00873566,0.0176239,-0.00347137,0.0162506,0.00667572
17,4,10.0097,0.000305176,0.000305176,-2.4247,0.0569017,-0.073232,0.0550435,0.0706652,-0.0919257,0.146844,-0.125156,-0.0810445,0.0106812,0.0247192,0.0198364,0.0115967,0.0204086,0.0120163,0.0291061,0.0191879,-9.97986,0.0178909,-0.000152588,0.0175476,0.0115967,0.0201416,-3.8147e-005,0.0141525,0.00797272
17,5,10.0097,-0.00152588,-0.0012207,-2.42776,0.0550706,-0.0741475,0.0532125,0.0364855,-0.0965034,0.145929,-0.127292,-0.0828756,0.00946045,0.019455,0.0159454,0.0110245,0.0198364,0.0075531,0.0244904,0.0147247,-9.97986,0.0131226,-0.00133514,0.0141907,0.00988007,0.0143814,-0.00339508,0.0143433,0.00492096
17,6,4.85158,-0.000305176,-0.00442505,-2.42684,0.0565965,-0.075063,0.0522969,-0.0147841,-0.102302,0.145929,-0.130954,-0.0840963,0.0109482,0.0229263,0.0187683,0.0129318,0.0186157,0.0133514,0.0231552,0.00919342,-9.97986,0.00640869,-0.00179291,0.0163651,0.0147247,0.01091,-0.000419617,0.0164795,0.00492096
17,7,-2.85106,0,-0.00350952,-2.42653,0.0569017,-0.0738423,0.0535176,-0.0150892,-0.0983344,0.146539,-0.130954,-0.0822652,0.0104141,0.021019,0.0170898,0.0088501,0.0162125,0.0123596,0.019989,0.0100327,-9.97986,0.00602722,-0.00205994,0.0186539,0.0133896,0.0128937,-0.00164032,0.0143433,0.00289917
17,8,-9.99003,0,-0.00411987,-2.42379,0.0553758,-0.0723164,0.0553487,0.00322131,-0.0934516,0.14776,-0.128208,-0.0807394,0.0129318,0.0195313,0.0203323,0.01297,0.01194,0.0082016,0.0167847,0.00904083,-9.97986,0.0069809,0.00263214,0.0123596,0.0145721,0.014267,0.000343323,0.0136948,0.0069809
17,9,-9.99003,-0.000305176,-0.00274658,-2.42531,0.0559862,-0.0735371,0.0562642,0.0279405,-0.0913154,0.146539,-0.127903,-0.0816549,0.0133133,0.0228882,0.0205612,0.00968933,0.0204468,0.0104523,0.0157928,0.013504,-9.97986,0.00701904,-3.8147e-005,0.0143433,0.0193405,0.000915527,-0.00144958,0.0134659,0.00621796
18,0,-9.99003,0.000305176,-0.000305176,-2.42531,0.0550706,-0.0741475,0.054128,0.0502184,-0.090705,0.145013,-0.126072,-0.0819601,0.00892639,0.0240326,0.0191116,0.0112152,0.0236893,0.00968933,0.0183487,0.01297,-9.97986,0.00774384,-0.00644684,0.0126266,0.0159454,-0.00968933,-0.00125885,0.0114059,0.00473022
18,1,-9.99003,0.0012207,-0.000305176,-2.42592,0.0562914,-0.0738423,0.0556539,0.0645616,-0.0916206,0.145318,-0.125156,-0.0816549,0.0134277,0.0265121,0.0204468,0.0127411,0.0211716,0.00717163,0.0175095,0.0141907,-9.97986,0.0139236,0.00152588,0.0133133,0.0123596,-0.00591278,-0.00190735,0.0132751,0.00480652
18,2,-9.99003,0.000305176,0.00152588,-2.42684,0.0547655,-0.0738423,0.0556539,0.0959947,-0.088874,0.146539,-0.12363,-0.0834859,0.00965118,0.0204086,0.0168991,0.00984192,0.0177383,0.00938416,0.0163269,0.0134277,-9.97986,0.0143051,-0.00209808,0.0161743,0.0094986,0.0137711,-0.00270844,0.0160599,0.00705719
18,3,-2.81444,0.000305176,0.0038147,-2.42653,0.0529344,-0.0765889,0.0544332,0.134752,-0.0885688,0.143182,-0.12302,-0.0847066,0.00995636,0.0217438,0.0198746,0.00602722,0.0161743,0.0107574,0.0152588,0.0137329,-9.97986,0.0150299,-0.000152588,0.0128555,0.0031662,0.0144196,-0.00293732,0.0143433,0.00621796
18,4,4.25954,0.0012207,0.00457764,-2.42867,0.0541551,-0.0753682,0.0532125,0.150926,-0.0891792,0.143792,-0.121189,-0.0859274,0.0117493,0.0229645,0.0180435,0.0100708,0.0196457,0.00816345,0.0117874,0.0167465,-9.97986,0.0153351,-0.00228882,0.0154495,0.00137329,0.0169373,-0.00362396,0.0159454,0.00522614
18,5,10.0097,-0.00183105,0.00427246,-2.42928,0.0529344,-0.0753682,0.0526021,0.155504,-0.088874,0.143182,-0.121189,-0.085317,0.0136566,0.0197983,0.021019,0.00671387,0.0221634,0.00946045,0.0169373,0.0167084,-9.97986,0.015831,0.000152588,0.0164032,-0.00705719,0.0191116,-0.000724792,0.0161743,0.00785828
18,6,10.0097,-0.00213623,0.00137329,-2.43081,0.0535448,-0.0762837,0.0492452,0.0990465,-0.0974189,0.142267,-0.126987,-0.0892843,0.0111008,0.0198364,0.0194168,0.00667572,0.0196838,0.0107574,0.0183487,0.0165939,-9.97986,0.0175858,0.00087738,0.0161362,-0.00102997,0.0149536,-0.00133514,0.0105286,0.00656128
18,7,10.0097,0.000305176,0.000610352,-2.42989,0.0532396,-0.0765889,0.0513814,0.0816515,-0.0986396,0.142877,-0.126987,-0.0877584,0.00591278,0.0225449,0.0170898,0.0069809,0.0171661,0.0137711,0.0215149,0.020256,-9.97986,0.017395,0.00110626,0.0152206,-0.0069809,0.014534,-0.00217438,0.0138855,0.00564575
18,8,10.0097,0.000610352,-0.000305176,-2.42745,0.0547655,-0.0753682,0.0526021,0.0758531,-0.0943672,0.143792,-0.126072,-0.0871481,0.0143814,0.0192261,0.0194931,0.0101471,0.0148773,0.0114441,0.0297928,0.0178528,-9.97986,0.0198746,0.000457764,0.0157928,-0.00423431,0.0185013,-0.00385284,0.0185013,0.00900269
18,9,10.0097,-0.000305176,-0.000152588,-2.42837,0.0550706,-0.0753682,0.0538228,0.0731066,-0.0955879,0.144403,-0.126377,-0.0859274,0.0112534,0.0242233,0.0177765,0.010643,0.0192642,0.0127792,0.0269318,0.0265121,-9.97986,0.0193787,-0.00144958,0.0128937,-0.00255585,0.0178146,-0.00324249,0.0154114,0.00988007
19,0,10.0097,-0.000305176,0.000610352,-2.42745,0.0538499,-0.0744527,0.0526021,0.0712755,-0.0946723,0.145624,-0.126682,-0.0844015,0.010643,0.0199127,0.0165558,0.0103378,0.0167465,0.0105286,0.028038,0.0289154,-9.97986,0.0221252,0.000648499,0.0159454,-0.000457764,0.0206375,0.000801086,0.0141907,0.00705719
19,1,10.0097,-0.000915527,0.000152588,-2.42867,0.0541551,-0.0747579,0.054128,0.0697496,-0.0928413,0.145013,-0.126072,-0.0840963,0.00980377,0.0214767,0.0188828,0.010643,0.0186539,0.0101089,0.0317764,0.0281143,-9.97986,0.0218582,0.00038147,0.0160599,0.00789642,0.0159454,-0.00343323,0.0166321,0.0111389
19,2,10.0097,0,0.000457764,-2.42562,0.0553758,-0.0741475,0.0547383,0.0709703,-0.0922309,0.146234,-0.125461,-0.0825704,0.0130463,0.022583,0.0214386,0.00743866,0.0210571,0.00911713,0.0276566,0.0207138,-9.97986,0.0221252,0.00209808,0.0149536,0.00236511,0.0144196,-0.00419617,0.0170898,0.00728607
19,3,10.0097,0.0012207,0,-2.42531,0.0562914,-0.0738423,0.0553487,0.072191,-0.0922309,0.145318,-0.12363,-0.0819601,0.00968933,0.0234222,0.0137711,0.00782013,0.020256,0.00804901,0.0225449,0.0205231,-9.97986,0.0162506,0.00148773,0.0129318,0.00282288,0.0162506,-0.00358582,0.0171661,0.00637054
19,4,10.0097,-0.0012207,0,-2.42562,0.055681,-0.0726216,0.0553487,0.0709703,-0.0928413,0.145624,-0.123935,-0.0813497,0.0114822,0.0249481,0.0139999,0.0101089,0.0174713,0.0100708,0.0221634,0.0172043,-9.97986,0.0167084,0.00259399,0.0130081,0.00850677,0.0187683,-0.000991821,0.0164413,0.00637054
19,5,10.0097,0.00244141,-0.000610352,-2.42684,0.0565965,-0.0744527,0.0522969,0.0383165,-0.0968086,0.145624,-0.126987,-0.0834859,0.0123215,0.0202179,0.0152206,0.01297,0.018425,0.0113297,0.022583,0.0127792,-9.97986,0.0104523,-0.00293732,0.00831604,0.00766754,0.0141907,-0.00175476,0.0137329,0.00545502
19,6,5.05971,0.000610352,-0.00411987,-2.42776,0.0553758,-0.0747579,0.0513814,-0.0160048,-0.100471,0.145318,-0.130344,-0.0837911,0.0105286,0.0239944,0.0172806,0.0114059,0.0170135,0.0161743,0.0194168,0.00362396,-9.97986,0.00736237,0.000190735,0.0125504,0.0094986,0.0140381,-0.00350952,0.0172043,0.00343323
19,7,-2.61729,0.000915527,-0.00442505,-2.42592,0.0559862,-0.0741475,0.0538228,-0.0169203,-0.0974189,0.146234,-0.129734,-0.0819601,0.00812531,0.0231934,0.0143814,0.0117493,0.0122452,0.0110245,0.0180054,0.00736237,-9.97986,0.00785828,-0.000762939,0.0125504,0.00743866,0.0151062,-0.00564575,0.0157928,0.00465393
19,8,-9.99003,0,-0.00427246,-2.4244,0.0569017,-0.0735371,0.055959,0.00230578,-0.0925361,0.147455,-0.128513,-0.0804342,0.0100708,0.0209808,0.0175476,0.0170135,0.017128,0.0130463,0.0204849,0.00652313,-9.97986,0.00965118,-0.000114441,0.0127411,0.00923157,0.0173187,-0.00190735,0.0216293,0.00606537
19,9,-9.99003,0.000915527,-0.00289917,-2.42623,0.0550706,-0.0744527,0.0565694,0.0282457,-0.090705,0.146539,-0.126987,-0.0804342,0.00991821,0.0244522,0.0180817,0.0140381,0.0147247,0.00946045,0.0224686,0.0123215,-9.97986,0.0120544,0.000114441,0.0111389,0.00888824,0.00480652,-0.00377655,0.0220108,0.000114441
20,0,-9.99003,0.0012207,-0.00167847,-2.42531,0.0565965,-0.0744527,0.0556539,0.0499132,-0.090705,0.145013,-0.125766,-0.0813497,0.00930786,0.0201416,0.0178909,0.0114822,0.0134277,0.00999451,0.0299072,0.0172424,-9.97986,0.010643,0.000305176,0.0143814,0.00370026,0.00175476,-0.00396729,0.0145721,0.00450134
20,1,-9.99003,0,-0.000305176,-2.42623,0.055681,-0.0747579,0.0547383,0.0648668,-0.0903999,0.145013,-0.125766,-0.0831808,0.00576019,0.0229263,0.0153732,0.014534,0.0150299,0.0126648,0.0265884,0.0119781,-9.97986,0.0139236,-0.00179291,0.00976563,0.00835419,-0.00362396,-0.00442505,0.0188446,0.00408173
20,2,-9.99003,-0.000915527,0.00183105,-2.42501,0.0544603,-0.0775044,0.0535176,0.0966051,-0.0891792,0.145013,-0.124546,-0.0831808,0.0133896,0.0214386,0.0164795,0.0123596,0.015564,0.0146103,0.0300598,0.0166702,-9.97986,0.0139618,-0.00221252,0.0146484,0.00347137,0.0169754,-7.62939e-005,0.0172424,0.00549316
20,3,-2.73814,-0.000305176,0.00473022,-2.42867,0.0535448,-0.0753682,0.0544332,0.135362,-0.0879585,0.144708,-0.12363,-0.0847066,0.00713348,0.0275421,0.018158,0.0131607,0.0147629,0.0124741,0.0290298,0.0173569,-9.97986,0.016861,0.000457764,0.0130463,0.00389099,0.0178909,-0.0031662,0.0154877,0.00392914
20,4,4.36177,0.00152588,0.00488281,-2.42837,0.0538499,-0.0756734,0.0535176,0.151537,-0.0894843,0.143182,-0.120884,-0.0859274,0.01091,0.0237274,0.0172806,0.0147247,0.0112915,0.0133133,0.0266647,0.0157166,-9.97986,0.0130844,-0.00148773,0.0140381,0.00473022,0.0153351,-0.00400543,0.0196838,0.00522614
20,5,10.0097,0.000305176,0.00457764,-2.42928,0.0541551,-0.0762837,0.0526021,0.155504,-0.0894843,0.144403,-0.121189,-0.0859274,0.011673,0.0217056,0.0164032,0.0107956,0.0175858,0.0106049,0.0253677,0.0181961,-9.97986,0.016861,-0.000991821,0.0133514,0.00354767,0.0206757,-0.00347137,0.0172424,0.00545502
20,6,10.0097,0.000305176,0.00213623,-2.42959,0.0523241,-0.0762837,0.0498555,0.0987413,-0.0983344,0.142267,-0.125766,-0.0886739,0.00915527,0.0259399,0.018959,0.016098,0.0148392,0.00740051,0.0240326,0.0177383,-9.97986,0.0141907,-0.00205994,0.0114441,0.00740051,0.017128,-0.00293732,0.0178528,0.00663757
20,7,10.0097,0.000305176,0.000152588,-2.4302,0.0541551,-0.0759786,0.050771,0.080736,-0.0971137,0.143487,-0.126682,-0.0877584,0.00888824,0.0248718,0.0190353,0.0107574,0.0123596,0.00976563,0.0171661,0.0173187,-9.97986,0.0165939,0.00114441,0.0114822,0.00579834,0.0170135,0.000419617,0.0163269,0.0050354
20,8,10.0097,-0.000915527,0.000152588,-2.42989,0.0553758,-0.075063,0.0510762,0.0743273,-0.095893,0.144403,-0.126682,-0.0874532,0.01297,0.0235367,0.0195313,0.0137329,0.0160599,0.00911713,0.0227356,0.0218582,-9.97986,0.0189209,-0.00423431,0.0117111,0.00133514,0.0167465,-0.00282288,0.0164413,0.00614166
20,9,10.0097,0.00244141,-0.000305176,-2.42867,0.0544603,-0.075063,0.0532125,0.072191,-0.0934516,0.145624,-0.127598,-0.0862325,0.0127792,0.0236893,0.0204468,0.0133896,0.0143433,0.00617981,0.0187683,0.0276566,-9.97986,0.0217438,-0.00480652,0.0204849,0.00450134,0.0210571,-0.00270844,0.0165558,0.00667572
21,0,10.0097,0.000610352,0.000305176,-2.42837,0.0553758,-0.075063,0.0529073,0.0712755,-0.0934516,0.145013,-0.126682,-0.0844015,0.0138092,0.0196838,0.0204468,0.0140762,0.0152206,0.0130844,0.0159454,0.0235367,-9.97986,0.0218201,0.00160217,0.0140762,0.00366211,0.0190353,-0.00236511,0.0123978,0.00682831
21,1,10.0097,0,0.000305176,-2.42714,0.0550706,-0.0753682,0.0532125,0.0700548,-0.0931465,0.144098,-0.125461,-0.0847066,0.00968933,0.0205994,0.0195313,0.0114822,0.0189209,0.00968933,0.020752,0.0323486,-9.97986,0.0234604,0.00236511,0.0132751,0.0043869,0.0211716,-0.0019455,0.0153732,0.00766754
21,2,10.0097,0.000915527,0,-2.42653,0.0575121,-0.0741475,0.0535176,0.07036,-0.0922309,0.147149,-0.126072,-0.0831808,0.0120163,0.0207138,0.0201035,0.014267,0.0198746,0.0114059,0.0175476,0.0249481,-9.97986,0.0204849,-0.00400543,0.0128174,0.00728607,0.0198364,-0.000572205,0.0149155,0.011673
21,3,10.0097,0.00152588,0.000305176,-2.42562,0.0562914,-0.073232,0.0547383,0.0712755,-0.0925361,0.146539,-0.125156,-0.0813497,0.0062561,0.019455,0.0177765,0.0126266,0.0210953,0.0128555,0.0226212,0.0220871,-9.97986,0.018959,-0.000114441,0.0162125,0.00907898,0.0207138,-0.000114441,0.0143433,0.00923157
21,4,10.0097,-0.000305176,-0.000457764,-2.42501,0.0565965,-0.0738423,0.0553487,0.0724962,-0.0922309,0.146234,-0.123935,-0.0816549,0.00629425,0.0198746,0.0221252,0.0160217,0.0157547,0.0119781,0.0256729,0.0201035,-9.97986,0.0143433,-0.00549316,0.0129318,0.0115585,0.015564,-0.00324249,0.0128174,0.00736237
21,5,10.0097,0.000610352,-0.000610352,-2.42745,0.0559862,-0.0741475,0.0522969,0.0364855,-0.0983344,0.145624,-0.127598,-0.0828756,0.00587463,0.0210953,0.0211716,0.0100708,0.016098,0.0104523,0.0209808,0.0101852,-9.97986,0.00984192,-0.00377655,0.0118637,0.00507355,0.0140381,-0.0019455,0.0189972,0.00747681
21,6,5.19307,0.000610352,-0.00274658,-2.42745,0.0569017,-0.0747579,0.0519917,-0.0169203,-0.100165,0.145929,-0.130954,-0.0834859,0.00873566,0.0220871,0.0188828,0.0123215,0.0206757,0.010643,0.0140381,0.0118637,-9.97986,0.0069046,-0.00392914,0.0124359,0.0043869,0.010643,-0.00263214,0.0174332,0.00553131
21,7,-2.60692,-0.000305176,-0.00457764,-2.42714,0.055681,-0.0738423,0.0529073,-0.0160048,-0.0980293,0.145929,-0.130039,-0.0834859,0.0101089,0.0222015,0.0209808,0.0115585,0.0189209,0.00896454,0.0126648,0.00545502,-9.97986,0.00831604,-0.00545502,0.0162888,0.00492096,0.0124741,-0.00335693,0.0165558,0.00801086
21,8,-9.96654,0.000915527,-0.00411987,-2.4247,0.055681,-0.0744527,0.0556539,0.00108508,-0.0931465,0.147455,-0.128818,-0.0798238,0.00598907,0.0222015,0.0241089,0.0107956,0.0140381,0.0114822,0.0170898,0.0115585,-9.97986,0.0107956,-0.00236511,0.0111008,0.00450134,0.0116348,-0.00366211,0.0164413,0.00419617
21,9,-9.99003,0,-0.00289917,-2.42379,0.0578172,-0.0744527,0.055959,0.0273302,-0.0913154,0.145318,-0.127598,-0.0822652,0.00957489,0.0239944,0.0235367,0.0105286,0.0176239,0.00495911,0.0163269,0.0114441,-9.97986,0.00644684,0.00202179,0.0105667,0.00564575,0.000457764,-0.00362396,0.0175476,0.00740051
22,0,-9.99003,0.00152588,-0.00137329,-2.42592,0.0559862,-0.0729268,0.0562642,0.0493029,-0.0910102,0.145929,-0.127903,-0.0825704,0.00911713,0.0268555,0.020752,0.0147247,0.0163269,0.00827789,0.0159073,0.0115967,-9.97986,0.00667572,-0.00354767,0.0114822,0.0056839,-0.00713348,-0.00171661,0.0175476,0.00915527
22,1,-9.99003,0.000915527,-0.000610352,-2.42653,0.0541551,-0.0753682,0.0547383,0.0633409,-0.0913154,0.145624,-0.125766,-0.0825704,0.00823975,0.0242615,0.0192642,0.0104523,0.0180817,0.0144196,0.0159454,0.0154877,-9.97986,0.015831,0.000190735,0.0130844,0.00717163,-0.00293732,-0.0018692,0.0122452,0.00583649
22,2,-9.99003,0.000610352,0.00198364,-2.42531,0.0547655,-0.0753682,0.0544332,0.0959947,-0.0900947,0.144403,-0.123935,-0.0819601,0.0107193,0.0220108,0.016098,0.00995636,0.0159836,0.00801086,0.0154495,0.0159454,-9.97986,0.0134277,-0.00579834,0.0151443,0.00621796,0.0159454,-0.00228882,0.0126266,0.00801086
22,3,-2.70427,0,0.0050354,-2.42745,0.0541551,-0.0768941,0.0550435,0.133837,-0.0885688,0.143792,-0.123325,-0.0840963,0.0108337,0.0247574,0.0207138,0.00904083,0.0164795,0.0056076,0.018158,0.0127411,-9.97986,0.013237,-0.00263214,0.0128937,0.00938416,0.015831,-0.00720978,0.0136566,0.00652313
22,4,4.00563,-0.000305176,0.00473022,-2.42806,0.0532396,-0.0756734,0.0538228,0.153368,-0.0882636,0.143487,-0.120273,-0.0844015,0.0137329,0.0244522,0.015564,0.00968933,0.0196075,0.00587463,0.0133133,0.0184631,-9.97986,0.0149536,-0.00152588,0.00900269,0.00679016,0.0151443,-0.00541687,0.0149536,0.00816345
22,5,10.0097,0.000915527,0.00396729,-2.42837,0.0535448,-0.0753682,0.0532125,0.15642,-0.0894843,0.143792,-0.121494,-0.0850118,0.0103378,0.0244141,0.016098,0.0104904,0.0159836,0.00858307,0.0165558,0.0169754,-9.97986,0.0139999,-0.00419617,0.0130844,0.00617981,0.0146866,-0.00614166,0.0151062,0.00411987
22,6,10.0097,-0.000305176,0.00198364,-2.43142,0.0538499,-0.0768941,0.0492452,0.0993517,-0.0974189,0.142877,-0.126987,-0.0883688,0.0087738,0.0279236,0.0184631,0.0087738,0.0197983,0.0133133,0.0219345,0.0175476,-9.97986,0.0152969,-0.00507355,0.0131607,0.00976563,0.0127792,-0.00545502,0.0154877,0.00709534
22,7,10.0097,0,0,-2.43081,0.0532396,-0.0756734,0.0519917,0.0828722,-0.0983344,0.143182,-0.126072,-0.0883688,0.0122452,0.0232315,0.0196838,0.0142288,0.0226593,0.0123978,0.022049,0.0221634,-9.97986,0.0198746,-0.00312805,0.014534,0.00804901,0.0114059,-0.00297546,0.018692,0.00354767
22,8,10.0097,0.0012207,0.000305176,-2.42928,0.0547655,-0.0759786,0.0513814,0.0752428,-0.094062,0.143792,-0.126987,-0.0868429,0.0143814,0.0249863,0.0210571,0.0131607,0.0177383,0.0104904,0.018959,0.0238037,-9.97986,0.0174713,-0.00160217,0.0149536,0.00900269,0.0146484,-0.000190735,0.0165558,0.00545502
22,9,10.0097,0.00183105,0.000305176,-2.42928,0.0544603,-0.0756734,0.0526021,0.0728014,-0.0949775,0.144708,-0.126987,-0.085317,0.0177383,0.0234222,0.0205612,0.0135422,0.0197601,0.014534,0.0236511,0.0313568,-9.97986,0.0233078,-0.00526428,0.0134659,0.0153351,0.0159836,-0.00183105,0.0173187,0.00919342
23,0,10.0097,0,0,-2.42684,0.0559862,-0.0756734,0.0532125,0.0712755,-0.0934516,0.145318,-0.126682,-0.0850118,0.0141144,0.0262451,0.0195694,0.0100708,0.0195313,0.0132751,0.0227737,0.0271988,-9.97986,0.0170898,-0.00225067,0.0147629,0.0151062,0.0163269,-0.00247955,0.0192642,0.00831604
23,1,10.0097,0.00183105,-0.000305176,-2.42592,0.0559862,-0.0756734,0.0538228,0.0706652,-0.0946723,0.145318,-0.124546,-0.0850118,0.00614166,0.0246811,0.0143051,0.00747681,0.014801,0.00679016,0.016861,0.0241089,-9.97986,0.0196457,-0.00469208,0.0128555,0.0104141,0.0201797,-0.00556946,0.0177002,0.00484467
23,2,10.0097,-0.000305176,0.000305176,-2.42684,0.0559862,-0.0738423,0.0535176,0.0715807,-0.0925361,0.145624,-0.124851,-0.0834859,0.0150681,0.0257874,0.0167465,0.0104904,0.0193024,0.0129318,0.0152206,0.0260162,-9.97986,0.0205612,0.00160217,0.0153732,0.0109482,0.0175476,-0.00133514,0.0157166,0.00671387
23,3,10.0097,0.00274658,0.000305176,-2.42562,0.0553758,-0.0747579,0.0544332,0.0715807,-0.0925361,0.146539,-0.124546,-0.0819601,0.0121307,0.0263596,0.0193787,0.0101471,0.0225449,0.00865936,0.010643,0.0172424,-9.97986,0.0216675,0.000343323,0.0115204,0.00572205,0.0218582,-0.00331879,0.0163269,0.00843048
23,4,10.0097,0.0012207,0.000610352,-2.42501,0.0562914,-0.0741475,0.0553487,0.0715807,-0.0916206,0.147455,-0.124241,-0.0813497,0.010643,0.0254822,0.0174332,0.00980377,0.0156784,0.0104904,0.0140381,0.0178909,-9.97986,0.0136566,-0.000114441,0.0154114,0.00526428,0.0201797,-0.00263214,0.0175858,0.00831604
23,5,10.0097,-0.000610352,-0.00106812,-2.42776,0.0550706,-0.0747579,0.0519917,0.037401,-0.0974189,0.145318,-0.127292,-0.0834859,0.00858307,0.0260544,0.018158,0.0157928,0.0144577,0.00789642,0.0197983,0.0115967,-9.97986,0.0122452,0.00301361,0.01194,0.0082016,0.0166702,-0.00358582,0.0177002,0.00431061
23,6,5.30721,0.00213623,-0.0038147,-2.42684,0.0565965,-0.0747579,0.0504659,-0.0141737,-0.100776,0.146844,-0.130344,-0.0847066,0.0101089,0.0195694,0.0180817,0.0123596,0.0148773,0.00812531,0.0291824,0.0109863,-9.97986,0.00610352,-0.00289917,0.0119781,0.000534058,0.018692,-0.00530243,0.0192261,0.0038147
23,7,-2.42351,0.000915527,-0.00427246,-2.42592,0.0575121,-0.0738423,0.0538228,-0.0163099,-0.0977241,0.146539,-0.130649,-0.0822652,0.00488281,0.02285,0.0188065,0.0127792,0.0163269,0.00881195,0.0362778,0.0133514,-9.97986,0.00659943,0.000572205,0.0140762,0.000457764,0.017662,-0.00747681,0.0188828,0.00629425
23,8,-9.82524,0.000610352,-0.00411987,-2.42501,0.0559862,-0.0729268,0.0553487,0.00169543,-0.0934516,0.14776,-0.128818,-0.0804342,0.0094223,0.0235748,0.0174713,0.00747681,0.0139236,0.0102234,0.038681,0.00953674,-9.97986,0.00862122,-0.00301361,0.0152206,0.00167847,0.016861,-0.00205994,0.016098,0.00511169
23,9,-9.99003,-0.000305176,-0.00259399,-2.4247,0.0562914,-0.0726216,0.0571797,0.0273302,-0.0913154,0.146539,-0.127598,-0.0810445,0.00873566,0.0236511,0.0203705,0.0159454,0.0125122,0.0102997,0.0394821,0.0134277,-9.97986,0.0104523,0.000114441,0.015831,0.00465393,0.00904083,-0.00175476,0.0183487,0.00427246
24,0,-9.99003,-0.000610352,-0.000762939,-2.42531,0.0553758,-0.0738423,0.0553487,0.0508287,-0.090705,0.146844,-0.126682,-0.0816549,0.00991821,0.0273895,0.0159454,0.00785828,0.014534,0.00896454,0.0364304,0.0136185,-9.97986,0.0131226,0.00217438,0.013504,0.0082016,-0.00205994,-0.00171661,0.0157928,0.00347137
24,1,-9.99003,0,0.000152588,-2.42684,0.0550706,-0.0738423,0.0553487,0.0648668,-0.0903999,0.146539,-0.126682,-0.0822652,0.0100708,0.0250244,0.0183105,0.0104141,0.00999451,0.0138092,0.0317001,0.0136566,-9.97986,0.0107193,-0.000152588,0.0150299,0.00610352,0.000610352,-0.00305176,0.0180817,0.00518799
24,2,-9.99003,0,0.00213623,-2.42531,0.0547655,-0.0735371,0.0556539,0.0966051,-0.0879585,0.144098,-0.124241,-0.0816549,0.00808716,0.0250244,0.0180817,0.0088501,0.0151825,0.0104523,0.0299835,0.0180054,-9.97986,0.0123596,0.0037384,0.0172424,0.00919342,0.0115204,-0.00293732,0.0124359,0.0063324
24,3,-2.69511,0,0.00518799,-2.42745,0.0532396,-0.0753682,0.0544332,0.135668,-0.0882636,0.144098,-0.12241,-0.0847066,0.01194,0.0226593,0.020256,0.0094223,0.0183487,0.01194,0.0212097,0.0144196,-9.97986,0.0156403,0.00106812,0.0127411,0.0151825,0.0147247,-0.0031662,0.013237,0.00480652
24,4,4.22536,-0.00183105,0.00549316,-2.42776,0.0541551,-0.075063,0.054128,0.152452,-0.0885688,0.144403,-0.121189,-0.0856222,0.00999451,0.0233078,0.0204849,0.00911713,0.0156403,0.0104904,0.0188828,0.0151825,-9.97986,0.017662,0.00511169,0.014534,0.0200653,0.0165939,-0.00247955,0.0154495,0.00778198
24,5,10.0097,-0.000610352,0.0050354,-2.42867,0.0541551,-0.0753682,0.0532125,0.155504,-0.088874,0.142877,-0.121494,-0.0862325,0.0136566,0.0187302,0.0193405,0.0122833,0.0201416,0.0107574,0.0149155,0.0167847,-9.97986,0.0156784,0.00434875,0.0137329,0.0178909,0.0120926,-0.00511169,0.015564,0.00679016
24,6,10.0097,0.000610352,0.00213623,-2.43203,0.0538499,-0.0771993,0.0492452,0.0987413,-0.0980293,0.141961,-0.125461,-0.0886739,0.00801086,0.0228119,0.0195694,0.0130463,0.0190353,0.0114059,0.0063324,0.0185776,-9.97986,0.0145721,0.00442505,0.0172424,0.0209045,0.0154495,-0.000724792,0.0139999,0.00473022
24,7,10.0097,0.000610352,0,-2.4302,0.0532396,-0.0762837,0.0513814,0.0804308,-0.0971137,0.143182,-0.126987,-0.0895895,0.00976563,0.0244522,0.0169373,0.0140381,0.018959,0.0119781,0.00659943,0.0177765,-9.97986,0.0137711,0.00110626,0.0138092,0.0136948,0.0127411,-0.000572205,0.0162125,0.0082016
24,8,10.0097,0.000610352,-0.000152588,-2.42867,0.0544603,-0.075063,0.0526021,0.0752428,-0.095893,0.144403,-0.126682,-0.0868429,0.0125885,0.0257874,0.0128937,0.0123215,0.0133133,0.0141907,0.0094986,0.0251007,-9.97986,0.0194168,0.00366211,0.0115585,0.0152588,0.0138092,-0.00175476,0.0158691,0.0136566
24,9,10.0097,-0.000305176,-0.000457764,-2.42806,0.0544603,-0.0768941,0.0519917,0.0718859,-0.0943672,0.144708,-0.125766,-0.0862325,0.0126648,0.0215912,0.0174713,0.0145721,0.0185776,0.0117874,0.0131989,0.0300217,-9.97986,0.0218582,0.000648499,0.0157928,0.0142288,0.0154495,-0.0044632,0.0146484,0.00598907
25,0,10.0097,0.00183105,-0.000457764,-2.42928,0.0544603,-0.0747579,0.0519917,0.0709703,-0.0943672,0.145013,-0.126072,-0.0859274,0.0139236,0.0223923,0.0183868,0.0120544,0.0154495,0.0115204,0.0154114,0.028801,-9.97986,0.0259399,0.000610352,0.0164032,0.0124741,0.0173187,-0.00293732,0.0153351,0.00808716
25,1,10.0097,0.00183105,-0.000152588,-2.42623,0.0562914,-0.0744527,0.0532125,0.0712755,-0.0937568,0.145013,-0.126072,-0.0834859,0.0110626,0.0247192,0.0161743,0.0105667,0.0188828,0.0141907,0.0107574,0.0234985,-9.97986,0.0229645,0.000724792,0.0153351,0.0088501,0.0183487,-0.00205994,0.0161362,0.00827789
25,2,10.0097,0.00152588,0.000610352,-2.42653,0.0550706,-0.0741475,0.0538228,0.0712755,-0.0922309,0.145929,-0.125156,-0.0831808,0.0102615,0.0273895,0.021019,0.00907898,0.0188828,0.0101471,0.0030899,0.0257492,-9.97986,0.0220871,-0.00301361,0.0173569,0.00591278,0.0187302,-0.00148773,0.018692,0.0110245
25,3,10.0097,0.000305176,-0.000457764,-2.42714,0.0559862,-0.0735371,0.0553487,0.0718859,-0.0928413,0.145929,-0.12363,-0.0816549,0.0139236,0.0213623,0.0169754,0.00736237,0.0156403,0.00766754,0.000267029,0.0201035,-9.97986,0.0139236,-0.00217438,0.00900269,-0.00518799,0.0141525,-0.00511169,0.0123215,0.00583649
25,4,10.0097,0.000610352,0.000457764,-2.42531,0.0553758,-0.0741475,0.0553487,0.0712755,-0.0925361,0.14837,-0.124546,-0.0819601,0.0144577,0.0260544,0.0234985,0.0125885,0.0224686,0.0175858,0.0118256,0.0215912,-9.97986,0.0205231,0.00202179,0.0191498,0.00350952,0.0175858,0.00087738,0.0164413,0.0133133
25,5,10.0097,0,-0.00137329,-2.42562,0.0559862,-0.0747579,0.0526021,0.0367906,-0.0965034,0.145624,-0.127292,-0.0828756,0.00411987,0.0191116,0.013504,0.00892639,0.0146103,0.00354767,0.00293732,0.00564575,-9.97986,0.0094223,-0.00217438,0.00980377,-0.00427246,0.0102997,-0.00469208,0.0110626,0.00240326
25,6,5.10213,0.00183105,-0.0038147,-2.42745,0.0569017,-0.075063,0.050771,-0.0141737,-0.101081,0.145624,-0.129429,-0.0834859,0.0106049,0.027771,0.0171661,0.0164413,0.0189209,0.0167465,0.0209427,0.0082016,-9.97986,0.00980377,0.00232697,0.0160599,-0.000762939,0.0167465,-0.000991821,0.0160599,0.00564575
25,7,-2.65544,-0.000610352,-0.00457764,-2.42623,0.0559862,-0.0741475,0.0532125,-0.0144789,-0.0977241,0.147149,-0.129734,-0.0819601,0.00881195,0.0257111,0.0177383,0.0101471,0.0196457,0.0120163,0.0146103,0.00892639,-9.97986,0.00843048,0.00156403,0.0180817,-0.0012207,0.0124359,-0.00366211,0.0160599,0.00396729
25,8,-9.99003,0.000305176,-0.0050354,-2.42257,0.0559862,-0.0735371,0.0556539,0.00169543,-0.0931465,0.146234,-0.128818,-0.0810445,0.00480652,0.0229263,0.021286,0.0101852,0.0132751,0.00988007,0.0207901,0.00827789,-9.97986,0.00801086,0.001297,0.0127029,-0.00480652,0.00919342,-0.00339508,0.0136948,0.00305176
25,9,-9.99003,0.0012207,-0.00228882,-2.42501,0.0559862,-0.0741475,0.0547383,0.027025,-0.0910102,0.145929,-0.127292,-0.0807394,0.0123596,0.0231934,0.0188828,0.0100327,0.019722,0.0131989,0.0302505,0.0104523,-9.97986,0.00766754,3.8147e-005,0.0143051,-0.000572205,-0.000305176,-0.00221252,0.0178528,0.00591278
26,0,-9.99003,-0.000305176,-0.00106812,-2.42501,0.0550706,-0.0744527,0.0550435,0.0505236,-0.090705,0.145318,-0.126072,-0.0822652,0.0112152,0.019989,0.0154114,0.013504,0.0126266,0.0140762,0.033493,0.00740051,-9.97986,0.0124741,-0.00244141,0.0166702,-0.00217438,-0.00804901,-0.00183105,0.0190353,0.00537872
26,1,-9.99003,-0.00152588,-0.000610352,-2.42653,0.0550706,-0.0741475,0.055959,0.0642565,-0.0913154,0.147149,-0.126377,-0.0825704,0.0100708,0.02491,0.0162888,0.0150681,0.0114822,0.0111008,0.0326538,0.0122833,-9.97986,0.0133514,0.00038147,0.0118637,-0.00286102,-0.00900269,-0.00350952,0.0133133,0.00354767
26,2,-9.99003,0.000915527,0.00213623,-2.42562,0.0547655,-0.0741475,0.0562642,0.094774,-0.0876533,0.145318,-0.124546,-0.0825704,0.0129318,0.0240707,0.0196075,0.014801,0.0147629,0.012207,0.0311279,0.0121689,-9.97986,0.0133133,0.000495911,0.012207,-0.00782013,0.0146103,-0.00354767,0.0169373,0.00640869
26,3,-3.0601,0,0.00473022,-2.42745,0.0532396,-0.0753682,0.054128,0.132921,-0.0882636,0.143487,-0.123325,-0.0837911,0.0115967,0.0248718,0.0215912,0.0136185,0.0153351,0.00911713,0.0335693,0.0152588,-9.97986,0.0149918,-0.000839233,0.0123596,-0.00118256,0.0151443,-0.0018692,0.0163269,0.0094986
26,4,3.67482,0.000610352,0.00473022,-2.42867,0.0544603,-0.0753682,0.054128,0.153368,-0.0891792,0.144098,-0.121189,-0.0847066,0.0120926,0.0233459,0.0144577,0.0157928,0.0135422,0.013504,0.031929,0.0168991,-9.97986,0.0126648,0.00396729,0.0145721,-0.00282288,0.0148773,-0.00175476,0.0187683,0.00671387
26,5,10.0097,0.0012207,0.00411987,-2.42898,0.0532396,-0.0753682,0.0538228,0.157335,-0.0894843,0.143182,-0.120273,-0.0856222,0.0103378,0.0247192,0.0164032,0.0158691,0.0153351,0.01194,0.0295258,0.0163651,-9.97986,0.0178146,0.00377655,0.0115585,-0.00225067,0.0155258,-0.00442505,0.0210953,0.00492096
26,6,10.0097,0.00152588,0.00152588,-2.4302,0.0535448,-0.0753682,0.050771,0.100878,-0.0989448,0.142267,-0.126682,-0.0895895,0.0110626,0.0248337,0.0162506,0.0136566,0.0165939,0.0138092,0.026741,0.0186539,-9.97986,0.016861,-0.00133514,0.0131226,-0.00236511,0.0229263,-0.00556946,0.0177765,0.00526428
26,7,10.0097,-0.000305176,0.000915527,-2.43081,0.0538499,-0.0775044,0.0513814,0.080736,-0.0971137,0.143487,-0.126682,-0.0877584,0.0106812,0.0279617,0.0156403,0.00915527,0.0133514,0.0075531,0.0266266,0.02388,-9.97986,0.0136566,-0.0018692,0.01194,-0.0025177,0.0224304,-0.00141144,0.0233078,0.00286102
26,8,10.0097,0.000610352,-0.000152588,-2.42898,0.0541551,-0.0753682,0.0519917,0.075548,-0.095893,0.144098,-0.126072,-0.0868429,0.0104904,0.0204849,0.0183868,0.0094986,0.0130081,0.00740051,0.0253296,0.0243378,-9.97986,0.0233459,0.00324249,0.0150299,-0.000419617,0.0243378,-0.000572205,0.021553,0.00450134
26,9,10.0097,0.000915527,-0.000457764,-2.42806,0.0544603,-0.0753682,0.0519917,0.0718859,-0.0952827,0.144708,-0.126682,-0.0850118,0.01091,0.029335,0.0170135,0.0134277,0.0159073,0.0121689,0.0226212,0.0276184,-9.97986,0.0239563,-0.000801086,0.0120926,-0.00362396,0.0195694,-0.00255585,0.0191116,0.00843048
27,0,10.0097,0,0.000152588,-2.42776,0.0553758,-0.0747579,0.0535176,0.0718859,-0.0934516,0.144708,-0.126682,-0.085317,0.0127411,0.0249863,0.0175095,0.012207,0.0140762,0.00869751,0.0250244,0.0315857,-9.97986,0.0234604,-7.62939e-005,0.0164032,-0.0043869,0.0226212,-0.00305176,0.0224304,0.00751495
27,1,10.0097,0.00152588,0,-2.42714,0.0553758,-0.0744527,0.0538228,0.072191,-0.0928413,0.145929,-0.126072,-0.0837911,0.0130463,0.0258636,0.0199509,0.0144958,0.0123215,0.00873566,0.0269699,0.0265503,-9.97986,0.0234222,-0.000953674,0.0175095,-0.00522614,0.0219727,-0.000610352,0.0185776,0.00770569
27,2,10.0097,0.000610352,0,-2.42562,0.0547655,-0.0738423,0.0550435,0.07036,-0.0937568,0.146539,-0.125156,-0.0831808,0.00965118,0.0240326,0.0194931,0.0164795,0.0157547,0.0102234,0.0427628,0.0256729,-9.97986,0.0154114,0.00263214,0.016861,-0.00492096,0.0243759,-0.000343323,0.021553,0.00648499
27,3,10.0097,0,-0.000152588,-2.42501,0.0569017,-0.0729268,0.054128,0.0724962,-0.0916206,0.146234,-0.125156,-0.0816549,0.00713348,0.0188828,0.0204086,0.0141907,0.0189972,0.0123215,0.0502777,0.021286,-9.97986,0.0206757,-0.000991821,0.0112152,-0.00476837,0.0209427,-0.00144958,0.0196075,0.00484467
27,4,10.0097,0.0012207,-0.000152588,-2.42501,0.0559862,-0.0729268,0.054128,0.072191,-0.0919257,0.146844,-0.124241,-0.0813497,0.00873566,0.023613,0.019455,0.0147247,0.0191879,0.0104141,0.0569153,0.0210953,-9.97986,0.0159836,-0.00202179,0.0126648,-0.00499725,0.0151062,-7.62939e-005,0.0218582,0.00499725
27,5,10.0097,-0.000610352,-0.000457764,-2.42684,0.0559862,-0.0741475,0.0519917,0.0377062,-0.0968086,0.145013,-0.128208,-0.0834859,0.00762939,0.0261688,0.0172806,0.0125885,0.015564,0.00831604,0.0511932,0.0173187,-9.97986,0.0127029,-0.00457764,0.0138092,-0.00347137,0.0184631,-0.00362396,0.0204468,0.00793457
27,6,5.30202,-0.00152588,-0.00366211,-2.42776,0.0569017,-0.0744527,0.0519917,-0.0141737,-0.100776,0.146234,-0.130344,-0.0840963,0.00892639,0.0235367,0.0207901,0.0145721,0.0191879,0.00915527,0.0447464,0.0141144,-9.97986,0.010643,-0.00106812,0.0143814,-0.00247955,0.0149155,-0.00244141,0.0194931,0.00537872
27,7,-2.46409,0.000305176,-0.00442505,-2.42684,0.0565965,-0.073232,0.0532125,-0.0160048,-0.0977241,0.146844,-0.130649,-0.0816549,0.00713348,0.0197983,0.018425,0.0103378,0.0131989,0.0100327,0.0383377,0.00717163,-9.97986,0.0125122,-0.000686646,0.0137711,-0.0062561,0.015564,-0.00469208,0.0218201,0.00469208
27,8,-9.99003,0.000610352,-0.00457764,-2.42592,0.0559862,-0.073232,0.0562642,0.000474729,-0.0928413,0.146539,-0.129429,-0.0807394,0.00587463,0.0213242,0.0178909,0.0119019,0.0156403,0.0088501,0.0330353,0.0111771,-9.97986,0.00873566,-0.00663757,0.0162506,-0.00835419,0.0151062,-0.00511169,0.0230408,0.00644684
27,9,-9.99003,-0.000305176,-0.00305176,-2.4247,0.0559862,-0.0744527,0.0553487,0.0258043,-0.0922309,0.145929,-0.127903,-0.0810445,0.0108719,0.0251389,0.0159836,0.014534,0.017128,0.0106812,0.0317383,0.0105667,-9.97986,0.00995636,-0.00125885,0.014534,-0.0101852,0.000495911,-0.0012207,0.0192642,0.0043869
28,0,-9.99003,0.00152588,-0.000762939,-2.42592,0.0553758,-0.0747579,0.0556539,0.049608,-0.090705,0.146844,-0.124851,-0.0813497,0.00972748,0.0256729,0.0135803,0.0117111,0.0213242,0.00862122,0.033989,0.0122452,-9.97986,0.010643,0.00366211,0.0145721,-0.00221252,-0.0139236,-0.00202179,0.0183105,0.00587463
28,1,-9.99003,-0.000305176,-0.000305176,-2.42531,0.0538499,-0.0741475,0.0550435,0.0627306,-0.0916206,0.145013,-0.125461,-0.0822652,0.0107574,0.0196075,0.0224304,0.0133896,0.0179672,0.010643,0.0315094,0.016098,-9.97986,0.00984192,-0.00576019,0.0163651,-0.00427246,-0.00759125,-0.00411987,0.0190353,0.00812531
28,2,-9.99003,0.000915527,0.00137329,-2.42714,0.0553758,-0.0744527,0.0556539,0.0938585,-0.0885688,0.145929,-0.124241,-0.0825704,0.0094223,0.0200653,0.0183105,0.0128555,0.0189209,0.00850677,0.0292206,0.0149536,-9.97986,0.0162888,-0.000724792,0.0179291,0.00110626,0.014801,-0.00205994,0.0197983,0.00576019
28,3,-3.29234,0.000305176,0.00427246,-2.42745,0.0529344,-0.0756734,0.0553487,0.134752,-0.0882636,0.143792,-0.12241,-0.0840963,0.0075531,0.0206375,0.0153732,0.0136566,0.0193405,0.00770569,0.028038,0.0177383,-9.97986,0.0138855,0.000228882,0.0164795,-0.00301361,0.0175858,-0.00522614,0.0180435,0.010643
28,4,3.51369,0,0.00457764,-2.42776,0.0535448,-0.075063,0.0538228,0.153368,-0.0876533,0.143792,-0.121189,-0.0850118,0.0126266,0.0272369,0.0170517,0.0152588,0.0191498,0.0094223,0.0208664,0.0168228,-9.97986,0.0152206,-0.000572205,0.0159836,-0.00263214,0.0166321,-0.000572205,0.0167084,0.01091
28,5,10.0097,0.0012207,0.00442505,-2.42837,0.0541551,-0.0756734,0.0535176,0.156114,-0.0894843,0.143792,-0.121189,-0.0850118,0.0143814,0.0226593,0.0197983,0.0107956,0.0214386,0.0043869,0.0177002,0.0195694,-9.97986,0.0140381,-0.00404358,0.0134659,0.00282288,0.0169373,-0.00469208,0.0152969,0.00961304
28,6,10.0097,0,0.00183105,-2.43081,0.0529344,-0.0762837,0.0492452,0.102403,-0.0983344,0.142572,-0.125766,-0.0895895,0.0132751,0.0237656,0.0178146,0.01091,0.0204849,0.00728607,0.017395,0.0177765,-9.97986,0.0152588,-0.00614166,0.0165176,-0.00209808,0.0123978,-0.00209808,0.0128555,0.00621796
28,7,10.0097,0.00152588,0.000152588,-2.42989,0.0529344,-0.0762837,0.0519917,0.0822618,-0.0965034,0.143182,-0.128208,-0.0874532,0.00968933,0.0242615,0.0199127,0.00888824,0.0209427,0.00679016,0.0106812,0.0190353,-9.97986,0.0170898,-0.00293732,0.0167847,0.00202179,0.0101089,-0.00102997,0.0165939,0.00705719
28,8,10.0097,0,0.000457764,-2.42989,0.0541551,-0.0747579,0.0495503,0.075548,-0.0949775,0.142877,-0.127598,-0.0862325,0.01091,0.0234222,0.020752,0.0122833,0.0211334,0.00873566,0.00667572,0.0230789,-9.97986,0.0208282,-0.00267029,0.0175095,0.00141144,0.0167084,-0.00102997,0.0159073,0.0122452
28,9,10.0097,0.000305176,-0.000152588,-2.42776,0.0535448,-0.0744527,0.0526021,0.0718859,-0.0952827,0.144098,-0.126987,-0.0862325,0.0127792,0.020256,0.0188065,0.0148773,0.0214767,0.00968933,0.00606537,0.0274277,-9.97986,0.0254059,-0.00492096,0.0192642,0.00377655,0.0179672,0.000801086,0.0151825,0.00461578
29,0,10.0097,0.000610352,0.000915527,-2.42684,0.0559862,-0.0756734,0.0526021,0.0712755,-0.094062,0.144708,-0.126682,-0.0844015,0.0154877,0.0257111,0.0195694,0.0102234,0.0202942,0.0121307,0.00434875,0.0276947,-9.97986,0.0214005,-0.000572205,0.0157928,0.00270844,0.016861,-0.00339508,0.0143433,0.00637054
29,1,10.0097,0,0,-2.42714,0.0547655,-0.0756734,0.0526021,0.0706652,-0.0934516,0.146539,-0.126987,-0.0847066,0.0134277,0.0204849,0.0157547,0.0134659,0.0182724,0.0109863,0.0104141,0.0266647,-9.97986,0.0225067,-0.00427246,0.0106812,-0.00125885,0.0126266,-0.000343323,0.0117493,0.00709534
29,2,10.0097,0.0012207,0.000305176,-2.42714,0.0544603,-0.0735371,0.0538228,0.0706652,-0.0937568,0.146234,-0.125766,-0.0831808,0.0130844,0.0240707,0.0182343,0.00644684,0.0199509,0.0111771,0.0127029,0.0239944,-9.97986,0.0211334,-0.00610352,0.0112915,0.00312805,0.0162888,-0.00221252,0.0117874,0.00545502
29,3,10.0097,0.0012207,-0.000305176,-2.4247,0.0559862,-0.075063,0.0538228,0.072191,-0.0919257,0.146234,-0.124546,-0.080129,0.0125122,0.021286,0.018692,0.0152969,0.0196075,0.0117111,0.018692,0.0244904,-9.97986,0.0168991,-0.00732422,0.0127411,-0.00118256,0.0165558,-0.0030899,0.0109482,0.00717163
29,4,10.0097,-0.000610352,0.000152588,-2.42623,0.0559862,-0.0738423,0.054128,0.0718859,-0.0916206,0.147149,-0.12363,-0.0813497,0.00919342,0.0207901,0.0158691,0.0082016,0.0159073,0.00854492,0.0154114,0.0181198,-9.97986,0.0138092,-0.00595093,0.0149155,0.0037384,0.0131989,-0.00156403,0.00709534,0.00770569
29,5,10.0097,0.0012207,-0.000457764,-2.42776,0.0562914,-0.0738423,0.0526021,0.0383165,-0.0980293,0.145624,-0.126377,-0.0825704,0.0113678,0.0233841,0.0106049,0.0133896,0.0165939,0.0130463,0.00972748,0.0139236,-9.97986,0.00907898,-0.00778198,0.0131607,0.00431061,0.0138855,-0.0043869,0.0087738,0.00659943
29,6,5.46681,0.00183105,-0.00305176,-2.42745,0.0559862,-0.0747579,0.0522969,-0.0141737,-0.100776,0.146234,-0.129123,-0.0831808,0.00770569,0.0235367,0.014267,0.0123978,0.0219727,0.00862122,0.0127029,0.0116348,-9.97986,0.00648499,-0.0075531,0.0156021,0.00663757,0.00972748,-0.00347137,0.0121689,0.0109482
29,7,-2.3527,0.000305176,-0.00457764,-2.42501,0.055681,-0.0744527,0.0535176,-0.0150892,-0.0986396,0.147455,-0.129734,-0.0822652,0.0131607,0.0229263,0.0177002,0.0107574,0.0178528,0.0110245,0.0147629,0.0100327,-9.97986,0.01091,-0.00915527,0.0153732,0.00976563,0.0164795,-0.00305176,0.0104141,0.00976563
29,8,-9.84385,0.0012207,-0.00488281,-2.42501,0.0565965,-0.0735371,0.0565694,0.00169543,-0.0928413,0.14837,-0.129429,-0.0807394,0.00991821,0.0257111,0.0164795,0.0113678,0.0183105,0.0111389,0.0205231,0.00907898,-9.97986,0.00919342,-0.00869751,0.0141144,0.00656128,0.0135803,-0.000610352,0.0082016,0.0075531
29,9,-9.99003,0.00183105,-0.00289917,-2.42501,0.0547655,-0.0735371,0.0556539,0.0258043,-0.0919257,0.147149,-0.127598,-0.0810445,0.0119019,0.0223541,0.0201035,0.0140762,0.0175476,0.0116348,0.0177383,0.01194,-9.97986,0.0119019,-0.00591278,0.0154877,0.00732422,0.00102997,-0.00148773,0.0110626,0.00801086
30,0,-9.99003,0.000305176,-0.00152588,-2.4244,0.0562914,-0.0735371,0.0550435,0.0493029,-0.0916206,0.146539,-0.126682,-0.0822652,0.0101089,0.0247955,0.0226212,0.0112534,0.0217056,0.0101852,0.0245285,0.0152206,-9.97986,0.0139618,0.000648499,0.0159454,0.00495911,-0.00762939,-0.000724792,0.0141907,0.0056076
30,1,-9.99003,0.00335693,-0.000305176,-2.42531,0.0553758,-0.0747579,0.0562642,0.0648668,-0.0916206,0.144708,-0.125156,-0.0825704,0.0107574,0.0223541,0.0227737,0.014534,0.0175858,0.00968933,0.0325775,0.0134659,-9.97986,0.016098,-0.0044632,0.0154495,-0.00183105,-0.00377655,-0.00404358,0.0125122,0.00629425
30,2,-9.99003,0.000915527,0.000610352,-2.42684,0.055681,-0.0738423,0.0550435,0.0935533,-0.0885688,0.145318,-0.123935,-0.0828756,0.00831604,0.0217438,0.0208282,0.0116348,0.0221634,0.0114822,0.0336075,0.01297,-9.97986,0.011673,-0.0100708,0.0147629,-0.00469208,0.0153732,-0.00766754,0.00980377,0.0050354
30,3,-3.16142,0.000305176,0.00396729,-2.42806,0.0535448,-0.0759786,0.054128,0.133837,-0.0882636,0.143792,-0.12241,-0.0834859,0.0111008,0.0236893,0.0175476,0.0126648,0.0209045,0.00736237,0.0372696,0.0147629,-9.97986,0.0156021,-0.00217438,0.014534,-0.00988007,0.0123978,-0.00507355,0.0115967,0.00656128
30,4,3.65773,0.000915527,0.0050354,-2.42592,0.0532396,-0.0759786,0.0532125,0.153673,-0.0882636,0.143487,-0.121799,-0.0856222,0.0109863,0.0287247,0.0194931,0.0101852,0.0226212,0.0102234,0.0447083,0.015564,-9.97986,0.0175476,-0.00171661,0.0149536,-0.010376,0.0131989,-0.000991821,0.00892639,0.00854492
30,5,10.0097,-0.00183105,0.00366211,-2.42714,0.0541551,-0.0759786,0.0522969,0.160387,-0.0897895,0.144708,-0.120273,-0.085317,0.0142288,0.0242233,0.0173569,0.0139236,0.0217056,0.0113678,0.0459671,0.0149536,-9.97986,0.0182343,-0.00232697,0.0147247,-0.0108337,0.0173187,-0.00350952,0.015831,0.00839233
30,6,10.0097,0,0.00183105,-2.43111,0.0523241,-0.0768941,0.0501607,0.100878,-0.0980293,0.142572,-0.124851,-0.0886739,0.0128555,0.0256348,0.0211716,0.0130081,0.0191879,0.0124359,0.0381851,0.0183105,-9.97986,0.0177002,0.000686646,0.0140381,-0.00892639,0.0128174,-0.00255585,0.0139999,0.00873566
30,7,10.0097,0.0012207,0.000915527,-2.43081,0.0544603,-0.0765889,0.050771,0.0828722,-0.0971137,0.143792,-0.126682,-0.0883688,0.0131989,0.0251007,0.0185013,0.0107193,0.0193787,0.0118256,0.0270844,0.0183105,-9.97986,0.0156784,-0.000610352,0.0171661,-0.00526428,0.0126648,-0.00263214,0.0139236,0.0062561
30,8,10.0097,-0.00152588,0,-2.42837,0.0544603,-0.0753682,0.0510762,0.0749376,-0.0952827,0.143487,-0.126987,-0.0874532,0.0128174,0.0246048,0.020256,0.0164413,0.0237274,0.012207,0.017128,0.0247192,-9.97986,0.017662,0.000953674,0.0169373,-0.0111008,0.0167465,-0.00610352,0.0183868,0.00534058
30,9,10.0097,0,-0.000152588,-2.42745,0.0559862,-0.075063,0.0522969,0.0718859,-0.0937568,0.144708,-0.126072,-0.0847066,0.0133133,0.0257874,0.0214386,0.0133133,0.0223923,0.0116348,0.0094223,0.0290298,-9.97986,0.0233078,0.00350952,0.0160217,-0.00278473,0.0167847,-0.00213623,0.0129318,0.00610352
31,0,10.0097,0.00274658,0.000457764,-2.42837,0.0550706,-0.0753682,0.0535176,0.0718859,-0.0931465,0.145013,-0.126377,-0.085317,0.0104523,0.021553,0.0178146,0.00740051,0.0200653,0.00957489,0.000915527,0.0301743,-9.97986,0.0218201,0.0044632,0.0139618,0.00358582,0.0154877,-0.00038147,0.0119781,0.0062561
31,1,10.0097,0.00183105,0.000305176,-2.42714,0.0541551,-0.0756734,0.0529073,0.0712755,-0.0931465,0.143792,-0.125766,-0.0844015,0.0100327,0.022316,0.0156784,0.00946045,0.0190735,0.00995636,0.00286102,0.0248337,-9.97986,0.0218201,0.000991821,0.00831604,0.00385284,0.0125885,-0.00133514,0.0148392,0.00915527
31,2,10.0097,0.0012207,0.000305176,-2.42623,0.055681,-0.0744527,0.0544332,0.0718859,-0.0928413,0.146234,-0.125766,-0.0831808,0.0118256,0.024147,0.0196457,0.0120544,0.0127792,0.00892639,0.0025177,0.0245285,-9.97986,0.0197601,0.0019455,0.0107574,0.00782013,0.0122452,-0.00385284,0.0123596,0.00701904
31,3,10.0097,-0.000610352,0.000305176,-2.42501,0.0565965,-0.0738423,0.0544332,0.0712755,-0.0928413,0.146844,-0.124851,-0.0819601,0.0102997,0.025444,0.0175858,0.0110245,0.0185013,0.0139236,0.0050354,0.0209808,-9.97986,0.0149155,-0.000572205,0.0148392,0.00980377,0.0163269,0.000343323,0.0110626,0.00663757
31,4,10.0097,0.000915527,0,-2.42409,0.0562914,-0.0735371,0.0550435,0.072191,-0.0910102,0.146234,-0.124241,-0.0816549,0.00831604,0.0202179,0.0151825,0.0117111,0.017395,0.0105667,0.00873566,0.022316,-9.97986,0.0171661,-0.00270844,0.0111008,0.0110245,0.0104141,-0.000152588,0.0123978,0.00823975
31,5,10.0097,0.000305176,-0.000457764,-2.42623,0.0547655,-0.075063,0.0516866,0.037401,-0.0974189,0.145318,-0.127292,-0.0828756,0.0100327,0.022583,0.0203323,0.0114059,0.0167465,0.0104141,0.0148392,0.0162888,-9.97986,0.0131226,0.000572205,0.0112534,0.0133514,0.00801086,-0.00270844,0.013237,0.00167847
31,6,5.61147,0,-0.00305176,-2.42806,0.0562914,-0.0735371,0.050771,-0.0147841,-0.101081,0.146844,-0.130649,-0.0834859,0.0103378,0.0232697,0.0201035,0.011673,0.0139618,0.0104904,0.0209045,0.0130081,-9.97986,0.0104904,-0.00530243,0.0103378,0.0159454,0.00827789,-0.00549316,0.0134277,0.00442505
31,7,-2.20469,0.000305176,-0.00457764,-2.42562,0.0562914,-0.0738423,0.0526021,-0.0153944,-0.0971137,0.147149,-0.130344,-0.0825704,0.00339508,0.022583,0.0166702,0.00713348,0.0126266,0.00789642,0.0253296,0.0087738,-9.97986,0.0124741,-0.00125885,0.010376,0.016098,0.0123215,-0.00465393,0.0131989,0.00331879
31,8,-9.71934,0.000915527,-0.00396729,-2.42501,0.0572069,-0.0723164,0.0550435,-0.000745974,-0.0937568,0.147149,-0.128208,-0.0813497,0.0111389,0.0214767,0.0172424,0.0075531,0.0133133,0.0142288,0.030098,0.0075531,-9.97986,0.00934601,-0.000534058,0.0138092,0.0188828,0.00720978,-0.00339508,0.0114059,0.000724792
31,9,-9.99003,-0.000610352,-0.00228882,-2.4247,0.0553758,-0.0741475,0.0553487,0.0258043,-0.0910102,0.145624,-0.127292,-0.0807394,0.00915527,0.0211334,0.0180817,0.00972748,0.0162506,0.0130463,0.034256,0.0144577,-9.97986,0.0138474,0.000343323,0.0153351,0.0181961,0.00434875,-0.00240326,0.0131607,0.00152588
32,0,-9.99003,0,-0.000915527,-2.42501,0.0547655,-0.0738423,0.0550435,0.0493029,-0.090705,0.145929,-0.126987,-0.0819601,0.00614166,0.0237274,0.0203705,0.014534,0.0139236,0.0113678,0.0352478,0.0138855,-9.97986,0.0141907,0.00175476,0.0164032,0.0248337,-0.00751495,0.00148773,0.0152969,0.00255585
32,1,-9.99003,0.000915527,0.000152588,-2.42684,0.0547655,-0.0753682,0.0550435,0.0639513,-0.0903999,0.145929,-0.125766,-0.0828756,0.00839233,0.0206375,0.0188065,0.0102997,0.0143051,0.00946045,0.0484467,0.0150299,-9.97986,0.0133896,0.00228882,0.0130463,0.0194931,-0.00339508,-0.000610352,0.0141525,0.00679016
32,2,-9.99003,0.000610352,0.00152588,-2.42684,0.055681,-0.073232,0.0550435,0.092943,-0.0885688,0.145624,-0.124546,-0.0831808,0.00656128,0.0234222,0.0202942,0.00984192,0.0131607,0.00999451,0.0416565,0.0178528,-9.97986,0.0082016,0.000724792,0.0149536,0.0251389,0.0159454,-0.000801086,0.0169373,0.00450134
32,3,-3.02165,0,0.00457764,-2.42714,0.0544603,-0.0762837,0.0538228,0.134752,-0.0894843,0.144403,-0.121799,-0.0850118,0.0107956,0.02285,0.0210571,0.01297,0.0148392,0.012207,0.0275803,0.0184631,-9.97986,0.0136185,-0.00225067,0.0134659,0.0226974,0.0148392,-0.00507355,0.0153732,0.00217438
32,4,3.67208,-0.000305176,0.00457764,-2.42684,0.0550706,-0.0756734,0.0550435,0.153063,-0.0882636,0.144403,-0.122104,-0.0856222,0.0132751,0.0195694,0.0191879,0.00915527,0.014267,0.0128937,0.0164795,0.0149918,-9.97986,0.0150681,-0.00350952,0.0125122,0.0210953,0.0143051,-0.00411987,0.0173187,0.00663757
32,5,10.0097,0.000610352,0.00335693,-2.42837,0.0541551,-0.0756734,0.0532125,0.15703,-0.0897895,0.143792,-0.120578,-0.0865377,0.00965118,0.0252914,0.021286,0.0125504,0.0130844,0.0104904,0.0114822,0.0141144,-9.97986,0.0154495,0.00324249,0.0130463,0.0193787,0.0138092,-0.00293732,0.0184631,0.00431061
32,6,10.0097,0.00152588,0.00152588,-2.43172,0.0529344,-0.0765889,0.050771,0.102098,-0.09925,0.141961,-0.126377,-0.0895895,0.0131989,0.0241089,0.0184631,0.00789642,0.01091,0.0106049,0.00637054,0.0187302,-9.97986,0.0154877,-0.0019455,0.0175476,0.0218964,0.019455,-0.00347137,0.0188446,0.00736237
32,7,10.0097,-0.0012207,0.0012207,-2.4302,0.0538499,-0.0753682,0.0501607,0.0822618,-0.0965034,0.143792,-0.125766,-0.0877584,0.0144196,0.0206375,0.0189209,0.00904083,0.0113297,0.00705719,0.00545502,0.0207901,-9.97986,0.0187302,-0.00175476,0.0167847,0.0135803,0.0173187,-0.00247955,0.017128,0.00598907
32,8,10.0097,0,-0.000915527,-2.42928,0.0547655,-0.0759786,0.0516866,0.0743273,-0.0968086,0.143182,-0.127292,-0.0874532,0.0139618,0.0272369,0.018158,0.012207,0.0157928,0.0101089,0.0044632,0.0226593,-9.97986,0.0178528,0.00156403,0.0164413,0.016861,0.0198746,-0.0025177,0.0180054,0.00900269
32,9,10.0097,0.000610352,-0.000305176,-2.42776,0.0547655,-0.0744527,0.054128,0.0728014,-0.0937568,0.144403,-0.126072,-0.0859274,0.00850677,0.0210571,0.019989,0.0100708,0.0130463,0.0134659,0.0043869,0.031395,-9.97986,0.0201416,-0.00270844,0.0108719,0.012207,0.0231171,-0.00305176,0.0175095,0.00476837
33,0,10.0097,-0.000305176,-0.00106812,-2.42928,0.0535448,-0.0756734,0.0526021,0.0694445,-0.0931465,0.145013,-0.126072,-0.0847066,0.0133514,0.0224304,0.0187302,0.0115585,0.015831,0.0123596,0.0123596,0.026207,-9.97986,0.0278091,0,0.0102234,0.0110245,0.02388,-0.00614166,0.0191116,0.00915527
33,1,10.0097,-0.000915527,0.000610352,-2.42653,0.0550706,-0.0753682,0.0519917,0.0718859,-0.0934516,0.142572,-0.126072,-0.0837911,0.0134659,0.0226212,0.016098,0.00873566,0.0130081,0.00816345,0.0164795,0.0257111,-9.97986,0.0165939,-0.00133514,0.0149536,0.0153351,0.0210953,-0.000572205,0.0202179,0.00831604
33,2,10.0097,0.00183105,0.000457764,-2.42592,0.0553758,-0.0744527,0.0538228,0.0715807,-0.0928413,0.146234,-0.125766,-0.0825704,0.0130844,0.0266266,0.0186539,0.00961304,0.0128174,0.0123978,0.0203705,0.0302887,-9.97986,0.0198746,-0.00278473,0.0156403,0.0201797,0.0211334,-0.00400543,0.0203705,0.00797272
33,3,10.0097,0,-0.000152588,-2.42531,0.0559862,-0.0738423,0.0544332,0.0712755,-0.0916206,0.146234,-0.124241,-0.0819601,0.0082016,0.0198746,0.0199127,0.0102234,0.0110245,0.00846863,0.0252914,0.0211334,-9.97986,0.0188828,-0.000572205,0.0178909,0.0181961,0.0257874,-0.00659943,0.0172806,0.0138092
33,4,10.0097,0.000915527,0.000152588,-2.42531,0.0562914,-0.075063,0.0544332,0.0718859,-0.0913154,0.147455,-0.124241,-0.0813497,0.0101089,0.0203705,0.0191498,0.0130844,0.0125885,0.0118256,0.0349045,0.0189972,-9.97986,0.0131989,-0.00209808,0.015564,0.018425,0.0240707,0.00106812,0.0191116,0.0117874
33,5,10.0097,-0.00213623,-0.000152588,-2.42776,0.0541551,-0.0735371,0.0526021,0.0383165,-0.0961982,0.145624,-0.129123,-0.0828756,0.00865936,0.0279236,0.0199509,0.0133133,0.0127411,0.00587463,0.0376129,0.0153351,-9.97986,0.0129318,0.00125885,0.0151062,0.0230026,0.0245285,-0.00320435,0.0167465,0.00968933
33,6,5.73201,-0.000610352,-0.00335693,-2.42592,0.0562914,-0.0747579,0.0522969,-0.0141737,-0.101386,0.145929,-0.13126,-0.0822652,0.00930786,0.0209808,0.0166321,0.0094986,0.0136185,0.00667572,0.0370407,0.00774384,-9.97986,0.00953674,0.000953674,0.0152206,0.0261307,0.0259399,-0.00442505,0.0146866,0.00827789
33,7,-2.04082,-0.000305176,-0.00366211,-2.42653,0.0569017,-0.0744527,0.054128,-0.0144789,-0.0983344,0.146234,-0.130039,-0.0825704,0.0125122,0.0242615,0.0209808,0.0115204,0.0198364,0.0094223,0.0378036,0.010376,-9.97986,0.0122452,0.00564575,0.0158691,0.0227737,0.019989,-0.00411987,0.0178146,0.00743866
33,8,-9.61436,-0.000305176,-0.00457764,-2.4247,0.055681,-0.0738423,0.0550435,0.000474729,-0.0925361,0.146539,-0.128818,-0.0810445,0.00968933,0.0244904,0.018158,0.0102997,0.0162888,0.00717163,0.0257492,0.00911713,-9.97986,0.0108337,0.0025177,0.0178528,0.0251007,0.018425,-0.00350952,0.0169754,0.00553131
33,9,-9.99003,0.000610352,-0.00213623,-2.4247,0.0572069,-0.075063,0.0556539,0.0254991,-0.0919257,0.145929,-0.127292,-0.0810445,0.0112534,0.0207901,0.0249481,0.0111771,0.0176239,0.00457764,0.0208282,0.0118637,-9.97986,0.0150681,-0.00110626,0.017128,0.0183487,0.0146484,-0.00175476,0.0176239,0.00564575
34,0,-9.99003,-0.000915527,-0.000915527,-2.42562,0.0550706,-0.0741475,0.0556539,0.0483873,-0.0910102,0.144403,-0.126377,-0.0819601,0.0106812,0.0183105,0.0216675,0.00785828,0.0174713,0.00522614,0.0205231,0.0107574,-9.97986,0.0104523,-0.000839233,0.0159454,0.0204468,0.00335693,-0.00225067,0.0156403,0.00526428
34,1,-9.99003,-0.000610352,0.000152588,-2.42592,0.0553758,-0.0744527,0.0565694,0.0639513,-0.0925361,0.145624,-0.125461,-0.0825704,0.0112152,0.0223923,0.0171661,0.0118256,0.0214005,0.00793457,0.0176239,0.0165558,-9.97986,0.0138474,-0.000114441,0.0172424,0.02491,0.00728607,0.0025177,0.0138092,0.00915527
34,2,-9.99003,0.000305176,0.00152588,-2.42653,0.0544603,-0.075063,0.0553487,0.0932482,-0.0894843,0.145318,-0.124241,-0.0831808,0.0143051,0.0203705,0.0187302,0.0094223,0.0166702,0.00839233,0.0169754,0.0149918,-9.97986,0.013237,0.000724792,0.0160599,0.02491,0.0210953,-0.00190735,0.0154495,0.00423431
34,3,-3.14128,-0.000610352,0.00457764,-2.42776,0.0538499,-0.0753682,0.0547383,0.134752,-0.088874,0.143792,-0.121799,-0.0840963,0.0151825,0.0212097,0.019989,0.00965118,0.0183868,0.0109482,0.0192261,0.0178146,-9.97986,0.0126648,0.0038147,0.0147629,0.0201035,0.0169754,-0.00278473,0.0163269,0.00511169
34,4,3.61012,0.0012207,0.00457764,-2.42776,0.0529344,-0.0756734,0.0538228,0.154283,-0.0882636,0.143792,-0.120884,-0.0847066,0.00934601,0.0218964,0.0190353,0.00953674,0.0174332,0.0130463,0.022049,0.0176239,-9.97986,0.0148773,0.000343323,0.0123978,0.0294876,0.015564,-0.00038147,0.0173187,0.00701904
34,5,10.0097,0,0.00473022,-2.42776,0.0538499,-0.0765889,0.0550435,0.157335,-0.0894843,0.144098,-0.121494,-0.085317,0.00946045,0.026474,0.0188065,0.00762939,0.0203323,0.0106812,0.0230789,0.019455,-9.97986,0.017128,-0.000305176,0.0123596,0.0265884,0.0179291,-0.00297546,0.0185776,0.00259399
34,6,10.0097,0.000915527,0.00183105,-2.43172,0.0529344,-0.0759786,0.0498555,0.101793,-0.0977241,0.142572,-0.126072,-0.0895895,0.00919342,0.0263214,0.0123215,0.0125885,0.0196838,0.0118637,0.0188446,0.0170135,-9.97986,0.0156021,0.000267029,0.0125122,0.0250626,0.019989,-0.000839233,0.0158691,0.00564575
34,7,10.0097,-0.000305176,0,-2.42959,0.0544603,-0.0753682,0.0516866,0.0828722,-0.0965034,0.143182,-0.126987,-0.0880636,0.0134659,0.0257492,0.0203323,0.0120544,0.0222397,0.0125122,0.0154877,0.0213623,-9.97986,0.0178909,0.00160217,0.0157166,0.022049,0.0186539,-0.000801086,0.0156784,0.00617981
34,8,10.0097,-0.000305176,-0.000915527,-2.42959,0.0532396,-0.0762837,0.0522969,0.0746324,-0.0955879,0.144403,-0.126682,-0.0868429,0.00999451,0.0229263,0.0187683,0.011673,0.0196075,0.00972748,0.0111389,0.0255966,-9.97986,0.0242996,0.00579834,0.015564,0.0198746,0.0229263,-0.00396729,0.0170517,0.00652313
34,9,10.0097,0.00152588,0.000305176,-2.42867,0.0559862,-0.0759786,0.0522969,0.0731066,-0.095893,0.144403,-0.126377,-0.0856222,0.0128555,0.02491,0.0214767,0.0112152,0.0221634,0.0141907,0.0164032,0.0285721,-9.97986,0.0218201,0.00160217,0.0112152,0.0170898,0.0200272,-0.00350952,0.0153732,0.00652313
35,0,10.0097,0.000915527,-0.000152588,-2.42776,0.0550706,-0.075063,0.0532125,0.0712755,-0.0937568,0.144403,-0.125766,-0.0850118,0.00839233,0.0236893,0.0189972,0.00984192,0.0198746,0.00930786,0.0215912,0.030098,-9.97986,0.0200272,0.00404358,0.0160217,0.0188828,0.020752,-0.00499725,0.0156784,0.00644684
35,1,10.0097,0.00183105,-0.000152588,-2.42745,0.0550706,-0.073232,0.0519917,0.0700548,-0.094062,0.146234,-0.126377,-0.0847066,0.0118256,0.0258255,0.0217819,0.0114059,0.0179291,0.0122833,0.0285721,0.0259781,-9.97986,0.0204086,0.00331879,0.0127792,0.0144577,0.0237274,-0.00259399,0.0159073,0.00587463
35,2,10.0097,0.000610352,0.000457764,-2.42562,0.0553758,-0.0738423,0.0550435,0.0709703,-0.0919257,0.145318,-0.125461,-0.0834859,0.0118256,0.0252914,0.0207138,0.0126266,0.0212097,0.00926971,0.0234985,0.0237274,-9.97986,0.0190353,0.000801086,0.0127792,0.0179672,0.0230026,-0.00106812,0.0137329,0.00495911
35,3,10.0097,-0.000305176,0.000610352,-2.42501,0.055681,-0.0735371,0.0550435,0.0709703,-0.0916206,0.146539,-0.124546,-0.0825704,0.00995636,0.0227737,0.0217438,0.00770569,0.0165176,0.0143814,0.0187302,0.0246048,-9.97986,0.0204086,0.00461578,0.0179672,0.0150681,0.0180435,-0.00751495,0.0162125,0.00572205
35,4,10.0097,-0.000305176,0.000762939,-2.42409,0.0569017,-0.0744527,0.0547383,0.0724962,-0.0916206,0.147455,-0.124241,-0.0810445,0.00984192,0.024147,0.0213623,0.00919342,0.0165939,0.0154495,0.0231171,0.0173569,-9.97986,0.0177765,0.000762939,0.0120544,0.00995636,0.0218964,-0.00457764,0.0112152,0.00656128
35,5,10.0097,0.000610352,-0.000915527,-2.42745,0.0550706,-0.0741475,0.0522969,0.0389269,-0.0961982,0.145318,-0.126987,-0.0825704,0.00701904,0.0232315,0.018158,0.0150681,0.0177383,0.0146866,0.0237274,0.0125122,-9.97986,0.0107574,-0.000305176,0.00957489,0.00965118,0.0200653,-0.00545502,0.0149536,0.00106812
35,6,5.66823,-0.000610352,-0.00473022,-2.42745,0.0559862,-0.0738423,0.0498555,-0.0132582,-0.101386,0.145624,-0.130344,-0.0831808,0.0151062,0.0227737,0.0191879,0.0130081,0.0199127,0.0135422,0.0194931,0.00648499,-9.97986,0.0105286,-0.0012207,0.0113297,0.0161743,0.0200653,-0.00408173,0.0161362,0.00343323
35,7,-2.0048,-0.000915527,-0.0038147,-2.42623,0.0572069,-0.0744527,0.0532125,-0.0169203,-0.0977241,0.146844,-0.130649,-0.0822652,0.00980377,0.0251007,0.0188828,0.0117111,0.0156784,0.0114059,0.0199509,0.00663757,-9.97986,0.00965118,-0.00205994,0.0154877,0.0133514,0.0210571,-0.00545502,0.0146484,0.00240326
35,8,-9.68425,0.000915527,-0.00457764,-2.4247,0.0578172,-0.0738423,0.054128,-0.000745974,-0.0931465,0.145929,-0.128208,-0.0816549,0.00904083,0.0201797,0.0189972,0.0136948,0.0174713,0.0159454,0.0154495,0.0114822,-9.97986,0.00522614,-0.0030899,0.0117111,0.00789642,0.0183487,-0.0056839,0.015564,0.00480652
35,9,-9.99003,0.000915527,-0.00305176,-2.42501,0.0559862,-0.073232,0.0553487,0.0264147,-0.0928413,0.146539,-0.126987,-0.0810445,0.00892639,0.0222015,0.0197601,0.0104904,0.0209808,0.0128174,0.01297,0.00766754,-9.97986,0.00717163,-0.0018692,0.0133896,0.0106049,0.0123978,-0.00137329,0.0154495,0.00465393
36,0,-9.99003,-0.000610352,-0.0012207,-2.4247,0.0553758,-0.0747579,0.0544332,0.0471666,-0.0900947,0.146234,-0.125766,-0.0810445,0.00919342,0.0212097,0.0159454,0.0127792,0.0165558,0.00835419,0.0172424,0.0107956,-9.97986,0.0104523,-0.00293732,0.0187302,0.00972748,7.62939e-005,-0.00450134,0.0162125,0.00411987
36,1,-9.99003,0.000610352,0.000305176,-2.42562,0.055681,-0.0744527,0.0544332,0.0636461,-0.0910102,0.145318,-0.127292,-0.0825704,0.00888824,0.0217056,0.0171661,0.0123978,0.014534,0.01091,0.0101089,0.013237,-9.97986,0.00907898,-0.00175476,0.0147247,0.0116348,0.00228882,-0.00370026,0.0198364,-0.000343323
36,2,-9.99003,-0.000305176,0.00213623,-2.42745,0.0547655,-0.0747579,0.0553487,0.0926378,-0.088874,0.145624,-0.123935,-0.0828756,0.0103378,0.0177765,0.0215912,0.0088501,0.018158,0.0144958,0.0104141,0.0146103,-9.97986,0.00980377,0.00320435,0.0146866,0.0088501,0.0196457,-0.000610352,0.0155258,0.00415802
36,3,-3.3488,-0.00152588,0.00442505,-2.42653,0.0535448,-0.0753682,0.0544332,0.134752,-0.088874,0.142877,-0.120884,-0.0847066,0.00991821,0.0193405,0.0178909,0.0105667,0.0130463,0.014534,0.0106812,0.0108337,-9.97986,0.0154495,0.000267029,0.0148392,0.0107956,0.0218201,-0.00572205,0.0178146,0.00358582
36,4,3.36476,0.000610352,0.00442505,-2.42837,0.0547655,-0.0759786,0.0535176,0.154894,-0.088874,0.143792,-0.121494,-0.0847066,0.00892639,0.0271606,0.0228882,0.0119019,0.0139999,0.0128937,0.00926971,0.0128937,-9.97986,0.0142288,-0.00473022,0.0131607,0.0165558,0.0240707,-0.0012207,0.0200272,0.00324249
36,5,10.0097,0.00335693,0.00473022,-2.42745,0.0541551,-0.0762837,0.054128,0.15764,-0.0894843,0.142877,-0.121189,-0.0856222,0.00980377,0.0256348,0.0200272,0.0075531,0.00873566,0.0104904,0.0137711,0.0182343,-9.97986,0.015564,-0.00457764,0.00873566,0.0127792,0.017395,-0.00118256,0.019989,0.000610352
36,6,10.0097,0,0.00213623,-2.43081,0.0526292,-0.0768941,0.0504659,0.100878,-0.0977241,0.142572,-0.125156,-0.0895895,0.0123978,0.0259399,0.0170898,0.0106049,0.0156403,0.0115204,0.0213623,0.0144196,-9.97986,0.0162125,-0.000495911,0.011673,0.00953674,0.025444,-0.00167847,0.0226212,0.00488281
36,7,10.0097,-0.000305176,0.000762939,-2.43111,0.0538499,-0.0759786,0.0513814,0.0828722,-0.0971137,0.144403,-0.126987,-0.0883688,0.013504,0.0252151,0.0199127,0.0149155,0.016098,0.0114822,0.0236893,0.0214005,-9.97986,0.01297,-0.00259399,0.0175476,0.0147247,0.0198746,-0.00190735,0.021286,0.00675201
36,8,10.0097,0.000610352,-0.00152588,-2.42989,0.0532396,-0.0753682,0.0510762,0.0749376,-0.095893,0.143487,-0.126377,-0.0868429,0.00759125,0.0271988,0.0193405,0.0131607,0.018692,0.0107193,0.0229263,0.0251389,-9.97986,0.018425,-0.00457764,0.0121307,0.0130463,0.0205994,-0.0062561,0.0198746,0.00595093
36,9,10.0097,0.000610352,-0.000152588,-2.42806,0.0532396,-0.0753682,0.0522969,0.0728014,-0.0943672,0.143792,-0.126682,-0.0865377,0.0134277,0.0232697,0.0188828,0.0141907,0.0183487,0.00648499,0.0170135,0.025177,-9.97986,0.021553,-0.00354767,0.0149536,0.0117493,0.0223541,-0.00190735,0.0173187,0.0082016
37,0,10.0097,0.000610352,-0.000152588,-2.42837,0.0550706,-0.0762837,0.054128,0.0709703,-0.0934516,0.144708,-0.125156,-0.0850118,0.0103378,0.0251007,0.0169754,0.0114441,0.0140381,0.00926971,0.0160599,0.0266266,-9.97986,0.0255585,0.00038147,0.0134277,0.0139618,0.0258636,-0.00221252,0.0172424,0.0101089
37,1,10.0097,0,0.000457764,-2.42776,0.0553758,-0.0759786,0.0532125,0.07036,-0.0937568,0.145013,-0.125766,-0.0844015,0.0137711,0.0234985,0.019722,0.011673,0.0188446,0.00984192,0.0167084,0.0239182,-9.97986,0.0219727,0.00511169,0.0166702,0.0133514,0.0238419,-0.00320435,0.0174713,0.0106049
37,2,10.0097,-0.000610352,0.000457764,-2.42562,0.0569017,-0.0744527,0.0550435,0.0709703,-0.0919257,0.145318,-0.125461,-0.0828756,0.0126648,0.0279617,0.0189972,0.00980377,0.0143051,0.00579834,0.0178528,0.0190353,-9.97986,0.0192642,0.000953674,0.0104141,0.0164413,0.0242996,-0.00324249,0.0152206,0.00862122
37,3,10.0097,0.00335693,0.000305176,-2.42562,0.0559862,-0.0747579,0.0553487,0.0724962,-0.0913154,0.146234,-0.12363,-0.0822652,0.00598907,0.0217056,0.0169754,0.0118256,0.0165558,0.00957489,0.0162888,0.0168991,-9.97986,0.0170135,-0.00328064,0.0143814,0.0138092,0.0232697,-0.00301361,0.0148392,0.00991821
37,4,10.0097,0.000610352,0.000762939,-2.42501,0.0575121,-0.0744527,0.0553487,0.0724962,-0.0910102,0.146844,-0.124851,-0.0822652,0.00843048,0.0259018,0.0196075,0.0143051,0.017395,0.0115585,0.0180054,0.0177383,-9.97986,0.017662,-0.000305176,0.0157928,0.0189972,0.0257111,-0.00293732,0.0157166,0.0122452
37,5,10.0097,0.00152588,-0.000610352,-2.42806,0.0562914,-0.0747579,0.0529073,0.0386217,-0.0977241,0.145929,-0.128208,-0.0837911,0.0112152,0.0250244,0.0197983,0.0119781,0.0186539,0.00148773,0.00900269,0.00797272,-9.97986,0.0104904,-0.000495911,0.0164795,0.0162506,0.0217438,-0.00301361,0.0152969,0.0102997
37,6,5.80831,-0.00183105,-0.0038147,-2.42653,0.0559862,-0.0738423,0.0513814,-0.0153944,-0.101081,0.144098,-0.13126,-0.0837911,0.00759125,0.0209427,0.0197601,0.0114059,0.0234222,0.0087738,0.0117493,0.00988007,-9.97986,0.00682831,-0.00507355,0.0139999,0.0159073,0.015564,-0.00564575,0.00999451,0.0082016
37,7,-2.02037,-0.000915527,-0.00411987,-2.42531,0.0553758,-0.0741475,0.0535176,-0.0138685,-0.0968086,0.146234,-0.129734,-0.0816549,0.00869751,0.0237656,0.0149918,0.0101089,0.0207138,0.0120163,0.0199509,0.00484467,-9.97986,0.0141144,-0.00160217,0.0155258,0.0164413,0.0147247,-0.00419617,0.0156403,0.0120544
37,8,-9.64396,-0.000610352,-0.00457764,-2.42318,0.0575121,-0.0729268,0.0547383,-0.0016615,-0.0943672,0.147149,-0.128818,-0.0798238,0.00938416,0.0257111,0.0176239,0.0128174,0.0192261,0.0102615,0.0185776,0.00274658,-9.97986,0.0094986,-0.000228882,0.0151825,0.0115585,0.0145721,-0.0031662,0.014267,0.00904083
37,9,-9.99003,0,-0.00259399,-2.4244,0.0553758,-0.0741475,0.0550435,0.0248888,-0.0916206,0.146844,-0.127598,-0.0819601,0.00938416,0.0262833,0.0188065,0.0112915,0.0233459,0.0101089,0.017128,0.00724792,-9.97986,0.00938416,7.62939e-005,0.0147629,0.0114441,0.00400543,-0.000991821,0.0191879,0.00869751
38,0,-9.99003,0.000610352,-0.00137329,-2.42531,0.0553758,-0.0738423,0.054128,0.0489977,-0.0925361,0.145929,-0.126682,-0.0810445,0.0125885,0.0258636,0.0198364,0.0130844,0.023613,0.0120544,0.0130463,0.0101471,-9.97986,0.00652313,0.000915527,0.0151825,0.00679016,-0.00766754,-0.00492096,0.0151443,0.00465393
38,1,-9.99003,0.000305176,-0.000305176,-2.42531,0.0550706,-0.0756734,0.0553487,0.0618151,-0.0891792,0.144708,-0.126377,-0.0834859,0.00980377,0.0251007,0.015831,0.010643,0.0145721,0.0101089,0.0168228,0.0125122,-9.97986,0.0117111,-0.00400543,0.0087738,0.00442505,-0.0056839,-0.00213623,0.0151825,0.00774384
38,2,-9.99003,0,0.00152588,-2.42623,0.0544603,-0.0735371,0.0547383,0.0926378,-0.0891792,0.145624,-0.124241,-0.0834859,0.0135422,0.0247192,0.0245667,0.0106812,0.0183487,0.0165558,0.0236511,0.0138474,-9.97986,0.0127411,-0.000762939,0.0141144,0.00530243,0.00728607,-0.00320435,0.0173187,0.00705719
38,3,-3.45286,0.000915527,0.00457764,-2.42745,0.0544603,-0.0759786,0.0544332,0.135057,-0.0879585,0.143487,-0.12363,-0.0847066,0.0110626,0.0232697,0.0160217,0.0107574,0.0191116,0.00907898,0.0301743,0.0124359,-9.97986,0.0159073,-0.0012207,0.0159454,0.00110626,0.0131226,-0.0113678,0.0190735,0.00553131
38,4,3.17769,-0.000305176,0.00411987,-2.42776,0.0541551,-0.0756734,0.0535176,0.155504,-0.0873481,0.144403,-0.120884,-0.0856222,0.0139236,0.0246429,0.0242233,0.01297,0.0162125,0.0103378,0.0291824,0.0166321,-9.97986,0.00965118,0.00297546,0.0108719,0.000267029,0.0176239,-0.0031662,0.0162506,0.00038147
38,5,10.0097,-0.000915527,0.00442505,-2.42745,0.0535448,-0.075063,0.054128,0.15703,-0.0882636,0.144403,-0.121494,-0.085317,0.011673,0.0242615,0.0169754,0.0119019,0.0149918,0.0125122,0.0284195,0.0130844,-9.97986,0.0140381,-0.00141144,0.0104141,-0.00160217,0.010376,-0.0075531,0.0149155,-0.000801086
38,6,10.0097,0.00152588,0.00259399,-2.43081,0.0529344,-0.0765889,0.0504659,0.103319,-0.0971137,0.143182,-0.126682,-0.0892843,0.0124741,0.0243378,0.0210953,0.00904083,0.0161362,0.0122833,0.0358582,0.0162888,-9.97986,0.0160217,0.000839233,0.00881195,0.00598907,0.0179672,-0.0018692,0.0170135,0.00339508
38,7,10.0097,0.000610352,0.0012207,-2.43081,0.0526292,-0.0762837,0.0513814,0.0831774,-0.0971137,0.142877,-0.126072,-0.0880636,0.0087738,0.0227356,0.0191116,0.0115967,0.0175858,0.0101852,0.0363541,0.0165176,-9.97986,0.0161743,0.000724792,0.0161743,0.00850677,0.020752,-0.000839233,0.022316,0.00442505
38,8,10.0097,0,0.000457764,-2.42989,0.0544603,-0.0756734,0.0529073,0.0752428,-0.0955879,0.144098,-0.126987,-0.0865377,0.0139236,0.0255966,0.0218964,0.0140762,0.0196838,0.0131226,0.0378799,0.0239563,-9.97986,0.0144196,-0.00118256,0.0141525,0.0082016,0.0231934,-0.00534058,0.0223923,0.00679016
38,9,10.0097,0.0012207,0.000305176,-2.42745,0.0535448,-0.0747579,0.0529073,0.0724962,-0.094062,0.145013,-0.127292,-0.0862325,0.0104904,0.0220871,0.0189209,0.0103378,0.0144577,0.00621796,0.0350571,0.0274277,-9.97986,0.0198746,-0.00244141,0.0178146,0.00915527,0.0235748,0.00152588,0.0182724,0.00816345
39,0,10.0097,0.000305176,0.000152588,-2.42745,0.0547655,-0.0759786,0.0535176,0.0706652,-0.0943672,0.145318,-0.126072,-0.0850118,0.0125122,0.0239182,0.0222015,0.0110626,0.0146484,0.00892639,0.0310516,0.0260544,-9.97986,0.0211716,-0.00400543,0.0155258,0.0119781,0.0246429,7.62939e-005,0.0203705,0.010643
39,1,10.0097,-0.000610352,0.000457764,-2.42684,0.0553758,-0.075063,0.0532125,0.0709703,-0.0931465,0.144708,-0.126072,-0.0844015,0.0131989,0.0249863,0.0193405,0.0062561,0.0147247,0.01091,0.0259018,0.0282669,-9.97986,0.0182724,-0.00354767,0.0117493,0.0146866,0.0230408,-0.00461578,0.019455,0.0104904
39,2,10.0097,0.000915527,-0.000152588,-2.42623,0.0553758,-0.0741475,0.0532125,0.0715807,-0.0922309,0.144403,-0.125156,-0.0834859,0.0120926,0.0233078,0.0208282,0.00846863,0.0110245,0.00782013,0.0147629,0.022049,-9.97986,0.0119781,0.00198364,0.0130463,0.00770569,0.0225449,0.000152588,0.0180817,0.00957489
39,3,10.0097,0.000610352,0.000152588,-2.42501,0.055681,-0.0744527,0.054128,0.0706652,-0.0928413,0.145318,-0.124851,-0.0816549,0.0114059,0.0253677,0.018158,0.00988007,0.0151443,0.00938416,0.0193787,0.0147629,-9.97986,0.0167084,-0.00282288,0.0183105,0.00782013,0.0247192,0.000839233,0.020752,0.00846863
39,4,10.0097,0.00183105,-0.000305176,-2.4247,0.0572069,-0.0744527,0.054128,0.0712755,-0.0919257,0.146234,-0.124851,-0.0816549,0.0102234,0.0269318,0.0192261,0.0123215,0.0124741,0.0130463,0.0172043,0.0170135,-9.97986,0.0126266,0.000114441,0.00961304,0.0112534,0.0194168,-0.00312805,0.0179291,0.00793457
39,5,10.0097,0.000305176,-0.000152588,-2.42776,0.0562914,-0.0744527,0.0522969,0.0386217,-0.0977241,0.145929,-0.128513,-0.0840963,0.00938416,0.0234604,0.0180435,0.0104141,0.0118256,0.0122452,0.0276947,0.0122452,-9.97986,0.00934601,-0.00301361,0.016098,0.00663757,0.0251007,-0.00297546,0.0125504,0.0124741
39,6,5.84188,0.0012207,-0.00442505,-2.42592,0.0569017,-0.075063,0.0529073,-0.0144789,-0.100776,0.145624,-0.130649,-0.0847066,0.00869751,0.0261307,0.0185394,0.00946045,0.0159836,0.00953674,0.0310516,0.00846863,-9.97986,0.0087738,-0.00228882,0.0160217,0.00663757,0.0217056,-0.00240326,0.0119781,0.0124359
39,7,-1.92119,0.0012207,-0.00411987,-2.42714,0.0559862,-0.0744527,0.0529073,-0.0153944,-0.0980293,0.145318,-0.130344,-0.0819601,0.0101471,0.0247955,0.0173187,0.00846863,0.0133133,0.00965118,0.0304031,0.00694275,-9.97986,0.00831604,0.00240326,0.0203323,0.0112152,0.021019,0.00087738,0.0180817,0.0115204
39,8,-9.57255,-0.0012207,-0.00488281,-2.42348,0.0581224,-0.0735371,0.055959,-0.00135633,-0.0946723,0.148065,-0.129123,-0.0816549,0.00946045,0.0221252,0.0187683,0.00865936,0.0161743,0.00747681,0.0297928,0.0062561,-9.97986,0.00793457,-0.00328064,0.0140381,0.00648499,0.0181198,-0.00179291,0.0154495,0.00843048
39,9,-9.99003,-0.000610352,-0.00228882,-2.4247,0.0569017,-0.0720113,0.0550435,0.0254991,-0.0910102,0.145929,-0.127292,-0.0807394,0.0130463,0.0268936,0.0217056,0.0127411,0.0187302,0.00980377,0.0386429,0.0111771,-9.97986,0.0125885,-0.000686646,0.0174713,0.00629425,0.00946045,-0.00164032,0.0147629,0.0102234
40,0,-9.99003,0.000610352,-0.000915527,-2.42562,0.0541551,-0.0744527,0.0553487,0.0468614,-0.0910102,0.145624,-0.126987,-0.0819601,0.01194,0.0196457,0.0178146,0.0133896,0.0101089,0.00701904,0.033989,0.00766754,-9.97986,0.00961304,-0.00408173,0.0136185,0.00427246,-0.00228882,0.0025177,0.0119019,0.00667572
40,1,-9.99003,0.000610352,0.000305176,-2.4247,0.0547655,-0.075063,0.0556539,0.0618151,-0.090705,0.145013,-0.126072,-0.0825704,0.0123978,0.0242233,0.0206757,0.0129318,0.0180817,0.0110626,0.0299835,0.00976563,-9.97986,0.0105286,-0.00514984,0.0175476,0.00972748,-0.000114441,0.000686646,0.0143433,0.00774384
40,2,-9.99003,0.000610352,0.00183105,-2.42623,0.0544603,-0.0738423,0.0547383,0.0917223,-0.0885688,0.143792,-0.124546,-0.0822652,0.00896454,0.0216675,0.016861,0.0108337,0.0164795,0.0126266,0.0311661,0.0186539,-9.97986,0.0120926,0.000305176,0.0148392,0.00595093,0.0165176,0.000801086,0.0129318,0.0128174
40,3,-3.45775,-0.000305176,0.00396729,-2.42714,0.0541551,-0.0768941,0.0553487,0.136888,-0.0882636,0.144403,-0.122104,-0.0837911,0.0087738,0.0177383,0.0182724,0.01194,0.0169373,0.0121307,0.0338364,0.0172806,-9.97986,0.0122833,-0.0030899,0.0167084,0.00587463,0.016098,-0.00133514,0.0131607,0.010376
40,4,3.29183,0.000915527,0.00518799,-2.42745,0.0541551,-0.0759786,0.0544332,0.153673,-0.0879585,0.143487,-0.121494,-0.0847066,0.00919342,0.0188446,0.0202942,0.0144196,0.0211716,0.0113678,0.0240707,0.0165176,-9.97986,0.0132751,-0.00244141,0.0125885,0.0105286,0.0136566,0.00038147,0.0146484,0.0106049
40,5,10.0097,0.000610352,0.00427246,-2.42837,0.0535448,-0.0747579,0.0535176,0.156725,-0.0897895,0.143792,-0.121494,-0.0859274,0.0129318,0.0236893,0.0194931,0.0149155,0.0230026,0.0126266,0.022583,0.018692,-9.97986,0.0149536,-0.00488281,0.0152206,0.0136185,0.0123978,-0.0043869,0.0120926,0.0063324
