
Devices
1200
,,BP Load cell - Voltage,String Length - Voltage,Clutch Active - Voltage,#7 iPecs - Voltage,,,,,,,,,EMG 1-8 Left - Voltage,,,,,,,,Pylon Force - Voltage,EMG 9-16 Right - Voltage,,,,,,,,
Frame,Sub Frame,BP Load Cell,String Length,From Arduino Logic,A45,A135,A225,A315,S0,S90,S180,S270,ZSum,EMG 1 Glut Max,EMG 2 Glut Med,EMG 3 Biceps Femoris Long,EMG 4 Rectus Femoris,EMG 5 Vastus Medialis,EMG 6 Tib Ant,EMG 7 Med Gas,EMG 8 Soleus,Pylon volts,EMG 9 Glut Max,EMG 10 Glut Med,EMG 11 Biceps Femoris Long,EMG 12 Rectus Femoris,EMG 13 Vastus Medialis,EMG 14 Tib Ant,EMG 15 Med Gas,EMG 16 Soleus
,,V,V,V,V,V,V,V,V,V,V,V,V,V,V,V,V,V,V,V,V,V,V,V,V,V,V,V,V,V
1,0,10.0097,0,0.00244141,-2.42531,0.055681,-0.0738423,0.054128,0.0718859,-0.0916206,0.145929,-0.123325,-0.0804342,0.0288773,0.0369263,0.0297928,0.0687408,0.0325394,-0.0637817,-0.0019455,-0.00938416,-9.97986,0.0190735,-0.0170135,0.134735,0.0949097,0.0521088,0.00476837,-0.018425,-0.00823975
1,1,10.0097,0.00213623,0.00183105,-2.42653,0.0562914,-0.0747579,0.0532125,0.0486925,-0.095893,0.146234,-0.126682,-0.0816549,0.0242996,0.0376129,0.0515366,0.0747681,0.0379944,-0.056839,0.00213623,0.000114441,-9.97986,0.0186539,-0.0216293,0.131798,0.116081,0.0479889,0.00572205,-0.01297,-0.010643
1,2,7.56337,0.000305176,-0.000457764,-2.42684,0.055681,-0.0747579,0.0519917,-0.0016615,-0.0998603,0.145624,-0.130039,-0.0837911,0.013504,0.0335312,0.068779,0.0664902,0.0424194,-0.0584412,-0.00671387,0.00396729,-9.97986,0.0172043,-0.0167847,0.138206,0.129471,0.0422287,0.00793457,-0.0115204,-0.00617981
1,3,-1.27757,0.000915527,-0.00167847,-2.42714,0.0562914,-0.0741475,0.0538228,-0.0147841,-0.0977241,0.146234,-0.129429,-0.0810445,0.00808716,0.0415802,0.0796509,0.110893,0.0452423,-0.0711823,-0.00431061,0.0140762,-9.97986,0.0192261,-0.0144196,0.15152,0.153389,0.0403214,0.00705719,-0.0105667,-0.00263214
1,4,-9.25822,0.000305176,-0.00198364,-2.4247,0.0562914,-0.073232,0.0550435,-0.0184462,-0.0952827,0.146539,-0.130344,-0.0807394,0.00888824,0.043602,0.0862122,0.109673,0.0514984,-0.0747299,-0.00770569,0.0220108,-9.97986,0.0141144,-0.00675201,0.180779,0.178871,0.0356674,-0.00106812,0.00537872,-0.00679016
1,5,-9.99003,0.00183105,0.00106812,-2.4247,0.0578172,-0.0738423,0.0562642,0.0224474,-0.0922309,0.147455,-0.127292,-0.0795187,0.00808716,0.0342178,0.0961685,0.0740814,0.0484085,-0.0860977,-0.00659943,0.0386429,-9.97986,0.023613,-0.000610352,0.213928,0.235519,0.00720978,-0.0018692,0.00679016,-0.0191116
1,6,-9.99003,0.00213623,0.00457764,-2.42623,0.0559862,-0.0744527,0.0574849,0.0517443,-0.0910102,0.144708,-0.127598,-0.0798238,0.00694275,0.0342941,0.10128,0.0469589,0.0547409,-0.0990677,-0.00610352,0.0627518,-9.97986,0.0212479,0.00141144,0.22789,0.308838,0.000267029,0.000190735,0.0127411,-0.0148773
1,7,-9.99003,0.000915527,0.00366211,-2.42531,0.0550706,-0.0747579,0.0565694,0.0612047,-0.0897895,0.145929,-0.125461,-0.0819601,0.0119781,0.0300598,0.0847626,0.0389481,0.0628281,-0.10006,-0.0043869,0.078125,-9.97986,0.0206375,-0.00301361,0.224571,0.336914,-0.00846863,-0.000572205,0.0188446,-0.0197983
1,8,-9.99003,-0.00152588,0.00411987,-2.42653,0.0550706,-0.0738423,0.0562642,0.0795153,-0.0900947,0.146539,-0.124241,-0.0813497,0.00648499,0.0337601,0.0647354,0.0514221,0.057106,-0.100822,-0.00183105,0.0907898,-9.97986,0.0160217,-0.00530243,0.220604,0.37262,0.000190735,0.00453949,0.0236893,-0.0185776
1,9,-8.02989,-0.000305176,0.00747681,-2.42562,0.0550706,-0.0747579,0.0553487,0.14055,-0.0846015,0.144708,-0.121189,-0.0813497,0.00415802,0.0395203,0.0671005,0.0517654,0.0546646,-0.100746,-0.00511169,0.0919724,-9.97986,0.0116348,-0.0173187,0.207062,0.410995,0.0158691,0.00854492,0.0218201,-0.014534
2,0,-0.362348,-0.00274658,0.00762939,-2.42745,0.0535448,-0.0756734,0.0535176,0.153368,-0.0873481,0.143487,-0.121189,-0.0840963,0.00724792,0.0438309,0.0507736,0.0661469,0.0551224,-0.0991058,-0.00358582,0.0828552,-9.97986,0.0126266,-0.0180435,0.198898,0.442352,0.0156784,0.00209808,0.0317001,-0.010643
2,1,7.52736,0.000610352,0.00762939,-2.42837,0.0535448,-0.0735371,0.0538228,0.153673,-0.0891792,0.145013,-0.122715,-0.0847066,0.00930786,0.0380707,0.0302124,0.0634766,0.0588226,-0.0973511,-0.00469208,0.0656891,-9.97986,0.00762939,-0.0230789,0.186768,0.46814,0.0109482,-0.00190735,0.0457382,-0.000228882
2,2,10.0097,-0.000915527,0.00549316,-2.42989,0.0535448,-0.0765889,0.0498555,0.12163,-0.0965034,0.141351,-0.124546,-0.0883688,0.00907898,0.0350189,0.0286102,0.0382233,0.0543976,-0.0924683,-0.00579834,0.0498199,-9.97986,0.00293732,-0.0206757,0.186119,0.479927,0.00133514,-0.0117874,0.0564957,0.00507355
2,3,10.0097,0.00244141,0.00198364,-2.42989,0.0544603,-0.0759786,0.0492452,0.0895861,-0.0965034,0.142572,-0.127292,-0.0877584,0.00976563,0.0412369,0.0244904,0.00331879,0.0408554,-0.0914383,-0.00534058,0.0421524,-9.97986,0.00640869,-0.0180435,0.185013,0.49511,-0.00244141,-0.0112915,0.0597763,0.00911713
2,4,10.0097,0,0.00213623,-2.42867,0.0541551,-0.0765889,0.050771,0.0779894,-0.0968086,0.142877,-0.126682,-0.0874532,0.0138474,0.0466156,0.0288391,-0.0366592,0.0382233,-0.0920486,-0.0109482,0.0232315,-9.97986,0.00732422,-0.0133896,0.183334,0.515137,-0.00888824,-0.0135803,0.0616074,0.0161743
2,5,10.0097,0.0012207,0.00259399,-2.42806,0.0541551,-0.0753682,0.0522969,0.0734117,-0.0946723,0.142877,-0.126377,-0.0859274,0.0121307,0.057869,0.0457764,-0.0701141,0.0288773,-0.0919724,-0.00835419,0.0069046,-9.97986,0.00442505,-0.0222397,0.169334,0.530472,-0.0170517,-0.0136185,0.0605011,0.00171661
2,6,10.0097,0.00335693,0.0012207,-2.42837,0.0550706,-0.0741475,0.0526021,0.072191,-0.0949775,0.144403,-0.126682,-0.0850118,0.0147247,0.0574493,0.0688171,-0.0649261,0.0197601,-0.0916672,-0.00541687,0.000419617,-9.97986,-0.00267029,-0.0149918,0.168839,0.536613,-0.0185776,-0.0123978,0.0576401,-0.019455
2,7,10.0097,0.00152588,0.000915527,-2.42653,0.0547655,-0.0756734,0.0526021,0.0718859,-0.0934516,0.144708,-0.126072,-0.0840963,0.0161362,0.0728607,0.0815201,-0.0467682,0.0210953,-0.0902939,-0.0122452,0.00293732,-9.97986,0.0019455,-0.00450134,0.175285,0.534515,-0.0237656,-0.0126266,0.0592804,-0.0283432
2,8,10.0097,-0.0012207,0.000915527,-2.42653,0.0553758,-0.073232,0.0532125,0.07036,-0.0931465,0.145013,-0.124241,-0.0831808,0.0151443,0.0967407,0.0688553,-0.0341415,0.0311661,-0.0920868,-0.0123978,-0.0044632,-9.97986,0.000457764,-0.00419617,0.164757,0.54657,-0.0345993,-0.010376,0.0548935,-0.0247574
2,9,10.0097,-0.000305176,0.00198364,-2.42623,0.0569017,-0.0741475,0.0550435,0.07036,-0.0928413,0.147455,-0.125156,-0.0807394,0.0162125,0.103226,0.0466537,-0.00656128,0.0383759,-0.0876617,-0.0153351,-0.0211716,-9.97986,0.00514984,0.00785828,0.157661,0.559807,-0.0333786,-0.0115204,0.050087,-0.0175476
3,0,10.0097,0.000610352,0.00137329,-2.42653,0.0581224,-0.0729268,0.054128,0.0712755,-0.0910102,0.147149,-0.12363,-0.0816549,0.0125504,0.117302,0.0280762,0.0247955,0.0399399,-0.0864792,-0.0181198,-0.015564,-9.97986,0.00961304,0.0101089,0.158119,0.568428,-0.0365448,-0.0126266,0.0450516,0.000114441
3,1,10.0097,-0.000305176,-0.000305176,-2.42653,0.0550706,-0.0747579,0.0529073,0.047777,-0.095893,0.14776,-0.126987,-0.0825704,0.0105667,0.117798,0.0244522,0.0403214,0.0397491,-0.0801849,-0.0208282,-0.00892639,-9.97986,0.0163269,-0.00144958,0.150528,0.560493,-0.0379944,-0.0156403,0.0477219,0.0191879
3,2,7.59084,-0.000610352,-0.00411987,-2.42714,0.0569017,-0.075063,0.0519917,0.000169553,-0.0995551,0.145318,-0.129123,-0.0840963,0.0075531,0.0710297,-0.00965118,0.0174713,0.0440216,-0.0798035,-0.0172806,3.8147e-005,-9.97986,0.027504,-0.0167084,0.14595,0.532875,-0.0414276,-0.0189209,0.0481033,0.046196
3,3,-1.25377,-0.0012207,-0.00427246,-2.42562,0.0565965,-0.0720113,0.0529073,-0.0135634,-0.0971137,0.143792,-0.130039,-0.0819601,0.00572205,-0.0176239,-0.0572586,-0.0277328,0.0383759,-0.0743866,-0.0180817,0.0188446,-9.97986,0.0394821,-0.0232315,0.133781,0.529671,-0.0410461,-0.0214767,0.0466537,0.0660324
3,4,-9.15172,0.000610352,-0.00549316,-2.4244,0.0572069,-0.0738423,0.0547383,-0.0172255,-0.0961982,0.148675,-0.130039,-0.0828756,0.00545502,-0.0805664,-0.0727463,-0.0297546,0.0439835,-0.0794601,-0.0226593,0.0254059,-9.97986,0.0406647,-0.0109482,0.133972,0.519867,-0.0450134,-0.0200653,0.0477219,0.070076
3,5,-9.99003,-0.000305176,-0.00427246,-2.4247,0.0559862,-0.0729268,0.055959,0.020006,-0.0913154,0.145318,-0.127292,-0.0807394,0.00606537,-0.0772858,-0.0932312,-0.0289154,0.0534058,-0.0798035,-0.0188446,0.0128555,-9.97986,0.0402451,-0.0106812,0.131302,0.506439,-0.071373,-0.0204468,0.0505066,0.0653839
3,6,-9.99003,-0.0012207,-0.00213623,-2.42592,0.0559862,-0.0744527,0.0553487,0.0505236,-0.090705,0.145013,-0.126682,-0.0810445,0.0101852,-0.0807571,-0.100327,-0.0213242,0.064888,-0.0769806,-0.0136948,0.00507355,-9.97986,0.033493,-0.0164032,0.128632,0.514717,-0.0746536,-0.0204086,0.04879,0.0543213
3,7,-9.99003,-0.000610352,0.000610352,-2.42623,0.0565965,-0.0738423,0.054128,0.0612047,-0.0922309,0.144098,-0.126072,-0.0834859,0.0141525,-0.0523758,-0.0787354,-0.00816345,0.0654602,-0.0737381,-0.0165176,-0.0167084,-9.97986,0.0279999,-0.0260544,0.121803,0.518761,-0.0761032,-0.021553,0.0454712,0.0484085
3,8,-9.99003,-0.000610352,0.000915527,-2.42592,0.0544603,-0.0741475,0.0550435,0.0795153,-0.0894843,0.148675,-0.124851,-0.0822652,0.0183487,0.00595093,-0.0590897,0.0286102,0.0665665,-0.0770187,-0.013504,-0.0337982,-9.97986,0.019722,-0.0189209,0.114517,0.524292,-0.0661087,-0.024147,0.0408554,0.033989
3,9,-7.89592,0.000915527,0.00411987,-2.42409,0.0553758,-0.0735371,0.0562642,0.14055,-0.0849067,0.145013,-0.122715,-0.0837911,0.0190735,0.0340652,-0.0538254,0.0828171,0.0646973,-0.072403,-0.025444,-0.0334549,-9.97986,0.0180817,-0.0108337,0.109367,0.531921,-0.0484085,-0.0283432,0.0405121,0.0230026
4,0,-0.201826,0.00152588,0.00366211,-2.42837,0.0535448,-0.0753682,0.0553487,0.152757,-0.0882636,0.142267,-0.120273,-0.0847066,0.0202179,0.0154495,-0.0606537,0.0720978,0.0707245,-0.0714493,-0.0256729,-0.0359726,-9.97986,0.0203323,-0.0149155,0.0971985,0.532379,-0.0489044,-0.0193024,0.0378036,0.0191116
4,1,7.66896,-0.000305176,0.00320435,-2.42837,0.0547655,-0.0753682,0.0529073,0.154894,-0.090705,0.142877,-0.122104,-0.0865377,0.0136948,-0.0244141,-0.055542,0.0355148,0.0679016,-0.0686264,-0.0277328,-0.0289917,-9.97986,0.0255203,-0.00675201,0.0881577,0.529861,-0.0482559,-0.0179672,0.0349808,0.0186157
4,2,10.0097,0.0012207,0.00244141,-2.43111,0.0526292,-0.0765889,0.0492452,0.117967,-0.0965034,0.142267,-0.125156,-0.0883688,0.0153732,-0.0844193,-0.0567627,0.00293732,0.0691223,-0.0687408,-0.0222778,-0.0188828,-9.97986,0.019722,-0.000572205,0.080719,0.510483,-0.0484848,-0.0239563,0.0331116,0.0213623
4,3,10.0097,0.00152588,-0.00152588,-2.43111,0.0532396,-0.0753682,0.0498555,0.0892809,-0.0965034,0.140741,-0.128513,-0.0895895,0.0139618,-0.110168,-0.0494766,0.0262451,0.0667191,-0.0693893,-0.018959,-0.00495911,-9.97986,0.0247192,-0.0165939,0.0762177,0.476799,-0.0455856,-0.0215149,0.0304413,0.0199127
4,4,10.0097,0.000305176,-0.00274658,-2.42959,0.0544603,-0.0765889,0.0498555,0.0767687,-0.0965034,0.144098,-0.126072,-0.0892843,0.0148392,-0.075264,-0.035553,0.0736237,0.0696564,-0.0629807,-0.0179672,0.00480652,-9.97986,0.0203705,-0.0108719,0.0652313,0.432663,-0.0469208,-0.0188828,0.0260544,0.0177383
4,5,10.0097,0.00183105,-0.00305176,-2.42745,0.0547655,-0.0756734,0.0522969,0.0731066,-0.0949775,0.144098,-0.126072,-0.0877584,0.0122833,-0.0457001,-0.0252533,0.0683594,0.0663376,-0.0563049,-0.00835419,0.0161743,-9.97986,0.0197601,0.0056839,0.0625992,0.398712,-0.0377655,-0.0204086,0.0250244,0.020752
4,6,10.0097,-0.000305176,-0.00396729,-2.42745,0.0550706,-0.0741475,0.0529073,0.0712755,-0.0925361,0.146234,-0.126072,-0.085317,0.0102615,-0.0190735,-0.0149155,0.0457001,0.0683594,-0.0496674,-0.000228882,0.0143814,-9.97986,0.0202942,0.0101852,0.0546265,0.359764,-0.0402832,-0.0190735,0.0255585,0.0231552
4,7,10.0097,0,-0.00335693,-2.42653,0.055681,-0.0747579,0.0529073,0.0718859,-0.094062,0.146234,-0.126377,-0.085317,0.01194,0.0127411,0.00347137,0.0275803,0.0653839,-0.0527573,-0.000343323,0.0197601,-9.97986,0.0222397,0.0175095,0.0510406,0.321617,-0.0379562,-0.021019,0.0232697,0.0229645
4,8,10.0097,0.000915527,-0.00335693,-2.42714,0.055681,-0.0738423,0.0522969,0.0712755,-0.0925361,0.145318,-0.125156,-0.0847066,0.00602722,0.0133514,0.00602722,-0.0204468,0.0640106,-0.0504303,0.00148773,0.0181198,-9.97986,0.0198746,0.0222015,0.043602,0.277672,-0.0302124,-0.0233841,0.0172806,0.0212097
4,9,10.0097,0.000915527,-0.00473022,-2.4247,0.0562914,-0.0738423,0.0547383,0.0712755,-0.0910102,0.146234,-0.12363,-0.0825704,0.00617981,-7.62939e-005,0.00106812,-0.0789642,0.0645447,-0.0415039,0.00507355,0.0206375,-9.97986,0.0207901,0.0226974,0.0367737,0.223579,-0.0263977,-0.0233459,0.0188065,0.0233459
5,0,10.0097,0.000610352,-0.00488281,-2.42562,0.0562914,-0.0735371,0.0547383,0.0709703,-0.0913154,0.147149,-0.124546,-0.0825704,0.0123978,-0.00133514,0.00972748,-0.155296,0.0613403,-0.0399399,0.00202179,0.0251389,-9.97986,0.0212097,0.00118256,0.0377655,0.169983,-0.0271606,-0.0256729,0.0154495,0.0252914
5,1,10.0097,0.00183105,-0.00518799,-2.42745,0.0559862,-0.0735371,0.0501607,0.0468614,-0.0968086,0.145929,-0.127292,-0.0847066,0.01297,0.00728607,0.0196838,-0.171394,0.0642776,-0.0311661,0.00637054,0.0229645,-9.97986,0.017395,-0.0169754,0.0273895,0.121651,-0.0206757,-0.0310516,0.0126266,0.0232697
5,2,7.43184,0,-0.00717163,-2.42714,0.055681,-0.0753682,0.0513814,-0.00135633,-0.100471,0.145318,-0.13187,-0.0847066,0.0109482,0.0164413,0.0154877,-0.00976563,0.0602722,-0.0310516,0.0133133,0.013504,-9.97986,0.0159454,-0.0167084,0.0267792,0.0830841,-0.0205231,-0.0320435,0.00843048,0.0273132
5,3,-1.40574,-0.0012207,-0.00686646,-2.42623,0.0562914,-0.0735371,0.0532125,-0.0153944,-0.0961982,0.147149,-0.129734,-0.0828756,0.0120544,0.0248718,0.0222015,0.13134,0.0606537,-0.0360107,0.0161743,0.0178528,-9.97986,0.0172424,-0.00637054,0.0240326,0.0630188,-0.0115967,-0.0267029,0.0069046,0.0290298
5,4,-9.38426,0.000305176,-0.00686646,-2.42501,0.0569017,-0.0756734,0.0522969,-0.0184462,-0.0965034,0.147455,-0.130344,-0.0816549,0.01194,0.0341034,0.0380707,0.126839,0.0559616,-0.0239563,0.0162888,0.0202179,-9.97986,0.0156784,-3.8147e-005,0.0202179,0.0340652,-0.00843048,-0.0276566,0.00202179,0.0240707
5,5,-9.99003,0.00305176,-0.00640869,-2.42409,0.0553758,-0.0741475,0.0562642,0.0230577,-0.0916206,0.14837,-0.126987,-0.0816549,0.0102615,0.0485992,0.0483322,0.0959015,0.0515747,-0.0274658,0.022316,0.021553,-9.97986,0.0201035,-0.0156403,0.0175476,-0.00610352,-0.0358582,-0.0256729,-0.000495911,0.0266647
5,6,-9.99003,0.00183105,-0.00579834,-2.42592,0.0544603,-0.0744527,0.055959,0.0505236,-0.0916206,0.146234,-0.126377,-0.0825704,0.00740051,0.049057,0.0574875,0.0667572,0.0470734,-0.0230789,0.0279236,0.020256,-9.97986,0.0201035,-0.0295258,0.0139999,-0.049324,-0.0315094,-0.0247955,-0.000610352,0.0250626
5,7,-9.99003,0.000305176,-0.0038147,-2.42684,0.0547655,-0.0759786,0.054128,0.0624254,-0.0910102,0.145013,-0.125766,-0.0828756,0.00999451,0.0364304,0.0593948,0.0587082,0.0445175,-0.0204468,0.0246811,0.0135803,-9.97986,0.021553,-0.0300598,0.0126648,-0.0844574,-0.0249481,-0.0255203,0.00110626,0.0266647
5,8,-9.99003,0.00183105,-0.00320435,-2.42653,0.055681,-0.0747579,0.0544332,0.0785997,-0.0894843,0.144403,-0.124851,-0.0825704,0.00999451,0.0428391,0.0621414,0.0437927,0.043869,-0.0192261,0.0266266,0.0255203,-9.97986,0.017128,-0.0173569,0.00957489,-0.117416,-0.0139999,-0.0179672,-0.00244141,0.026474
5,9,-8.11442,0.00305176,0.000457764,-2.42592,0.0547655,-0.0741475,0.0562642,0.141161,-0.0846015,0.144403,-0.121189,-0.0831808,0.00846863,0.05867,0.0668716,0.0191116,0.0354767,-0.0137711,0.0265884,0.0274658,-9.97986,0.0193405,-0.000572205,0.00709534,-0.14698,0.00225067,-0.0166321,-0.00427246,0.0285721
6,0,-0.429182,0.000915527,0.00167847,-2.42776,0.0544603,-0.0747579,0.0547383,0.151232,-0.0879585,0.143487,-0.122104,-0.0847066,0.00980377,0.0478745,0.0578308,0.00629425,0.0336838,-0.00823975,0.026741,0.0235748,-9.97986,0.0174332,0.00118256,0.00263214,-0.160561,0.00789642,-0.0170135,-0.00682831,0.0284195
6,1,7.45412,-0.00183105,0.00244141,-2.42867,0.0538499,-0.0762837,0.0532125,0.152757,-0.0897895,0.141656,-0.120578,-0.0868429,0.0109863,0.0291824,0.0409317,-0.00484467,0.0330353,-0.00534058,0.0269699,0.0211334,-9.97986,0.0205231,0.00610352,0.00312805,-0.17807,0.0134659,-0.0183487,-0.00797272,0.0297165
6,2,10.0097,-0.000305176,0.000915527,-2.43081,0.0520189,-0.0765889,0.0504659,0.122545,-0.0968086,0.142572,-0.123935,-0.0892843,0.0117111,0.026741,0.0168228,-0.0180435,0.0312805,-0.00137329,0.032196,0.0281906,-9.97986,0.0179291,0.00484467,-0.00408173,-0.204849,0.0146866,-0.0154114,-0.00831604,0.0294495
6,3,10.0097,-0.000915527,-0.00106812,-2.4305,0.0544603,-0.0762837,0.0504659,0.0892809,-0.0977241,0.143182,-0.126377,-0.0895895,0.0088501,0.0226212,-0.00972748,-0.0181961,0.0281906,-0.00293732,0.0305176,0.0341034,-9.97986,0.0126266,0.00255585,-0.00591278,-0.218925,0.0159073,-0.00976563,-0.0140381,0.0315475
6,4,10.0097,0.0012207,-0.000762939,-2.42959,0.0547655,-0.0765889,0.0519917,0.0776842,-0.0965034,0.141351,-0.126072,-0.0880636,0.00926971,0.0307083,-0.0282288,-0.0164032,0.026741,0.00804901,0.0300217,0.0469971,-9.97986,0.00923157,0.00267029,-0.0102615,-0.23056,0.0199127,-0.00919342,-0.010643,0.0323868
6,5,10.0097,0.00244141,-0.00106812,-2.42837,0.055681,-0.0762837,0.0529073,0.0731066,-0.0949775,0.145013,-0.127292,-0.0871481,0.00846863,0.0527191,-0.0217438,-0.029335,0.0263596,0.020256,0.0321198,0.0681686,-9.97986,0.0094223,0.00400543,-0.00972748,-0.243034,0.0287247,-0.0109863,-0.00988007,0.0327301
6,6,10.0097,0.000610352,-0.00167847,-2.42837,0.0547655,-0.0741475,0.0526021,0.0718859,-0.0937568,0.145318,-0.125156,-0.0850118,0.0114441,0.0736618,-0.0155258,-0.0436783,0.0259781,0.0292206,0.0310516,0.0930786,-9.97986,0.0115967,-0.00144958,-0.0117874,-0.260201,0.0281906,-0.00850677,-0.0140381,0.0325775
6,7,10.0097,0.000610352,-0.00259399,-2.42714,0.0553758,-0.0744527,0.0529073,0.0718859,-0.0943672,0.147149,-0.126987,-0.085317,0.00850677,0.0954056,-0.00457764,-0.043335,0.0198364,0.038414,0.0313187,0.0857925,-9.97986,0.0121307,-0.0044632,-0.0154495,-0.291367,0.0315857,-0.00263214,-0.0100327,0.0345993
6,8,10.0097,0.000610352,-0.00259399,-2.42592,0.0559862,-0.0735371,0.0544332,0.07036,-0.0934516,0.146234,-0.125156,-0.0840963,0.0146484,0.0997162,0.00663757,-0.0139236,0.0209808,0.036087,0.0324249,0.0637817,-9.97986,0.00606537,-0.0118256,-0.0146866,-0.32238,0.0317764,-0.00087738,-0.0140762,0.0359344
6,9,10.0097,0,-0.00259399,-2.4247,0.0559862,-0.0729268,0.0550435,0.072191,-0.0916206,0.146539,-0.124546,-0.0825704,0.00621796,0.0942993,0.01194,0.00881195,0.0161362,0.0482178,0.0351715,0.0478363,-9.97986,0.00900269,-0.0193787,-0.0166702,-0.351601,0.03685,-0.00347137,-0.0141907,0.0344849
7,0,10.0097,-0.000610352,-0.00335693,-2.42501,0.0578172,-0.0738423,0.0535176,0.0712755,-0.0903999,0.146844,-0.124546,-0.0828756,0.0118256,0.112,0.00705719,0.0102234,0.0108719,0.0511932,0.0354767,0.0310898,-9.97986,0.00667572,-0.0110626,-0.0162888,-0.39299,0.0340271,0.00167847,-0.0128937,0.0350189
7,1,10.0097,0.000610352,-0.00305176,-2.42684,0.0550706,-0.0738423,0.054128,0.0456407,-0.095893,0.146844,-0.126072,-0.0834859,0.012207,0.105934,0.00205994,0,0.0110245,0.0587845,0.0386429,0.0145721,-9.97986,0.0106049,0.00106812,-0.0198746,-0.414734,0.0395203,-0.00156403,-0.0151062,0.0374603
7,2,7.31221,0.000610352,-0.00579834,-2.42714,0.0559862,-0.0753682,0.0519917,-0.00105115,-0.100165,0.147149,-0.129734,-0.0844015,0.00984192,0.093956,0.000801086,-0.0173569,0.01091,0.05867,0.0375366,0.00270844,-9.97986,0.0108719,-0.00102997,-0.0211334,-0.456238,0.0401306,-0.00484467,-0.0127029,0.0357437
7,3,-1.49486,0.000305176,-0.00762939,-2.42592,0.0572069,-0.073232,0.054128,-0.0135634,-0.0980293,0.14776,-0.130649,-0.0831808,0.0114822,0.122261,0.00141144,-0.0302505,0.00587463,0.0657654,0.0331116,-0.0191116,-9.97986,0.00858307,-0.000572205,-0.0237274,-0.49881,0.0418854,-0.00476837,-0.0128555,0.0352859
7,4,-9.43553,0.000610352,-0.00717163,-2.4247,0.0572069,-0.073232,0.0535176,-0.018141,-0.095893,0.146234,-0.129734,-0.0816549,0.0118637,0.136261,0.0038147,-0.0483322,0.00171661,0.0632858,0.0302505,-0.0201416,-9.97986,0.00972748,0.00644684,-0.0289917,-0.512848,0.0368118,0.000190735,-0.0155258,0.0357056
7,5,-9.99003,0.00274658,-0.00701904,-2.4244,0.0569017,-0.0735371,0.055959,0.0236681,-0.090705,0.145318,-0.126987,-0.0813497,0.0138855,0.0939178,0.0136566,-0.0215912,0.00595093,0.0743866,0.0333786,0.00747681,-9.97986,0.0062561,0.00919342,-0.0328064,-0.561905,0.0161362,-0.0025177,-0.0121307,0.0348663
7,6,-9.99003,0.000610352,-0.00534058,-2.42562,0.0569017,-0.073232,0.054128,0.0505236,-0.0885688,0.144098,-0.125766,-0.0831808,0.0101089,0.0428391,0.0210953,-0.00473022,-0.00255585,0.0742722,0.0322342,0.037384,-9.97986,0.000953674,0.00461578,-0.0355148,-0.610085,0.0173569,-0.00205994,-0.0116348,0.0363922
7,7,-9.99003,0,-0.00305176,-2.42562,0.0559862,-0.0747579,0.0544332,0.0618151,-0.090705,0.142267,-0.125461,-0.0834859,0.014801,-0.00133514,0.0179672,-0.0382614,0.000305176,0.0767136,0.0305939,0.0488663,-9.97986,0.00469208,0.00923157,-0.0368118,-0.629234,0.0240326,0.00286102,-0.00671387,0.0373459
7,8,-9.99003,0,-0.00366211,-2.42653,0.0559862,-0.0741475,0.0556539,0.0785997,-0.090705,0.144098,-0.125156,-0.0831808,0.0143814,-0.0909042,0.00244141,-0.0788116,-0.000991821,0.0764084,0.0313187,0.0611115,-9.97986,0.0162506,0.000228882,-0.0371552,-0.662804,0.0290298,0.000495911,-0.0019455,0.0366211
7,9,-8.07353,0.00152588,0.000915527,-2.42501,0.055681,-0.075063,0.0565694,0.140245,-0.0852119,0.143182,-0.120884,-0.0834859,0.0115967,-0.148697,-0.0156403,-0.097084,-0.00232697,0.0713348,0.0305939,0.0662613,-9.97986,0.0164032,-0.00114441,-0.0390244,-0.682793,0.0451279,-0.00289917,-0.000915527,0.0401688
8,0,-0.39195,0.00152588,0.000457764,-2.42745,0.0532396,-0.0765889,0.0553487,0.154283,-0.0873481,0.143182,-0.121494,-0.0850118,0.0127792,-0.126572,-0.0148773,-0.074234,-0.00148773,0.0767899,0.0282288,0.0711823,-9.97986,0.0146484,-0.00160217,-0.0448227,-0.718613,0.0450897,-0.00106812,0.00598907,0.0363159
8,1,7.46266,0.000915527,-0.000152588,-2.42837,0.0538499,-0.0762837,0.0535176,0.153673,-0.0894843,0.145013,-0.119968,-0.0874532,0.0101852,-0.0890732,-0.00904083,-0.0603104,-0.0031662,0.0743484,0.0259399,0.0723267,-9.97986,0.0108719,-0.00125885,-0.0452423,-0.764618,0.0395584,-0.000114441,0.00892639,0.0383759
8,2,10.0097,-0.000610352,0.000457764,-2.4305,0.0520189,-0.0768941,0.0498555,0.12163,-0.0943672,0.143487,-0.124241,-0.0889791,0.00919342,-0.0611115,0.0107193,-0.03685,-0.00652313,0.0780106,0.0265503,0.0609589,-9.97986,0.0127029,-0.00816345,-0.0445175,-0.787392,0.0360107,0.00137329,0.0175858,0.0401688
8,3,10.0097,0.0012207,-0.00213623,-2.43172,0.0526292,-0.0771993,0.050771,0.0892809,-0.0971137,0.144708,-0.126377,-0.0889791,0.0137329,-0.0157547,0.0205612,-0.0300598,-0.0043869,0.0960159,0.0259399,0.0541306,-9.97986,0.00595093,-0.0107574,-0.0453949,-0.825424,0.0357437,0.00202179,0.0265121,0.0337982
8,4,10.0097,0.0012207,-0.00274658,-2.42959,0.0544603,-0.075063,0.0519917,0.0776842,-0.0977241,0.143182,-0.127292,-0.0886739,0.00946045,0.00259399,0.0322342,-0.0573349,-0.00457764,0.103912,0.0249481,0.0389481,-9.97986,0.0019455,-0.0031662,-0.0435638,-0.849152,0.033493,0.00289917,0.029068,0.0359726
8,5,10.0097,0.000915527,-0.00198364,-2.42898,0.0547655,-0.0762837,0.0526021,0.0743273,-0.0952827,0.143487,-0.125156,-0.0871481,0.0159836,0.00366211,0.0450897,-0.0333023,-0.00156403,0.0923157,0.0268555,0.0201416,-9.97986,0.0037384,0.00617981,-0.0367355,-0.849876,0.0254059,0.00740051,0.0326538,0.0355148
8,6,10.0097,0.000305176,-0.00106812,-2.42806,0.0538499,-0.0753682,0.0535176,0.072191,-0.0952827,0.145318,-0.126072,-0.0859274,0.0106812,0.02285,0.0442886,0.0123596,-0.00183105,0.0989532,0.02285,-0.00156403,-9.97986,-0.00148773,-0.00102997,-0.0411224,-0.862312,0.0239944,0.00415802,0.0403976,0.0366211
8,7,10.0097,-0.000610352,-0.000915527,-2.42776,0.0538499,-0.0723164,0.0529073,0.0709703,-0.0928413,0.145318,-0.125156,-0.0837911,0.00991821,0.0500107,0.0260544,0.0496292,-0.00602722,0.0999832,0.0232315,-0.031929,-9.97986,-0.00270844,-0.00282288,-0.0468826,-0.858879,0.0276566,0.00854492,0.0406265,0.0366592
8,8,10.0097,-0.00213623,0,-2.42623,0.0547655,-0.0747579,0.054128,0.072191,-0.0928413,0.145013,-0.125766,-0.0834859,0.0119781,0.0338745,0.0279236,0.100517,-0.00682831,0.0958633,0.0246048,-0.0658035,-9.97986,-0.00564575,-0.00255585,-0.0497055,-0.868034,0.0250626,0.00606537,0.0411987,0.0344467
8,9,10.0097,0.000915527,0.000457764,-2.42531,0.0565965,-0.073232,0.0553487,0.0718859,-0.0916206,0.145013,-0.125156,-0.0816549,0.014534,0.00808716,0.0401688,0.127907,-0.00865936,0.0964355,0.0265121,-0.0814056,-9.97986,0.00247955,0.00358582,-0.0524902,-0.875969,0.0263596,0.00999451,0.0512695,0.0343323
9,0,10.0097,-0.000915527,0.000610352,-2.42562,0.0562914,-0.0741475,0.0538228,0.0718859,-0.0919257,0.146539,-0.123935,-0.0813497,0.0137711,-0.015564,0.0635529,0.143623,-0.0115204,0.0831985,0.0256348,-0.0917816,-9.97986,0.00858307,0.00423431,-0.0476456,-0.863266,0.0239944,0.00873566,0.0495148,0.0286484
9,1,10.0097,-0.0012207,0.000610352,-2.42714,0.0565965,-0.0747579,0.0526021,0.0471666,-0.0952827,0.144098,-0.125766,-0.0828756,0.0125122,-0.00175476,0.0882721,0.13504,-0.0165176,0.0800323,0.0252151,-0.0893402,-9.97986,0.0146103,0.00389099,-0.0496674,-0.85598,0.0226212,0.00793457,0.0468063,0.0313187
9,2,7.24202,0.00152588,-0.00152588,-2.42653,0.0572069,-0.0753682,0.0519917,-0.00105115,-0.0998603,0.146234,-0.129734,-0.0831808,0.00938416,0.0224686,0.103035,0.123062,-0.0153732,0.0865173,0.0241852,-0.0727844,-9.97986,0.0204086,-0.000190735,-0.0490952,-0.849571,0.0154114,0.0069809,0.0459671,0.027504
9,3,-1.52598,0.000305176,-0.00183105,-2.42653,0.0562914,-0.0762837,0.0529073,-0.0141737,-0.0986396,0.146234,-0.130649,-0.0813497,0.0094986,0.0259781,0.105324,0.122185,-0.0160217,0.085907,0.0204468,-0.0559616,-9.97986,0.0270462,-0.00598907,-0.0480652,-0.816765,0.0170517,0.0087738,0.0427628,0.0289154
9,4,-9.47825,0.00152588,-0.00137329,-2.42531,0.0569017,-0.0738423,0.0556539,-0.0184462,-0.0968086,0.14837,-0.129429,-0.0804342,0.0111008,0.0397873,0.116425,0.0893021,-0.0258255,0.0888062,0.0177383,-0.0466156,-9.97986,0.0301361,-0.00473022,-0.0456619,-0.776711,0.015831,0.01091,0.039978,0.025444
9,5,-9.99003,0.000305176,0.000457764,-2.4247,0.0569017,-0.0723164,0.0571797,0.025194,-0.090705,0.145929,-0.127598,-0.0795187,0.0124741,0.030632,0.0995636,0.0389481,-0.0186157,0.094223,0.0188446,-0.0329971,-9.97986,0.0299072,-0.00278473,-0.0372314,-0.731239,-0.00629425,0.00808716,0.0403214,0.0223923
9,6,-9.99003,-0.000915527,0.00305176,-2.42623,0.055681,-0.0744527,0.0553487,0.0508287,-0.0903999,0.145624,-0.126377,-0.0798238,0.0102615,0.0297546,0.0659561,0.0171661,-0.0193405,0.0883484,0.0146866,-0.0343323,-9.97986,0.030365,-0.0140762,-0.0322723,-0.679169,-0.00823975,0.00278473,0.0398254,0.0226212
9,7,-9.99003,-0.000610352,0.00427246,-2.42562,0.0553758,-0.075063,0.0550435,0.0608995,-0.0931465,0.147455,-0.128513,-0.0819601,0.00911713,0.00770569,0.0224686,0.00495911,-0.0188446,0.0966644,0.0210571,-0.0200653,-9.97986,0.0354385,-0.00679016,-0.0352478,-0.625267,-0.00267029,0.0102615,0.044136,0.0236511
9,8,-9.99003,0.000915527,0.00457764,-2.42714,0.0547655,-0.0741475,0.0538228,0.0776842,-0.0903999,0.145013,-0.125461,-0.0804342,0.0105286,-0.0178528,-0.00225067,0.0114059,-0.0172424,0.0996399,0.0203705,-0.00881195,-9.97986,0.0339127,0.00499725,-0.0389481,-0.576973,0.00289917,0.0063324,0.0428009,0.0243378
9,9,-8.11717,0.000610352,0.0088501,-2.42562,0.0544603,-0.0753682,0.0565694,0.141161,-0.0852119,0.144403,-0.121494,-0.0816549,0.00850677,-0.0117111,-0.0161743,0.0069046,-0.0125122,0.0988007,0.00953674,0.00198364,-9.97986,0.0343323,0.00751495,-0.0405502,-0.527649,0.0233078,0.0115585,0.0429153,0.0233841
10,0,-0.446272,-0.0012207,0.00930786,-2.42959,0.0544603,-0.075063,0.0532125,0.152757,-0.0876533,0.144708,-0.120884,-0.0831808,0.00972748,-0.0141525,-0.0210953,0.00354767,-0.00831604,0.0966644,0.00324249,0.00392914,-9.97986,0.0366974,-0.00106812,-0.0397491,-0.466232,0.0230789,0.00808716,0.0395203,0.021019
10,1,7.40773,0.00183105,0.0100708,-2.42959,0.0535448,-0.0756734,0.054128,0.152452,-0.0903999,0.143182,-0.121494,-0.0834859,0.00919342,-0.00514984,-0.0200653,0.0265884,-0.0127411,0.0963974,-0.00289917,0.00736237,-9.97986,0.0313187,-0.0167084,-0.0422668,-0.4142,0.0252914,0.00919342,0.0413132,0.02285
10,2,10.0097,-0.0012207,0.00854492,-2.4305,0.0523241,-0.0765889,0.0495503,0.121019,-0.0955879,0.141961,-0.124546,-0.0871481,0.00434875,0.000495911,-0.0206757,0.0337219,-0.00591278,0.09758,-0.00865936,0.0179291,-9.97986,0.0296783,-0.0145721,-0.0363922,-0.360527,0.0331116,0.0115204,0.0382614,0.0218582
10,3,10.0097,0,0.0062561,-2.42989,0.0541551,-0.0759786,0.0504659,0.0892809,-0.0974189,0.143792,-0.125766,-0.0874532,0.00648499,0.00648499,-0.0252533,0.018158,-0.00972748,0.0979614,-0.0127411,0.0225067,-9.97986,0.0284576,-0.0141144,-0.0379944,-0.286865,0.0317001,0.0119781,0.0387192,0.0198364
10,4,10.0097,0.00183105,0.00762939,-2.42898,0.0538499,-0.0759786,0.0516866,0.0779894,-0.0965034,0.143792,-0.126072,-0.0862325,0.0122833,0.0138092,-0.0288773,-0.0207901,-0.0113297,0.0986481,-0.0135422,0.0249481,-9.97986,0.0278854,-0.0146103,-0.0398254,-0.206413,0.0322723,0.010643,0.0349808,0.0209427
10,5,10.0097,0.000915527,0.00549316,-2.42776,0.0535448,-0.0753682,0.0510762,0.0764635,-0.0937568,0.145013,-0.127598,-0.085317,0.00259399,0.0139999,-0.0312042,-0.0608063,-0.0126648,0.0962448,-0.0150299,0.0218964,-9.97986,0.0252533,-0.0117111,-0.0366211,-0.153046,0.0350952,0.00507355,0.03582,0.0154495
10,6,10.0097,0,0.00488281,-2.42745,0.0547655,-0.0753682,0.0535176,0.0731066,-0.0946723,0.145013,-0.125766,-0.0825704,0.0139999,0.0158691,-0.0350571,-0.0569153,-0.0128174,0.104942,-0.0165939,0.0215149,-9.97986,0.0146484,-0.0116348,-0.03685,-0.109367,0.0343704,0.00709534,0.0301743,0.0186157
10,7,10.0097,-0.000915527,0.0050354,-2.42684,0.0550706,-0.0756734,0.054128,0.0718859,-0.0928413,0.145318,-0.126377,-0.0834859,0.0136185,0.0160599,-0.0330353,-0.0322723,-0.0123215,0.108109,-0.0156403,0.0194168,-9.97986,0.0186157,-0.0063324,-0.0355148,-0.053215,0.034523,0.0134277,0.0297165,0.0173569
10,8,10.0097,-0.000305176,0.00473022,-2.42592,0.0562914,-0.075063,0.054128,0.0709703,-0.0919257,0.146234,-0.124546,-0.0819601,0.0122452,0.0194931,-0.0304794,0.00534058,-0.0180435,0.107841,-0.0275803,0.0262451,-9.97986,0.0180054,0.0196075,-0.0363159,-0.0179672,0.0396729,0.00896454,0.0299454,0.0149536
10,9,10.0097,-0.000915527,0.00335693,-2.42623,0.0547655,-0.0744527,0.0556539,0.0712755,-0.0913154,0.147455,-0.124851,-0.080129,0.0148773,0.020752,-0.032692,0.0200653,-0.0176239,0.104675,-0.0311661,0.0227356,-9.97986,0.0134659,0.0138092,-0.0377274,0.00770569,0.0400925,0.00919342,0.0276566,0.0169754
11,0,10.0097,0.00183105,0.00259399,-2.42379,0.0569017,-0.0738423,0.0553487,0.0728014,-0.0913154,0.146234,-0.124546,-0.0804342,0.0138855,0.0239944,-0.0366592,-0.0281525,-0.0157928,0.101929,-0.010376,0.0279236,-9.97986,0.0176239,-0.01091,-0.03479,0.0323486,0.0449753,0.0115204,0.0294876,0.0185394
11,1,10.0097,0.00305176,0.00305176,-2.42684,0.0559862,-0.0735371,0.0532125,0.0471666,-0.0952827,0.145624,-0.126682,-0.0822652,0.010376,0.020752,-0.0238419,-0.0680542,-0.014534,0.0972366,0.0142288,0.0264359,-9.97986,0.0138855,-0.0112915,-0.0395203,0.0711823,0.0437927,0.00610352,0.0268173,0.0141525
11,2,7.29512,0.000915527,0.0012207,-2.42806,0.055681,-0.0735371,0.0522969,-0.00257703,-0.0986396,0.145013,-0.130649,-0.0792135,0.00801086,0.0281906,-0.0133896,-0.0237274,-0.012207,0.0951004,0.0441742,0.0263977,-9.97986,0.0111389,0,-0.0342941,0.109558,0.0450516,0.00652313,0.0221252,0.0112915
11,3,-1.51011,0.0012207,-0.000457764,-2.42959,0.0550706,-0.0738423,0.0529073,-0.0120375,-0.0965034,0.147149,-0.130039,-0.0810445,0.00827789,0.0306702,-0.013237,0.0419235,-0.0164032,0.0940323,0.0688553,0.0282288,-9.97986,0.0160217,0.00736237,-0.0297165,0.147209,0.0534821,0.00930786,0.0214386,0.0130844
11,4,-9.55729,0.00152588,-0.00167847,-2.42623,0.0553758,-0.0735371,0.0538228,-0.0184462,-0.0974189,0.147455,-0.130649,-0.0810445,0.00610352,0.0354767,-0.0122452,0.0753784,-0.0228119,0.0930023,0.0906754,0.0288773,-9.97986,0.0105667,-0.000152588,-0.0322723,0.188751,0.0487137,0.00938416,0.0165939,0.0131607
11,5,-9.99003,0.00244141,0.00183105,-2.42379,0.0562914,-0.0729268,0.0553487,0.0236681,-0.090705,0.145929,-0.127598,-0.0816549,0.0113678,0.0408554,-0.00286102,0.0461197,-0.0231934,0.0930023,0.120316,0.0353622,-9.97986,0.0154495,-0.000991821,-0.0257111,0.240135,0.0252533,0.0104904,0.0177002,0.00778198
11,6,-9.99003,0.00183105,0.00320435,-2.42135,0.0562914,-0.0744527,0.0556539,0.0508287,-0.090705,0.146539,-0.125766,-0.0807394,0.00759125,0.0435257,-7.62939e-005,0.037117,-0.0280762,0.0955963,0.140495,0.033989,-9.97986,0.0146866,-0.00934601,-0.0227356,0.284538,0.0274658,0.0104523,0.0183105,0.00644684
11,7,-9.99003,0.000915527,0.00335693,-2.42562,0.0547655,-0.0741475,0.0547383,0.0612047,-0.0925361,0.145929,-0.126377,-0.0822652,0.0121307,0.0447845,7.62939e-005,0.0362396,-0.0305939,0.0987625,0.160561,0.0378418,-9.97986,0.0111771,-0.00522614,-0.0199127,0.309219,0.0311661,0.00999451,0.0140381,0.0107574
11,8,-9.99003,0.00305176,0.00396729,-2.42562,0.055681,-0.0744527,0.0547383,0.0801256,-0.090705,0.146539,-0.126682,-0.0819601,0.0107193,0.0418091,0.0160599,0.0447464,-0.0250244,0.101013,0.176315,0.0366974,-9.97986,0.00892639,-0.00442505,-0.0206375,0.35614,0.0376129,0.0123978,0.0156784,0.00553131
11,9,-7.94841,0.000915527,0.00946045,-2.42837,0.0550706,-0.0738423,0.0565694,0.140856,-0.0849067,0.145013,-0.12241,-0.0816549,0.0120163,0.050354,0.0199127,0.0800705,-0.0218201,0.093689,0.186005,0.0374222,-9.97986,0.00518799,-0.00167847,-0.0163269,0.423584,0.053215,0.0130081,0.0136566,0.00858307
12,0,-0.26927,0.000915527,0.0108337,-2.42776,0.0535448,-0.0753682,0.0565694,0.152757,-0.0876533,0.144403,-0.120273,-0.0825704,0.0108337,0.0460052,0.0334167,0.109329,-0.0309372,0.0901413,0.199814,0.0389862,-9.97986,0.00988007,-3.8147e-005,-0.0188828,0.501785,0.0536728,0.0105667,0.00976563,0.00621796
12,1,7.54476,0.00152588,0.0114441,-2.42928,0.0538499,-0.0759786,0.0535176,0.155504,-0.090705,0.143792,-0.121494,-0.085317,0.0118637,0.044632,0.046463,0.0856018,-0.0353241,0.091362,0.210114,0.0386047,-9.97986,0.00858307,0.00125885,-0.00988007,0.570602,0.0531769,0.00709534,0.0108337,0.0056076
12,2,10.0097,-0.000915527,0.00991821,-2.42776,0.0511034,-0.0781148,0.0501607,0.120409,-0.0949775,0.142267,-0.125766,-0.0865377,0.0134277,0.0426865,0.0531387,0.0553131,-0.047493,0.0898743,0.217857,0.0409317,-9.97986,0.00850677,-0.000228882,-0.00461578,0.633545,0.0561523,0.00617981,0.00995636,0.00576019
12,3,10.0097,0.000305176,0.00839233,-2.4305,0.0532396,-0.0756734,0.050771,0.0886705,-0.0974189,0.141961,-0.126682,-0.0865377,0.00911713,0.0460052,0.0614929,0.0553513,-0.0562668,0.075264,0.220261,0.0333023,-9.97986,0.00808716,-0.000953674,-0.00770569,0.711555,0.0550079,0.00278473,0.0114822,0.00293732
12,4,10.0097,0.000610352,0.00762939,-2.42867,0.0532396,-0.0759786,0.0513814,0.0767687,-0.0955879,0.144098,-0.127598,-0.085317,0.00926971,0.0444794,0.068779,0.0408173,-0.0590134,0.0736237,0.238647,0.0376129,-9.97986,0.00888824,-0.00198364,-0.00652313,0.788841,0.0544357,0.00476837,0.011673,0.00480652
12,5,10.0097,0.000305176,0.00640869,-2.42745,0.0544603,-0.0759786,0.0519917,0.0740221,-0.0949775,0.143487,-0.126072,-0.0847066,0.00911713,0.0395203,0.0571442,0.00144958,-0.0710678,0.0658798,0.245285,0.0334167,-9.97986,0.00148773,0.0031662,-0.00572205,0.841675,0.0537109,0.00282288,0.00694275,-0.00221252
12,6,10.0097,0,0.00534058,-2.42806,0.0544603,-0.0744527,0.0535176,0.0706652,-0.0952827,0.145013,-0.125766,-0.0840963,0.017662,0.0360107,0.0563431,0.0265121,-0.0757217,0.0728607,0.261116,0.0292587,-9.97986,0.00843048,0.00606537,-0.00705719,0.890732,0.0533295,0.00202179,0.00713348,0.00244141
12,7,10.0097,0.00244141,0.0050354,-2.42714,0.0532396,-0.0747579,0.054128,0.0715807,-0.0934516,0.146539,-0.127903,-0.0831808,0.0108719,0.0369644,0.0426865,0.0379181,-0.0894165,0.0656128,0.263023,0.019989,-9.97986,0.00995636,-0.00679016,-0.0124359,0.929947,0.0521851,0.00598907,0.00900269,0.00144958
12,8,10.0097,0.00152588,0.00457764,-2.42714,0.0553758,-0.075063,0.0538228,0.0709703,-0.0925361,0.145318,-0.124546,-0.0822652,0.00873566,0.0340652,0.0323868,0.0408936,-0.0822449,0.0638199,0.261803,0.0182724,-9.97986,0.00865936,-0.00705719,-0.0125504,0.969238,0.0501251,0.00141144,0.00694275,0.0031662
12,9,10.0097,0,0.00366211,-2.42623,0.0562914,-0.0720113,0.0544332,0.0700548,-0.0919257,0.146234,-0.12363,-0.080129,0.00930786,0.0372314,0.0332642,0.0369644,-0.0780106,0.0632858,0.253792,0.0247574,-9.97986,0.00495911,-0.0088501,-0.00713348,1.01368,0.0492096,-0.000915527,0.0100708,0.000648499
13,0,10.0097,-0.000915527,0.00457764,-2.42501,0.0559862,-0.073232,0.0547383,0.0709703,-0.0903999,0.145013,-0.124546,-0.080129,0.00873566,0.0322342,0.0268936,0.00846863,-0.0761795,0.0616837,0.254555,0.0291061,-9.97986,0.0115967,-0.0104141,-0.00701904,1.04542,0.0473785,-0.00358582,0.010376,-0.00274658
13,1,10.0097,0.000305176,0.00213623,-2.42776,0.0553758,-0.0747579,0.0522969,0.0462511,-0.0961982,0.146539,-0.126987,-0.0831808,0.0146103,0.0347519,0.0271225,-0.0429535,-0.0655746,0.0566864,0.254135,0.0323105,-9.97986,0.00972748,-0.0125885,-0.00610352,1.06209,0.0471115,-0.000724792,0.00907898,-0.00301361
13,2,7.18526,-0.000305176,-0.0012207,-2.42745,0.0559862,-0.0747579,0.0516866,-0.00257703,-0.100776,0.145013,-0.128513,-0.0825704,0.0094986,0.0315094,0.0318527,-0.0601196,-0.0575638,0.0624466,0.260429,0.0345612,-9.97986,0.0133896,-0.00579834,-0.0087738,1.06853,0.0466156,0.00591278,0.0117874,7.62939e-005
13,3,-1.54765,-0.0012207,-0.00228882,-2.42562,0.0575121,-0.0747579,0.0526021,-0.0141737,-0.0974189,0.145318,-0.129429,-0.0813497,0.00671387,0.0296021,0.0325394,-0.0298309,-0.0557327,0.0556946,0.247917,0.0330734,-9.97986,0.00976563,-0.00888824,-0.0124741,1.09272,0.0428009,0.00553131,0.0123978,-0.000839233
13,4,-9.53135,0.00183105,-0.00228882,-2.42531,0.0565965,-0.0744527,0.0538228,-0.0175306,-0.095893,0.146234,-0.129429,-0.0804342,0.0120544,0.0312805,0.036087,-0.000991821,-0.0500107,0.0526428,0.223503,0.0292206,-9.97986,0.00747681,-0.00175476,-0.0107574,1.12282,0.0426865,0.00133514,0.0100708,-0.0062561
13,5,-9.99003,-0.00213623,-0.000152588,-2.4247,0.0569017,-0.0735371,0.055959,0.0227526,-0.0900947,0.147455,-0.127598,-0.0795187,0.0127792,0.0339508,0.0482178,-0.00675201,-0.0426483,0.0476456,0.212173,0.0312042,-9.97986,0.00862122,-0.00461578,-0.0124741,1.15807,0.0176239,0.000686646,0.0122833,-0.0075531
13,6,-9.99003,0.000610352,0.00152588,-2.4247,0.0559862,-0.0744527,0.0565694,0.0517443,-0.0894843,0.145624,-0.125461,-0.0807394,0.0114441,0.0336838,0.0529099,-0.0534439,-0.038681,0.0437164,0.191956,0.0284958,-9.97986,0.0101471,-0.00610352,-0.0119781,1.18149,0.0155258,-0.0018692,0.0118256,-0.0106812
13,7,-9.99003,0,0.00213623,-2.42379,0.055681,-0.0744527,0.0547383,0.0618151,-0.0919257,0.145929,-0.126377,-0.0810445,0.0136185,0.0359726,0.0490952,-0.0721359,-0.0374222,0.0418854,0.183258,0.031395,-9.97986,0.00938416,-0.00396729,-0.00591278,1.20052,0.0162506,-0.00431061,0.0159073,-0.0111008
13,8,-9.99003,0,0.00228882,-2.42653,0.0550706,-0.075063,0.0556539,0.0785997,-0.0900947,0.145013,-0.124851,-0.0825704,0.00900269,0.0359344,0.046196,-0.0488663,-0.0431824,0.0370789,0.165253,0.0291824,-9.97986,0.0141525,-0.00534058,-0.00965118,1.2151,0.0243759,-0.00473022,0.0131989,-0.0108337
13,9,-8.05095,0.00152588,0.0050354,-2.42531,0.0553758,-0.0753682,0.0565694,0.14055,-0.0852119,0.145013,-0.120578,-0.0822652,0.010643,0.044136,0.0408173,-0.0348282,-0.0404358,0.0375366,0.148392,0.0223541,-9.97986,0.015831,-0.00350952,-0.00473022,1.23199,0.0402832,-0.0114441,0.01194,-0.00938416
14,0,-0.369062,0.000610352,0.00579834,-2.42745,0.0538499,-0.0756734,0.0547383,0.153368,-0.0879585,0.144098,-0.121189,-0.0844015,0.00701904,0.0494003,0.0357437,-0.0780106,-0.0325775,0.0383759,0.131493,0.0229263,-9.97986,0.0140381,-0.00827789,-0.00579834,1.24519,0.0340271,-0.0126648,0.0144958,-0.00507355
14,1,7.57253,0.00152588,0.00473022,-2.42776,0.0532396,-0.0747579,0.0519917,0.153368,-0.0894843,0.143182,-0.122104,-0.0856222,0.00762939,0.0439835,0.0296783,-0.0872421,-0.0342941,0.0392151,0.123672,0.0224304,-9.97986,0.00865936,-0.0105286,-0.00606537,1.24218,0.0294113,-0.0139999,0.0114822,-0.00518799
14,2,10.0097,-0.000915527,0.00335693,-2.43111,0.0532396,-0.0771993,0.0504659,0.121324,-0.0952827,0.142267,-0.124546,-0.0883688,0.00705719,0.0384521,0.0293732,-0.0299835,-0.0315094,0.0398636,0.110855,0.0188065,-9.97986,0.0112915,-0.00461578,-0.00938416,1.24153,0.0302124,-0.0101089,0.0151443,-0.0038147
14,3,10.0097,0.000305176,0.000762939,-2.43142,0.0532396,-0.0771993,0.0504659,0.0892809,-0.0980293,0.141961,-0.126682,-0.0895895,0.0102997,0.0413895,0.0292587,0.00331879,-0.025177,0.0370407,0.098114,0.027504,-9.97986,0.0127411,-0.00434875,-0.0119019,1.24104,0.027771,-0.0101852,0.0229645,-0.00343323
14,4,10.0097,0.0012207,0.000305176,-2.4302,0.0529344,-0.0759786,0.0516866,0.0801256,-0.0961982,0.144098,-0.126377,-0.0874532,0.00705719,0.0337982,0.02491,-0.00679016,-0.0252914,0.0324631,0.0893402,0.0302887,-9.97986,0.0114441,-0.00904083,-0.00358582,1.24565,0.0217056,-0.00682831,0.0232697,-0.00488281
14,5,10.0097,0.000305176,0.000915527,-2.42837,0.0538499,-0.0759786,0.0519917,0.0740221,-0.0961982,0.143792,-0.127292,-0.0862325,0.0107574,0.0326157,0.0172043,-0.0082016,-0.0258255,0.0311279,0.0782394,0.0364304,-9.97986,0.0159454,-0.0148773,0.00705719,1.24996,0.0202179,-0.0154114,0.0253296,-0.00534058
14,6,10.0097,0.000915527,0.00167847,-2.42806,0.0544603,-0.0756734,0.0526021,0.0712755,-0.0934516,0.144403,-0.126072,-0.0847066,0.0110245,0.0300598,0.0127411,0.00602722,-0.0191498,0.0297165,0.0711441,0.0370026,-9.97986,0.0152206,-0.0159454,0.0161362,1.24996,0.0173569,-0.00843048,0.0281906,-0.00667572
14,7,10.0097,0.000305176,0.00137329,-2.42837,0.0550706,-0.0741475,0.054128,0.07036,-0.0943672,0.145318,-0.125461,-0.0844015,0.00888824,0.0292969,0.00408173,0.0211716,-0.0134659,0.0277328,0.0585938,0.0326157,-9.97986,0.0109482,-0.0123978,0.0318527,1.24996,0.019455,-0.00427246,0.0262451,-0.00133514
14,8,10.0097,0.000915527,0.0012207,-2.42684,0.055681,-0.0744527,0.0535176,0.0715807,-0.0922309,0.143792,-0.124851,-0.0834859,0.00881195,0.0284195,0.00656128,0.0400162,-0.0150681,0.0184631,0.0460052,0.0348663,-9.97986,0.0131607,-0.0161743,0.02285,1.24996,0.0164413,-0.00770569,0.0126648,-0.0031662
14,9,10.0097,0.00244141,0.000915527,-2.42318,0.0547655,-0.073232,0.0556539,0.0728014,-0.0931465,0.146844,-0.124546,-0.0816549,0.0105286,0.0259399,0.013504,0.0271606,-0.014801,0.0209808,0.0370407,0.0320816,-9.97986,0.0136948,-0.0102234,0.0187302,1.24996,0.0109482,-0.00606537,0.0109482,-0.00713348
15,0,10.0097,0,0.000152588,-2.42562,0.0562914,-0.0747579,0.0538228,0.0697496,-0.0916206,0.145013,-0.124851,-0.0816549,0.0101471,0.0287628,0.0210953,0.00808716,-0.0141525,0.0159073,0.0281525,0.0299072,-9.97986,0.0143814,-0.00595093,0.0146866,1.24996,0.0111008,-0.00255585,0.0126266,-0.00541687
15,1,10.0097,-0.000610352,-0.0012207,-2.42684,0.0553758,-0.0741475,0.0522969,0.0462511,-0.0949775,0.146234,-0.126072,-0.0834859,0.00663757,0.0252914,0.0236511,0.0135422,-0.00938416,0.00648499,0.0154114,0.0224686,-9.97986,0.0164413,-0.0043869,0.0119781,1.24996,0.00835419,-0.00694275,0.0136948,-0.00850677
15,2,7.28932,-0.000915527,-0.0038147,-2.42714,0.055681,-0.0744527,0.0513814,-0.0016615,-0.100165,0.145013,-0.129123,-0.0844015,0.0104904,0.0291443,0.0236893,0.0126266,-0.0150299,0.00419617,0.00671387,0.0250244,-9.97986,0.0162125,0.00152588,0.0169373,1.23558,-0.00087738,-0.00999451,0.0149918,-0.00728607
15,3,-1.41887,0.000915527,-0.00518799,-2.42501,0.0565965,-0.0744527,0.0529073,-0.0147841,-0.0968086,0.146844,-0.129429,-0.0816549,0.0056839,0.0268936,0.0321198,0.0127029,-0.0117493,-0.000534058,-0.000572205,0.0343704,-9.97986,0.0108719,0.00209808,0.0189209,1.22078,0.00358582,-0.00991821,0.0133514,-0.00602722
15,4,-9.39372,-0.000915527,-0.0062561,-2.42531,0.0559862,-0.0738423,0.0532125,-0.0172255,-0.0968086,0.146234,-0.130344,-0.0822652,0.00640869,0.0210571,0.0430298,0.01194,-0.00450134,-0.00663757,-0.01297,0.0256729,-9.97986,0.00720978,0.00282288,0.017128,1.2109,-0.000267029,-0.0147247,0.0120544,-0.0104523
15,5,-9.99003,0.000610352,-0.00396729,-2.42531,0.0569017,-0.0744527,0.055959,0.0224474,-0.0910102,0.145929,-0.126987,-0.0798238,0.00389099,0.0230408,0.0416183,0.0137329,0.00110626,-0.00919342,-0.0304031,0.0340652,-9.97986,0.00583649,0.00740051,0.0215149,1.19205,-0.0260544,-0.0163651,0.0109863,-0.0069046
15,6,-9.99003,0,-0.00259399,-2.4244,0.0550706,-0.0735371,0.0565694,0.0483873,-0.0913154,0.146234,-0.127598,-0.0825704,0.00511169,0.0179291,0.0438309,0.0549698,0.00370026,-0.0143433,-0.0411224,0.0247955,-9.97986,0.0104523,0.00968933,0.0221252,1.17085,-0.0293732,-0.0200653,0.00846863,-0.0082016
15,7,-9.99003,0.000305176,-0.00305176,-2.42714,0.0559862,-0.0738423,0.0547383,0.0608995,-0.0922309,0.144403,-0.123325,-0.0847066,0.00469208,0.021553,0.0326538,0.0802231,0.00865936,-0.0147629,-0.0535202,0.0403214,-9.97986,0.00782013,0.00362396,0.0244904,1.13083,-0.0300217,-0.0166321,0.00534058,-0.00728607
15,8,-9.99003,0.00213623,-0.00335693,-2.42562,0.0565965,-0.0753682,0.055959,0.0816515,-0.0891792,0.146539,-0.124546,-0.0837911,0.00450134,0.0214767,0.0302887,0.0658035,0.0141525,-0.0204468,-0.0646591,0.0481033,-9.97986,0.00804901,0.0018692,0.0260162,1.08891,-0.0184631,-0.0100708,0.00976563,-0.00728607
15,9,-7.70427,0.000915527,-0.000305176,-2.42623,0.0544603,-0.0744527,0.0565694,0.137193,-0.083686,0.145318,-0.121799,-0.0831808,0.0143814,0.0382614,0.0221634,0.048027,0.0140381,-0.0271988,-0.0755692,0.057869,-9.97986,0.00614166,0.00278473,0.0258255,1.04263,-0.0069809,-0.00495911,0.00862122,-0.00694275
16,0,0.0697806,0.00183105,-0.000152588,-2.42776,0.0535448,-0.0759786,0.0535176,0.153673,-0.0882636,0.145624,-0.121799,-0.0856222,0.013504,0.0706482,0.0179291,0.0349808,0.0152969,-0.0313568,-0.0845337,0.0817871,-9.97986,0.00823975,0.00141144,0.0311279,0.992775,-0.00198364,-0.000686646,0.0144196,-0.00358582
16,1,7.93233,0.0012207,-0.000610352,-2.42959,0.0544603,-0.0753682,0.0532125,0.154283,-0.0900947,0.143487,-0.121189,-0.0874532,0.0150299,0.0804901,0.02285,0.0172043,0.0203323,-0.0426483,-0.0936127,0.0773621,-9.97986,0.00621796,-0.00926971,0.0254059,0.935783,-0.00537872,0.000762939,0.00701904,-0.00999451
16,2,10.0097,-0.000610352,-0.00244141,-2.43172,0.0535448,-0.0759786,0.050771,0.116747,-0.0977241,0.141656,-0.125156,-0.0895895,0.0195694,0.062294,0.02285,0.018959,0.0258255,-0.0392914,-0.0995255,0.077095,-9.97986,0.00827789,-0.00423431,0.0309753,0.882072,-0.0063324,0.00724792,0.00751495,-0.00591278
16,3,10.0097,0.000915527,-0.0050354,-2.42989,0.0541551,-0.0768941,0.0513814,0.0886705,-0.0971137,0.144098,-0.126377,-0.0908102,0.017395,0.0417709,0.019989,0.0165939,0.025444,-0.0439835,-0.102463,0.0621033,-9.97986,0.00732422,-0.0056076,0.031662,0.819664,-0.00457764,0.00728607,0.00366211,-0.00514984
16,4,10.0097,0.000610352,-0.0062561,-2.42959,0.0529344,-0.0747579,0.0516866,0.0770738,-0.0968086,0.142267,-0.126987,-0.0901998,0.015564,0.0182724,0.0120926,0.0185394,0.0325394,-0.0481033,-0.106583,0.0364304,-9.97986,0.0139999,-0.0109863,0.0283051,0.753555,-0.00282288,7.62939e-005,0.000267029,-0.00671387
16,5,10.0097,-0.000915527,-0.00564575,-2.42806,0.0547655,-0.0756734,0.0532125,0.0731066,-0.0968086,0.144708,-0.126682,-0.0877584,0.0164413,0.00881195,0.00442505,0.0152588,0.0357819,-0.050087,-0.112419,0.00106812,-9.97986,0.00995636,-0.000305176,0.0354767,0.695076,0.000152588,0.00343323,0.00408173,-0.00881195
16,6,10.0097,0.000610352,-0.0050354,-2.42776,0.0550706,-0.075063,0.054128,0.0718859,-0.094062,0.145013,-0.126682,-0.0883688,0.00892639,0.00106812,0.00656128,0.0069809,0.032196,-0.0588608,-0.115852,-0.0384903,-9.97986,0.0157547,-0.00125885,0.033493,0.634117,-0.000762939,0.000190735,0.00419617,-0.00591278
16,7,10.0097,-0.000610352,-0.00579834,-2.42714,0.0553758,-0.0747579,0.0535176,0.0709703,-0.0925361,0.143792,-0.126377,-0.0850118,0.00209808,0.00225067,0.0179672,-0.0037384,0.0373077,-0.063858,-0.117722,-0.0365448,-9.97986,0.00972748,0.00476837,0.0403214,0.577087,0.00137329,0.00305176,0.00556946,-0.00404358
16,8,10.0097,-0.00274658,-0.00518799,-2.42623,0.0562914,-0.075063,0.0529073,0.0740221,-0.0928413,0.145318,-0.125156,-0.0850118,-0.00335693,0.00907898,0.0175095,0.00453949,0.0357819,-0.0667191,-0.125999,-0.0369644,-9.97986,0.00465393,0.00480652,0.0423431,0.523186,-0.000419617,0.000648499,0.00656128,-0.00701904
16,9,10.0097,0.0012207,-0.00579834,-2.4247,0.0562914,-0.073232,0.0550435,0.0728014,-0.0919257,0.146234,-0.123935,-0.085317,0.000839233,0.00659943,0.0210953,0.0181961,0.0382233,-0.0707626,-0.128326,-0.0367737,-9.97986,0.0108337,0.00480652,0.0422287,0.453796,-0.00244141,-0.00278473,0.00892639,-0.00846863
17,0,10.0097,-0.0012207,-0.00671387,-2.42531,0.0553758,-0.0735371,0.0556539,0.072191,-0.0916206,0.146844,-0.123935,-0.0834859,0.00442505,-0.00667572,0.0213623,0.0102997,0.0410461,-0.0706482,-0.13607,-0.0312042,-9.97986,0.0205231,0.0104141,0.0406265,0.377045,0.00148773,-0.000915527,0.0103378,-0.00244141
17,1,10.0097,0.000305176,-0.0088501,-2.42653,0.0562914,-0.0756734,0.0516866,0.0468614,-0.0949775,0.146539,-0.126987,-0.085317,0.00576019,-0.0126648,0.0180817,0.00274658,0.0475311,-0.0784683,-0.133705,-0.0405884,-9.97986,0.022316,0.00797272,0.0434113,0.269203,0.00541687,0.000648499,0.00469208,-0.00396729
17,2,7.16878,0,-0.0135803,-2.42745,0.055681,-0.0735371,0.0513814,-0.0016615,-0.0995551,0.146234,-0.130344,-0.0847066,0.00854492,-0.00167847,0.0125504,-0.0018692,0.0437164,-0.0778198,-0.134659,-0.0287247,-9.97986,0.0270462,0.0038147,0.0445557,0.148811,0.0110626,-0.000419617,0.00473022,-0.00343323
17,3,-1.43931,0.000915527,-0.0166321,-2.42379,0.0553758,-0.0744527,0.0535176,-0.0138685,-0.0977241,0.14776,-0.130954,-0.085317,0.00862122,0.0112152,0.0132751,-0.00888824,0.042572,-0.075264,-0.13588,-0.0101471,-9.97986,0.0346375,0.00778198,0.0398636,0.0146103,0.0136185,0.000457764,0.00450134,-0.00247955
17,4,-9.36717,-0.000610352,-0.017395,-2.4247,0.0559862,-0.0738423,0.0529073,-0.0163099,-0.0949775,0.146539,-0.129429,-0.0862325,0.00965118,0.0136948,0.0150299,-0.0201797,0.0453186,-0.0746536,-0.138016,-0.0102615,-9.97986,0.0385666,0.000419617,0.0444412,-0.126457,0.0144958,0.00415802,0.00488281,-0.00171661
17,5,-9.99003,0.000305176,-0.0170898,-2.42379,0.0559862,-0.0744527,0.0556539,0.0233629,-0.0910102,0.145318,-0.129123,-0.0850118,0.0105667,0.0182724,0.011673,-0.0247574,0.0497818,-0.0817871,-0.139618,-0.00652313,-9.97986,0.0391006,0.00663757,0.0419235,-0.258255,-0.00320435,0.00267029,0.00400543,-0.0019455
17,6,-9.99003,0.000305176,-0.0138855,-2.42837,0.055681,-0.0735371,0.0556539,0.0517443,-0.0894843,0.147455,-0.126682,-0.0844015,0.01194,0.0337982,0.0151062,-0.0170517,0.0481796,-0.0776672,-0.137749,0.00537872,-9.97986,0.0328827,0.00759125,0.04673,-0.395241,0.00610352,0.00286102,0.00362396,0.00106812
17,7,-9.99003,-0.000915527,-0.0123596,-2.42562,0.0541551,-0.0735371,0.054128,0.0605944,-0.0919257,0.145929,-0.126377,-0.0862325,0.0120926,0.048027,0.0206375,0.00339508,0.04879,-0.0813675,-0.137177,0.0191879,-9.97986,0.0310516,0.0114822,0.0427628,-0.516663,0.0189972,0.00190735,0.00492096,-0.00087738
17,8,-9.99003,0.00152588,-0.0109863,-2.42623,0.0575121,-0.0759786,0.0556539,0.0819567,-0.0882636,0.145929,-0.126377,-0.0850118,0.0154114,0.0403214,0.0292587,0.0190353,0.0505829,-0.0785065,-0.133858,0.00934601,-9.97986,0.0273132,0.0123978,0.0452042,-0.62336,0.0454712,0.00427246,0.00442505,-0.001297
17,9,-7.68504,0.00152588,-0.00717163,-2.4244,0.0541551,-0.0744527,0.0565694,0.142687,-0.0833808,0.145318,-0.121189,-0.085317,0.0151443,0.0328827,0.0337601,0.0260925,0.0511551,-0.071106,-0.128136,-0.00587463,-9.97986,0.0227737,0.00663757,0.0436783,-0.7341,0.0606918,0.00118256,-0.000839233,-0.00205994
18,0,0.0584891,0.0012207,-0.0062561,-2.42745,0.0541551,-0.075063,0.0550435,0.153978,-0.0876533,0.143182,-0.120884,-0.0862325,0.0169373,0.0319672,0.0260162,0.00511169,0.0537491,-0.0709152,-0.117912,-0.0175476,-9.97986,0.0257874,0.00652313,0.0403214,-0.820503,0.0598907,0.00324249,0.00377655,-0.00133514
18,1,7.90029,0.000610352,-0.00396729,-2.42806,0.0529344,-0.0765889,0.0535176,0.154588,-0.0910102,0.143182,-0.119358,-0.0865377,0.0183487,0.0211716,0.0200653,-0.0151062,0.0527954,-0.0688934,-0.100784,-0.0232315,-9.97986,0.0281143,0.00915527,0.0452423,-0.902672,0.0432587,0.00431061,0.000686646,0.00236511
18,2,10.0097,0.000305176,-0.00488281,-2.43081,0.0532396,-0.0759786,0.0501607,0.117967,-0.0974189,0.141656,-0.123935,-0.0911153,0.0180817,0.00656128,0.0158691,-0.0281906,0.0567627,-0.0642395,-0.0791168,-0.0222778,-9.97986,0.0287628,0.00720978,0.0388336,-0.973053,0.0200272,0.0056839,-0.00137329,-0.000953674
18,3,10.0097,0.000610352,-0.00656128,-2.43111,0.0535448,-0.0765889,0.0501607,0.0889757,-0.0974189,0.142267,-0.126377,-0.0898946,0.0133133,0.00595093,0.00747681,-0.0492096,0.0545883,-0.064621,-0.0614166,-0.0191879,-9.97986,0.0226212,0.00923157,0.0407028,-1.02882,-0.0088501,0.00331879,0.00377655,0.00087738
18,4,10.0097,0.000915527,-0.00534058,-2.42959,0.0535448,-0.0762837,0.0516866,0.0776842,-0.0965034,0.142877,-0.124851,-0.0920309,0.0111008,0.0180054,0.011673,-0.0467682,0.054245,-0.059166,-0.0485992,-0.0172806,-9.97986,0.0250626,0.0157166,0.0434875,-1.0783,-0.0317383,0.00473022,0.000915527,0.0044632
18,5,10.0097,0.000610352,-0.00549316,-2.42867,0.0553758,-0.0756734,0.0519917,0.0740221,-0.0952827,0.143182,-0.126072,-0.0883688,0.0114059,0.00839233,0.0199127,-0.0516891,0.0584412,-0.0544357,-0.0344849,-0.0075531,-9.97986,0.0291061,0.0123215,0.0419617,-1.1293,-0.0460815,0.00705719,-0.000419617,0.0025177
18,6,10.0097,0.000915527,-0.00442505,-2.42745,0.0547655,-0.0756734,0.0535176,0.0718859,-0.0946723,0.143792,-0.126072,-0.0862325,0.0117111,-0.0235367,0.0188828,-0.043869,0.0561142,-0.0550842,-0.022583,-0.000762939,-9.97986,0.0279236,0.0151443,0.0405502,-1.17111,-0.0528336,0.00358582,0.00415802,0.00656128
18,7,10.0097,0.000305176,-0.00427246,-2.42714,0.0544603,-0.0747579,0.0519917,0.0700548,-0.0925361,0.144708,-0.125461,-0.0868429,0.0128555,-0.0149918,0.0115967,-0.00629425,0.0550079,-0.057373,-0.00846863,0.00133514,-9.97986,0.0249481,-0.00324249,0.040741,-1.20686,-0.0533676,0.0012207,0.00400543,0.00656128
18,8,10.0097,-0.000305176,-0.00305176,-2.42562,0.055681,-0.0747579,0.054128,0.072191,-0.0928413,0.145318,-0.125766,-0.0840963,0.0106049,0.0154495,0.00217438,0.0561905,0.0597763,-0.0474167,7.62939e-005,0.00408173,-9.97986,0.0246429,-0.00667572,0.0411606,-1.23234,-0.0487137,0.00576019,0.00572205,0.00320435
18,9,10.0097,0.0012207,-0.00167847,-2.42562,0.0565965,-0.0741475,0.0547383,0.0724962,-0.0949775,0.146234,-0.125461,-0.0822652,0.0117493,0.00598907,-0.00400543,0.123558,0.0598526,-0.0498962,0.00675201,0.0128937,-9.97986,0.0237656,0.00125885,0.0403214,-1.24794,-0.0406265,0.0025177,0.00774384,0.00629425
19,0,10.0097,0.000610352,-0.00183105,-2.4247,0.0569017,-0.0741475,0.0550435,0.0724962,-0.0922309,0.146234,-0.123935,-0.0813497,0.0106049,-0.00724792,0.00152588,0.116653,0.0557709,-0.0472641,0.0154114,0.0112534,-9.97986,0.0240326,-0.00423431,0.0383377,-1.25,-0.0278091,0.00400543,0.00961304,0.00740051
19,1,10.0097,0.00213623,0.000152588,-2.42684,0.0569017,-0.0756734,0.0526021,0.0468614,-0.0971137,0.146234,-0.127598,-0.0828756,0.0114822,-0.00831604,0.0138474,0.0797272,0.0563812,-0.0482178,0.0195313,0.0112534,-9.97986,0.0241852,0.00156403,0.0374985,-1.24413,-0.0132751,0.00350952,0.00492096,0.0108719
19,2,7.3055,0.000915527,-0.00228882,-2.42714,0.0559862,-0.075063,0.0526021,-0.00349256,-0.09925,0.146234,-0.129429,-0.0825704,0.00789642,-0.00114441,0.0222397,0.0673294,0.0570297,-0.0388718,0.0259399,0.0117493,-9.97986,0.0216293,-0.00545502,0.0365067,-1.23428,-0.00419617,0.00106812,0.00476837,0.00717163
19,3,-1.37187,0.00335693,-0.00305176,-2.42562,0.0565965,-0.0735371,0.0526021,-0.0132582,-0.0977241,0.14776,-0.129734,-0.0810445,0.00530243,0.00495911,0.0248718,0.0522614,0.0608063,-0.044899,0.0274277,0.0154877,-9.97986,0.0244522,-0.00358582,0.0328827,-1.22211,0.00640869,-0.000457764,0.00595093,0.0101089
19,4,-9.34306,0.0012207,-0.00305176,-2.42531,0.0587328,-0.0738423,0.054128,-0.0163099,-0.0955879,0.147149,-0.128818,-0.0816549,0.01091,0.0131989,0.0250244,0.0356674,0.0621414,-0.0342941,0.0417709,0.0231934,-9.97986,0.0228119,-0.00644684,0.0369644,-1.20335,0.0115585,-0.00148773,0.00827789,0.0125122
19,5,-9.99003,-0.000305176,-0.00320435,-2.4247,0.0559862,-0.0729268,0.0562642,0.0193956,-0.0937568,0.145624,-0.127598,-0.0798238,0.00686646,0.0122452,0.0251007,0.0281143,0.0654984,-0.0376129,0.0440598,0.0161362,-9.97986,0.0244522,-0.0107574,0.0335312,-1.19144,-0.0130844,-0.00213623,0.00583649,0.00835419
19,6,-9.99003,0.0012207,0.000305176,-2.42531,0.0562914,-0.0747579,0.0556539,0.0520494,-0.0891792,0.146234,-0.126682,-0.0819601,0.00740051,0.0317764,0.0231552,0.0143433,0.0644684,-0.0393295,0.0510788,0.0191116,-9.97986,0.0212097,-0.0115585,0.0362396,-1.17809,-0.0246429,0.00202179,0.00751495,0.00926971
19,7,-9.99003,0.000915527,0.0012207,-2.42714,0.0578172,-0.0747579,0.0538228,0.0605944,-0.0919257,0.144098,-0.126072,-0.0825704,0.0094223,0.0421524,0.0263214,0.00976563,0.0708008,-0.0363541,0.0524139,0.0160217,-9.97986,0.0200653,-0.0219345,0.0345612,-1.15532,-0.0317001,-0.00259399,0.00770569,0.0137329
19,8,-9.99003,0.000610352,0.00167847,-2.42653,0.0544603,-0.0738423,0.0547383,0.0819567,-0.0861274,0.144708,-0.124851,-0.0816549,0.0102615,0.0326538,0.0201416,0.0199509,0.0747681,-0.0337219,0.0533295,0.0187302,-9.97986,0.0193787,-0.026741,0.0301361,-1.13625,-0.0320816,0.00202179,0.00801086,0.0111008
19,9,-7.58494,0.0012207,0.0050354,-2.42714,0.0541551,-0.0753682,0.0553487,0.141161,-0.0855171,0.145318,-0.121494,-0.0816549,0.00980377,0.0246811,0.022049,0.0257111,0.0752258,-0.0339127,0.0658035,0.0191116,-9.97986,0.0214767,-0.017395,0.0319672,-1.11977,-0.0279999,0.00278473,0.00904083,0.0104904
20,0,0.102129,0.000610352,0.00518799,-2.42653,0.0526292,-0.0753682,0.0553487,0.153673,-0.0867378,0.144403,-0.120884,-0.0834859,0.00705719,0.0222397,0.0175095,0.0130463,0.0696945,-0.033989,0.0614929,0.0162125,-9.97986,0.0211334,-0.00785828,0.0322723,-1.09955,-0.0325775,0.00156403,0.010376,0.0136566
20,1,7.90792,0.0012207,0.00595093,-2.42806,0.0538499,-0.0768941,0.0529073,0.153368,-0.0894843,0.143792,-0.121494,-0.0859274,0.0112152,0.0231934,0.00576019,0.0128555,0.0748062,-0.0318527,0.0659943,0.0196838,-9.97986,0.0187683,-0.0094223,0.0318527,-1.07986,-0.0359344,0.00759125,0.0131226,0.0144577
20,2,10.0097,0,0.00564575,-2.42989,0.0529344,-0.0771993,0.0510762,0.117967,-0.095893,0.142267,-0.125766,-0.0886739,0.00995636,0.0215912,0.00534058,-0.000457764,0.0688171,-0.0339508,0.0624847,0.0214767,-9.97986,0.0172043,-0.00892639,0.0309372,-1.05328,-0.0308609,0.00305176,0.0130844,0.017662
20,3,10.0097,0.0012207,0.00289917,-2.42989,0.0526292,-0.0759786,0.0504659,0.0883654,-0.0965034,0.141961,-0.126682,-0.0871481,0.00595093,0.0246429,0.00782013,-0.00995636,0.0696945,-0.0359344,0.0625992,0.027771,-9.97986,0.0131226,-0.00495911,0.0307465,-1.02718,-0.0303268,0.00267029,0.0120163,0.0150681
20,4,10.0097,0.00213623,0.00244141,-2.42989,0.0544603,-0.0765889,0.0513814,0.077379,-0.0971137,0.144403,-0.126987,-0.0871481,0.0101471,0.0223541,0.0152588,-0.0378418,0.0713348,-0.0312805,0.0629807,0.0280762,-9.97986,0.0144958,0.00114441,0.0245667,-1.00044,-0.0210571,0.00175476,0.0121689,0.0124359
20,5,10.0097,0.000915527,0.00228882,-2.42806,0.0559862,-0.0756734,0.0513814,0.0737169,-0.0943672,0.144708,-0.126682,-0.085317,0.0111771,0.0216293,0.0224686,-0.0645447,0.0703049,-0.0365067,0.0653839,0.0336075,-9.97986,0.00953674,0.000801086,0.027771,-0.974083,-0.0118256,-0.00293732,0.0131607,0.0157166
20,6,10.0097,-0.000915527,0.00198364,-2.42837,0.0569017,-0.0747579,0.0532125,0.072191,-0.0934516,0.145318,-0.125461,-0.0840963,0.00175476,0.0180435,0.0119019,-0.0409698,0.0645447,-0.0382614,0.0625992,0.0366974,-9.97986,0.0126266,0.0177002,0.0284195,-0.947495,-0.000648499,-0.000114441,0.0158691,0.0172043
20,7,10.0097,-0.000915527,0.00305176,-2.42623,0.0550706,-0.0747579,0.0532125,0.0715807,-0.094062,0.144403,-0.125766,-0.0834859,0.00907898,0.00957489,-0.00709534,-0.00789642,0.0656128,-0.0347137,0.058136,0.0372696,-9.97986,0.0117111,0.0208282,0.0290298,-0.91423,0.00110626,-0.00038147,0.0162125,0.0156021
20,8,10.0097,0.00183105,0.00366211,-2.42623,0.0569017,-0.075063,0.054128,0.0715807,-0.0943672,0.145013,-0.126072,-0.0831808,0.0104904,0.00370026,-0.0069809,0.0179291,0.0640488,-0.0387955,0.056839,0.0363922,-9.97986,0.0170898,0.0254059,0.0302124,-0.877342,0.00217438,0.00286102,0.0162506,0.0170517
20,9,10.0097,-0.000610352,0.00366211,-2.42684,0.0562914,-0.0738423,0.0535176,0.0718859,-0.0922309,0.146844,-0.124241,-0.0804342,0.010643,0.0200272,0.0105667,0.0181961,0.0596619,-0.034256,0.0589752,0.0365067,-9.97986,0.0125885,0.0161743,0.0285721,-0.848083,0.000457764,-0.000610352,0.0167847,0.0162506
21,0,10.0097,-0.000915527,0.00320435,-2.4247,0.0559862,-0.0738423,0.0544332,0.0712755,-0.0916206,0.147149,-0.124546,-0.0804342,0.0125122,0.0379562,0.0150299,0.00957489,0.0625229,-0.0367737,0.0545502,0.0377655,-9.97986,0.0134659,0.00846863,0.0307083,-0.818481,0.000343323,0.00267029,0.0194168,0.0165558
21,1,10.0097,-0.000915527,0.00320435,-2.42684,0.0562914,-0.0744527,0.0522969,0.0435045,-0.0965034,0.146539,-0.127292,-0.0825704,0.00865936,0.0481033,0.0258636,0.0408173,0.0572586,-0.038414,0.0481796,0.0379562,-9.97986,0.0122833,0.00556946,0.0271988,-0.774689,-0.00484467,-0.00106812,0.0183487,0.0166702
21,2,7.14681,0.0012207,0.00106812,-2.42928,0.0569017,-0.0747579,0.0513814,-0.00196668,-0.09925,0.146539,-0.129734,-0.0822652,0.0105286,0.0550842,0.0333023,0.0720978,0.0568771,-0.0354385,0.0478363,0.0418091,-9.97986,0.0179672,0.0106049,0.0271988,-0.736618,-0.00629425,0.00232697,0.0201797,0.0172043
21,3,-1.52812,0.000305176,0.000152588,-2.42623,0.0562914,-0.0744527,0.0529073,-0.0150892,-0.0949775,0.146844,-0.130344,-0.0816549,0.0141907,0.034256,0.0318146,0.0634384,0.0556946,-0.0361633,0.0462341,0.0465393,-9.97986,0.0146103,0.00705719,0.0245285,-0.695724,-0.0154495,-0.000953674,0.0225067,0.018959
21,4,-9.52403,-0.0012207,-0.000610352,-2.42501,0.0559862,-0.0741475,0.0544332,-0.0166151,-0.0971137,0.146539,-0.130954,-0.0807394,0.00984192,0.0268555,0.0325775,0.0474548,0.0550461,-0.0328827,0.0472641,0.043335,-9.97986,0.0130081,0.00728607,0.0271988,-0.658226,-0.0183487,0.00144958,0.0239563,0.0162506
21,5,-9.99003,-0.000305176,0.000457764,-2.42623,0.0562914,-0.0741475,0.0568746,0.0233629,-0.0913154,0.146234,-0.127598,-0.0798238,0.00751495,0.0301743,0.0282669,0.0304794,0.0495911,-0.039978,0.0449371,0.0305939,-9.97986,0.0145721,0.0101852,0.0272751,-0.617638,-0.0392151,0.00331879,0.0221634,0.0178146
21,6,-9.99003,0,0.00320435,-2.42379,0.055681,-0.075063,0.0544332,0.0520494,-0.0910102,0.145013,-0.126072,-0.0798238,0.00827789,0.0363922,0.0320435,0.0240326,0.0483322,-0.0372696,0.0479889,0.0297165,-9.97986,0.0110245,0.00766754,0.0257492,-0.578308,-0.039444,0.00392914,0.0265503,0.0202179
21,7,-9.99003,-0.000915527,0.00350952,-2.42714,0.0562914,-0.0747579,0.0550435,0.0608995,-0.0910102,0.145624,-0.126072,-0.0807394,0.0138474,0.0329971,0.0279617,0.00522614,0.0431442,-0.0330734,0.0475693,0.0220108,-9.97986,0.0114822,0.0111008,0.0247574,-0.537071,-0.0332642,0.00450134,0.028801,0.0191116
21,8,-9.99003,-0.000305176,0.00411987,-2.42562,0.0547655,-0.0738423,0.0562642,0.0804308,-0.088874,0.146234,-0.124851,-0.0825704,0.0105667,0.0318527,0.0232315,-0.00934601,0.0396729,-0.0370789,0.0465393,0.0199127,-9.97986,0.0102234,0.00900269,0.0284195,-0.500145,-0.0117493,0.00469208,0.0300217,0.0175858
21,9,-7.54985,-0.000915527,0.00671387,-2.42684,0.0547655,-0.0741475,0.055959,0.142687,-0.0858222,0.145318,-0.120884,-0.0813497,0.00816345,0.031395,0.0161362,-0.0152588,0.0426865,-0.0335693,0.0455475,0.0144577,-9.97986,0.013237,0.0031662,0.0198746,-0.457497,0.00171661,-0.000190735,0.0322723,0.0193405
22,0,0.143938,0.000610352,0.00823975,-2.42714,0.0535448,-0.0756734,0.0544332,0.155809,-0.0879585,0.144708,-0.121189,-0.0825704,0.0150299,0.0360107,0.00423431,-0.0192261,0.0377274,-0.0333786,0.0450134,0.00331879,-9.97986,0.00888824,0.00114441,0.0217056,-0.41687,0.00801086,-0.000572205,0.0344467,0.0205994
22,1,8.01473,-0.000610352,0.00839233,-2.42867,0.055681,-0.0762837,0.0538228,0.153978,-0.0882636,0.145013,-0.121494,-0.0844015,0.0128937,0.0429153,-0.0012207,-0.0227737,0.0396347,-0.0352859,0.0440979,-0.00339508,-9.97986,0.0138474,-0.000648499,0.0216293,-0.377617,0.0088501,-0.00156403,0.0347137,0.0190353
22,2,10.0097,0.000610352,0.00686646,-2.43111,0.0529344,-0.0771993,0.0495503,0.117357,-0.0971137,0.141351,-0.125156,-0.0880636,0.0137329,0.0507736,-0.0120544,-0.0489807,0.040741,-0.0337219,0.0449371,0.00270844,-9.97986,0.011673,0.00530243,0.0232697,-0.338097,0.0158691,0.000953674,0.0313187,0.0172424
22,3,10.0097,0.00274658,0.00427246,-2.42989,0.0529344,-0.0771993,0.0495503,0.0889757,-0.0986396,0.141351,-0.125766,-0.0883688,0.0123978,0.0380325,-0.013237,-0.0418854,0.0335693,-0.0352859,0.0418472,0.0133514,-9.97986,0.00991821,0.0043869,0.0217438,-0.30407,0.0172424,0.00236511,0.0319672,0.0144196
22,4,10.0097,0.000610352,0.00320435,-2.42959,0.0532396,-0.0762837,0.0501607,0.077379,-0.0968086,0.144098,-0.126987,-0.0865377,0.0107193,0.0286102,-0.00785828,-0.0162125,0.0367737,-0.0325394,0.0400162,0.0270844,-9.97986,0.00793457,-0.00240326,0.0200272,-0.270309,0.0104141,0.00400543,0.0355911,0.0194168
22,5,10.0097,0.000610352,0.00289917,-2.42745,0.0541551,-0.075063,0.0519917,0.0734117,-0.0946723,0.145318,-0.126377,-0.085317,0.0123978,0.0287628,-0.00507355,0.0304031,0.0365067,-0.0328064,0.0382996,0.03685,-9.97986,0.00888824,-0.000686646,0.0164032,-0.241394,0.0108337,0.00190735,0.0359344,0.0176239
22,6,10.0097,-0.000915527,0.00289917,-2.42806,0.0544603,-0.0747579,0.0529073,0.0712755,-0.0949775,0.144098,-0.127292,-0.0837911,0.0133133,0.0297546,-0.00530243,0.0826645,0.0338745,-0.0304794,0.0403214,0.0473022,-9.97986,0.0094986,0.00335693,0.021286,-0.20916,0.00991821,-0.00343323,0.0395203,0.019989
22,7,10.0097,0.000305176,0.00259399,-2.42684,0.0550706,-0.0747579,0.0529073,0.0712755,-0.0937568,0.145318,-0.125461,-0.0834859,0.0124359,0.029068,-0.00858307,0.092392,0.0333023,-0.0259018,0.0400162,0.0519943,-9.97986,0.00667572,-0.00358582,0.0225449,-0.187912,0.00896454,-0.00270844,0.0388336,0.0174332
22,8,10.0097,0.00213623,0.00366211,-2.42623,0.0550706,-0.0738423,0.0550435,0.0715807,-0.090705,0.144403,-0.126377,-0.0828756,0.0113297,0.041275,0.00213623,0.0678635,0.0335693,-0.026741,0.0358582,0.0551987,-9.97986,0.0128174,-0.00110626,0.0216293,-0.153389,0.00591278,-0.00328064,0.0380325,0.016861
22,9,10.0097,0.000610352,0.00335693,-2.4247,0.0572069,-0.0726216,0.0535176,0.0718859,-0.0928413,0.146844,-0.123935,-0.0810445,0.0133133,0.0437164,0.00724792,0.0512695,0.0341034,-0.0250244,0.0326157,0.043869,-9.97986,0.00991821,-0.00106812,0.0224686,-0.12455,0.00778198,-0.00312805,0.0393295,0.0158691
23,0,10.0097,0.000610352,0.00289917,-2.42562,0.0581224,-0.0729268,0.0550435,0.0712755,-0.0922309,0.145929,-0.124851,-0.0804342,0.0122452,0.0381851,0.0177383,0.0212097,0.0325394,-0.0266647,0.03685,0.0341797,-9.97986,0.00881195,-0.00732422,0.0228119,-0.100479,0.0102615,-0.00312805,0.040741,0.0187683
23,1,10.0097,-0.0012207,0.00183105,-2.42531,0.0541551,-0.075063,0.0526021,0.0468614,-0.0955879,0.146539,-0.125461,-0.0816549,0.00705719,0.0470734,0.0226974,-0.00396729,0.0323868,-0.0220871,0.0339508,0.0358582,-9.97986,0.0108719,-0.0102234,0.017662,-0.0806427,0.0125885,-0.00694275,0.0392532,0.0186157
23,2,7.25118,0.00152588,-0.00137329,-2.42837,0.0575121,-0.0744527,0.0519917,-0.00135633,-0.0989448,0.145929,-0.129734,-0.0834859,0.00640869,0.0513458,0.0296783,-0.0180817,0.0350189,-0.0227356,0.0337601,0.032692,-9.97986,0.0102234,-0.00682831,0.0170135,-0.0611496,0.0109482,-0.00339508,0.0342178,0.0165558
23,3,-1.35325,0.0012207,-0.00183105,-2.42653,0.0572069,-0.0741475,0.0526021,-0.0150892,-0.0968086,0.145013,-0.130039,-0.0813497,0.00270844,0.0299835,0.0305176,-0.014267,0.030098,-0.0169754,0.0301361,0.0423431,-9.97986,0.0146103,-0.00179291,0.017128,-0.0427628,0.0131989,-0.0056076,0.0352859,0.0156784
23,4,-9.38212,-0.000610352,-0.00244141,-2.4244,0.0565965,-0.0735371,0.0535176,-0.0175306,-0.0943672,0.146234,-0.130344,-0.0810445,0.00946045,0.0182343,0.0249863,0.00789642,0.0299835,-0.0162888,0.0352097,0.0574112,-9.97986,0.0167084,-0.00102997,0.0179291,-0.022049,0.02285,-0.00354767,0.0356293,0.0137711
23,5,-9.99003,0.000915527,-0.00152588,-2.42379,0.0572069,-0.0729268,0.055959,0.021837,-0.0913154,0.146844,-0.129429,-0.0795187,0.00598907,0.0094223,0.0253296,0.0165558,0.0364685,-0.0146484,0.037117,0.0683594,-9.97986,0.0193787,0.00209808,0.0162888,-0.00461578,-3.8147e-005,-0.00164032,0.0368118,0.0146103
23,6,-9.99003,0,0.000610352,-2.42501,0.0553758,-0.0747579,0.0571797,0.0508287,-0.0903999,0.145624,-0.126072,-0.0810445,0.00679016,0.00713348,0.0272369,-0.00858307,0.0321198,-0.0183105,0.0325394,0.0576019,-9.97986,0.0151062,-0.00389099,0.0136948,0.00751495,-0.00102997,-0.00190735,0.0345993,0.0128937
23,7,-9.99003,0.000610352,0.00152588,-2.42653,0.0550706,-0.0756734,0.0550435,0.059984,-0.0919257,0.145318,-0.125766,-0.0825704,0.00564575,0.0120163,0.033493,-0.0130463,0.0322723,-0.0139999,0.0322342,0.0550842,-9.97986,0.0138092,-0.00762939,0.0127411,0.0286865,-0.000152588,-0.000419617,0.0359344,0.0130463
23,8,-9.99003,0.000915527,0.00152588,-2.42592,0.0550706,-0.0744527,0.0556539,0.082567,-0.0903999,0.145929,-0.124546,-0.0828756,0.0129318,0.0200653,0.0292969,0.0229263,0.0267029,-0.0121307,0.0328827,0.0571823,-9.97986,0.0102615,-0.0137711,0.0123596,0.0416565,0.0131989,0.00133514,0.033226,0.01297
23,9,-7.55107,0.00244141,0.00518799,-2.42562,0.0538499,-0.0741475,0.0568746,0.142992,-0.0846015,0.145624,-0.121494,-0.0822652,0.0141144,0.0250626,0.0291824,0.0551605,0.0328445,-0.0100327,0.0378799,0.0351334,-9.97986,0.00465393,-0.0082016,0.0158691,0.0561142,0.020752,0.0019455,0.0326538,0.0108337
24,0,0.160113,-0.000915527,0.00549316,-2.42714,0.0541551,-0.0747579,0.0550435,0.152757,-0.0870429,0.144098,-0.120884,-0.0844015,0.0105286,0.0237274,0.0267029,0.0479126,0.0309753,-0.0123215,0.0433731,0.0115967,-9.97986,0.00278473,-0.00854492,0.0143051,0.0676346,0.0157928,0.000343323,0.0307465,0.0117111
24,1,7.98177,0.000610352,0.00564575,-2.42867,0.0535448,-0.0756734,0.0529073,0.153978,-0.0879585,0.144708,-0.121189,-0.0865377,0.00816345,0.0328064,0.0331497,0.0260925,0.0358582,-0.00473022,0.050354,-0.026207,-9.97986,-0.000152588,-0.0038147,0.0159454,0.0773239,0.0149918,0.00648499,0.0283432,0.0112915
24,2,10.0097,0.000915527,0.0038147,-2.43081,0.0529344,-0.0771993,0.0498555,0.117662,-0.095893,0.143182,-0.124851,-0.0883688,0.0113297,0.0494766,0.0414658,0.0218201,0.0348663,-0.00385284,0.0553894,-0.057373,-9.97986,-0.00484467,0.0030899,0.00968933,0.0854492,0.0172043,0.00114441,0.0297928,0.0112152
24,3,10.0097,0.000610352,0.00152588,-2.42989,0.0535448,-0.0759786,0.0516866,0.0892809,-0.0949775,0.142572,-0.126377,-0.0883688,0.0191498,0.0563431,0.0391388,0.0201035,0.0329208,-0.00583649,0.05867,-0.0615692,-9.97986,-0.0087738,0.0172043,0.0128555,0.0904465,0.0136948,-0.00209808,0.0254059,0.00782013
24,4,10.0097,0.00213623,0.00137329,-2.42959,0.0538499,-0.0747579,0.0516866,0.077379,-0.0961982,0.143487,-0.128208,-0.0868429,0.0265503,0.0693512,0.0379944,0.0229263,0.0332642,0.000419617,0.0611115,-0.0667953,-9.97986,0.00652313,0.019989,0.0164413,0.107002,0.0210571,-0.0044632,0.02491,0.00572205
24,5,10.0097,0.000305176,0.00152588,-2.42959,0.0550706,-0.0756734,0.0519917,0.0731066,-0.0955879,0.143487,-0.126987,-0.0856222,0.0115967,0.0655746,0.0273514,0.013504,0.0359726,0.00354767,0.0595093,-0.0688171,-9.97986,0.00858307,0.0102234,0.00999451,0.112381,0.0188065,-0.00389099,0.0221252,0.00667572
24,6,10.0097,-0.0012207,0.0012207,-2.42806,0.0553758,-0.075063,0.054128,0.0715807,-0.0934516,0.144403,-0.125766,-0.0856222,0.0125504,0.0696945,0.0237656,0.0056076,0.0377655,0.001297,0.0603867,-0.0524521,-9.97986,0.0158691,0.000953674,0.0122833,0.119476,0.0244522,-0.00442505,0.0278091,0.0063324
24,7,10.0097,0.0012207,0.000610352,-2.42776,0.0550706,-0.0753682,0.0526021,0.0715807,-0.0946723,0.145318,-0.126682,-0.085317,0.01091,0.070076,0.0204468,0.0025177,0.03479,0.00545502,0.0548172,-0.0146866,-9.97986,0.0167084,-0.0139618,0.0105667,0.121498,0.0269318,-0.0069809,0.0237274,0.00572205
24,8,10.0097,0,0.0012207,-2.42623,0.0559862,-0.0744527,0.0529073,0.0697496,-0.0925361,0.145929,-0.125766,-0.0834859,0.0131989,0.0601196,0.0145721,0.000228882,0.0366974,0.00450134,0.0527191,0.00991821,-9.97986,0.0212097,-0.0266647,0.00743866,0.12146,0.0259781,-0.0056839,0.0230408,0.00762939
24,9,10.0097,-0.000610352,0.0012207,-2.4247,0.0565965,-0.0723164,0.0565694,0.0728014,-0.0910102,0.145013,-0.124546,-0.0804342,0.0164795,0.0303268,0.0286865,-0.00240326,0.0482178,0.0114822,0.0521088,0.00774384,-9.97986,0.0254822,-0.0164795,0.0107956,0.135612,0.0247955,-0.00572205,0.0233078,0.00392914
25,0,10.0097,0.000915527,0.000762939,-2.42501,0.0575121,-0.0735371,0.0550435,0.072191,-0.0916206,0.14776,-0.124546,-0.0810445,0.0102234,0.00774384,0.0332642,0.00640869,0.0380325,0.0123215,0.0377655,-0.00476837,-9.97986,0.0244141,-0.0155258,0.0120163,0.139275,0.0301361,-0.00682831,0.0219345,0.00720978
25,1,10.0097,-0.00152588,0.000152588,-2.42745,0.0553758,-0.0747579,0.0526021,0.0462511,-0.0961982,0.145624,-0.126987,-0.0828756,0.00896454,-0.00984192,0.032959,0.0204849,0.0416946,0.0162888,0.0314331,-0.00782013,-9.97986,0.0258255,-0.0131989,0.00400543,0.145569,0.0276947,-0.0088501,0.0157928,0.00675201
25,2,7.17702,0,-0.00259399,-2.42684,0.0578172,-0.0741475,0.0526021,-0.000440799,-0.0989448,0.145318,-0.129429,-0.0834859,0.00785828,-0.021019,0.0276184,0.00713348,0.0411606,0.0219345,0.0209808,0.00110626,-9.97986,0.0251389,-0.0126648,0.0111389,0.155754,0.0303268,-0.00621796,0.0165939,0.00526428
25,3,-1.40361,-0.00183105,-0.00396729,-2.42714,0.0569017,-0.0744527,0.0522969,-0.0144789,-0.0977241,0.147149,-0.129734,-0.0850118,0.00957489,-0.00492096,0.00617981,-0.00705719,0.0366211,0.0215912,0.00988007,-0.00576019,-9.97986,0.0248718,-0.0157547,0.0120926,0.15728,0.0287628,-0.00457764,0.0161743,0.00324249
25,4,-9.43614,-0.000305176,-0.00457764,-2.42562,0.0578172,-0.0735371,0.0547383,-0.0184462,-0.0949775,0.146539,-0.129734,-0.0819601,0.00934601,0.0094986,0.00289917,-0.0360107,0.0345993,0.0234222,0.0037384,-0.0170517,-9.97986,0.0244904,-0.00278473,0.00621796,0.158272,0.0294876,-0.0082016,0.0163269,0.00350952
25,5,-9.99003,-0.000305176,-0.00274658,-2.4247,0.0569017,-0.073232,0.0574849,0.0233629,-0.0916206,0.146539,-0.127292,-0.0810445,0.0143433,-0.00915527,0.00137329,-0.0173569,0.0321579,0.0248337,-0.00370026,-0.0183487,-9.97986,0.0177765,0.00339508,0.00896454,0.158501,0.00812531,-0.0043869,0.0157547,0.00415802
25,6,-9.99003,0.000610352,-0.000610352,-2.42409,0.0553758,-0.0744527,0.0547383,0.0511339,-0.0903999,0.145318,-0.125461,-0.080129,0.014267,-0.027504,-0.00171661,-0.00556946,0.0299072,0.024147,-0.0129318,-0.0143051,-9.97986,0.0152206,-0.00320435,0.00274658,0.157013,0.00450134,-0.0115585,0.0146866,0.00331879
25,7,-9.99003,0.0012207,0,-2.42684,0.0553758,-0.0747579,0.054128,0.0602892,-0.0919257,0.145318,-0.125766,-0.0825704,0.0153732,-0.0237274,0.00385284,-0.00785828,0.0302124,0.025444,-0.0199127,0.00507355,-9.97986,0.0143433,-0.00629425,0.00427246,0.156479,0.00831604,-0.00919342,0.0125885,0.00274658
25,8,-9.99003,-0.00183105,0,-2.42653,0.055681,-0.0744527,0.0544332,0.0831774,-0.0897895,0.145929,-0.125156,-0.0825704,0.0129318,-0.0302505,-0.0101089,0.00530243,0.0226593,0.0257492,-0.0252533,0.0122833,-9.97986,0.0243759,0.00770569,0.00362396,0.153732,0.0212097,-0.0100327,0.0138855,0.00415802
25,9,-7.55778,-0.0012207,0.00305176,-2.42531,0.0544603,-0.0747579,0.055959,0.142076,-0.083686,0.144403,-0.120578,-0.0834859,0.0141144,-0.0485229,-0.0297546,0.00686646,0.0238037,0.0296402,-0.0311661,0.0164795,-9.97986,0.0292969,0.0172043,0.00106812,0.157547,0.0318909,-0.0107574,0.00953674,0.00110626
26,0,0.171709,0.0012207,0.00335693,-2.42623,0.0544603,-0.0747579,0.054128,0.153673,-0.0876533,0.143487,-0.121494,-0.0840963,0.0163651,-0.0608063,-0.0257874,0.00606537,0.0242996,0.0322342,-0.0413132,0.0368881,-9.97986,0.0350952,0.0127029,0.0114059,0.157089,0.0358582,-0.0120163,0.0111008,0.00190735
26,1,7.97719,0,0.00488281,-2.42837,0.0529344,-0.0762837,0.054128,0.154894,-0.0891792,0.142877,-0.121799,-0.0856222,0.0177383,-0.0852966,-0.0276566,-0.00709534,0.0189209,0.0302887,-0.0461197,0.0487137,-9.97986,0.032692,0.000801086,0.00709534,0.154152,0.0330734,-0.0139236,0.00892639,0.00278473
26,2,10.0097,0.000305176,0.00350952,-2.43172,0.0523241,-0.0762837,0.0501607,0.117967,-0.0971137,0.141961,-0.124241,-0.0898946,0.0127411,-0.0808716,-0.0454712,-0.00259399,0.0169373,0.0348663,-0.0517273,0.0414658,-9.97986,0.0323105,0.00606537,0.00617981,0.1548,0.0339508,-0.0101852,0.0063324,0.00465393
26,3,10.0097,-0.00152588,0.000457764,-2.42928,0.0532396,-0.0762837,0.0498555,0.087755,-0.0977241,0.142877,-0.125766,-0.0886739,0.0160217,-0.0482941,-0.0483322,0.0349426,0.0145721,0.0343704,-0.0608444,0.0428391,-9.97986,0.0221634,0.00938416,0.00469208,0.151672,0.0350189,-0.00770569,0.00926971,0.000724792
26,4,10.0097,0.000915527,0.000305176,-2.4305,0.0535448,-0.0759786,0.0513814,0.0752428,-0.0968086,0.143487,-0.126987,-0.0877584,0.0151825,-0.0257874,-0.0334167,0.0110245,0.00999451,0.0374985,-0.064621,0.0325394,-9.97986,0.021286,0.00484467,0.0043869,0.150681,0.0324631,-0.01091,0.00492096,0.000648499
26,5,10.0097,0.000610352,0,-2.42837,0.0547655,-0.0753682,0.0526021,0.0740221,-0.095893,0.145318,-0.126377,-0.0868429,0.0124741,-0.0144958,-0.0170135,-0.0127411,0.0111771,0.0364304,-0.0617218,0.0338745,-9.97986,0.0218582,0.00724792,0.00556946,0.155411,0.0314713,-0.0121689,0.00598907,0.00396729
26,6,10.0097,0,0.000610352,-2.42837,0.0553758,-0.0762837,0.0522969,0.0712755,-0.0943672,0.145318,-0.126072,-0.0837911,0.0137711,0.00984192,-0.00331879,0.0094223,0.00621796,0.0352859,-0.0614929,0.0216293,-9.97986,0.0224686,0.00270844,0.00408173,0.158157,0.0280762,-0.00743866,0.00507355,0.00148773
26,7,10.0097,0.00274658,0.000915527,-2.42714,0.055681,-0.0747579,0.0526021,0.0706652,-0.0931465,0.146539,-0.126377,-0.0837911,0.0110626,0.019722,-0.000152588,0.063858,0.00213623,0.0437546,-0.0585175,-0.00831604,-9.97986,0.0216293,-0.00137329,0.00396729,0.174179,0.0270081,-0.00484467,0.00465393,-0.000152588
26,8,10.0097,0.000915527,0.00106812,-2.42684,0.0553758,-0.0753682,0.0532125,0.0715807,-0.094062,0.146539,-0.126682,-0.0834859,0.00930786,0.0185776,0.00732422,0.0963593,0.0050354,0.0480652,-0.0551224,-0.01297,-9.97986,0.0226974,0.00720978,0.00480652,0.172119,0.027504,-0.00488281,0.00495911,0.001297
26,9,10.0097,0.000305176,0.0012207,-2.4247,0.0575121,-0.075063,0.0544332,0.0712755,-0.0931465,0.146539,-0.124851,-0.0819601,0.00904083,0.0069046,0.0203705,0.0413513,0.00488281,0.0424957,-0.0648499,0.00564575,-9.97986,0.0211716,0.00762939,0.00377655,0.183907,0.0257492,-0.0063324,0.00537872,0.000534058
27,0,10.0097,0.000610352,0.000762939,-2.42592,0.0553758,-0.0738423,0.0532125,0.0749376,-0.0919257,0.147149,-0.124851,-0.0810445,0.0162888,-0.00518799,0.0160217,-0.0266266,0.00469208,0.0444412,-0.067215,0.0153351,-9.97986,0.0178146,0.014801,0.00354767,0.187111,0.0275421,-0.0031662,0.00305176,-0.000953674
27,1,10.0097,0,0.000305176,-2.42684,0.0559862,-0.0756734,0.0519917,0.0453356,-0.0955879,0.145624,-0.126987,-0.0834859,0.0151825,-0.00892639,0.0197601,-0.021286,0.00137329,0.0478363,-0.0539017,0.0124359,-9.97986,0.0219345,0.0104523,0.00804901,0.190163,0.0265884,-0.00629425,0.00232697,0.00125885
27,2,7.07357,0.000610352,-0.00305176,-2.42684,0.0575121,-0.0744527,0.0516866,-0.00196668,-0.0998603,0.145013,-0.129123,-0.0840963,0.0115967,0.00709534,0.0274277,0.0186157,0.00377655,0.0524139,-0.0494385,0.0156021,-9.97986,0.0207138,0.00331879,0.00606537,0.189629,0.0271988,-0.00671387,0.00789642,-0.000495911
27,3,-1.51896,-0.000305176,-0.00350952,-2.42531,0.0565965,-0.0729268,0.0529073,-0.0147841,-0.0980293,0.145013,-0.130954,-0.0822652,0.0130081,0.00926971,0.0282288,0.0151443,-0.00209808,0.051651,-0.0457382,0.0224304,-9.97986,0.0204849,-0.00362396,0.00804901,0.191803,0.0261307,-0.0019455,0.00473022,0.000686646
27,4,-9.60032,-0.000305176,-0.00610352,-2.42592,0.0565965,-0.0744527,0.0535176,-0.0153944,-0.0961982,0.146844,-0.129734,-0.0810445,0.00404358,0.0220108,0.044899,-0.0145721,-0.000343323,0.0541687,-0.0421906,0.022049,-9.97986,0.0213242,-0.0114441,0.00694275,0.186119,0.0250244,-0.000190735,0.00415802,-0.000305176
27,5,-9.99003,0.000305176,-0.00350952,-2.42348,0.0578172,-0.0695699,0.0562642,0.0236681,-0.0916206,0.146234,-0.128208,-0.080129,0.00137329,0.0249863,0.0595093,-0.00747681,0.000762939,0.0543976,-0.0397491,0.000572205,-9.97986,0.0170898,-0.0111771,0.00591278,0.18074,0.00137329,0.00232697,0.00404358,7.62939e-005
27,6,-9.99003,-0.000915527,-0.000915527,-2.42531,0.0569017,-0.0753682,0.0550435,0.0517443,-0.0900947,0.148675,-0.126987,-0.0813497,0.00831604,0.0267029,0.0723267,-0.00255585,-0.000686646,0.0559235,-0.03479,-0.0244904,-9.97986,0.0172806,0.00408173,0.00812531,0.186234,0.00305176,0.00328064,0.00484467,0.000228882
27,7,-9.99003,0.00152588,0.000305176,-2.42653,0.0553758,-0.0753682,0.0538228,0.0615099,-0.0916206,0.145013,-0.125766,-0.0831808,0.00312805,0.0332642,0.0745392,0.00488281,-0.00156403,0.0559998,-0.0305939,-0.00907898,-9.97986,0.0177383,0.00579834,0.00965118,0.187759,-0.000991821,0.00209808,0.00484467,-0.00328064
27,8,-9.99003,-0.000915527,-0.000457764,-2.42531,0.0553758,-0.0753682,0.0544332,0.0822618,-0.0913154,0.145318,-0.124851,-0.0822652,0.0038147,0.0372696,0.071106,0.0228119,0.00156403,0.0609589,-0.0234985,0.00915527,-9.97986,0.0119019,-0.000419617,0.00934601,0.1828,0.00770569,-0.00190735,0.00640869,0.00183105
27,9,-7.55046,0.000610352,0.00350952,-2.42653,0.0538499,-0.0756734,0.0556539,0.141466,-0.0861274,0.145013,-0.121799,-0.0825704,0.00377655,0.037117,0.0527573,0.00816345,-0.000495911,0.0600433,-0.022583,0.0276566,-9.97986,0.0107574,-0.0110626,0.00827789,0.18013,0.0202179,-0.00518799,0.00900269,-0.00137329
28,0,0.150957,0.00183105,0.00442505,-2.42837,0.0544603,-0.0744527,0.0544332,0.153368,-0.0873481,0.144708,-0.122104,-0.0847066,0.00873566,0.0373459,0.0380325,0.0069809,0.001297,0.0608063,-0.0193024,0.0521851,-9.97986,0.0111771,-0.0162506,0.00980377,0.174179,0.0188065,-0.00614166,0.00679016,-0.00614166
28,1,7.95644,0.0012207,0.0038147,-2.42837,0.0538499,-0.0771993,0.0544332,0.154894,-0.0903999,0.143792,-0.122104,-0.0850118,0.0094986,0.0418472,0.0187302,0.00606537,0.000457764,0.062294,-0.018425,0.0745392,-9.97986,0.0171661,-0.0102615,0.00488281,0.170822,0.0214386,-0.00785828,0.00587463,-0.00404358
28,2,10.0097,-0.000915527,0.00289917,-2.43172,0.0529344,-0.0775044,0.0504659,0.117662,-0.0971137,0.141351,-0.125156,-0.0889791,0.0177002,0.0407028,-0.00740051,0.0167847,0.00358582,0.062561,-0.0183105,0.0966263,-9.97986,0.0187302,-0.00461578,0.0104523,0.169258,0.0190353,-0.00511169,0.0043869,-0.00160217
28,3,10.0097,0,0.000610352,-2.42959,0.0532396,-0.0753682,0.050771,0.0880602,-0.0977241,0.141961,-0.126987,-0.0886739,0.0157166,0.0353622,-0.0294495,0.0075531,0.00457764,0.0603485,-0.0150681,0.0984192,-9.97986,0.0199509,0.00263214,0.00968933,0.159416,0.0140762,-0.00831604,0.00274658,0.00160217
28,4,10.0097,0.000610352,-0.000457764,-2.42989,0.0538499,-0.0747579,0.0519917,0.077379,-0.0965034,0.143792,-0.126072,-0.0877584,0.0127029,0.0308228,-0.0288773,-0.00202179,0.00469208,0.0638962,-0.0112534,0.0846863,-9.97986,0.0183105,0.00190735,0.0087738,0.15358,0.0153732,-0.00816345,0.00572205,-0.00137329
28,5,10.0097,-0.000610352,-0.000152588,-2.42745,0.0544603,-0.0753682,0.0516866,0.0724962,-0.0949775,0.145013,-0.126072,-0.0874532,0.0169373,0.0386047,-0.0211334,0.00507355,0.00282288,0.0618744,-0.013504,0.0669098,-9.97986,0.0178146,-0.00289917,0.0127792,0.155258,0.0183868,-0.0141907,0.00450134,-0.000915527
28,6,10.0097,-0.000915527,-0.000610352,-2.42684,0.0550706,-0.0744527,0.0522969,0.0709703,-0.0952827,0.144403,-0.126682,-0.0847066,0.0165558,0.0479126,-0.017662,0.0198746,0.000991821,0.0611877,-0.0088501,0.0359726,-9.97986,0.0202179,-0.00392914,0.00747681,0.147057,0.0178528,-0.0184631,0.0062561,-0.000915527
28,7,10.0097,0.000305176,-0.000152588,-2.42776,0.0553758,-0.0741475,0.0532125,0.0700548,-0.0934516,0.145624,-0.125766,-0.0840963,0.00831604,0.0400162,-0.0115585,0.0206375,-0.000686646,0.0626373,-0.0112152,-0.0141144,-9.97986,0.013504,-0.00801086,0.00457764,0.144348,0.0132751,-0.0275421,0.00427246,-0.0025177
28,8,10.0097,0,0.000152588,-2.42623,0.0553758,-0.0741475,0.0526021,0.0743273,-0.0928413,0.144708,-0.125766,-0.0837911,0.0130844,0.0428391,0.00545502,0.0404739,0.0012207,0.0636673,-0.00679016,-0.0385666,-9.97986,0.00831604,-0.00156403,0.00888824,0.142212,0.0178909,-0.0179291,0.0087738,-0.00328064
28,9,10.0097,0.000305176,-0.000152588,-2.42623,0.0565965,-0.0741475,0.0538228,0.0712755,-0.0919257,0.145624,-0.125156,-0.0810445,0.0116348,0.0352859,0.00785828,0.0556183,-0.000343323,0.062561,-0.00663757,-0.0423431,-9.97986,0.0101089,0.00270844,0.00835419,0.142212,0.0170135,-0.0154114,0.00434875,-0.000495911
29,0,10.0097,0.000915527,-0.000152588,-2.4247,0.0559862,-0.073232,0.0547383,0.072191,-0.0919257,0.147149,-0.124546,-0.0813497,0.00198364,0.0344467,0.0178909,0.0460815,0.00175476,0.0611115,-0.00656128,-0.0460815,-9.97986,0.00160217,0.000534058,0.0130081,0.136147,0.0111389,-0.0100708,0.00476837,0.000572205
29,1,10.0097,0.00152588,-0.000305176,-2.42806,0.055681,-0.0756734,0.0532125,0.0465563,-0.0965034,0.145929,-0.126682,-0.0837911,0.000457764,0.0214005,0.0141907,0.0296783,0.000267029,0.0625229,-0.0019455,-0.0343704,-9.97986,-0.00549316,-0.00270844,0.0128937,0.133743,0.0144196,-0.00282288,0.00583649,-0.00244141
29,2,7.19564,0.000610352,-0.00320435,-2.42684,0.0562914,-0.0753682,0.0519917,-0.00318738,-0.0995551,0.145013,-0.129429,-0.0834859,-0.000762939,0.0165939,0.0188828,0.0318909,0.000724792,0.0647354,0.0018692,-0.021019,-9.97986,-0.0062561,-0.00576019,0.0116348,0.128899,0.0134659,-0.00370026,0.00610352,0.001297
29,3,-1.35264,0.000610352,-0.00427246,-2.42501,0.0572069,-0.0735371,0.0532125,-0.0153944,-0.0968086,0.146844,-0.129734,-0.0828756,0.00465393,0.0196075,0.0333405,0.0256729,-0.00274658,0.0622177,-0.00175476,0.00274658,-9.97986,-0.00278473,-0.00587463,0.0112915,0.123787,0.0107956,0.00736237,0.00377655,0.000495911
29,4,-9.38243,-0.000305176,-0.00549316,-2.42501,0.0581224,-0.0738423,0.0547383,-0.0166151,-0.095893,0.147149,-0.130344,-0.0825704,0.00152588,0.0242996,0.0505066,0.0154114,-0.00255585,0.0611496,0.00110626,0.0175858,-9.97986,-0.00125885,-0.00778198,0.01091,0.11795,0.0121689,0.0102997,0.00644684,-0.00247955
29,5,-9.99003,0.00213623,-0.00396729,-2.4247,0.0562914,-0.0738423,0.0580953,0.0215319,-0.0922309,0.145929,-0.126682,-0.0807394,0.00793457,0.0200653,0.0589371,0.0165176,0.00232697,0.0623322,-0.00270844,0.0347137,-9.97986,0.00301361,-0.0153732,0.0154495,0.10601,-0.0117111,0.00854492,0.00881195,-0.00110626
29,6,-9.99003,0.000915527,-0.00244141,-2.42653,0.055681,-0.0741475,0.0562642,0.0505236,-0.0900947,0.146234,-0.126072,-0.0810445,0.00846863,0.0151062,0.0704193,0.0211716,0.00652313,0.0624084,-0.00125885,0.0400925,-9.97986,0.00236511,-0.00335693,0.0114822,0.0973892,-0.0128555,0.00858307,0.00801086,-0.00179291
29,7,-9.99003,0,-0.000610352,-2.42592,0.0550706,-0.075063,0.0550435,0.0593737,-0.0900947,0.145624,-0.125766,-0.0825704,0.0115585,0.028038,0.0744629,0.0206757,7.62939e-005,0.0601959,0.00232697,0.0399017,-9.97986,-0.00190735,-0.00480652,0.013237,0.0865555,-0.0101852,0.00320435,0.00816345,-0.00171661
29,8,-9.99003,0.000610352,-0.000915527,-2.42562,0.0553758,-0.0747579,0.0562642,0.0828722,-0.0885688,0.145318,-0.124851,-0.0816549,0.0117493,0.0298309,0.0662994,0.0233841,0.000610352,0.0601196,-0.000534058,0.0447845,-9.97986,0.00442505,-0.0138092,0.0164032,0.079422,0.00724792,0.0056076,0.00724792,-0.0012207
29,9,-7.33348,0,0.00198364,-2.42623,0.0547655,-0.075063,0.0568746,0.143907,-0.0858222,0.146234,-0.120578,-0.0834859,0.0087738,0.0530624,0.0574875,0.00835419,-0.000991821,0.0566864,-0.000572205,0.0354767,-9.97986,0.0109863,-0.0114822,0.0160217,0.0749969,0.0131989,-0.00038147,0.0124359,-0.00190735
30,0,0.328875,-0.000915527,0.00396729,-2.42776,0.0526292,-0.0753682,0.054128,0.154588,-0.0876533,0.144098,-0.121494,-0.0847066,0.0121307,0.0938416,0.0551224,-0.00534058,3.8147e-005,0.0551224,-0.00183105,0.0218964,-9.97986,0.0128174,-0.00862122,0.0161743,0.0674438,0.0138092,-0.000839233,0.00919342,0.00202179
30,1,8.2256,0.000610352,0.00335693,-2.42806,0.0538499,-0.0759786,0.0535176,0.154588,-0.0910102,0.144708,-0.122104,-0.085317,0.00709534,0.0937271,0.0516891,-0.00217438,0.000610352,0.0574112,0.0056839,0.01297,-9.97986,0.0140381,-0.0254822,0.012207,0.0598145,0.0135422,0.00106812,0.0136185,0.000953674
30,2,10.0097,0.000610352,0.00244141,-2.43172,0.0535448,-0.0771993,0.0501607,0.117052,-0.0977241,0.142877,-0.125766,-0.0892843,0.0104904,0.0880814,0.0409698,-0.00900269,-0.00297546,0.055275,0.00972748,0.029068,-9.97986,0.00919342,-0.0304794,0.0173569,0.0563431,0.0114059,-0.00236511,0.0122833,-0.00312805
30,3,10.0097,0.00213623,-0.000305176,-2.4302,0.0529344,-0.0756734,0.0510762,0.0865343,-0.0974189,0.140741,-0.126682,-0.0892843,0.0143814,0.0771332,0.0218582,-0.0249863,-0.00579834,0.0521851,0.0102615,0.0695038,-9.97986,-0.00190735,-0.0201797,0.00923157,0.0501251,0.00900269,-0.00278473,0.0131989,0.000572205
30,4,10.0097,-0.000915527,0.000610352,-2.42928,0.0544603,-0.0762837,0.0516866,0.0764635,-0.0965034,0.143487,-0.126682,-0.0892843,0.00740051,0.0712967,0.0133896,-0.0296021,-0.0069809,0.0495148,0.0159073,0.0860596,-9.97986,-0.00175476,-0.00995636,0.0139618,0.038681,0.00900269,-0.000572205,0.0117111,-0.00175476
30,5,10.0097,-0.000610352,-0.000457764,-2.42867,0.0550706,-0.0753682,0.0526021,0.0724962,-0.094062,0.146234,-0.125461,-0.0865377,-0.00232697,0.0743103,0.000114441,-0.0414658,-0.00881195,0.0474548,0.0153351,0.0650406,-9.97986,-0.00453949,0,0.0146103,0.0270462,0.0130844,-0.0050354,0.0127411,-0.00198364
30,6,10.0097,-0.000305176,-0.0012207,-2.42776,0.0538499,-0.0753682,0.0526021,0.0718859,-0.0934516,0.144403,-0.126987,-0.0850118,-0.00930786,0.044136,-0.0141525,-0.0548172,-0.00953674,0.0453949,0.0234604,0.0564575,-9.97986,-0.00404358,-0.00598907,0.0111008,0.0214005,0.0115204,-0.00236511,0.0132751,0.00152588
30,7,10.0097,0.0012207,-0.000305176,-2.42714,0.0547655,-0.0756734,0.0535176,0.07036,-0.094062,0.145013,-0.126682,-0.0850118,-0.00770569,0.0297165,-0.0112152,-0.0702286,-0.00938416,0.0468826,0.0203323,0.0590134,-9.97986,-0.0118256,-0.0201797,0.0141144,0.00919342,0.0126266,-0.00267029,0.0124741,-0.00267029
30,8,10.0097,-0.000305176,-0.000610352,-2.42684,0.0559862,-0.0747579,0.0547383,0.0718859,-0.0919257,0.145624,-0.124546,-0.0831808,-0.000953674,0.0230026,0.0114059,-0.0442123,-0.0075531,0.0411224,0.0226974,0.0209427,-9.97986,-0.0104523,-0.0206757,0.0149536,-0.00148773,0.00862122,0.000724792,0.0144958,0.00389099
30,9,10.0097,-0.000915527,-0.000610352,-2.42592,0.0559862,-0.0738423,0.054128,0.0724962,-0.0913154,0.146539,-0.125461,-0.0819601,0.00427246,0.0268173,0.0236893,0.0561523,-0.0050354,0.0449753,0.0233078,-0.00858307,-9.97986,-0.00591278,-0.0161362,0.0127792,-0.011673,0.0112915,-0.000457764,0.0174713,0.000343323
31,0,10.0097,0.000610352,-0.000762939,-2.42714,0.0565965,-0.073232,0.054128,0.0718859,-0.0916206,0.146539,-0.124546,-0.0816549,0.0136185,0.0598907,0.0148773,0.128021,-0.00171661,0.0403595,0.0229645,-0.0121689,-9.97986,0.00705719,-0.00404358,0.019989,-0.0176239,0.0141144,7.62939e-005,0.0167084,0.00110626
31,1,10.0097,-0.000915527,-0.000915527,-2.42684,0.0550706,-0.0747579,0.0529073,0.0471666,-0.095893,0.144403,-0.127292,-0.0840963,0.0186157,0.0444794,0.00255585,0.119629,-0.00576019,0.0362396,0.0259399,-0.0370026,-9.97986,0.00839233,0.00297546,0.0146866,-0.0303268,0.0115967,-0.00171661,0.0117493,0.000419617
31,2,7.11659,-0.000305176,-0.00396729,-2.42684,0.055681,-0.0747579,0.0519917,-0.0016615,-0.0995551,0.143792,-0.130039,-0.0837911,0.0215912,0.00415802,0.0119781,0.0629425,-0.0043869,0.0341034,0.0296402,-0.057373,-9.97986,0.0130844,0.000114441,0.0177002,-0.0380325,0.0119019,0.000915527,0.0152588,0.000457764
31,3,-1.46617,-0.000305176,-0.00488281,-2.42501,0.0565965,-0.0738423,0.054128,-0.0141737,-0.0961982,0.146539,-0.129123,-0.0819601,0.021286,0.000572205,0.00240326,0.0180054,-0.00339508,0.0305939,0.0334167,-0.051384,-9.97986,0.0137329,0.001297,0.015831,-0.0411606,0.0133514,-0.00114441,0.0165558,0.00221252
31,4,-9.4987,0.00213623,-0.0050354,-2.42501,0.0572069,-0.0723164,0.054128,-0.0166151,-0.095893,0.147149,-0.130649,-0.0816549,0.0312805,0.0263977,0.0112915,0.0254059,-0.00453949,0.0324631,0.0343323,-0.0453186,-9.97986,0.025177,0.00175476,0.0152206,-0.0473022,0.00782013,-0.000495911,0.0165558,0.0019455
31,5,-9.99003,-0.000305176,-0.00335693,-2.42501,0.0562914,-0.0735371,0.055959,0.0230577,-0.0916206,0.145929,-0.128208,-0.0810445,0.0304413,0.0252151,0.0195313,0.0307083,0.00286102,0.0249481,0.0252151,-0.037384,-9.97986,0.0270844,0.00152588,0.0157166,-0.0527191,-0.00888824,0.00282288,0.0163269,-0.00225067
31,6,-9.99003,0.00152588,-0.00167847,-2.42562,0.0553758,-0.0741475,0.0556539,0.0520494,-0.0894843,0.145013,-0.126377,-0.0810445,0.0308228,0.0094986,0.0148392,0.0295639,-0.00427246,0.0283432,0.030899,-0.0270462,-9.97986,0.0399017,0.0140381,0.017395,-0.0530624,-0.0111771,-0.00137329,0.0133514,-0.00114441
31,7,-9.99003,0.000610352,-0.000152588,-2.42592,0.0538499,-0.075063,0.0538228,0.0602892,-0.0916206,0.145929,-0.126682,-0.0816549,0.026207,0.0239563,0.0199127,0.0281906,-0.00225067,0.0250626,0.0321198,-0.00713348,-9.97986,0.0336456,0.0183868,0.0170517,-0.0498962,-0.0135422,0.00110626,0.0191879,-0.00331879
31,8,-9.99003,0.000610352,0,-2.4247,0.0550706,-0.0747579,0.0568746,0.0831774,-0.0894843,0.146539,-0.124851,-0.0822652,0.0149536,0.0231934,0.0168228,0.0169754,-0.0012207,0.0207901,0.0309753,0.0135422,-9.97986,0.0409317,0.0088501,0.0150299,-0.0536728,0.0104523,-0.00213623,0.0178146,3.8147e-005
31,9,-7.27153,0.000915527,0.00350952,-2.42592,0.0547655,-0.0753682,0.0568746,0.143602,-0.0858222,0.144098,-0.120273,-0.0837911,0.0167084,-0.00358582,0.0121307,0.0136566,0,0.0209045,0.0282288,0.0265121,-9.97986,0.0512314,0.00423431,0.0152588,-0.0536728,0.0172424,0.00244141,0.017128,0.00255585
32,0,0.471392,0.00183105,0.00488281,-2.42745,0.0547655,-0.0744527,0.0553487,0.153063,-0.0867378,0.144403,-0.121189,-0.0840963,0.0106812,-0.0342178,0.010376,0.0106812,0.000267029,0.0213242,0.0306702,0.0448227,-9.97986,0.0560379,0.00179291,0.0178528,-0.0443268,0.0200653,0.00579834,0.0211334,0.00389099
32,1,8.29091,-0.000915527,0.0050354,-2.42867,0.0535448,-0.0756734,0.0532125,0.154894,-0.0900947,0.144098,-0.120884,-0.085317,0.0132751,-0.0258255,0.0162506,0.00991821,0.00335693,0.0190353,0.0287247,0.050621,-9.97986,0.0542068,-0.00110626,0.0104141,-0.0409317,0.0157928,0.0056839,0.0190735,0.00396729
32,2,10.0097,0,0.00320435,-2.43203,0.0535448,-0.0756734,0.0495503,0.115221,-0.0968086,0.142267,-0.125766,-0.0883688,0.010376,-0.00873566,0.00427246,0.00965118,-0.000457764,0.0170517,0.0204086,0.0375366,-9.97986,0.0503159,-0.0030899,0.0152206,-0.0350571,0.0196838,0.00576019,0.018959,0.0031662
32,3,10.0097,0.000915527,0.00167847,-2.42989,0.0538499,-0.0753682,0.0513814,0.0880602,-0.095893,0.143792,-0.126682,-0.0892843,0.0149155,-0.00274658,-0.00686646,0.00595093,0.000839233,0.0127792,0.0256729,0.0250244,-9.97986,0.0479507,-0.00453949,0.0138474,-0.0341415,0.0250626,0.0038147,0.022049,0.00335693
32,4,10.0097,0.0012207,0.000610352,-2.42989,0.0538499,-0.0756734,0.050771,0.0776842,-0.0980293,0.142877,-0.126377,-0.0874532,0.0149536,0.0123215,0.0038147,0.00442505,-0.000686646,0.0107956,0.0231934,0.0160599,-9.97986,0.0364685,0.00869751,0.0135422,-0.0271606,0.0231934,0.00213623,0.0188446,0.00278473
32,5,10.0097,0.00213623,-0.000152588,-2.42776,0.0541551,-0.0756734,0.0522969,0.0734117,-0.0949775,0.145013,-0.126072,-0.0862325,0.0120163,0.031395,0.0203705,0.00576019,0.000114441,0.0137329,0.0277328,0.00297546,-9.97986,0.0363541,0.00843048,0.0157166,-0.0252914,0.0241089,0.000648499,0.0216293,0.00415802
32,6,10.0097,0.00152588,-0.000152588,-2.42776,0.0544603,-0.0759786,0.0538228,0.0709703,-0.0934516,0.146234,-0.125461,-0.0850118,0.0154877,0.0605392,0.0263977,0.00419617,0.000762939,0.0106049,0.026207,-0.00457764,-9.97986,0.0276947,0.0211716,0.0165939,-0.0209427,0.0253677,0.0031662,0.0190735,-0.00144958
32,7,10.0097,0.000305176,0.00106812,-2.42776,0.0550706,-0.0747579,0.0526021,0.0709703,-0.0949775,0.145318,-0.125766,-0.0840963,0.0143433,0.0801086,0.0416565,0.0043869,0.00450134,0.0102615,0.0286102,-0.0152588,-9.97986,0.0274658,0.0299072,0.0111008,-0.0110245,0.0248718,0.00312805,0.0193024,0.00274658
32,8,10.0097,0.00152588,0.000762939,-2.42684,0.0550706,-0.0747579,0.0538228,0.0709703,-0.0931465,0.146234,-0.126682,-0.0828756,0.0154495,0.0691605,0.050621,0.0143814,0.00335693,0.0114822,0.028801,-0.0354767,-9.97986,0.022583,0.0239944,0.0170517,-0.00450134,0.0281525,0.00259399,0.0216293,0.00953674
32,9,10.0097,0,0.000457764,-2.42501,0.0553758,-0.0747579,0.0553487,0.0712755,-0.0919257,0.147149,-0.124546,-0.0810445,0.0162125,0.0643921,0.0582123,0.00576019,0.00038147,0.0088501,0.0237656,-0.03582,-9.97986,0.0202942,0.00671387,0.00816345,0.00240326,0.0234604,-0.00228882,0.0193405,0.00148773
33,0,10.0097,0.00183105,0.000915527,-2.42562,0.0565965,-0.0744527,0.0556539,0.0728014,-0.0897895,0.14898,-0.12363,-0.0810445,0.0121689,0.0733185,0.0695419,-0.00358582,0.0025177,0.00888824,0.0250244,-0.00892639,-9.97986,0.0207901,0.00843048,0.015831,0.00915527,0.0285721,-0.00415802,0.0234222,0.00572205
33,1,10.0097,0,0.000152588,-2.42745,0.0550706,-0.0747579,0.0526021,0.04442,-0.0946723,0.145624,-0.126682,-0.0825704,0.0100327,0.0668716,0.0660706,-0.00385284,0.00347137,0.00659943,0.0262833,0.0167465,-9.97986,0.0117874,0.0108337,0.0138474,0.00934601,0.0304031,-0.00728607,0.0183868,0.00785828
33,2,7.05373,0.000305176,-0.00259399,-2.42592,0.0553758,-0.0738423,0.0513814,-0.00257703,-0.100165,0.144708,-0.129429,-0.0831808,0.0152969,0.0471497,0.0574875,0.00415802,0.00087738,0.00537872,0.0254822,0.0405121,-9.97986,0.0189209,0.0162888,0.0175858,0.0165939,0.0309753,-0.00591278,0.0195694,0.00843048
33,3,-1.51408,-0.000305176,-0.00335693,-2.42623,0.0562914,-0.0744527,0.0532125,-0.0153944,-0.0980293,0.147149,-0.130649,-0.0816549,0.00869751,0.0145721,0.0474167,0.00991821,0.00404358,0.00331879,0.0276947,0.0667953,-9.97986,0.0141525,0.0229263,0.0155258,0.0141144,0.029335,-0.00137329,0.0154877,0.0120544
33,4,-9.50633,0.000610352,-0.00427246,-2.42531,0.0575121,-0.073232,0.0532125,-0.0144789,-0.0971137,0.145318,-0.129734,-0.0810445,0.00747681,-0.0124359,0.0386047,0.0123596,0.00358582,0.00785828,0.0221634,0.08255,-9.97986,0.0101089,0.0240707,0.0189209,0.0183105,0.0286865,0,0.0186157,0.00701904
33,5,-9.99003,0.00152588,-0.00274658,-2.4244,0.0565965,-0.0735371,0.0550435,0.0227526,-0.0919257,0.145929,-0.127903,-0.0810445,0.00812531,-0.014267,0.037384,0.0113678,0.00282288,0.00198364,0.0239944,0.0694275,-9.97986,0.0152969,0.0199509,0.01297,0.0215149,0.0069046,0.001297,0.0214767,0.00576019
33,6,-9.99003,0.000610352,-0.000610352,-2.4247,0.0562914,-0.0744527,0.0568746,0.0508287,-0.0891792,0.143182,-0.126987,-0.0828756,0.00415802,-0.0204849,0.0385284,0.0127029,-0.000305176,0.00278473,0.0225067,0.0507355,-9.97986,0.01297,0.0170517,0.0136948,0.0204468,0.00427246,0.00598907,0.0202179,0.00564575
33,7,-9.99003,0.000305176,-0.000305176,-2.42745,0.055681,-0.075063,0.0547383,0.0618151,-0.0916206,0.145318,-0.126072,-0.0822652,0.00587463,-0.0250244,0.0222778,0.0144196,0.00343323,0.00518799,0.0214386,0.0403976,-9.97986,0.00896454,0.0170517,0.0143433,0.0257111,0.00530243,0.0088501,0.0209427,0.00587463
33,8,-9.99003,0,0.000762939,-2.42714,0.0553758,-0.0759786,0.0553487,0.0834825,-0.0894843,0.145624,-0.125156,-0.0825704,0.00385284,-0.0220108,0.00751495,-0.000267029,0.00740051,0.000495911,0.0220108,0.0283813,-9.97986,0.0087738,0.0136566,0.00907898,0.0247192,0.0205231,0.00965118,0.0202942,0.0075531
33,9,-7.19188,0.000610352,0.00350952,-2.42531,0.0547655,-0.075063,0.0556539,0.142992,-0.0879585,0.144708,-0.121189,-0.0831808,0.00476837,-0.0143814,0.0194168,-0.0211716,0.00297546,0.00495911,0.0231934,0.0260925,-9.97986,0.00709534,0.0120163,0.00965118,0.0215149,0.0248718,0.00656128,0.0178909,0.00675201
34,0,0.500994,0.00244141,0.00350952,-2.42806,0.0541551,-0.0762837,0.0550435,0.154588,-0.0870429,0.144403,-0.121189,-0.0850118,0.0117874,-0.00488281,0.0268173,-0.021553,0.0063324,0.000610352,0.016098,0.0209427,-9.97986,0.00156403,0.0142288,0.0127792,0.0221634,0.0279999,0.00358582,0.0175476,0.0094986
34,1,8.28725,0.000610352,0.00427246,-2.42837,0.0541551,-0.0765889,0.0522969,0.154283,-0.0891792,0.143792,-0.121494,-0.085317,0.00778198,-0.0167084,0.0276566,-0.0205994,0.00305176,0.00499725,0.0185394,0.00637054,-9.97986,-0.00118256,0.012207,0.0124359,0.0213623,0.0281906,0.00442505,0.0206375,0.00843048
34,2,10.0097,-0.000610352,0.00228882,-2.43142,0.0523241,-0.0765889,0.0486348,0.115221,-0.0955879,0.142267,-0.124851,-0.0892843,0.0111389,-0.00999451,0.0319672,-0.0292587,0.00473022,-0.000839233,0.0167465,0.00354767,-9.97986,-0.00450134,0.0102234,0.0138092,0.0191116,0.0220871,0.00614166,0.0206375,0.0113678
34,3,10.0097,0.000610352,0.000305176,-2.42989,0.0529344,-0.0768941,0.0504659,0.0865343,-0.0977241,0.144708,-0.126682,-0.0883688,0.0107574,0.0325394,0.034256,-0.0370026,-0.000572205,-0.000495911,0.0229645,-0.00293732,-9.97986,-0.0019455,0.0148392,0.0130081,0.0157928,0.0250244,0.00087738,0.0185013,0.0105667
34,4,10.0097,0.000915527,0.000152588,-2.42928,0.0526292,-0.0756734,0.0513814,0.077379,-0.0955879,0.144098,-0.126682,-0.0877584,0.00270844,0.0664139,0.018692,-0.0340652,0.00656128,0.00362396,0.0221252,0.0044632,-9.97986,-0.00534058,0.00984192,0.0133133,0.0125885,0.0229263,-0.00297546,0.0196075,0.01194
34,5,10.0097,0,-0.000610352,-2.42898,0.0538499,-0.0759786,0.0513814,0.0737169,-0.0949775,0.145318,-0.128208,-0.0859274,0.00720978,0.0799561,0.0234604,-0.0570679,0.00751495,-0.00335693,0.0198746,0.0170898,-9.97986,0.000839233,0.00835419,0.0106812,0.0107956,0.022583,-0.00175476,0.0161362,0.00740051
34,6,10.0097,0.000610352,0.000152588,-2.42806,0.0532396,-0.0744527,0.0532125,0.0718859,-0.094062,0.144403,-0.125766,-0.085317,0.0125122,0.0876999,0.0358963,-0.103264,0.00682831,0.00156403,0.0156021,-0.00255585,-9.97986,0.00602722,0.00640869,0.0146484,0.0153351,0.0207138,-0.00808716,0.0136185,0.0125885
34,7,10.0097,-0.0012207,-0.000152588,-2.42684,0.0541551,-0.0753682,0.0535176,0.0718859,-0.0937568,0.144403,-0.125156,-0.0847066,0.0117874,0.0738907,0.0283813,-0.0551224,0.00518799,0.00133514,0.0172043,-0.0196838,-9.97986,0.0114441,0.00835419,0.0118637,0.0102615,0.0214767,-0.00740051,0.0162125,0.0122452
34,8,10.0097,-0.00152588,0.000457764,-2.42653,0.0547655,-0.0738423,0.0538228,0.0718859,-0.0928413,0.147455,-0.121799,-0.0831808,0.0133133,0.0721359,0.0109482,0.0476837,0.00823975,-0.00358582,0.0208282,-0.033493,-9.97986,0.0114059,0.0069046,0.0110245,0.00682831,0.0190353,-0.0050354,0.017662,0.0103378
34,9,10.0097,-0.000610352,0,-2.42531,0.055681,-0.0738423,0.054128,0.0718859,-0.0913154,0.146234,-0.125156,-0.0813497,0.0116348,0.0491714,-0.000114441,0.0875854,0.0069809,0,0.0235367,-0.0259399,-9.97986,0.0162888,0.00751495,0.0163651,0.00514984,0.0209045,-0.00713348,0.0220871,0.0121307
35,0,10.0097,0.000610352,0,-2.42562,0.0575121,-0.0741475,0.0556539,0.0715807,-0.0913154,0.145624,-0.124241,-0.0813497,0.00984192,0.0123596,-0.0130463,0.105057,0.00534058,-0.00350952,0.0206375,-0.0177383,-9.97986,0.0179291,0.0130844,0.0114441,0.00301361,0.0163269,-0.00759125,0.0230026,0.0131989
35,1,10.0097,-0.000305176,-0.000610352,-2.42776,0.0559862,-0.075063,0.0526021,0.0459459,-0.0949775,0.144708,-0.126072,-0.0828756,0.00751495,-0.0181961,-0.0261688,0.10231,0.00530243,-0.000915527,0.0224686,-0.00617981,-9.97986,0.0185394,0.00804901,0.0127411,-0.00255585,0.0153732,-0.00587463,0.0234604,0.0133133
35,2,7.07631,0,-0.00366211,-2.42837,0.0565965,-0.0744527,0.0519917,-0.00227185,-0.100471,0.144098,-0.129429,-0.0831808,0.0094223,-0.0185394,-0.0307083,0.0710297,0.00900269,-0.00160217,0.0227737,-0.00183105,-9.97986,0.022049,0.00938416,0.00961304,-0.00808716,0.0125122,-0.00774384,0.021286,0.0123596
35,3,-1.42711,0.00213623,-0.00396729,-2.42531,0.0559862,-0.0735371,0.0535176,-0.0153944,-0.0986396,0.145929,-0.130649,-0.0825704,0.0131607,-0.00972748,-0.0287247,0.0694656,0.00728607,0.0012207,0.0248337,0.00156403,-9.97986,0.0241852,0.00507355,0.00858307,-0.0122833,0.0162125,-0.00923157,0.024147,0.0112152
35,4,-9.44285,0.0012207,-0.00473022,-2.42531,0.0562914,-0.0744527,0.0550435,-0.0160048,-0.0971137,0.147149,-0.127292,-0.0813497,0.00961304,-0.00366211,-0.0220108,0.0679016,0.00217438,0.00148773,0.019722,0.00831604,-9.97986,0.0172806,-0.00038147,0.015831,-0.0191879,0.0157166,-0.0117493,0.0237274,0.0142288
35,5,-9.99003,0.000305176,-0.00366211,-2.42501,0.0569017,-0.0735371,0.055959,0.0212267,-0.0922309,0.147149,-0.127598,-0.0813497,0.0120926,0.0167084,-0.0162888,0.0214005,0.00324249,-0.000724792,0.0171661,0.0156021,-9.97986,0.0159836,0.00419617,0.0104523,-0.0246429,-0.00865936,-0.0169373,0.0210953,0.0125504
35,6,-9.99003,0.000610352,-0.00137329,-2.42592,0.055681,-0.0747579,0.0553487,0.0502184,-0.0900947,0.146539,-0.126072,-0.0816549,0.0088501,0.020256,-0.00865936,0.0140762,0.0069046,0.000953674,0.0209427,0.0334167,-9.97986,0.0177765,0.00518799,0.0133133,-0.0287628,-0.0136566,-0.0135803,0.0222397,0.0141144
35,7,-9.99003,0.0012207,-0.000305176,-2.42531,0.0547655,-0.0744527,0.0553487,0.0605944,-0.0919257,0.145624,-0.128513,-0.0831808,0.00713348,0.0239182,-0.00278473,0.0403214,0.00297546,0.00141144,0.0185394,0.0457382,-9.97986,0.0183487,-0.00183105,0.0121689,-0.033226,-0.0139999,-0.0129318,0.0257111,0.0160217
35,8,-9.99003,0.000610352,0.000610352,-2.42592,0.0569017,-0.0729268,0.0556539,0.0843981,-0.088874,0.145624,-0.124241,-0.0822652,0.0128174,0.0262833,0.00423431,0.0476456,0.00938416,0.00457764,0.0221252,0.0559998,-9.97986,0.0166321,0.00534058,0.0101471,-0.0378799,0.00709534,-0.00968933,0.0237656,0.0172424
35,9,-7.10368,0.00274658,0.00350952,-2.42806,0.0550706,-0.0744527,0.0550435,0.142992,-0.0842964,0.145013,-0.121189,-0.0828756,0.010643,0.017395,0.00526428,0.0448227,0.00423431,0.00202179,0.0234604,0.0718307,-9.97986,0.0120926,-0.00114441,0.0137329,-0.0417709,0.00881195,-0.0172424,0.0202179,0.0156403
36,0,0.581866,0.0012207,0.00427246,-2.42745,0.0541551,-0.0753682,0.0538228,0.153368,-0.0903999,0.144403,-0.122104,-0.0850118,0.01091,0.0146103,0.00816345,0.0474548,0.00377655,0.00331879,0.0278473,0.0892258,-9.97986,0.0111008,-0.00370026,0.0148392,-0.0399399,0.0087738,-0.0149155,0.0212097,0.0143051
36,1,8.38796,0.00152588,0.00457764,-2.42776,0.0541551,-0.0762837,0.0535176,0.155504,-0.0903999,0.143792,-0.121189,-0.0856222,0.0131989,0.0249481,0.0176239,0.0290298,0.00621796,0.00492096,0.0282669,0.0767899,-9.97986,0.0108719,-0.00549316,0.0172424,-0.0423431,0.0146866,-0.0134659,0.0216675,0.0147247
36,2,10.0097,-0.000610352,0.00244141,-2.43142,0.0532396,-0.0765889,0.0498555,0.115221,-0.0971137,0.142267,-0.124851,-0.0886739,0.0110245,0.026207,0.0216675,-0.0102615,0.0056076,0.00370026,0.0276947,0.0640106,-9.97986,0.00759125,-0.00213623,0.0144958,-0.0460815,0.0107574,-0.0105667,0.0185013,0.0147629
36,3,10.0097,-0.00152588,0.000762939,-2.43142,0.0535448,-0.0756734,0.0495503,0.0874498,-0.0974189,0.143487,-0.127292,-0.0892843,0.0082016,0.0242615,0.0117111,-0.0679016,0.00656128,0.00389099,0.0305939,0.0420761,-9.97986,0.0118256,0.00202179,0.0127792,-0.0465775,0.00522614,-0.0117874,0.0172806,0.0138092
36,4,10.0097,-0.000305176,-0.000305176,-2.42959,0.0529344,-0.0765889,0.0526021,0.0776842,-0.0971137,0.143182,-0.127598,-0.0871481,0.00450134,0.0254059,0.017128,-0.114365,0.00808716,0.00576019,0.0258636,0.0174332,-9.97986,0.00591278,-0.0044632,0.0135422,-0.04879,0.00751495,-0.0151443,0.0172424,0.0146484
36,5,10.0097,0.000610352,-0.000305176,-2.42684,0.0538499,-0.0747579,0.0529073,0.0728014,-0.0946723,0.145013,-0.126682,-0.0862325,0.00358582,0.0294495,0.0141144,-0.144348,0.0112152,0.00640869,0.0234985,0.022049,-9.97986,0.00270844,-0.00831604,0.0128174,-0.0452805,0.00667572,-0.0125885,0.0175095,0.00831604
36,6,10.0097,0,0,-2.42776,0.0550706,-0.0753682,0.0532125,0.0712755,-0.0943672,0.145013,-0.125766,-0.0847066,0.00720978,0.0321198,0.0141525,-0.141907,0.00782013,0.0101852,0.0269699,0.0494766,-9.97986,0.00572205,-0.0030899,0.00892639,-0.0475693,0.0101471,-0.0117111,0.0174713,0.0119019
36,7,10.0097,-0.000305176,0.000457764,-2.42745,0.0541551,-0.0735371,0.0535176,0.0700548,-0.094062,0.145013,-0.126072,-0.085317,0.00774384,0.0260544,0.0082016,-0.153694,0.00808716,0.00797272,0.0262451,0.0598145,-9.97986,-0.000495911,-0.000724792,0.0119019,-0.0487137,0.00915527,-0.0069046,0.0168991,0.0122833
36,8,10.0097,0.000305176,0.000457764,-2.42714,0.0569017,-0.0756734,0.0532125,0.0700548,-0.0928413,0.146539,-0.125766,-0.0831808,0.00953674,0.0314331,0.00411987,-0.119705,0.0108337,0.00385284,0.0308609,0.0490952,-9.97986,-0.000534058,0.00141144,0.0147247,-0.0382614,0.00892639,-0.00774384,0.018692,0.011673
36,9,10.0097,0.000305176,0.000915527,-2.42562,0.0562914,-0.0735371,0.0553487,0.0728014,-0.0949775,0.145013,-0.124241,-0.0807394,0.016861,0.028801,0.00976563,-0.0349426,0.0102997,0.0107956,0.0298691,0.0408173,-9.97986,0.00370026,-0.00133514,0.00915527,-0.0322342,0.0144196,-0.0109863,0.0201797,0.016098
37,0,10.0097,0.00244141,0.000762939,-2.4247,0.0569017,-0.0735371,0.055959,0.072191,-0.0910102,0.147149,-0.124241,-0.0810445,0.015831,0.0283051,0.0115204,0.0333786,0.0069809,0.00648499,0.0271988,0.04879,-9.97986,0.0056839,-0.00339508,0.010643,-0.0333786,0.0111389,-0.0131989,0.015831,0.0164032
37,1,10.0097,-0.000915527,-0.000305176,-2.42714,0.0535448,-0.075063,0.0519917,0.0459459,-0.0961982,0.145624,-0.126987,-0.0828756,0.0201035,0.0251007,0.0154495,0.115356,0.0109482,0.00858307,0.0298691,0.0389481,-9.97986,-7.62939e-005,-0.00240326,0.0154114,-0.0217819,0.0121307,-0.0146866,0.0165939,0.0151443
37,2,7.05007,-0.000305176,-0.00213623,-2.42684,0.0559862,-0.0738423,0.0522969,-0.00135633,-0.0998603,0.145929,-0.129734,-0.0831808,0.0154877,0.0284195,0.0187683,0.135384,0.0179291,0.00900269,0.03582,-0.031662,-9.97986,0.00923157,-0.00183105,0.016098,-0.0166321,0.0119019,-0.0102997,0.0219727,0.0215912
37,3,-1.47166,0,-0.00350952,-2.42684,0.0550706,-0.0744527,0.0529073,-0.0153944,-0.0986396,0.146234,-0.129734,-0.0834859,0.00534058,0.0173187,0.0254059,0.102921,0.00720978,0.00473022,0.0264359,-0.0674438,-9.97986,0.00339508,-0.0130844,0.00492096,-0.0225067,0.00793457,-0.0147629,0.0124359,0.0107193
37,4,-9.45994,0.00152588,-0.00350952,-2.4247,0.0565965,-0.0756734,0.054128,-0.0160048,-0.095893,0.146844,-0.129734,-0.0816549,0.00335693,0.0321198,0.0446701,0.111122,0.0191116,0.0139999,0.0370026,-0.03479,-9.97986,0.00816345,-0.00648499,0.0165558,-0.0131226,0.0106049,-0.00495911,0.0153732,0.0157166
37,5,-9.99003,0.000915527,-0.00289917,-2.42409,0.0565965,-0.0723164,0.0568746,0.0221422,-0.0913154,0.147455,-0.127903,-0.0810445,0.0043869,0.0320435,0.0470352,0.0910187,0.0169754,0.00640869,0.031395,-0.0315857,-9.97986,0.00610352,-0.0114059,0.0101089,-0.0104904,-0.0105667,-0.0037384,0.0146866,0.0102615
37,6,-9.99003,0.00244141,-0.0012207,-2.42623,0.0562914,-0.0741475,0.0556539,0.0499132,-0.090705,0.14837,-0.126072,-0.0813497,0.00576019,0.0374222,0.0596619,0.0785828,0.0158691,0.00827789,0.0326538,-0.00114441,-9.97986,0.0105667,-0.00469208,0.0145721,-0.00915527,-0.0138855,-0.00301361,0.0131989,0.00900269
37,7,-9.99003,0.00274658,-0.000305176,-2.42562,0.0532396,-0.0753682,0.0538228,0.0605944,-0.0922309,0.145929,-0.126377,-0.0834859,0.0025177,0.0408554,0.070343,0.0686264,0.0223923,0.0116348,0.0288391,0.042305,-9.97986,0.00701904,-0.00499725,0.00995636,-0.00663757,-0.0108719,-0.00133514,0.0151443,0.0141144
37,8,-9.99003,0.000305176,0.000305176,-2.42653,0.0550706,-0.0744527,0.0550435,0.0837877,-0.0897895,0.146539,-0.123935,-0.0828756,0.0038147,0.0476837,0.0720978,0.0361633,0.0186539,0.00720978,0.0307083,0.0582886,-9.97986,0.00392914,-0.00209808,0.00907898,-0.00411987,0.0120163,-0.00209808,0.0136566,0.0107193
37,9,-7.02525,0.000610352,0.00396729,-2.42592,0.0550706,-0.0759786,0.0574849,0.143297,-0.083686,0.144403,-0.122104,-0.0837911,0.00526428,0.0532532,0.0716782,0.0151443,0.0191879,0.00831604,0.0278854,0.0802994,-9.97986,0.00106812,-0.00450134,0.0128174,-0.00602722,0.0118637,-0.00637054,0.0171661,0.00911713
38,0,0.638933,0,0.00427246,-2.42684,0.0541551,-0.0753682,0.0550435,0.154283,-0.0870429,0.144403,-0.121189,-0.0847066,0.00160217,0.0482559,0.062294,0.0226974,0.0212097,0.00759125,0.0315475,0.0907135,-9.97986,-0.00740051,-0.0131989,0.0117874,-0.00419617,0.0107574,-0.00537872,0.0131989,0.0101089
38,1,8.45998,-0.000915527,0.00488281,-2.42776,0.0547655,-0.0762837,0.0529073,0.155809,-0.090705,0.144708,-0.120884,-0.085317,0.00984192,0.0483704,0.0573349,0.0297546,0.0204849,0.0133133,0.0296783,0.072403,-9.97986,-0.0119019,-0.00835419,0.00930786,-0.00225067,0.015564,-0.00228882,0.0141525,0.0133133
38,2,10.0097,-0.0012207,0.00335693,-2.43111,0.0529344,-0.0771993,0.0501607,0.114305,-0.0961982,0.142572,-0.125156,-0.0886739,0.0150681,0.0672531,0.0411224,0.0603104,0.025177,0.01091,0.0333405,0.0468445,-9.97986,-0.0157547,-0.00404358,0.0131226,0.00175476,0.0151062,-0.00263214,0.0130463,0.0151062
38,3,10.0097,-0.000915527,0.000915527,-2.42928,0.0544603,-0.0762837,0.0513814,0.0871447,-0.0968086,0.143792,-0.126377,-0.0892843,0.00770569,0.082016,0.0251007,0.104828,0.0265884,0.00919342,0.0323486,0.0175858,-9.97986,-0.0127792,-0.00209808,0.0125504,0.00648499,0.0151443,-0.000610352,0.0119781,0.0110626
38,4,10.0097,0.000305176,-0.000152588,-2.42867,0.0547655,-0.0762837,0.0526021,0.0779894,-0.0983344,0.144098,-0.126377,-0.0874532,-0.0043869,0.0782776,0.025444,0.104523,0.0287247,0.0113297,0.0352478,-0.00343323,-9.97986,-0.00537872,-0.014534,0.0111771,0.00659943,0.018158,0.00148773,0.0175095,0.0104141
38,5,10.0097,-0.000305176,0.000610352,-2.42837,0.0535448,-0.0759786,0.0519917,0.0737169,-0.0934516,0.143182,-0.126377,-0.0865377,0.00415802,0.0445557,0.0211334,0.0802231,0.0273514,0.0142288,0.0310898,-0.0332642,-9.97986,-0.00114441,-0.00587463,0.0113678,0.00434875,0.0178528,0.00591278,0.0149155,0.00938416
38,6,10.0097,-0.000305176,0,-2.42684,0.0535448,-0.0747579,0.0522969,0.0737169,-0.094062,0.143182,-0.125156,-0.0856222,0.00614166,0.000343323,0.0094223,0.0528717,0.0281525,0.0122833,0.0260925,-0.0694275,-9.97986,0.0118637,-0.00606537,0.0116348,0.00961304,0.0166702,0.0104141,0.0148773,0.00720978
38,7,10.0097,0.00183105,0.000457764,-2.42745,0.0562914,-0.0753682,0.0538228,0.0706652,-0.0931465,0.144708,-0.125156,-0.0850118,0.00362396,-0.0303268,-0.00320435,0.0301743,0.0274277,0.0112534,0.0278091,-0.0465012,-9.97986,0.0161743,-0.00453949,0.0136185,0.00858307,0.0179291,0.00888824,0.017128,0.00900269
38,8,10.0097,0.000305176,0.00152588,-2.42653,0.0550706,-0.0741475,0.0529073,0.0709703,-0.0931465,0.146234,-0.126377,-0.0831808,0.00827789,-0.0378799,-0.00301361,0.0230789,0.0259781,0.012207,0.0290298,-0.00427246,-9.97986,0.0163269,-0.00869751,0.0147247,0.014534,0.0146103,0.0122833,0.015564,0.00812531
38,9,10.0097,0.000915527,0.000457764,-2.42592,0.0541551,-0.0744527,0.054128,0.0724962,-0.0931465,0.147455,-0.124241,-0.0816549,0.0115204,0.0108719,-0.000152588,0.0178909,0.0298691,0.0141525,0.0266266,-0.000190735,-9.97986,0.0215149,-0.0043869,0.0133133,0.019989,0.018692,0.00854492,0.0135803,0.00736237
39,0,10.0097,0.00152588,0.000762939,-2.4247,0.0569017,-0.0744527,0.0547383,0.072191,-0.0910102,0.147149,-0.124241,-0.0807394,0.0130844,0.0643921,0.0185394,0.018692,0.0300217,0.01091,0.0297546,-0.0031662,-9.97986,0.0259399,-0.0120163,0.0165939,0.0261688,0.0212479,0.0106812,0.0146866,0.00976563
39,1,10.0097,-0.000610352,0.000457764,-2.42745,0.0550706,-0.0753682,0.0529073,0.0456407,-0.095893,0.145318,-0.126987,-0.0822652,0.0213623,0.0626373,0.0276566,0.0111008,0.0314331,0.0105667,0.0352478,-0.00350952,-9.97986,0.0283051,-0.0136566,0.0150299,0.0296402,0.0212479,0.00720978,0.0137711,0.00667572
39,2,7.06105,0,-0.00228882,-2.42745,0.055681,-0.0741475,0.0522969,-0.0028822,-0.100776,0.147149,-0.128513,-0.0837911,0.0226212,0.0494766,0.0296783,0.00762939,0.0244904,0.0103378,0.0337982,-0.0170898,-9.97986,0.0400543,-0.00362396,0.0117111,0.031929,0.021286,0.0108719,0.0117111,0.0075531
39,3,-1.47532,-0.000915527,-0.00335693,-2.42562,0.0559862,-0.073232,0.0535176,-0.0150892,-0.0980293,0.144708,-0.130039,-0.0825704,0.0281906,0.0232697,0.0212479,0.0111389,0.0257492,0.0100708,0.0299835,-0.0477219,-9.97986,0.0453949,-0.00713348,0.0149918,0.0352859,0.0212097,0.00385284,0.013237,0.00606537
39,4,-9.48955,0.000305176,-0.0038147,-2.42562,0.0569017,-0.073232,0.0538228,-0.0150892,-0.0961982,0.146539,-0.130344,-0.0813497,0.0280762,-0.000991821,0.00694275,0.0173187,0.0243378,0.0119019,0.0257111,-0.0577927,-9.97986,0.0563049,-0.00598907,0.0170135,0.0337982,0.0198746,0.00106812,0.0152206,0.00804901
39,5,-9.99003,0,-0.00305176,-2.4244,0.0565965,-0.0744527,0.0571797,0.0224474,-0.0910102,0.147149,-0.128513,-0.0804342,0.0235367,-0.000228882,0.00534058,0.0116348,0.0274658,0.0130081,0.0280762,-0.0478363,-9.97986,0.053978,-0.00293732,0.00904083,0.0377655,0.0012207,-0.00232697,0.0196457,0.00534058
39,6,-9.99003,0.000305176,-0.000457764,-2.42592,0.0550706,-0.0741475,0.0544332,0.0517443,-0.0900947,0.145624,-0.126377,-0.0819601,0.00892639,0.00389099,0.00244141,0.00488281,0.0270844,0.00659943,0.0315475,-0.019455,-9.97986,0.0547028,-0.00713348,0.0136566,0.0426102,-0.000228882,-0.00190735,0.0183868,0.00583649
39,7,-9.99003,0.0012207,-0.000152588,-2.42653,0.0550706,-0.0747579,0.054128,0.0608995,-0.0916206,0.145013,-0.126987,-0.0819601,0.0106049,0.000953674,-0.0043869,0.00415802,0.0246048,0.00789642,0.0257492,0.0127029,-9.97986,0.0534821,-0.00988007,0.0119019,0.042305,-0.00087738,0.000152588,0.018158,0.00816345
39,8,-9.99003,-0.000305176,0.000610352,-2.42592,0.0547655,-0.0735371,0.055959,0.0847032,-0.0879585,0.145624,-0.124851,-0.0822652,0.0102615,-0.0111008,-0.0117874,0.000648499,0.0245667,0.00835419,0.0266647,0.0323105,-9.97986,0.0468445,-0.00968933,0.00850677,0.0416183,0.0190353,-0.00537872,0.0181198,0.00526428
39,9,-7.0457,0.000610352,0.00335693,-2.42684,0.0550706,-0.0747579,0.055959,0.143602,-0.0839912,0.145624,-0.120884,-0.0822652,0.0138092,-0.00705719,-0.0175095,0.00835419,0.0265121,0.0136948,0.0283813,0.0320435,-9.97986,0.0483704,-3.8147e-005,0.0166321,0.045433,0.0257492,-0.00263214,0.0172806,0.00713348
40,0,0.637408,0.00274658,0.00411987,-2.42745,0.0526292,-0.0753682,0.0538228,0.153368,-0.0879585,0.144708,-0.121799,-0.0847066,0.00637054,0.010643,-0.0275803,0.0107193,0.025444,0.00953674,0.0254059,0.0349045,-9.97986,0.0397491,-0.0037384,0.0131226,0.0444794,0.025177,-0.00499725,0.0151062,0.00541687
40,1,8.41603,0,0.00442505,-2.42837,0.0532396,-0.0747579,0.0544332,0.153978,-0.0913154,0.143487,-0.122104,-0.085317,0.00827789,0.0190353,-0.0206375,0.0131607,0.0265121,0.0105667,0.025444,0.0432205,-9.97986,0.0272751,-0.00213623,0.00965118,0.0457764,0.02388,-0.0120926,0.0123215,0.00476837
40,2,10.0097,0.000915527,0.00350952,-2.43172,0.0532396,-0.0775044,0.0501607,0.11461,-0.0968086,0.141351,-0.124851,-0.0889791,0.012207,-0.00450134,-0.0128174,0.00232697,0.0326157,0.00770569,0.0262451,0.0395966,-9.97986,0.017395,0.00465393,0.0154114,0.0511169,0.0263977,-0.00362396,0.0133896,0.00896454
40,3,10.0097,0.0012207,0.00152588,-2.4305,0.0535448,-0.0762837,0.0492452,0.0856188,-0.0971137,0.144098,-0.125766,-0.0889791,0.0144196,-0.0118637,-0.000572205,0.000228882,0.0298309,0.00713348,0.0221252,0.0356674,-9.97986,0.0151443,0.0174713,0.0144577,0.0515366,0.0237274,0.00228882,0.0150299,0.00343323
