
Devices
1200
,,BP Load cell - Voltage,String Length - Voltage,Clutch Active - Voltage,#7 iPecs - Voltage,,,,,,,,,EMG 1-8 Left - Voltage,,,,,,,,Pylon Force - Voltage,EMG 9-16 Right - Voltage,,,,,,,,
Frame,Sub Frame,BP Load Cell,String Length,From Arduino Logic,A45,A135,A225,A315,S0,S90,S180,S270,ZSum,EMG 1 Glut Max,EMG 2 Glut Med,EMG 3 Biceps Femoris Long,EMG 4 Rectus Femoris,EMG 5 Vastus Medialis,EMG 6 Tib Ant,EMG 7 Med Gas,EMG 8 Soleus,Pylon volts,EMG 9 Glut Max,EMG 10 Glut Med,EMG 11 Biceps Femoris Long,EMG 12 Rectus Femoris,EMG 13 Vastus Medialis,EMG 14 Tib Ant,EMG 15 Med Gas,EMG 16 Soleus
,,V,V,V,V,V,V,V,V,V,V,V,V,V,V,V,V,V,V,V,V,V,V,V,V,V,V,V,V,V
1,0,10.0097,-0.000610352,0.00320435,-2.42898,0.0532396,-0.075063,0.0529073,0.0685289,-0.094062,0.142877,-0.128513,-0.0865377,0.0546646,0.0171661,0.0118256,0.0135422,0.0326157,-0.0151825,0.10025,0.0304413,-9.97986,0.026741,0.0180054,-0.0720596,0.49942,-0.0526428,0.0101852,0.0109482,0.11879
1,1,10.0097,0.00244141,0.00152588,-2.42806,0.0535448,-0.0753682,0.0522969,0.0691393,-0.095893,0.144403,-0.126377,-0.0862325,0.0430298,0.00484467,0.00988007,0.00705719,0.0340652,-0.0225067,0.104828,0.0375748,-9.97986,0.0492859,0.0146103,-0.0815201,0.510597,-0.0740433,0.0110245,0.0115204,0.106697
1,2,10.0097,0.00152588,0.00183105,-2.42837,0.0532396,-0.0762837,0.0529073,0.0694445,-0.0943672,0.143792,-0.126072,-0.0850118,0.0180054,0.012207,0.00976563,0.0104523,0.0413132,-0.023613,0.113068,0.0404739,-9.97986,0.069809,-0.00511169,-0.0878906,0.534019,-0.0980377,0.0123978,0.0187683,0.101433
1,3,10.0097,0.000305176,0.00274658,-2.42684,0.0544603,-0.0741475,0.0526021,0.0694445,-0.0955879,0.143487,-0.126072,-0.0840963,-0.0205231,0.00934601,0.00617981,0.00621796,0.0416946,-0.0318146,0.116539,0.0375366,-9.97986,0.0883484,-0.0082016,-0.104103,0.550041,-0.119896,0.0174332,0.0230408,0.0886154
1,4,10.0097,0.000610352,0.00183105,-2.42653,0.0562914,-0.073232,0.0532125,0.0700548,-0.0919257,0.144098,-0.125461,-0.0840963,-0.0379181,0.00888824,0.00392914,0.00667572,0.0462341,-0.0403214,0.119629,0.0333023,-9.97986,0.090332,-0.00328064,-0.11322,0.570374,-0.138779,0.0197601,0.0268173,0.0795746
1,5,10.0097,0.000610352,0.000762939,-2.42684,0.0562914,-0.0753682,0.054128,0.07036,-0.0922309,0.145318,-0.125461,-0.0834859,-0.0425339,0.0150681,0.00778198,0.00606537,0.0510025,-0.0433731,0.133018,0.0367737,-9.97986,0.0732422,-0.00434875,-0.116386,0.563583,-0.162392,0.0134277,0.0295258,0.0706863
1,6,10.0097,0,-0.00167847,-2.4244,0.0569017,-0.0723164,0.0553487,0.0715807,-0.0916206,0.145929,-0.125156,-0.0822652,-0.0306702,0.0141907,0.00320435,0.00858307,0.0643539,-0.0426483,0.127296,0.0346756,-9.97986,0.0722122,0.0044632,-0.114403,0.525627,-0.174522,0.0214386,0.0354004,0.062027
1,7,10.0097,0.000915527,-0.00228882,-2.42501,0.0569017,-0.0729268,0.0553487,0.072191,-0.0916206,0.146539,-0.124546,-0.0816549,-0.0050354,0.0175476,0.00396729,0.00392914,0.0735855,-0.0432968,0.128708,0.0355911,-9.97986,0.080719,0.00144958,-0.122871,0.493469,-0.197906,0.0213623,0.0400162,0.0529861
1,8,10.0097,-0.00183105,-0.000610352,-2.42562,0.0569017,-0.0747579,0.0556539,0.0706652,-0.0919257,0.145624,-0.123325,-0.0819601,-0.0144577,0.0183868,0.00778198,0.00507355,0.0810623,-0.0456619,0.13443,0.0323868,-9.97986,0.0930405,0.00339508,-0.125961,0.488434,-0.209007,0.0144958,0.0434875,0.0498962
1,9,10.0097,-0.000915527,-0.00167847,-2.4244,0.0569017,-0.0744527,0.0547383,0.0718859,-0.0910102,0.146844,-0.123935,-0.0804342,-0.0300598,0.0174332,0.00499725,0.00495911,0.0901794,-0.0410461,0.136566,0.0258255,-9.97986,0.103264,0.00244141,-0.133476,0.46505,-0.215149,0.0140762,0.0496292,0.0437927
2,0,10.0097,0,-0.00137329,-2.4244,0.0572069,-0.0741475,0.0553487,0.0706652,-0.090705,0.146844,-0.123935,-0.0813497,-0.028801,0.0183487,0.0062561,0.00976563,0.0901794,-0.0412369,0.137138,0.0299454,-9.97986,0.109634,0.00301361,-0.127869,0.443802,-0.21534,0.0262451,0.0539398,0.0301743
2,1,10.0097,0.0012207,-0.00228882,-2.42501,0.0547655,-0.0735371,0.054128,0.0590685,-0.0931465,0.146234,-0.125156,-0.0816549,-0.0239182,0.0170517,0.00923157,0.00740051,0.0997543,-0.0386047,0.135841,0.033989,-9.97986,0.112457,0.000724792,-0.128021,0.428963,-0.21553,0.0253296,0.0579834,0.0210953
2,2,10.0097,-0.000305176,-0.000915527,-2.42592,0.0553758,-0.0744527,0.0547383,0.0612047,-0.0922309,0.144708,-0.126377,-0.0834859,0.0012207,0.0200653,0.00873566,0.00389099,0.0983429,-0.0376129,0.129852,0.0340652,-9.97986,0.117188,-0.00370026,-0.125656,0.430183,-0.205536,0.0331497,0.0598907,0.0133133
2,3,10.0097,0.0012207,0.000305176,-2.42623,0.0562914,-0.0741475,0.0547383,0.0676134,-0.0913154,0.145624,-0.125766,-0.0834859,0.00602722,0.0173569,0.0117493,0.00774384,0.102043,-0.0271606,0.129242,0.0357819,-9.97986,0.109634,-0.00221252,-0.119095,0.437469,-0.191269,0.039444,0.0580215,0.00587463
2,4,10.0097,0.000610352,0.000762939,-2.42653,0.0559862,-0.0741475,0.055959,0.0749376,-0.0910102,0.145624,-0.125156,-0.0837911,0.0238037,0.0208664,0.0138092,0.00709534,0.106201,-0.0265503,0.127716,0.0352478,-9.97986,0.102348,0.00904083,-0.111923,0.435066,-0.17868,0.0428772,0.0642395,-0.000610352
2,5,10.0097,0.000915527,0.000305176,-2.42806,0.0550706,-0.0741475,0.0544332,0.0853136,-0.0925361,0.144403,-0.125766,-0.0840963,0.0637436,0.0277328,0.0144958,0.00789642,0.111008,-0.0231552,0.125847,0.0315857,-9.97986,0.0774002,0.011673,-0.121727,0.413628,-0.170784,0.0421906,0.0616455,-0.0127411
2,6,10.0097,0,-0.00183105,-2.42898,0.0535448,-0.0744527,0.0532125,0.0728014,-0.0937568,0.144403,-0.126987,-0.0871481,0.0887299,0.0230789,0.0130081,0.00324249,0.116768,-0.0193024,0.122337,0.031662,-9.97986,0.0476837,0.0031662,-0.117683,0.388794,-0.15995,0.0428009,0.0601959,-0.0130081
2,7,10.0097,0.00213623,-0.00167847,-2.42928,0.0544603,-0.0747579,0.0529073,0.0706652,-0.0931465,0.144708,-0.127598,-0.0880636,0.102997,0.0234222,0.00534058,0.00598907,0.114899,-0.0225449,0.117264,0.032196,-9.97986,0.0186157,-0.00263214,-0.111847,0.377769,-0.144424,0.0367355,0.053978,-0.0206757
2,8,10.0097,0.000610352,-0.000915527,-2.42959,0.0538499,-0.0765889,0.0526021,0.0679186,-0.0943672,0.143487,-0.126987,-0.0868429,0.102005,0.019455,0.00732422,0.00335693,0.113831,-0.0143814,0.118217,0.0357437,-9.97986,-0.00190735,-0.00335693,-0.0975037,0.365372,-0.137405,0.0331116,0.054512,-0.0265503
2,9,10.0097,0.00152588,-0.00167847,-2.42898,0.0538499,-0.0756734,0.0519917,0.0685289,-0.0952827,0.143182,-0.127598,-0.0868429,0.085144,0.0248718,0.00705719,0.00904083,0.116043,-0.0125885,0.112305,0.0329208,-9.97986,-0.021553,0.00610352,-0.0912857,0.359497,-0.131035,0.0261307,0.0513458,-0.0304413
3,0,10.0097,0,-0.00198364,-2.42898,0.0544603,-0.0756734,0.0504659,0.0682238,-0.094062,0.144708,-0.127292,-0.0880636,0.0775909,0.0232315,0.0105667,0.00709534,0.110283,-0.00419617,0.108833,0.0284958,-9.97986,-0.0271606,0.00484467,-0.0801849,0.34481,-0.116348,0.0252533,0.0461197,-0.038414
3,1,10.0097,0.00274658,-0.000915527,-2.42806,0.0544603,-0.0753682,0.0522969,0.0676134,-0.0943672,0.144708,-0.127292,-0.0865377,0.051651,0.0197601,0.00896454,0.00553131,0.0990677,-0.00495911,0.102234,0.0241089,-9.97986,-0.0539017,-0.00247955,-0.0606155,0.347633,-0.111771,0.0231552,0.0402832,-0.0450516
3,2,10.0097,0.00152588,0.000305176,-2.42714,0.0547655,-0.075063,0.054128,0.0691393,-0.094062,0.143792,-0.127292,-0.0850118,0.0169373,0.0220108,0.011673,0.00808716,0.102348,0.00606537,0.103607,0.0270081,-9.97986,-0.083847,-0.00270844,-0.0463104,0.360451,-0.105667,0.0233078,0.0405884,-0.0498962
3,3,10.0097,0.0012207,0.000305176,-2.42745,0.0550706,-0.0759786,0.0498555,0.0691393,-0.0931465,0.145624,-0.125766,-0.0850118,-0.00358582,0.0231552,0.0101089,0.00518799,0.100746,0.0114059,0.102959,0.0217056,-9.97986,-0.0770569,-0.00225067,-0.0452042,0.359154,-0.0962448,0.0274658,0.0368118,-0.0551605
3,4,10.0097,0.0012207,0.000152588,-2.42623,0.0559862,-0.075063,0.0553487,0.0709703,-0.0937568,0.145624,-0.125461,-0.0837911,-0.00659943,0.0217819,0.0123596,0.00900269,0.0862122,0.0172424,0.0926971,0.0157166,-9.97986,-0.0500488,-0.00484467,-0.0394058,0.363426,-0.0939941,0.0240326,0.0308228,-0.0589371
3,5,10.0097,0.00213623,0.000610352,-2.42562,0.0559862,-0.0744527,0.0544332,0.0712755,-0.0931465,0.145929,-0.125766,-0.0825704,0.00461578,0.0252914,0.0117874,0.0075531,0.0815964,0.0244141,0.0948715,0.0199127,-9.97986,-0.0167084,-0.00400543,-0.0220871,0.377502,-0.0899887,0.0193024,0.0299835,-0.0634384
3,6,10.0097,0.0012207,0.000915527,-2.42592,0.0565965,-0.0738423,0.0526021,0.0712755,-0.0919257,0.145929,-0.12363,-0.0813497,0.0101089,0.02388,0.0151062,0.00518799,0.0712967,0.0277328,0.090065,0.0214386,-9.97986,0.00911713,-0.00457764,-0.012207,0.385513,-0.0938797,0.0156021,0.0266266,-0.0686264
3,7,10.0097,-0.000915527,0.00152588,-2.4247,0.0553758,-0.0744527,0.0553487,0.0709703,-0.0925361,0.146844,-0.124851,-0.0810445,-0.00164032,0.0226593,0.0180817,0.00656128,0.0637436,0.0292206,0.0837708,0.0241089,-9.97986,0.0195313,-0.00709534,-0.00637054,0.398674,-0.0951385,0.0191879,0.0219345,-0.0711823
3,8,10.0097,0.0012207,0.000457764,-2.42592,0.0562914,-0.073232,0.055959,0.07036,-0.0922309,0.14776,-0.125156,-0.0807394,-0.0172043,0.0283432,0.0164795,0.00469208,0.0609589,0.0317383,0.0814819,0.0257492,-9.97986,0.0167084,-0.00564575,0.00160217,0.395241,-0.0983429,0.0160599,0.020256,-0.0815582
3,9,10.0097,0.000610352,0,-2.42501,0.0553758,-0.0735371,0.0516866,0.0724962,-0.0910102,0.146539,-0.123935,-0.0810445,-0.0344086,0.0270844,0.0195313,0.011673,0.0568771,0.0357819,0.0760651,0.0214386,-9.97986,0.0362778,-0.00602722,0.0167465,0.390205,-0.0926208,0.0138474,0.0204849,-0.0859833
4,0,10.0097,0.0012207,-0.00137329,-2.4244,0.0565965,-0.0735371,0.0550435,0.07036,-0.0928413,0.146844,-0.121189,-0.0813497,-0.037384,0.0270081,0.0193405,0.00865936,0.0582123,0.0399017,0.0682831,0.0307083,-9.97986,0.0432587,-0.00209808,0.0243378,0.364113,-0.0973511,0.00984192,0.0234222,-0.0880432
4,1,10.0097,-0.000305176,-0.00366211,-2.4247,0.0569017,-0.0735371,0.054128,0.0596788,-0.0931465,0.145624,-0.124241,-0.0825704,-0.030098,0.0255585,0.0134277,0.00720978,0.0543594,0.0419998,0.0684738,0.0354004,-9.97986,0.0409698,-0.000534058,0.0188065,0.32753,-0.1017,0.00179291,0.0165176,-0.0953674
4,2,10.0097,0.000915527,-0.00427246,-2.42653,0.0541551,-0.0738423,0.0550435,0.0621202,-0.0922309,0.145318,-0.124851,-0.0834859,-0.0148773,0.0266266,0.0167084,0.0063324,0.0653839,0.0406265,0.0615311,0.0336456,-9.97986,0.0418854,-0.00133514,0.0250244,0.292473,-0.103645,0.00312805,0.015564,-0.0973892
4,3,10.0097,-0.00152588,-0.0038147,-2.42714,0.0550706,-0.0738423,0.0547383,0.0673082,-0.0919257,0.144403,-0.12302,-0.0837911,-0.0107574,0.0234222,0.0223923,0.00793457,0.0632477,0.0341415,0.0596237,0.0363159,-9.97986,0.0268936,-0.00038147,0.0241852,0.245857,-0.104141,-0.00267029,0.0146866,-0.105972
4,4,10.0097,-0.000610352,-0.00366211,-2.42714,0.0550706,-0.0741475,0.0532125,0.0715807,-0.0919257,0.144403,-0.124851,-0.0837911,-0.0279999,0.0245285,0.0199127,0.00923157,0.0662613,0.0307083,0.0500488,0.0321579,-9.97986,0.00656128,-0.00320435,0.0284195,0.203934,-0.107689,-0.00278473,0.0124359,-0.107498
4,5,10.0097,-0.000610352,-0.00244141,-2.42684,0.0538499,-0.0747579,0.0544332,0.082567,-0.0922309,0.144098,-0.126072,-0.0844015,-0.0471115,0.0241852,0.0230789,0.00930786,0.0663376,0.029068,0.0482178,0.0276184,-9.97986,-0.0217819,0.00110626,0.0467682,0.171928,-0.107918,-0.00362396,0.0117874,-0.115204
4,6,10.0097,-0.000610352,-0.00488281,-2.42928,0.0559862,-0.0756734,0.0522969,0.0715807,-0.0943672,0.143487,-0.127903,-0.0871481,-0.039444,0.0276566,0.0234985,0.0031662,0.0656891,0.0319672,0.0408554,0.0226212,-9.97986,-0.0337982,0.00160217,0.0601196,0.110016,-0.112381,-0.0114059,0.0140381,-0.121765
4,7,10.0097,0.0012207,-0.00640869,-2.42928,0.0544603,-0.0759786,0.0519917,0.0694445,-0.0946723,0.142877,-0.126682,-0.0889791,-0.0279617,0.0321579,0.0234604,0.0115967,0.0672531,0.0318527,0.0351715,0.0177383,-9.97986,-0.0310898,-0.00259399,0.0551987,0.0324631,-0.106926,-0.0151825,0.0151062,-0.121956
4,8,10.0097,0.00183105,-0.00534058,-2.42867,0.0565965,-0.0762837,0.0532125,0.0694445,-0.0946723,0.143182,-0.126987,-0.0874532,0.00240326,0.0336075,0.0282669,0.0152969,0.069046,0.0331116,0.0307465,0.013504,-9.97986,-0.0162125,-0.00396729,0.0593185,-0.0206375,-0.106773,-0.0183868,0.017395,-0.129585
4,9,10.0097,0.000305176,-0.00686646,-2.42959,0.0541551,-0.075063,0.0532125,0.0694445,-0.0949775,0.143182,-0.126682,-0.0892843,0.0450134,0.0347519,0.0289536,0.00919342,0.0736237,0.0313187,0.0251007,0.0145721,-9.97986,-0.00614166,-0.00495911,0.0658798,-0.0844193,-0.0885773,-0.0204468,0.0218964,-0.137177
5,0,10.0097,0.000915527,-0.00854492,-2.42867,0.0532396,-0.0762837,0.0519917,0.0679186,-0.0943672,0.143792,-0.127292,-0.0889791,0.0616837,0.0312805,0.0284958,0.0139999,0.0776672,0.0313568,0.0196838,0.0141525,-9.97986,-0.00301361,-0.00469208,0.070076,-0.168495,-0.0695419,-0.0281906,0.0210953,-0.142021
5,1,10.0097,0.00152588,-0.00656128,-2.42898,0.0520189,-0.0759786,0.0538228,0.0694445,-0.0931465,0.143487,-0.127292,-0.0883688,0.0680161,0.0312042,0.0244904,0.0113297,0.074501,0.0277328,0.0191879,0.0148392,-9.97986,-0.00404358,-0.00312805,0.0695419,-0.229568,-0.0505829,-0.031929,0.0302505,-0.145988
5,2,10.0097,0.000915527,-0.00701904,-2.42745,0.0550706,-0.0747579,0.0526021,0.0691393,-0.0943672,0.144098,-0.127598,-0.0868429,0.067749,0.0265884,0.025444,0.0124359,0.0679016,0.0272751,0.017128,0.0136185,-9.97986,-0.0169754,0,0.0660324,-0.2948,-0.0290298,-0.0328064,0.0309753,-0.148315
5,3,10.0097,0.000305176,-0.00610352,-2.42776,0.0547655,-0.0747579,0.0538228,0.0697496,-0.0931465,0.145013,-0.126682,-0.0865377,0.0614548,0.0298309,0.0259781,0.010376,0.0486755,0.0256348,0.0108719,0.0101089,-9.97986,-0.0331116,0.000419617,0.0645828,-0.355415,-0.00675201,-0.0369263,0.0307083,-0.152664
5,4,10.0097,0.000610352,-0.00549316,-2.42745,0.0562914,-0.0744527,0.0532125,0.0688341,-0.0946723,0.145318,-0.125766,-0.0862325,0.0531006,0.026741,0.0268936,0.0101089,0.0416183,0.0326157,0.00312805,0.0214386,-9.97986,-0.0429916,0.000305176,0.076561,-0.423203,0.0197601,-0.0433731,0.0340271,-0.157051
5,5,10.0097,0.0012207,-0.00656128,-2.42501,0.0559862,-0.073232,0.0550435,0.0712755,-0.0903999,0.146234,-0.125766,-0.085317,0.0369263,0.028801,0.0224686,0.0156021,0.033226,0.0309372,0.00637054,0.0155258,-9.97986,-0.0570679,0.00350952,0.0840378,-0.493431,0.0445175,-0.0465393,0.0353622,-0.154572
5,6,10.0097,0.00152588,-0.0038147,-2.4247,0.0565965,-0.0738423,0.0538228,0.0694445,-0.0916206,0.14776,-0.125156,-0.0822652,0.0203705,0.0279236,0.0273132,0.0101852,0.0223923,0.020752,-0.00236511,0.0154495,-9.97986,-0.0741577,-0.00236511,0.0877762,-0.518074,0.0701904,-0.0557709,0.0356293,-0.162582
5,7,10.0097,-0.000915527,-0.0038147,-2.42531,0.0569017,-0.0738423,0.0556539,0.0718859,-0.0910102,0.146539,-0.124546,-0.0825704,0.00717163,0.0301743,0.0262833,0.0101089,0.016861,0.0222778,-0.00476837,0.0231934,-9.97986,-0.0529099,-0.00377655,0.0933838,-0.560532,0.0824738,-0.0563812,0.0381088,-0.15934
5,8,10.0097,0.000305176,-0.00549316,-2.42623,0.0559862,-0.0735371,0.0553487,0.0718859,-0.0910102,0.147149,-0.124241,-0.0834859,-0.00427246,0.0234985,0.0200272,0.00774384,0.0133514,0.011673,-0.00747681,0.0197983,-9.97986,-0.0140762,-0.00152588,0.0876236,-0.617409,0.0875473,-0.0587463,0.0333786,-0.161514
5,9,10.0097,-0.0012207,-0.0038147,-2.42409,0.0565965,-0.073232,0.055959,0.0728014,-0.0913154,0.147149,-0.12363,-0.0816549,0.00358582,0.0230789,0.0232315,0.0101471,0.00984192,0.00751495,-0.0110626,0.0195694,-9.97986,0.0454712,-0.0063324,0.0862503,-0.643501,0.0934601,-0.0601959,0.0362015,-0.164604
6,0,10.0097,-0.00152588,-0.00289917,-2.4244,0.0562914,-0.0753682,0.0571797,0.0728014,-0.0903999,0.14776,-0.124851,-0.0819601,0.00392914,0.0247574,0.0212479,0.00904083,0.00358582,-0.0038147,-0.0192261,0.0224686,-9.97986,0.0984955,-0.0056076,0.0867462,-0.666161,0.0979614,-0.0558472,0.0362396,-0.166855
6,1,10.0097,0.0012207,-0.00259399,-2.42592,0.055681,-0.0735371,0.0550435,0.0608995,-0.0928413,0.145929,-0.125461,-0.0822652,-0.000762939,0.0246048,0.018158,0.0118637,-0.00167847,-0.0182724,-0.026207,0.0182724,-9.97986,0.117683,-0.00968933,0.0853729,-0.671654,0.0974655,-0.0469589,0.0364685,-0.162201
6,2,10.0097,0.000610352,-0.00106812,-2.42653,0.0559862,-0.0738423,0.054128,0.0615099,-0.0928413,0.146844,-0.125766,-0.0819601,0.0212479,0.0271988,0.0222015,0.00900269,-0.0105667,-0.0268555,-0.0297546,0.0127411,-9.97986,0.10891,-0.00484467,0.090065,-0.66082,0.0839615,-0.03479,0.0347137,-0.160217
6,3,10.0097,-0.00183105,0.000915527,-2.42837,0.0565965,-0.0738423,0.0544332,0.0679186,-0.0919257,0.145929,-0.125156,-0.0822652,0.0418091,0.0247192,0.0229263,0.0143433,-0.0191498,-0.0473785,-0.0320816,0.00801086,-9.97986,0.0904083,-0.00793457,0.0860596,-0.640717,0.0743866,-0.0266266,0.03582,-0.158806
6,4,10.0097,0.0012207,0.0012207,-2.42684,0.0538499,-0.0756734,0.0544332,0.0712755,-0.0910102,0.145624,-0.12363,-0.0825704,0.0455093,0.0301743,0.0258255,0.0069046,-0.0247192,-0.0642776,-0.0350952,0.00106812,-9.97986,0.0709152,-0.00102997,0.0883484,-0.632324,0.0821686,-0.014801,0.0319672,-0.158806
6,5,10.0097,-0.000610352,0.000915527,-2.42806,0.0541551,-0.0747579,0.0532125,0.0828722,-0.0922309,0.144098,-0.125461,-0.0844015,0.0391006,0.0344849,0.0246429,0.0131607,-0.0312805,-0.0743866,-0.0392532,-0.00530243,-9.97986,0.0484085,-0.00217438,0.0788116,-0.64476,0.0919342,-0.00713348,0.0317383,-0.156593
6,6,10.0097,0.0012207,0.000305176,-2.42959,0.0526292,-0.0765889,0.0526021,0.072191,-0.0955879,0.145013,-0.126072,-0.085317,0.000648499,0.032196,0.024147,0.0183105,-0.0282288,-0.0923157,-0.042305,0.00427246,-9.97986,0.0317383,3.8147e-005,0.0749588,-0.633774,0.0956726,0.00484467,0.0281525,-0.154343
6,7,10.0097,-0.000610352,0.00259399,-2.42928,0.0544603,-0.0753682,0.0526021,0.0694445,-0.0937568,0.143487,-0.127598,-0.0847066,-0.0510788,0.026741,0.0214005,0.0187683,-0.0350571,-0.110664,-0.0478363,0.00743866,-9.97986,0.0191879,-0.00457764,0.0629425,-0.588112,0.0951004,0.00484467,0.0251007,-0.146446
6,8,10.0097,0.000305176,0.00534058,-2.42806,0.0553758,-0.075063,0.0513814,0.0688341,-0.0949775,0.143487,-0.126987,-0.0847066,-0.0629807,0.0292969,0.0228882,0.0141907,-0.0497055,-0.123749,-0.0482941,0.01091,-9.97986,0.0277328,-0.00339508,0.0596619,-0.514259,0.0958252,0.00892639,0.019722,-0.14164
6,9,10.0097,0.000305176,0.00335693,-2.42867,0.0547655,-0.0762837,0.0516866,0.0691393,-0.0949775,0.144403,-0.128513,-0.0862325,-0.0239563,0.0257874,0.018692,0.0155258,-0.0669098,-0.153275,-0.0487137,0.0177765,-9.97986,0.0378799,-0.00175476,0.0617218,-0.465393,0.0909424,0.0172043,0.014534,-0.138969
7,0,10.0097,-0.000610352,0.00366211,-2.42898,0.0541551,-0.075063,0.0516866,0.0676134,-0.0934516,0.142572,-0.127292,-0.0862325,0.0204468,0.0256729,0.0198746,0.0101089,-0.0840378,-0.16758,-0.050087,0.0196457,-9.97986,0.030899,-0.00652313,0.059433,-0.43644,0.0724411,0.0234604,0.00526428,-0.133476
7,1,10.0097,0.000305176,0.00335693,-2.42867,0.0538499,-0.075063,0.0532125,0.0682238,-0.0946723,0.142877,-0.126682,-0.0850118,0.0255966,0.0319672,0.0217056,0.0120544,-0.0951004,-0.185432,-0.0530243,0.0189972,-9.97986,0.00869751,-0.0037384,0.0540161,-0.390167,0.0540543,0.0280762,0.00228882,-0.124931
7,2,10.0097,0,0.00198364,-2.42776,0.0544603,-0.0756734,0.0522969,0.0688341,-0.094062,0.143792,-0.126987,-0.0856222,0.0294113,0.0268555,0.0204086,0.00888824,-0.111313,-0.198364,-0.051384,0.0205994,-9.97986,-0.0243378,-0.00644684,0.0455856,-0.376663,0.0279617,0.0386047,-0.00320435,-0.11879
7,3,10.0097,0.000610352,0,-2.42653,0.0547655,-0.0756734,0.0538228,0.0691393,-0.0946723,0.144403,-0.125766,-0.0847066,0.0117111,0.0328064,0.0239944,0.0115585,-0.128899,-0.207024,-0.0513458,0.0193787,-9.97986,-0.0538635,-0.00160217,0.0445175,-0.394821,0.0094223,0.041008,-0.0019455,-0.114059
7,4,10.0097,-0.000305176,0.00152588,-2.42714,0.055681,-0.0756734,0.0544332,0.0691393,-0.0952827,0.144708,-0.125766,-0.0834859,-0.00732422,0.0374985,0.0271606,0.0102997,-0.126076,-0.221558,-0.0553513,0.0150681,-9.97986,-0.0798798,0.00240326,0.0435638,-0.370674,-0.0131989,0.0460052,-0.00713348,-0.108376
7,5,10.0097,-0.00183105,0.00259399,-2.42623,0.0541551,-0.0747579,0.0538228,0.0691393,-0.0922309,0.144708,-0.124851,-0.0825704,-0.00995636,0.0323868,0.0333786,0.0110626,-0.113983,-0.228882,-0.045929,0.0126648,-9.97986,-0.0888062,0.00736237,0.0477219,-0.338669,-0.0264359,0.0532532,-0.0123215,-0.0978851
7,6,10.0097,-0.000305176,-0.00137329,-2.42562,0.0565965,-0.075063,0.0547383,0.0712755,-0.0934516,0.146234,-0.125156,-0.0831808,-0.0252533,0.0349426,0.0285339,0.0163651,-0.108337,-0.226974,-0.045433,0.00415802,-9.97986,-0.0820541,0.00530243,0.0533295,-0.390282,-0.0217438,0.0497818,-0.0162506,-0.0884628
7,7,10.0097,-0.000610352,-0.00823975,-2.42501,0.0572069,-0.075063,0.0556539,0.0718859,-0.0922309,0.146539,-0.123935,-0.0834859,-0.0552368,0.0326157,0.0275421,0.0153732,-0.106277,-0.225754,-0.0440979,-0.00999451,-9.97986,-0.0554276,-0.00541687,0.0567245,-0.524483,-0.0156403,0.0524902,-0.0210571,-0.0806427
7,8,10.0097,0.000610352,-0.012207,-2.42623,0.0578172,-0.0738423,0.0532125,0.072191,-0.090705,0.145624,-0.124546,-0.0859274,-0.0626373,0.0363922,0.0304413,0.0148392,-0.113411,-0.220604,-0.0455856,-0.00320435,-9.97986,-0.0315857,-0.00423431,0.0600815,-0.685654,-0.0183868,0.0550461,-0.0267792,-0.0737
7,9,10.0097,0.0012207,-0.0140381,-2.42501,0.0572069,-0.0738423,0.0550435,0.0712755,-0.0922309,0.147455,-0.12363,-0.085317,-0.0172043,0.0331879,0.029068,0.0177765,-0.11055,-0.209656,-0.0421143,-0.0100708,-9.97986,0.00488281,-0.00522614,0.0580597,-0.840836,-0.0210571,0.0535583,-0.0263214,-0.0677109
8,0,10.0097,0.000915527,-0.0128174,-2.42562,0.0575121,-0.0729268,0.0547383,0.0700548,-0.0913154,0.145929,-0.12363,-0.0844015,0.00793457,0.0331497,0.0244522,0.0214386,-0.105171,-0.198021,-0.0399017,-0.0182343,-9.97986,0.0282669,0.00205994,0.0608444,-0.972366,-0.0292587,0.0582886,-0.0229645,-0.0601959
8,1,10.0097,0.000610352,-0.012207,-2.42592,0.0559862,-0.0741475,0.0538228,0.0593737,-0.0934516,0.146844,-0.125766,-0.0844015,0.00267029,0.0345612,0.020752,0.0221634,-0.0995636,-0.188103,-0.0395203,-0.0197601,-9.97986,0.0252533,0.00205994,0.0581741,-1.07498,-0.0413513,0.0556564,-0.0258255,-0.057869
8,2,10.0097,0.00152588,-0.0100708,-2.42653,0.0550706,-0.075063,0.0547383,0.059984,-0.0931465,0.146234,-0.125156,-0.0847066,0.0111008,0.0292587,0.0195694,0.0165176,-0.0857544,-0.171967,-0.0400162,-0.00881195,-9.97986,0.01091,0.00480652,0.0579834,-1.15742,-0.0442886,0.0646591,-0.0246429,-0.0527573
8,3,10.0097,0.00427246,-0.00778198,-2.42684,0.0553758,-0.0738423,0.0538228,0.067003,-0.0928413,0.145013,-0.124851,-0.0844015,0.00984192,0.0295258,0.0201416,0.0165176,-0.0792313,-0.151482,-0.0377274,-0.00541687,-9.97986,-0.0292969,0.000114441,0.0534439,-1.22063,-0.0532532,0.0651169,-0.0284958,-0.0458145
8,4,10.0097,0.00152588,-0.00564575,-2.42745,0.055681,-0.0747579,0.0547383,0.0740221,-0.0919257,0.146234,-0.125156,-0.0850118,0.0204849,0.0278854,0.0216293,0.0182343,-0.0659561,-0.13588,-0.0374222,0.00228882,-9.97986,-0.0765991,0.00278473,0.0427628,-1.25,-0.0598145,0.0639725,-0.0257492,-0.0379181
8,5,10.0097,0.000610352,-0.00427246,-2.42867,0.0541551,-0.0756734,0.0526021,0.0804308,-0.0934516,0.144708,-0.126377,-0.0859274,0.0544739,0.0257111,0.022316,0.0159836,-0.0578308,-0.120773,-0.0304413,0.00888824,-9.97986,-0.0994873,0.00457764,0.0271225,-1.25,-0.0622559,0.0661469,-0.0243378,-0.033989
8,6,10.0097,0.000305176,-0.00274658,-2.42837,0.0541551,-0.0747579,0.0516866,0.0734117,-0.0949775,0.144098,-0.126072,-0.0865377,0.0697708,0.0232697,0.014801,0.0128937,-0.0483704,-0.111275,-0.0295258,0.0198746,-9.97986,-0.0907898,0.00225067,0.01297,-1.25,-0.0688553,0.0684357,-0.0226212,-0.0315857
8,7,10.0097,0.00183105,-0.000915527,-2.42898,0.0535448,-0.0759786,0.0513814,0.0709703,-0.094062,0.143792,-0.126987,-0.0862325,0.0564575,0.0216293,0.01091,0.00907898,-0.039978,-0.103455,-0.0271225,0.02388,-9.97986,-0.0510025,-0.000648499,-0.00205994,-1.25,-0.0522232,0.0662994,-0.0202942,-0.0250626
8,8,10.0097,-0.000610352,0.00213623,-2.42898,0.0532396,-0.0759786,0.0513814,0.0706652,-0.0946723,0.143487,-0.127292,-0.0862325,0.0397873,0.0181198,0.0107574,0.00720978,-0.0263596,-0.0934601,-0.0294876,0.0222397,-9.97986,-0.00961304,-0.000534058,-0.0172424,-1.25,-0.0436401,0.068779,-0.0192261,-0.0229645
8,9,10.0097,0.00183105,0.00152588,-2.42867,0.0535448,-0.0753682,0.0522969,0.0688341,-0.0946723,0.144403,-0.127598,-0.0874532,0.0252151,0.0163651,0.00938416,0.00926971,-0.0211716,-0.0784302,-0.0182343,0.0219345,-9.97986,0.0102997,0.00297546,-0.0299454,-1.24119,-0.0389099,0.0601959,-0.0154495,-0.0168991
9,0,10.0097,0.00152588,0.00305176,-2.42928,0.0529344,-0.0756734,0.0526021,0.0691393,-0.0928413,0.144098,-0.126377,-0.0856222,0.00782013,0.0133896,0.00457764,0.0100327,-0.0157928,-0.0616455,-0.0257111,0.0210953,-9.97986,0.0162506,0.00606537,-0.0395584,-1.19869,-0.0370789,0.0577164,-0.0156403,-0.0159454
9,1,10.0097,0,0.00427246,-2.42928,0.0535448,-0.0741475,0.0522969,0.0694445,-0.0946723,0.144403,-0.127292,-0.0850118,-0.0191879,0.0143433,0.00396729,0.0109482,-0.00911713,-0.0375366,-0.0146484,0.0217056,-9.97986,0.0265121,0.00656128,-0.0568008,-1.13216,-0.0373077,0.0558472,-0.0135803,-0.0118256
9,2,10.0097,0.0012207,0.00518799,-2.42684,0.0535448,-0.0744527,0.0529073,0.0697496,-0.0946723,0.144403,-0.125461,-0.0831808,-0.0187302,0.0157166,0.0030899,0.00915527,-0.0102234,-0.015831,-0.0158691,0.0133514,-9.97986,0.042572,0.0025177,-0.0675583,-1.07994,-0.0338364,0.0511932,-0.0144958,-0.0111389
9,3,10.0097,0.00183105,0.00518799,-2.42776,0.0535448,-0.0762837,0.0535176,0.0697496,-0.0937568,0.144708,-0.126072,-0.0831808,-0.0219345,0.0186539,0.0114441,0.00915527,-0.0132751,0.000686646,-0.0113297,0.00823975,-9.97986,0.0481796,-0.00312805,-0.0726318,-1.0173,-0.0337601,0.0437546,-0.0114822,-0.00740051
9,4,10.0097,0.00274658,0.00595093,-2.42714,0.0559862,-0.0747579,0.0532125,0.0694445,-0.0931465,0.144403,-0.126072,-0.0825704,-0.0222778,0.0228119,0.0101471,0.0100327,-0.0263596,0.00965118,-0.00347137,0.00305176,-9.97986,0.0611877,-0.00343323,-0.0736618,-0.951843,-0.0382233,0.0444794,-0.0125122,-0.00255585
9,5,10.0097,0.0012207,0.00595093,-2.42623,0.0553758,-0.0747579,0.0544332,0.0694445,-0.0922309,0.145624,-0.124241,-0.0819601,-0.0101852,0.0237274,0.0102997,0.0082016,-0.037384,0.0185776,-0.00480652,0.00419617,-9.97986,0.0880432,0.00125885,-0.0679779,-0.894547,-0.0490189,0.0405884,-0.0124359,-0.00240326
9,6,10.0097,0.000610352,0.00534058,-2.42592,0.0565965,-0.0738423,0.0553487,0.0715807,-0.0913154,0.145624,-0.125156,-0.0804342,0.00930786,0.0223541,0.0119781,0.0123215,-0.0413513,0.0225067,0.00343323,0.00766754,-9.97986,0.11322,0.000572205,-0.0556946,-0.842552,-0.0434875,0.0385284,-0.0151062,0.00278473
9,7,10.0097,0.000610352,0.00518799,-2.42379,0.0569017,-0.0747579,0.0550435,0.0718859,-0.0922309,0.146844,-0.124241,-0.0798238,0.0246429,0.0298309,0.0164032,0.0111389,-0.0475311,0.0232697,0.00164032,0.000915527,-9.97986,0.13237,-0.00114441,-0.0375748,-0.785408,-0.0337601,0.0373459,-0.0104141,0.00453949
9,8,10.0097,0.00274658,0.00564575,-2.42653,0.0569017,-0.0744527,0.054128,0.0700548,-0.090705,0.145318,-0.124241,-0.0792135,0.0310135,0.025444,0.0143433,0.00740051,-0.0362015,0.0292969,0.00827789,0.00038147,-9.97986,0.142593,0.000534058,-0.00896454,-0.723839,-0.019455,0.0344467,-0.0124359,0.00549316
9,9,10.0097,0.000915527,0.00610352,-2.42501,0.0575121,-0.0726216,0.0556539,0.0715807,-0.090705,0.148675,-0.12363,-0.078298,0.0350189,0.0249481,0.0148392,0.00957489,-0.033493,0.0304031,0.00862122,0.00785828,-9.97986,0.134697,0.00213623,0.0152969,-0.662804,-0.0119019,0.0329971,-0.0152969,0.00785828
10,0,10.0097,0.000915527,0.00518799,-2.4247,0.0553758,-0.0735371,0.055959,0.0734117,-0.0910102,0.146539,-0.124241,-0.0813497,0.0427246,0.0259781,0.0197601,0.00946045,-0.0255203,0.0360489,0.0124741,0.0141144,-9.97986,0.12825,0.0056076,0.0346375,-0.626907,-0.00450134,0.0280762,-0.00999451,0.00816345
10,1,10.0097,0.0012207,0.00228882,-2.42531,0.0559862,-0.0738423,0.0544332,0.0587633,-0.0937568,0.145318,-0.124851,-0.0807394,0.0499344,0.0263596,0.0146484,0.00675201,-0.01091,0.0403595,0.0143433,0.0135803,-9.97986,0.125389,0.0037384,0.0510788,-0.605125,0.00507355,0.026741,-0.00900269,0.0103378
10,2,10.0097,0.000305176,0.00305176,-2.42684,0.0553758,-0.0741475,0.0538228,0.0615099,-0.0922309,0.145624,-0.124241,-0.0810445,0.0537872,0.0280762,0.0132751,0.00278473,-0.00553131,0.0392151,0.0142288,0.0133896,-9.97986,0.109558,-0.00328064,0.0659943,-0.562248,0.0102234,0.0247574,-0.0115204,0.0143051
10,3,10.0097,0.0012207,0.00350952,-2.42653,0.0562914,-0.075063,0.0538228,0.0660875,-0.0919257,0.146234,-0.126377,-0.0825704,0.0448227,0.0214386,0.0156784,0.00827789,-0.00465393,0.0421524,0.0161743,0.016861,-9.97986,0.0779724,-0.000648499,0.0688934,-0.531006,0.0171661,0.0201797,-0.0087738,0.0149155
10,4,10.0097,-0.00305176,0.00152588,-2.42623,0.055681,-0.0747579,0.0538228,0.0737169,-0.0928413,0.145624,-0.125156,-0.0819601,0.0218582,0.0238419,0.0174332,0.00671387,0.00461578,0.045929,0.0146866,0.0150681,-9.97986,0.0443268,0.00118256,0.0790024,-0.526237,0.0184631,0.0221252,-0.00652313,0.0188446
10,5,10.0097,0.000305176,0.00320435,-2.42684,0.0544603,-0.075063,0.0535176,0.080736,-0.0919257,0.143792,-0.126377,-0.0837911,0.0180817,0.0294495,0.0161362,0.00549316,0.00907898,0.0441742,0.0233841,0.0112915,-9.97986,0.0315857,-0.00175476,0.0854874,-0.501862,0.0175858,0.0244904,-0.00610352,0.0200272
10,6,10.0097,0.00183105,0.00305176,-2.42928,0.0541551,-0.075063,0.054128,0.0731066,-0.0955879,0.143487,-0.127292,-0.0859274,0.0111389,0.0263596,0.0186157,0.00537872,0.0114822,0.0465775,0.0233459,0.0203705,-9.97986,0.0117874,-0.0102997,0.0893402,-0.473976,0.00682831,0.022316,-0.00164032,0.0199509
10,7,10.0097,0.000610352,0.00289917,-2.42928,0.0538499,-0.0762837,0.0526021,0.0706652,-0.0949775,0.144098,-0.126987,-0.0862325,0.00167847,0.0304031,0.0199127,0.00492096,0.0223541,0.0435638,0.0275803,0.0175095,-9.97986,-0.00869751,-0.0108337,0.0934982,-0.440826,0.0144958,0.0252533,-0.0043869,0.0214005
10,8,10.0097,0,0.00427246,-2.42867,0.0547655,-0.0759786,0.0535176,0.07036,-0.0928413,0.144708,-0.127292,-0.0847066,0.00389099,0.0262451,0.0193024,0.00659943,0.0222778,0.0446701,0.0228882,0.0190353,-9.97986,-0.00415802,-0.00774384,0.097847,-0.389175,0.0200653,0.0207901,0.001297,0.0240707
10,9,10.0097,0.0012207,0.00442505,-2.42928,0.0535448,-0.0768941,0.0532125,0.0679186,-0.0952827,0.143487,-0.127292,-0.0856222,-0.00274658,0.0251007,0.0196838,0.00259399,0.0278091,0.051651,0.0249863,0.0198364,-9.97986,0.00221252,-0.00850677,0.100403,-0.335579,0.0313187,0.0182343,0.000686646,0.0235748
11,0,10.0097,-0.000305176,0.00473022,-2.42867,0.0538499,-0.0759786,0.0532125,0.0679186,-0.0955879,0.143487,-0.126987,-0.085317,-0.0344849,0.0291824,0.019455,0.00202179,0.0328064,0.0488281,0.02491,0.0238037,-9.97986,0.0107193,-0.00801086,0.0994873,-0.282669,0.0397491,0.0171661,-0.000534058,0.0212097
11,1,10.0097,-0.000610352,0.00457764,-2.42806,0.0547655,-0.0756734,0.0544332,0.0718859,-0.0937568,0.144403,-0.127292,-0.0840963,-0.040741,0.0317764,0.026741,0.00679016,0.038147,0.0433731,0.0241089,0.0222015,-9.97986,0.0159073,0.00282288,0.0975418,-0.21862,0.0472641,0.0175858,-0.000610352,0.0298691
11,2,10.0097,0.00183105,0.00640869,-2.42806,0.0550706,-0.0744527,0.0519917,0.0694445,-0.0925361,0.143182,-0.124546,-0.0840963,-0.0153351,0.0298691,0.0255966,-0.000610352,0.0349045,0.0426865,0.0276947,0.0227737,-9.97986,0.0183868,-0.00335693,0.10006,-0.134735,0.0445175,0.014801,-0.00553131,0.0297165
11,3,10.0097,0.000305176,0.00900269,-2.42745,0.0544603,-0.0747579,0.0544332,0.0694445,-0.0931465,0.145013,-0.126072,-0.0828756,0.0195694,0.0337601,0.0284195,0.00621796,0.0378418,0.0398254,0.0265884,0.0226212,-9.97986,0.0159073,-0.00572205,0.105705,-0.0370789,0.0507736,0.0087738,-0.00255585,0.0325394
11,4,10.0097,0.00152588,0.00762939,-2.42684,0.0550706,-0.0756734,0.0526021,0.072191,-0.0928413,0.145929,-0.125461,-0.0825704,0.0389862,0.0348282,0.0286865,0.00812531,0.0415802,0.0393295,0.0282288,0.021286,-9.97986,0.00175476,-0.0056076,0.109901,0.0305939,0.0460815,0.00717163,-0.0025177,0.038414
11,5,10.0097,0.00213623,0.00686646,-2.42592,0.0565965,-0.0744527,0.054128,0.0697496,-0.0916206,0.145929,-0.124241,-0.0810445,0.0436401,0.033226,0.0191116,0.00209808,0.0382996,0.0357819,0.0246048,0.0194168,-9.97986,-0.00976563,-0.00366211,0.106506,0.0927353,0.0428391,0.00907898,-0.00320435,0.0385284
11,6,10.0097,-0.000610352,0.00564575,-2.42287,0.055681,-0.0744527,0.0544332,0.0712755,-0.0922309,0.146234,-0.124241,-0.0798238,0.0409698,0.0343323,0.0284958,0.00434875,0.0427628,0.039711,0.0290298,0.0182724,-9.97986,-0.00873566,-0.00671387,0.104294,0.148277,0.0411987,0.00324249,-0.00484467,0.0396729
11,7,10.0097,0.000610352,0.00564575,-2.42531,0.0569017,-0.0735371,0.0550435,0.0718859,-0.0925361,0.147149,-0.124241,-0.0798238,0.0569153,0.0376511,0.0281525,0.00461578,0.0467682,0.0392151,0.0311661,0.0183105,-9.97986,-0.0111008,-0.00492096,0.106468,0.207291,0.0398636,0.00610352,-0.00583649,0.045929
11,8,10.0097,0.00152588,0.00747681,-2.4244,0.0565965,-0.0735371,0.0544332,0.0715807,-0.0919257,0.146539,-0.124546,-0.0761617,0.0598907,0.0409698,0.0279999,0.00801086,0.0479507,0.0391388,0.0269318,0.0158691,-9.97986,-0.0186539,-0.00377655,0.100517,0.293045,0.0407791,0.00511169,-0.00587463,0.0468445
11,9,10.0097,-0.000915527,0.00762939,-2.42531,0.0562914,-0.0738423,0.0556539,0.0709703,-0.0922309,0.146539,-0.124241,-0.0795187,0.0271225,0.0380325,0.0345612,0.00740051,0.0500488,0.0378799,0.0274277,0.00362396,-9.97986,-0.0259018,-0.00579834,0.105095,0.362129,0.0440979,0.00457764,-0.00278473,0.0494766
12,0,10.0097,0.000305176,0.00640869,-2.42562,0.0565965,-0.073232,0.0547383,0.07036,-0.0919257,0.147149,-0.123325,-0.0792135,-0.00576019,0.0382996,0.0273514,0.00469208,0.0452042,0.0382614,0.0257492,-0.00125885,-9.97986,-0.0288391,-0.00873566,0.105972,0.423927,0.0465775,0.00553131,-0.00614166,0.0487518
12,1,10.0097,0.000610352,0.00442505,-2.42623,0.0547655,-0.0744527,0.0550435,0.0621202,-0.0922309,0.145318,-0.125461,-0.078298,0.0149536,0.0344086,0.0262833,0.0102615,0.0462341,0.0415802,0.0288391,0.00717163,-9.97986,-0.0308228,-0.00534058,0.112267,0.466499,0.0636673,0.0031662,-0.00396729,0.0526047
12,2,10.0097,-0.000305176,0.0038147,-2.42684,0.0559862,-0.0735371,0.054128,0.0596788,-0.0925361,0.145929,-0.124851,-0.0807394,0.0321198,0.0313187,0.0250626,0.0101471,0.0504684,0.0405502,0.0244904,0.0140381,-9.97986,-0.047226,-0.00350952,0.116882,0.503922,0.0761414,-0.00450134,0.00370026,0.0548172
12,3,10.0097,0.00152588,0.00396729,-2.42653,0.0553758,-0.0738423,0.054128,0.067003,-0.0913154,0.144403,-0.126072,-0.0822652,0.0257111,0.0341034,0.019455,0.011673,0.048027,0.0434494,0.029335,0.0164413,-9.97986,-0.0645447,-0.00404358,0.122337,0.538788,0.0881195,-0.00766754,0.0012207,0.0539398
12,4,10.0097,0,0.00244141,-2.42501,0.0547655,-0.0759786,0.0532125,0.072191,-0.0922309,0.145929,-0.125766,-0.0831808,0.0150681,0.0282669,0.0226212,0.00576019,0.0505447,0.0455475,0.0242233,0.0197983,-9.97986,-0.0896072,-0.00232697,0.119209,0.551834,0.100098,-0.0136185,0.00526428,0.0591278
12,5,10.0097,0.000610352,0.00259399,-2.42989,0.0538499,-0.0753682,0.0535176,0.0792101,-0.0928413,0.144403,-0.126682,-0.0844015,0.00602722,0.0315475,0.0175858,0.00705719,0.0562286,0.0434113,0.0231934,0.0200653,-9.97986,-0.117188,-0.00385284,0.127258,0.566139,0.108109,-0.00892639,0.00392914,0.0579071
12,6,10.0097,0.00274658,0.00274658,-2.42867,0.0541551,-0.0756734,0.0522969,0.0728014,-0.0937568,0.144708,-0.126987,-0.0844015,-0.00919342,0.0282669,0.0126266,0.00679016,0.051918,0.0525284,0.0203323,0.0234222,-9.97986,-0.122299,-0.00213623,0.127525,0.599098,0.114288,-0.00808716,0.00797272,0.0595856
12,7,10.0097,0.000305176,0.00228882,-2.42806,0.0547655,-0.0753682,0.0519917,0.0700548,-0.0943672,0.142572,-0.127598,-0.0859274,-0.0211716,0.0237274,0.0138474,0.00286102,0.0521469,0.057373,0.017395,0.0305557,-9.97986,-0.0964737,-0.00606537,0.134087,0.610771,0.119209,-0.00747681,0.00679016,0.0603867
12,8,10.0097,0.00183105,0.000915527,-2.42867,0.0538499,-0.0759786,0.0532125,0.0709703,-0.0946723,0.143792,-0.127598,-0.0859274,-0.022316,0.0227737,0.0109863,0.00358582,0.0488663,0.0637436,0.0190735,0.027504,-9.97986,-0.0227356,-0.00411987,0.134506,0.619965,0.116234,-0.00923157,0.00785828,0.0608063
12,9,10.0097,0.00152588,-0.000152588,-2.42898,0.0495775,-0.0762837,0.0526021,0.0685289,-0.0949775,0.143182,-0.127903,-0.0868429,0.0056076,0.0203705,0.00740051,0.00190735,0.0531769,0.060997,0.0214386,0.0271606,-9.97986,0.0374985,-0.00751495,0.135803,0.619049,0.107307,-0.00724792,0.0069046,0.0590134
13,0,10.0097,0.00152588,0,-2.42898,0.0541551,-0.0765889,0.0519917,0.0694445,-0.0955879,0.144708,-0.126987,-0.0874532,0.0133133,0.0247574,0.00312805,0.00682831,0.0479126,0.0666428,0.0235748,0.0285339,-9.97986,0.0832748,-0.00415802,0.133591,0.61264,0.106239,-0.00843048,0.0123978,0.0535202
13,1,10.0097,0,-0.000610352,-2.42837,0.0535448,-0.0753682,0.0532125,0.0706652,-0.094062,0.145013,-0.126987,-0.0859274,-0.00518799,0.0197601,0.0102234,0.00499725,0.0540161,0.0702667,0.0205994,0.0333023,-9.97986,0.133018,-0.00267029,0.13546,0.606346,0.10746,-0.00297546,0.0133514,0.052948
13,2,10.0097,0.000610352,-0.00137329,-2.42776,0.0538499,-0.0747579,0.0522969,0.07036,-0.0928413,0.144403,-0.126682,-0.0865377,-0.00286102,0.0265884,0.00904083,0.00431061,0.0547409,0.0738907,0.0208664,0.0237274,-9.97986,0.140686,-0.00442505,0.139771,0.590706,0.108261,-0.00835419,0.011673,0.0484848
13,3,10.0097,0.00335693,-0.0012207,-2.42684,0.055681,-0.0741475,0.0538228,0.0697496,-0.0919257,0.145318,-0.126377,-0.0850118,0.00648499,0.0251389,0.00892639,0.000495911,0.0526047,0.0743484,0.0165558,0.0305939,-9.97986,0.0998306,-0.00576019,0.13298,0.576439,0.103874,-0.0148392,0.0123978,0.048027
13,4,10.0097,0.00152588,-0.000152588,-2.42653,0.0559862,-0.073232,0.0532125,0.0685289,-0.0922309,0.145318,-0.125766,-0.0834859,-0.000762939,0.0242996,0.0152588,0.00362396,0.0481033,0.0770187,0.022583,0.0359344,-9.97986,0.072403,-0.00747681,0.13813,0.585289,0.106659,-0.0162125,0.0134277,0.0480652
13,5,10.0097,-0.000305176,-0.000915527,-2.42501,0.0569017,-0.0738423,0.054128,0.07036,-0.090705,0.145318,-0.125766,-0.0828756,-0.00347137,0.0238419,0.0173187,0.00202179,0.045166,0.0731659,0.0165176,0.0347519,-9.97986,0.0462341,-0.000686646,0.133553,0.563469,0.111122,-0.0170898,0.00900269,0.0528336
13,6,10.0097,0.000610352,-0.00213623,-2.42501,0.0575121,-0.0753682,0.0553487,0.07036,-0.0931465,0.147149,-0.124851,-0.0822652,0.00553131,0.026207,0.0195694,0.00801086,0.0419235,0.0785065,0.0180054,0.0304031,-9.97986,0.0418472,0.00793457,0.133476,0.528603,0.114326,-0.018692,0.0128174,0.0475693
13,7,10.0097,-0.0012207,-0.00198364,-2.42104,0.0569017,-0.0729268,0.0556539,0.0709703,-0.0910102,0.146539,-0.124851,-0.0819601,-0.00644684,0.0345993,0.0206375,0.0062561,0.0423813,0.0791168,0.0203705,0.0327301,-9.97986,0.046463,0.0062561,0.12928,0.511398,0.117264,-0.0154495,0.0149918,0.0449753
13,8,10.0097,0.000915527,-0.00213623,-2.42623,0.0565965,-0.0741475,0.0556539,0.0700548,-0.0922309,0.147455,-0.124241,-0.0816549,-0.0499344,0.0326538,0.0242233,0.00740051,0.0457001,0.0805283,0.0204849,0.0380707,-9.97986,0.0463867,-7.62939e-005,0.128632,0.48584,0.12291,-0.0161362,0.0187683,0.0492859
13,9,10.0097,0.000915527,-0.00152588,-2.42562,0.0562914,-0.0738423,0.0547383,0.07036,-0.0922309,0.145929,-0.123935,-0.0804342,-0.0776672,0.0300217,0.023613,0.00808716,0.0463486,0.0812531,0.0183868,0.0349045,-9.97986,0.0527573,-0.00198364,0.122223,0.472984,0.119629,-0.0169373,0.0188065,0.0465393
14,0,10.0097,0.000610352,-0.000915527,-2.42501,0.0562914,-0.073232,0.0544332,0.07036,-0.0910102,0.146844,-0.124546,-0.0810445,-0.0952911,0.0310516,0.0258636,0.00900269,0.0469971,0.0778961,0.0132751,0.0241852,-9.97986,0.0471497,-0.00362396,0.112877,0.471115,0.120201,-0.0171661,0.02491,0.0424576
14,1,10.0097,0,-0.00198364,-2.42684,0.055681,-0.075063,0.0544332,0.059984,-0.0922309,0.145929,-0.125156,-0.0819601,-0.0639343,0.0315094,0.0220108,0.00930786,0.0411606,0.0743484,0.0182343,0.0229263,-9.97986,0.0444412,0.00038147,0.105591,0.463867,0.120163,-0.0168991,0.0235367,0.0439072
14,2,10.0097,0.000610352,-0.00106812,-2.42592,0.0553758,-0.0741475,0.0535176,0.0608995,-0.0934516,0.145318,-0.125461,-0.0825704,-0.00423431,0.0338745,0.0246429,0.0117874,0.0438309,0.0769806,0.014267,0.0201416,-9.97986,0.0262833,0.000572205,0.0995636,0.46196,0.124893,-0.0205994,0.0248337,0.0401688
14,3,10.0097,0.00213623,-0.000762939,-2.42837,0.0547655,-0.0753682,0.054128,0.0682238,-0.0928413,0.146234,-0.125766,-0.0822652,0.0429153,0.0333405,0.0280762,0.013237,0.0405884,0.0775146,0.0188065,0.01194,-9.97986,0.0155258,0.001297,0.0844955,0.461082,0.124092,-0.017395,0.028801,0.0365829
14,4,10.0097,0.000305176,-0.000305176,-2.42562,0.0587328,-0.075063,0.0538228,0.0743273,-0.0910102,0.146234,-0.124851,-0.0828756,0.0669479,0.0315475,0.029335,0.0134659,0.0362015,0.0751495,0.0156021,0.00926971,-9.97986,-0.00434875,-0.00286102,0.0799179,0.442467,0.12291,-0.0156403,0.0280762,0.0327301
14,5,10.0097,0.0012207,-0.00106812,-2.42837,0.0535448,-0.0756734,0.0535176,0.0813463,-0.0931465,0.143792,-0.125461,-0.085317,0.110054,0.0313568,0.0291061,0.013504,0.0357819,0.0790024,0.0191116,0.00888824,-9.97986,-0.0129318,-0.00038147,0.0645828,0.408173,0.115471,-0.0178528,0.029068,0.034256
14,6,10.0097,-0.000305176,-0.00259399,-2.42928,0.0541551,-0.0762837,0.0516866,0.0734117,-0.0937568,0.144403,-0.126377,-0.0862325,0.119019,0.0292587,0.0233459,0.0107956,0.0331497,0.079689,0.0206375,0.0125885,-9.97986,-0.0343323,-0.00457764,0.0448227,0.378151,0.104752,-0.0198746,0.0334167,0.029068
14,7,10.0097,0.000610352,-0.00213623,-2.42959,0.0529344,-0.0744527,0.0513814,0.0682238,-0.0946723,0.141961,-0.127292,-0.0871481,0.0565338,0.0292587,0.0218582,0.00900269,0.0375748,0.0743484,0.0233459,0.0183487,-9.97986,-0.0439072,-0.00667572,0.0278854,0.364609,0.108757,-0.0235748,0.0267029,0.0291824
14,8,10.0097,0.000610352,-0.00259399,-2.42867,0.0538499,-0.0768941,0.0522969,0.0709703,-0.0937568,0.143792,-0.128208,-0.0874532,0.0170517,0.0235367,0.0156784,0.00759125,0.0314713,0.0723648,0.0262451,0.016861,-9.97986,-0.0467682,-0.00598907,0.00419617,0.341072,0.10498,-0.0261307,0.0328445,0.0264359
14,9,10.0097,0.0012207,-0.00198364,-2.42898,0.0538499,-0.0759786,0.0513814,0.0676134,-0.0949775,0.143792,-0.126377,-0.0874532,0.0111771,0.0201035,0.0212479,0.00659943,0.0360489,0.0702286,0.0239182,0.0228882,-9.97986,-0.0482941,-0.0056839,-0.0249863,0.325928,0.107498,-0.0273895,0.0328827,0.0215912
15,0,10.0097,-0.000610352,-0.0012207,-2.42898,0.0532396,-0.0756734,0.0519917,0.0679186,-0.094062,0.143487,-0.127598,-0.0877584,-0.0063324,0.0208282,0.0138092,0.0019455,0.0356293,0.072403,0.0292969,0.0319672,-9.97986,-0.0536346,-0.00495911,-0.0511551,0.329857,0.107384,-0.027504,0.0326538,0.0188446
15,1,10.0097,0.0012207,-0.000915527,-2.42806,0.0547655,-0.0747579,0.0532125,0.0688341,-0.094062,0.145624,-0.126987,-0.0865377,-0.00999451,0.0172424,0.012207,0.00278473,0.0304031,0.0656509,0.0275803,0.0328064,-9.97986,-0.0579834,-0.000572205,-0.0754166,0.315895,0.101204,-0.0255585,0.0313187,0.0132751
15,2,10.0097,0.000610352,-0.000610352,-2.42745,0.0538499,-0.0753682,0.0519917,0.0691393,-0.0925361,0.144708,-0.126377,-0.0844015,-0.00320435,0.0150299,0.0125504,0.0019455,0.0323486,0.0593185,0.0281525,0.0318146,-9.97986,-0.0400925,0.000190735,-0.0914383,0.31086,0.0983429,-0.0273514,0.0350952,0.0135803
15,3,10.0097,0.000305176,0,-2.42806,0.0541551,-0.0756734,0.0529073,0.0712755,-0.0928413,0.144708,-0.125156,-0.085317,0.0186157,0.0136948,0.0137329,0.00644684,0.0306702,0.0608444,0.0267029,0.0267029,-9.97986,-0.0094223,-0.000724792,-0.107727,0.308113,0.0962067,-0.0303268,0.0358963,0.00953674
15,4,10.0097,-0.000305176,-0.000762939,-2.42745,0.0550706,-0.0747579,0.0535176,0.07036,-0.0922309,0.145624,-0.126072,-0.0850118,0.0486755,0.0206375,0.018425,0.00816345,0.0332642,0.0511932,0.0170135,0.0183487,-9.97986,0.00476837,-0.000915527,-0.118332,0.287285,0.0936127,-0.031929,0.0348663,0.00415802
15,5,10.0097,0.000915527,-0.000457764,-2.42592,0.0559862,-0.0747579,0.0535176,0.0712755,-0.0928413,0.146234,-0.124851,-0.0825704,0.0605011,0.0201035,0.0228882,0.0112534,0.0340652,0.0475311,0.0156784,0.0177383,-9.97986,0.0146866,0.00293732,-0.128403,0.285835,0.0948334,-0.0320053,0.0348282,-0.000305176
15,6,10.0097,-0.000610352,-0.000610352,-2.42409,0.0565965,-0.0744527,0.0553487,0.0724962,-0.0922309,0.146539,-0.124546,-0.0819601,0.0655365,0.0225067,0.015831,0.0102615,0.0339508,0.0449753,0.0174713,0.00610352,-9.97986,0.00644684,0.00366211,-0.125046,0.273705,0.0908661,-0.0297546,0.0366592,0.0018692
15,7,10.0097,-0.0012207,-0.0012207,-2.42531,0.0559862,-0.0741475,0.0547383,0.0697496,-0.090705,0.14898,-0.123935,-0.0822652,0.0571823,0.0251007,0.0249863,0.0087738,0.0325394,0.0356293,0.0186157,0.00350952,-9.97986,-0.00759125,0.000724792,-0.12928,0.245514,0.090065,-0.0331879,0.0342178,-0.00522614
15,8,10.0097,-0.00152588,-0.00137329,-2.42623,0.055681,-0.0744527,0.0544332,0.0697496,-0.0910102,0.14776,-0.123935,-0.0825704,0.025444,0.0278854,0.0227356,0.0135803,0.0363922,0.0313187,0.0261307,-0.00358582,-9.97986,-0.0102615,-0.00480652,-0.118561,0.239296,0.0919724,-0.0311279,0.0382996,-0.00465393
15,9,10.0097,0.000610352,0.000305176,-2.42501,0.0565965,-0.0729268,0.055959,0.0712755,-0.0913154,0.146234,-0.12363,-0.0807394,0.00957489,0.0238419,0.0234985,0.0161743,0.0358963,0.0278091,0.0242615,-0.0115585,-9.97986,-0.000839233,-0.000228882,-0.111923,0.234299,0.0880051,-0.0374985,0.0344086,-0.00926971
16,0,10.0097,-0.000610352,-0.0012207,-2.4247,0.0559862,-0.0735371,0.0544332,0.0718859,-0.0900947,0.146234,-0.124241,-0.0825704,0.0398636,0.0222015,0.0186539,0.0149918,0.0405121,0.0220871,0.0239563,-0.00648499,-9.97986,0.00801086,0.00572205,-0.102844,0.225639,0.0805664,-0.0335693,0.0333786,-0.0106049
16,1,10.0097,0,-0.000457764,-2.42745,0.0562914,-0.0738423,0.0553487,0.0605944,-0.0937568,0.146234,-0.125766,-0.0816549,0.0614929,0.0199509,0.0160217,0.0130844,0.0393677,0.0144577,0.0262833,0,-9.97986,-0.0105286,0.00362396,-0.0921631,0.221786,0.0873947,-0.0336838,0.0414658,-0.0129318
16,2,10.0097,0,-0.000610352,-2.42714,0.0559862,-0.0738423,0.0553487,0.059984,-0.0937568,0.145624,-0.125766,-0.0828756,0.0336456,0.0193787,0.0163269,0.00724792,0.0409698,0.0134659,0.0206375,0.00602722,-9.97986,-0.0223923,0.00114441,-0.0799179,0.225105,0.0906372,-0.0375748,0.0320816,-0.0165176
16,3,10.0097,-0.000915527,0.000457764,-2.42684,0.0544603,-0.0753682,0.0535176,0.0676134,-0.0928413,0.145318,-0.124851,-0.0831808,0.0111771,0.0166321,0.0187302,0.0094223,0.0443268,0.00507355,0.0247955,0.010376,-9.97986,-0.00713348,-0.000114441,-0.0727081,0.238152,0.0867462,-0.0405121,0.0304413,-0.0149918
16,4,10.0097,0.00213623,0.000762939,-2.42623,0.0553758,-0.075063,0.0562642,0.0740221,-0.0925361,0.144708,-0.124546,-0.0831808,0.00930786,0.0153732,0.0111771,0.0102234,0.0398254,-0.000801086,0.022049,0.0107574,-9.97986,0.000228882,0.00221252,-0.0606155,0.247879,0.081749,-0.0367355,0.034523,-0.0204468
16,5,10.0097,0.000305176,0.00137329,-2.42867,0.0541551,-0.0759786,0.054128,0.0816515,-0.0934516,0.144708,-0.125766,-0.0844015,0.00995636,0.0152969,0.0130463,0.0113297,0.0418854,-0.001297,0.0286865,0.016861,-9.97986,-0.00144958,-3.8147e-005,-0.0559998,0.243759,0.0809479,-0.0351715,0.0292206,-0.0202179
16,6,10.0097,-0.0012207,0.000457764,-2.42837,0.0544603,-0.0762837,0.0535176,0.0749376,-0.0983344,0.143792,-0.126682,-0.0871481,0.00267029,0.0146103,0.00843048,0.0111008,0.0429535,-0.00701904,0.0364685,0.0191879,-9.97986,0.0175858,0.00236511,-0.0414276,0.239868,0.0843811,-0.0372696,0.0301361,-0.0204468
16,7,10.0097,0.00183105,-0.000152588,-2.42898,0.0541551,-0.0756734,0.0522969,0.0712755,-0.0949775,0.143792,-0.126072,-0.0862325,-0.00434875,0.0105667,0.00770569,0.0163651,0.0382233,-0.00667572,0.0442886,0.0180817,-9.97986,0.0522614,0.00240326,-0.0357437,0.244064,0.0980759,-0.038681,0.0268173,-0.0204086
16,8,10.0097,0.000305176,0.000152588,-2.42959,0.0541551,-0.0756734,0.0519917,0.0694445,-0.0925361,0.144403,-0.126987,-0.085317,-0.013504,0.0117874,0.0114059,0.00495911,0.0387192,-0.0112152,0.0419235,0.0174713,-9.97986,0.0831985,0.00518799,-0.0276566,0.25074,0.0985336,-0.0401306,0.0272369,-0.0203705
16,9,10.0097,0.00152588,0.000457764,-2.42806,0.0538499,-0.0762837,0.0522969,0.0697496,-0.0946723,0.144098,-0.127598,-0.0877584,-0.00900269,0.0114441,0.00858307,0.0143814,0.0394821,-0.0148773,0.0456238,0.018425,-9.97986,0.106468,0.00553131,-0.0161743,0.259666,0.10128,-0.0435257,0.0232315,-0.0188446
17,0,10.0097,-0.000305176,-0.000610352,-2.42928,0.0535448,-0.0753682,0.0529073,0.0691393,-0.0943672,0.143182,-0.127598,-0.0868429,0.00743866,0.0155258,0.00606537,0.00968933,0.0432205,-0.0147629,0.0456238,0.0171661,-9.97986,0.104828,0.0019455,-0.014801,0.264435,0.104866,-0.042305,0.0217438,-0.0159454
17,1,10.0097,0.00274658,-0.000305176,-2.42806,0.0550706,-0.0738423,0.0532125,0.0697496,-0.0946723,0.144403,-0.126682,-0.0862325,0.0110626,0.0156784,0.00339508,0.0100708,0.0391006,-0.0189209,0.0505066,0.0101471,-9.97986,0.0976944,0.000228882,-0.0136948,0.26371,0.105553,-0.0405121,0.0262451,-0.0173569
17,2,10.0097,-0.000610352,0,-2.42806,0.0550706,-0.0756734,0.0519917,0.0682238,-0.0931465,0.144098,-0.125766,-0.0847066,0.0154114,0.0142288,0.00705719,0.0101852,0.0341797,-0.0153732,0.0568008,0.0112534,-9.97986,0.090065,-3.8147e-005,-0.00934601,0.268021,0.110245,-0.0368881,0.0237656,-0.0188828
17,3,10.0097,0.000915527,-0.000152588,-2.42714,0.0550706,-0.0747579,0.054128,0.0691393,-0.094062,0.145013,-0.126377,-0.0850118,0.0134277,0.0151062,0.0117111,0.0138092,0.0406647,-0.0128937,0.0614166,0.0170135,-9.97986,0.0804901,-0.0038147,-0.0138474,0.265465,0.113907,-0.0292969,0.0236893,-0.0193405
17,4,10.0097,0.000915527,0.000152588,-2.42714,0.0550706,-0.075063,0.0550435,0.07036,-0.0937568,0.144403,-0.126072,-0.0837911,-0.00404358,0.014801,0.0172806,0.0123596,0.0360489,-0.0172806,0.0640869,0.0154877,-9.97986,0.0577545,0.00518799,-0.018158,0.264931,0.11322,-0.0318527,0.0245285,-0.0205612
17,5,10.0097,0,0,-2.42531,0.0553758,-0.0729268,0.0532125,0.07036,-0.0922309,0.146539,-0.123935,-0.0825704,-0.01297,0.016861,0.018959,0.013237,0.0366592,-0.0146103,0.0627899,0.00915527,-9.97986,0.0409698,0.00324249,-0.0199127,0.256996,0.107956,-0.0297165,0.0251389,-0.019455
17,6,10.0097,-0.000610352,0.000457764,-2.4244,0.0559862,-0.073232,0.0556539,0.0712755,-0.0919257,0.146844,-0.123935,-0.0807394,-0.00686646,0.0188065,0.0163651,0.0148392,0.0304031,-0.0114059,0.0643158,0.0116348,-9.97986,0.0338364,-0.0025177,-0.0230026,0.268364,0.119171,-0.0279999,0.0263596,-0.0207901
17,7,10.0097,0.000610352,0.00167847,-2.42409,0.0569017,-0.0747579,0.0532125,0.0715807,-0.0916206,0.146234,-0.124241,-0.0816549,-0.0043869,0.0199127,0.0118637,0.0144577,0.0352859,-0.0119019,0.0663376,0.0123978,-9.97986,0.0209808,-0.0019455,-0.0187302,0.278549,0.129471,-0.0253296,0.0255585,-0.019722
17,8,10.0097,0.0012207,0.000152588,-2.4244,0.055681,-0.0753682,0.0544332,0.0700548,-0.0922309,0.145318,-0.124546,-0.0810445,0.00148773,0.0204086,0.018959,0.0101471,0.0365829,-0.0117111,0.0687408,0.0125504,-9.97986,0.0230408,-0.00240326,-0.0224686,0.276566,0.128174,-0.0325012,0.0270462,-0.0177765
17,9,10.0097,0.0012207,0.000915527,-2.4247,0.0575121,-0.073232,0.0550435,0.0712755,-0.0922309,0.14837,-0.12363,-0.0810445,-0.00423431,0.02388,0.0167084,0.0134659,0.0397491,-0.00778198,0.0656128,0.0132751,-9.97986,0.0241089,-0.00247955,-0.0226593,0.28389,0.130882,-0.0270081,0.0281143,-0.0196075
18,0,10.0097,0.000610352,0.000610352,-2.42592,0.0559862,-0.0726216,0.0547383,0.0706652,-0.0928413,0.146234,-0.123935,-0.0795187,-0.0119019,0.0275803,0.0195694,0.0175476,0.0380707,-0.00549316,0.0579834,0.014267,-9.97986,0.0268555,-0.0101471,-0.0245667,0.281715,0.130157,-0.018959,0.0292969,-0.0142288
18,1,10.0097,0.00213623,-0.000610352,-2.42623,0.0550706,-0.0747579,0.0535176,0.0596788,-0.0931465,0.146539,-0.125461,-0.0822652,-0.0157928,0.0237656,0.0144577,0.013237,0.0386429,-0.00389099,0.0644684,0.0131226,-9.97986,0.033226,-0.0094986,-0.0252533,0.277901,0.12989,-0.0203323,0.0282669,-0.00911713
18,2,10.0097,-0.000915527,-0.00137329,-2.42562,0.0553758,-0.0747579,0.0535176,0.059984,-0.0925361,0.14776,-0.124851,-0.0825704,-0.0234222,0.0228882,0.0172043,0.0135803,0.0358963,0.00339508,0.0728226,0.00556946,-9.97986,0.0260925,-0.00751495,-0.0265503,0.275154,0.12928,-0.0164413,0.0268173,-0.00751495
18,3,10.0097,-0.0012207,0.000305176,-2.42653,0.0550706,-0.0744527,0.0544332,0.0676134,-0.0925361,0.144708,-0.126072,-0.0831808,-0.00587463,0.0284195,0.0200653,0.0153732,0.0405121,0.00144958,0.0797272,0.0154495,-9.97986,0.0169754,0.00434875,-0.0247574,0.272255,0.133514,-0.0114059,0.029335,-0.00652313
18,4,10.0097,-0.000305176,0.000305176,-2.42714,0.0550706,-0.0741475,0.0544332,0.0740221,-0.0928413,0.145929,-0.125461,-0.0834859,-0.00400543,0.0207138,0.0187302,0.0136185,0.0321579,0.00724792,0.0765228,0.00988007,-9.97986,0.00770569,0.00747681,-0.0230026,0.268593,0.127831,-0.018425,0.0267792,-0.00473022
18,5,10.0097,-0.00244141,0.000762939,-2.42928,0.0544603,-0.0756734,0.0529073,0.0798204,-0.0922309,0.145318,-0.125461,-0.0844015,-0.00293732,0.0226974,0.0186539,0.0150681,0.0376892,0.00846863,0.0666046,0.0125885,-9.97986,0.00236511,0.000915527,-0.0275803,0.263023,0.132065,-0.0150681,0.0242996,-0.0038147
18,6,10.0097,0.000305176,-0.000152588,-2.42898,0.0541551,-0.0759786,0.0526021,0.0731066,-0.0952827,0.144403,-0.126987,-0.0865377,-0.00118256,0.0230026,0.0209808,0.014267,0.0349808,0.00930786,0.0598145,0.0159073,-9.97986,0.00366211,-0.00728607,-0.0238037,0.257416,0.131798,-0.0207138,0.0304794,-0.0019455
18,7,10.0097,-0.00274658,-0.000305176,-2.42837,0.0535448,-0.075063,0.0529073,0.07036,-0.0949775,0.145318,-0.126987,-0.0865377,-0.000495911,0.0240707,0.0188828,0.0185776,0.03685,0.0161743,0.0586319,0.014267,-9.97986,0.0107574,0.00118256,-0.0230408,0.254211,0.135956,-0.0217438,0.026741,-0.000762939
18,8,10.0097,0.000305176,-0.00152588,-2.42776,0.0550706,-0.0762837,0.0516866,0.0676134,-0.094062,0.144708,-0.126987,-0.0856222,-0.00743866,0.0259399,0.0196075,0.0160217,0.0363541,0.0209427,0.0460052,0.0164413,-9.97986,0.0171661,0.00156403,-0.0180817,0.246124,0.138092,-0.0168991,0.0257111,0.00171661
18,9,10.0097,-0.000305176,-0.0012207,-2.42959,0.0529344,-0.075063,0.0532125,0.0688341,-0.0971137,0.142877,-0.127598,-0.0880636,-0.0107193,0.02388,0.0214767,0.016098,0.0314713,0.0228882,0.0273514,0.0154495,-9.97986,0.0156403,-0.0030899,-0.0174332,0.235176,0.137596,-0.0173569,0.0271988,0.0044632
19,0,10.0097,0.00152588,-0.00167847,-2.42959,0.0544603,-0.0756734,0.0516866,0.0688341,-0.0952827,0.142572,-0.127598,-0.0868429,0.021019,0.0267792,0.0252151,0.0172806,0.0305939,0.024147,0.0136566,0.0187683,-9.97986,0.0188446,0.00396729,-0.019989,0.224113,0.133095,-0.0148773,0.0282288,0.00160217
19,1,10.0097,-0.000610352,-0.0012207,-2.42867,0.0532396,-0.0765889,0.0532125,0.0694445,-0.0931465,0.145013,-0.127292,-0.0868429,0.042038,0.02491,0.0215912,0.0173187,0.0247955,0.0331497,0.00118256,0.0199127,-9.97986,0.0238419,0.00232697,-0.0173187,0.216217,0.127792,-0.0114441,0.0248337,0.00202179
19,2,10.0097,0,-0.000762939,-2.42806,0.0541551,-0.0753682,0.050771,0.0688341,-0.094062,0.143487,-0.126987,-0.085317,0.0402069,0.0302887,0.0243759,0.0175858,0.0204849,0.0276947,-0.00694275,0.0175476,-9.97986,0.0440598,0.00167847,-0.0156403,0.207787,0.125046,-0.0139618,0.0240707,0.00125885
19,3,10.0097,0.000915527,-0.00152588,-2.42653,0.0541551,-0.0747579,0.0538228,0.0691393,-0.0928413,0.144098,-0.126987,-0.0850118,0.0349808,0.0298691,0.021019,0.0131226,0.0207901,0.0328827,-0.00408173,0.0196838,-9.97986,0.0478363,-0.00358582,-0.0179291,0.193901,0.126534,-0.0116348,0.0248718,0.000686646
19,4,10.0097,-0.000610352,-0.000762939,-2.42745,0.0526292,-0.0753682,0.054128,0.07036,-0.0931465,0.144708,-0.124241,-0.0840963,0.0235748,0.030365,0.0215149,0.014801,0.0175858,0.0354767,-0.00976563,0.0202942,-9.97986,0.0381851,-0.000343323,-0.0168991,0.182343,0.132332,-0.00862122,0.0230026,0.00263214
19,5,10.0097,0,-0.000915527,-2.42653,0.055681,-0.073232,0.054128,0.0709703,-0.0913154,0.145929,-0.124546,-0.0825704,0.00572205,0.0279617,0.0230026,0.0159073,0.0177765,0.0367737,-0.00782013,0.0223923,-9.97986,0.0296402,-0.00236511,-0.015564,0.172119,0.141335,-0.00736237,0.0281525,0.00358582
19,6,10.0097,0.000915527,-0.000915527,-2.42531,0.0559862,-0.0744527,0.055959,0.0697496,-0.0913154,0.146539,-0.124546,-0.0819601,-0.0170135,0.0289154,0.0241852,0.0152206,0.0247955,0.0325775,-0.013504,0.0231934,-9.97986,0.0233841,0.00343323,-0.00930786,0.157394,0.145149,-0.0115967,0.0265121,0.0104523
19,7,10.0097,0.000305176,-0.000610352,-2.42592,0.055681,-0.0741475,0.0544332,0.07036,-0.0913154,0.147149,-0.124241,-0.0813497,-0.0191879,0.0323486,0.0219345,0.014267,0.0226593,0.0366974,-0.0278091,0.0207138,-9.97986,0.0155258,0.00152588,-0.00888824,0.144157,0.142212,-0.0181961,0.0263214,0.0171661
19,8,10.0097,0.000915527,-0.0012207,-2.42531,0.0569017,-0.0741475,0.0550435,0.0715807,-0.0903999,0.146234,-0.125461,-0.0828756,-0.0146103,0.0274277,0.0271988,0.0156784,0.0269699,0.0331116,-0.0345993,0.0171661,-9.97986,0.00209808,-0.00167847,-0.00637054,0.130768,0.140991,-0.0228882,0.0237274,0.0231552
19,9,10.0097,0.00152588,-0.00152588,-2.4247,0.0565965,-0.0738423,0.0544332,0.0706652,-0.0922309,0.147149,-0.123935,-0.0816549,-0.00465393,0.0250626,0.0240326,0.0128937,0.0237656,0.0328064,-0.0343704,0.0162506,-9.97986,-0.000114441,-0.012207,-0.00236511,0.116196,0.135803,-0.0304413,0.025444,0.0310135
20,0,10.0097,0.000610352,-0.00152588,-2.42531,0.0550706,-0.0738423,0.0556539,0.0709703,-0.0919257,0.146844,-0.123935,-0.0807394,0.0038147,0.030632,0.0253677,0.0200653,0.0213242,0.0333786,-0.026474,0.0162125,-9.97986,-0.000686646,-0.0137711,-0.00087738,0.0954819,0.126457,-0.0315094,0.0222397,0.0365448
20,1,10.0097,0.00152588,-0.00213623,-2.42562,0.0553758,-0.0747579,0.0547383,0.0596788,-0.0925361,0.144403,-0.124851,-0.0840963,0.0155258,0.0288391,0.0247574,0.0142288,0.0146103,0.0314331,-0.0153732,0.0151443,-9.97986,-0.00320435,-0.00724792,0.00232697,0.0796509,0.112839,-0.0314331,0.0222015,0.0415802
20,2,10.0097,0.00213623,-0.00213623,-2.42714,0.0553758,-0.075063,0.0544332,0.0621202,-0.0931465,0.146539,-0.124851,-0.0828756,0.0260925,0.0308609,0.0283051,0.0202942,0.016098,0.0355148,-0.00526428,0.00839233,-9.97986,-0.00663757,0.00873566,0.00843048,0.0608444,0.111542,-0.031929,0.0164032,0.0373077
20,3,10.0097,0.00152588,-0.00167847,-2.42714,0.055681,-0.0738423,0.0544332,0.0679186,-0.0928413,0.144098,-0.125766,-0.0828756,0.0286484,0.0281906,0.0231934,0.0159073,0.0150299,0.0303268,0.0037384,0.01194,-9.97986,-0.00957489,0.00766754,0.0107574,0.046196,0.112419,-0.0312805,0.0170135,0.0389481
20,4,10.0097,0.000610352,-0.000305176,-2.42562,0.0553758,-0.0756734,0.0547383,0.072191,-0.090705,0.144708,-0.124851,-0.0837911,0.0270844,0.0275803,0.0268173,0.0130081,0.014534,0.0296783,0.000724792,0.0155258,-9.97986,-0.0104904,0.000419617,0.0104141,0.0326538,0.109558,-0.028801,0.01297,0.0379181
20,5,10.0097,0.0012207,-0.000305176,-2.42898,0.0541551,-0.0759786,0.0522969,0.0789049,-0.0961982,0.144708,-0.126377,-0.085317,0.0197983,0.0241852,0.0259781,0.0143051,0.00804901,0.0295639,-0.0107193,0.0221634,-9.97986,-0.0183487,-0.00469208,0.0112915,0.0180054,0.103569,-0.0325012,0.0146103,0.0351334
20,6,10.0097,0.000305176,-0.000915527,-2.42837,0.0538499,-0.0762837,0.0532125,0.0718859,-0.0943672,0.144403,-0.126377,-0.0862325,0.0219727,0.0259399,0.0255203,0.0117493,0.00892639,0.0270462,-0.0175095,0.022583,-9.97986,-0.0163269,-0.0103378,0.0148392,0.00888824,0.0911713,-0.0285721,0.016098,0.0347519
20,7,10.0097,0.000305176,-0.000915527,-2.42928,0.0535448,-0.0759786,0.0516866,0.07036,-0.0949775,0.143792,-0.126987,-0.0862325,0.0238419,0.0263977,0.0233078,0.0174713,0.00495911,0.0278854,-0.0143433,0.0169754,-9.97986,-0.00179291,-0.0154114,0.0156021,0.00461578,0.0821686,-0.0249863,0.0162506,0.0326157
20,8,10.0097,0.000610352,-0.00106812,-2.42928,0.0538499,-0.075063,0.0529073,0.0691393,-0.0946723,0.144098,-0.126987,-0.0880636,0.0244904,0.0233459,0.0234222,0.0114822,0.00457764,0.0230026,-0.00335693,0.0182724,-9.97986,0.0133896,0.000419617,0.0196075,-0.00946045,0.0774002,-0.0205994,0.00976563,0.0269318
20,9,10.0097,0,-0.00106812,-2.42867,0.0550706,-0.0756734,0.0522969,0.0694445,-0.0946723,0.143792,-0.127292,-0.0877584,0.0209045,0.0282288,0.031395,0.0197601,0.0128555,0.0244904,0.0031662,0.0214386,-9.97986,0.0152206,0.0205994,0.0238037,-0.0110245,0.0873566,-0.00797272,0.0127029,0.0180435
21,0,10.0097,0.0012207,-0.00152588,-2.42989,0.0535448,-0.0759786,0.050771,0.0676134,-0.0955879,0.143487,-0.126682,-0.0874532,0.0195313,0.0200653,0.0254059,0.0125885,0.00980377,0.0203323,0.0117493,0.0189209,-9.97986,0.0156784,0.0143051,0.0183868,-0.0169754,0.0939941,-0.0133896,0.00919342,0.010376
21,1,10.0097,0.000915527,-0.00106812,-2.42837,0.0535448,-0.0759786,0.0526021,0.0700548,-0.0937568,0.143487,-0.127292,-0.0859274,0.0257492,0.0211716,0.0268936,0.0126648,0.0113297,0.0215912,0.0318909,0.0230026,-9.97986,0.0133514,0.00511169,0.0272751,-0.0233078,0.0964355,-0.015564,0.0134659,0.0139236
21,2,10.0097,0.00213623,-0.000457764,-2.42837,0.0544603,-0.0765889,0.0522969,0.0700548,-0.0928413,0.145318,-0.126682,-0.0862325,0.017662,0.0187302,0.025444,0.0124359,0.0141144,0.0234604,0.0494766,0.0214386,-9.97986,0.00766754,-0.0075531,0.0230408,-0.030632,0.0979233,-0.0137329,0.00965118,0.0236511
21,3,10.0097,0.00152588,-0.000915527,-2.42714,0.0553758,-0.075063,0.0544332,0.07036,-0.094062,0.145318,-0.126072,-0.0847066,0.0175858,0.0208282,0.0234985,0.0139999,0.0144577,0.0216675,0.057106,0.0227356,-9.97986,0.00270844,-0.00434875,0.026474,-0.0299835,0.0941086,-0.0126648,0.00892639,0.0311279
21,4,10.0097,-0.000305176,0.000305176,-2.42592,0.055681,-0.0747579,0.0538228,0.0688341,-0.0934516,0.144098,-0.126682,-0.0847066,0.0139618,0.0211334,0.0244904,0.0119019,0.0115585,0.0191116,0.0553131,0.0226593,-9.97986,0.00415802,0.00614166,0.0243378,-0.0330353,0.096817,-0.0109863,0.00541687,0.0386047
21,5,10.0097,0,-0.000762939,-2.42562,0.0559862,-0.073232,0.0538228,0.0700548,-0.094062,0.145318,-0.123935,-0.0819601,-0.00198364,0.0233459,0.0226974,0.0128555,0.0143814,0.0180054,0.047493,0.0259399,-9.97986,0.00961304,0.00988007,0.0208282,-0.0331879,0.0971985,-0.0103378,0.0117874,0.0465393
21,6,10.0097,-0.000305176,0.000305176,-2.42592,0.055681,-0.0741475,0.0550435,0.0712755,-0.090705,0.146844,-0.124241,-0.0810445,-0.0107574,0.0195694,0.0249481,0.0101852,0.0174332,0.0239563,0.0404739,0.023613,-9.97986,0.00213623,0.0117493,0.0185776,-0.0348282,0.087738,-0.0116348,0.00801086,0.0475311
21,7,10.0097,-0.000915527,0.000152588,-2.4244,0.0553758,-0.0729268,0.0544332,0.0706652,-0.0919257,0.147455,-0.123935,-0.0810445,-0.0257111,0.019722,0.0263596,0.0144958,0.0254059,0.0210953,0.0304413,0.0215149,-9.97986,0.0037384,0.0121307,0.0149918,-0.0307465,0.0816345,0.00270844,0.0114822,0.051384
21,8,10.0097,0.00152588,0,-2.4244,0.0569017,-0.0744527,0.054128,0.0712755,-0.0922309,0.145318,-0.124241,-0.080129,-0.0299835,0.0196457,0.0257492,0.0138855,0.0243759,0.0201035,0.0299072,0.0199509,-9.97986,-0.00717163,0.00473022,0.00808716,-0.0339127,0.082016,0.0110626,0.00766754,0.0487137
21,9,10.0097,0.00183105,0.000152588,-2.42531,0.055681,-0.0735371,0.0538228,0.0700548,-0.0910102,0.145624,-0.12302,-0.0813497,-0.0239944,0.0220871,0.0259781,0.0135803,0.0256729,0.0195694,0.0300598,0.015564,-9.97986,-0.0082016,-0.00217438,0.00537872,-0.0343704,0.0696945,0.00946045,0.00778198,0.0447464
22,0,10.0097,0.000610352,-0.000305176,-2.42531,0.0569017,-0.0744527,0.0556539,0.0728014,-0.090705,0.145624,-0.123935,-0.0807394,-0.0126648,0.02285,0.029068,0.0146484,0.0297165,0.0214005,0.0342178,0.0178146,-9.97986,-0.00236511,-0.00465393,0.00720978,-0.0365067,0.0686646,0.0075531,0.00900269,0.042305
22,1,10.0097,0.000915527,-0.00183105,-2.42592,0.0565965,-0.0744527,0.054128,0.0587633,-0.0934516,0.145624,-0.126377,-0.0819601,0.0231171,0.0280762,0.0296021,0.0158691,0.0239182,0.0194931,0.0351715,0.0075531,-9.97986,0.00965118,-3.8147e-005,0.0138855,-0.0413513,0.0589752,0.00350952,0.00900269,0.039444
22,2,10.0097,0.0012207,-0.000762939,-2.42531,0.0565965,-0.0744527,0.0529073,0.0615099,-0.0937568,0.145624,-0.126072,-0.0834859,0.0444412,0.0253296,0.0248337,0.0174332,0.0268936,0.0201416,0.0410843,0.0118637,-9.97986,0.0128937,0.00640869,0.0152969,-0.0471115,0.0541306,0.0056839,0.0101852,0.0346756
22,3,10.0097,0.00244141,0.000152588,-2.42592,0.0562914,-0.0747579,0.0532125,0.0685289,-0.0925361,0.145624,-0.126072,-0.0825704,0.0360489,0.0260925,0.0218964,0.0177765,0.0221634,0.0180054,0.0564957,0.0162506,-9.97986,0.00576019,0.00659943,0.0225067,-0.0512695,0.0579071,0.00988007,0.00881195,0.0355911
22,4,10.0097,-0.000610352,0.00106812,-2.42592,0.0550706,-0.0753682,0.054128,0.0734117,-0.0919257,0.145013,-0.124546,-0.0831808,0.0241852,0.0194168,0.0213623,0.0196457,0.0164413,0.0141907,0.0655746,0.0119781,-9.97986,0.000267029,0.00156403,0.0251007,-0.0443649,0.0585556,0.013504,0.00717163,0.0380325
22,5,10.0097,0,-0.000610352,-2.42776,0.0544603,-0.0753682,0.0535176,0.080736,-0.0931465,0.144403,-0.126377,-0.0844015,0.00770569,0.0267029,0.0217438,0.011673,0.0122452,0.0133514,0.0663376,0.0156784,-9.97986,-0.00549316,-0.00270844,0.0263977,-0.0495529,0.0557709,0.0107193,0.00804901,0.0393295
22,6,10.0097,-0.00152588,0.000305176,-2.42959,0.0538499,-0.0762837,0.0529073,0.0728014,-0.0943672,0.144403,-0.126987,-0.0859274,0.00778198,0.0301361,0.0217438,0.016861,0.00202179,0.0117874,0.0647354,0.0147247,-9.97986,-0.0115204,-0.00202179,0.029335,-0.0570297,0.0481796,0.00904083,0.00988007,0.042305
22,7,10.0097,0.000610352,-0.00106812,-2.42837,0.0547655,-0.0747579,0.0526021,0.0697496,-0.094062,0.143182,-0.126987,-0.0868429,0.0156403,0.0268173,0.0283432,0.0167465,0.000267029,0.01297,0.0624466,0.0167084,-9.97986,-0.0133896,-0.00278473,0.0308609,-0.062561,0.0448608,0.00469208,0.00534058,0.0427246
22,8,10.0097,-0.00152588,-0.0012207,-2.42806,0.0550706,-0.0753682,0.0519917,0.0694445,-0.0949775,0.143182,-0.127903,-0.0871481,0.0130463,0.0211334,0.0210953,0.0173187,-0.00396729,0.0123596,0.0725174,0.0200653,-9.97986,-0.0104523,0.000228882,0.0368881,-0.0642776,0.0482178,0.00785828,0.00946045,0.0372314
22,9,10.0097,0.000305176,-0.000610352,-2.42837,0.0535448,-0.0759786,0.0535176,0.0688341,-0.094062,0.143182,-0.129734,-0.0868429,0.0082016,0.0220108,0.0226593,0.0120926,-0.0104904,0.00759125,0.0749969,0.0207138,-9.97986,-0.0018692,-0.000190735,0.0372696,-0.0663757,0.0498199,0.00656128,0.00492096,0.0328064
23,0,10.0097,0.000610352,-0.000457764,-2.42989,0.0535448,-0.0756734,0.0513814,0.0682238,-0.0946723,0.142267,-0.128208,-0.0874532,0.00770569,0.0220108,0.020256,0.00907898,-0.00846863,0.0124359,0.056076,0.0226212,-9.97986,-0.000152588,-0.00297546,0.0404739,-0.0689316,0.0473022,0.00663757,0.0087738,0.0302124
23,1,10.0097,-0.000305176,-0.00106812,-2.42837,0.0541551,-0.0747579,0.0529073,0.0688341,-0.094062,0.144403,-0.126682,-0.0862325,-0.00434875,0.0239944,0.0193024,0.00663757,-0.0115967,0.0189209,0.0499344,0.015831,-9.97986,0.000610352,-0.00564575,0.0424194,-0.0723267,0.0408173,0.0018692,0.00782013,0.0314331
23,2,10.0097,-0.00152588,0,-2.42745,0.0544603,-0.0747579,0.0529073,0.0685289,-0.0943672,0.141656,-0.126987,-0.0856222,-0.0144196,0.0209427,0.0174713,0.0146484,-0.00747681,0.0178528,0.0448608,0.0235367,-9.97986,0.00038147,-0.00476837,0.0357819,-0.0748062,0.0278091,0.00389099,0.0120544,0.0275803
23,3,10.0097,0.000305176,0.000305176,-2.42776,0.0553758,-0.0744527,0.0529073,0.0691393,-0.0943672,0.143792,-0.126377,-0.0847066,-0.0523758,0.0252914,0.0182724,0.0119019,-0.00720978,0.0126648,0.0287247,0.017395,-9.97986,0.0146484,-0.00659943,0.031929,-0.0767517,0.0130844,0.00434875,0.0152588,0.0235748
23,4,10.0097,0.0012207,0.000152588,-2.42714,0.0553758,-0.0756734,0.0547383,0.0706652,-0.0931465,0.144403,-0.126377,-0.0831808,-0.0730896,0.0231171,0.0163651,0.0117493,-0.00362396,0.0101471,0.0125504,0.0119781,-9.97986,0.0422668,-0.00297546,0.0315094,-0.078392,0.00507355,0.00812531,0.0144196,0.0174713
23,5,10.0097,-0.000610352,-0.000610352,-2.42562,0.0559862,-0.0741475,0.054128,0.0700548,-0.0913154,0.145624,-0.123325,-0.0837911,-0.0497818,0.0274277,0.0207138,0.0118256,-0.00236511,0.017128,-0.00175476,0.0124741,-9.97986,0.059166,-0.00480652,0.0342941,-0.0875092,-0.00198364,0.0167084,0.0181961,0.0170898
23,6,10.0097,-0.00152588,-0.000762939,-2.4247,0.0553758,-0.0747579,0.0553487,0.0715807,-0.0922309,0.145929,-0.124546,-0.0816549,-0.0206375,0.0258636,0.0188065,0.00965118,-0.00507355,0.0202179,-0.00896454,0.0122833,-9.97986,0.0580215,-0.00125885,0.038147,-0.0975418,0.00209808,0.0214386,0.0203323,0.0182724
23,7,10.0097,-0.000305176,-0.000305176,-2.42501,0.0565965,-0.0738423,0.0547383,0.0697496,-0.0922309,0.146234,-0.123325,-0.0795187,-0.0111389,0.0268936,0.0226593,0.0122833,-0.00637054,0.0214005,-0.0122833,0.0165176,-9.97986,0.0481033,-0.00915527,0.0355148,-0.0959396,0.00480652,0.0255203,0.022583,0.0172806
23,8,10.0097,-0.000610352,-0.000610352,-2.42409,0.0569017,-0.073232,0.0532125,0.0715807,-0.0931465,0.148065,-0.12302,-0.0810445,-0.015564,0.0270462,0.0273895,0.00988007,-0.00991821,0.0224304,-0.0140381,0.0183868,-9.97986,0.0444794,-0.0037384,0.0281143,-0.102539,0.00175476,0.0243759,0.0265503,0.0214386
23,9,10.0097,-0.000610352,0.000305176,-2.42531,0.0569017,-0.0744527,0.0550435,0.072191,-0.0913154,0.146234,-0.124546,-0.0795187,0.00644684,0.0259399,0.021019,0.0121307,-0.018425,0.0216293,-0.0367737,0.0104904,-9.97986,0.0382996,-0.000190735,0.0284576,-0.0968552,0.00526428,0.0255585,0.0242996,0.0193024
24,0,10.0097,-0.000305176,0.000610352,-2.4247,0.0562914,-0.0729268,0.0553487,0.0712755,-0.0916206,0.145318,-0.125766,-0.0813497,0.0406647,0.0260925,0.0204086,0.00881195,-0.0056076,0.0226593,-0.0387573,0.018158,-9.97986,0.0477219,-0.00225067,0.0260162,-0.0910568,0.00293732,0.0183105,0.0207901,0.0185776
24,1,10.0097,0.000610352,-0.000457764,-2.42501,0.0559862,-0.0744527,0.054128,0.0587633,-0.0922309,0.147455,-0.125461,-0.0822652,0.0733185,0.02285,0.0195694,0.0056076,0.0063324,0.0214005,-0.031395,0.0174332,-9.97986,0.0545502,-0.00217438,0.0222015,-0.0842285,0.00366211,0.0164795,0.0263596,0.00968933
24,2,10.0097,0.000305176,0,-2.42745,0.0569017,-0.0747579,0.0550435,0.0618151,-0.0922309,0.145624,-0.126072,-0.0828756,0.11776,0.0204849,0.0157928,0.00915527,0.000839233,0.0196457,-0.0158691,0.018158,-9.97986,0.0501251,-0.00392914,0.0227737,-0.0828171,0.00629425,0.0144196,0.0235367,0.00648499
24,3,10.0097,0.000610352,0,-2.42623,0.0553758,-0.0744527,0.0532125,0.0660875,-0.0925361,0.145013,-0.126072,-0.0837911,0.141754,0.0231171,0.014534,0.0114059,-0.000495911,0.0191498,-0.0188828,0.0143814,-9.97986,0.0327301,-0.00404358,0.0235748,-0.0901413,0,0.0177383,0.0208664,0.00236511
24,4,10.0097,0.000915527,0,-2.42623,0.0550706,-0.0747579,0.0535176,0.0734117,-0.0922309,0.145013,-0.125766,-0.0822652,0.118942,0.0265503,0.0218964,0.0094223,-0.0025177,0.0219345,-0.0239182,0.0143051,-9.97986,0.0148773,-0.0063324,0.019989,-0.091629,-0.00892639,0.0183868,0.0210571,0.00148773
24,5,10.0097,0.000305176,0.00106812,-2.42714,0.0553758,-0.0756734,0.0535176,0.0819567,-0.0931465,0.143487,-0.126987,-0.0844015,0.0900269,0.0242233,0.0225067,0.011673,-0.00663757,0.0191116,-0.00572205,0.0111008,-9.97986,-0.00106812,-0.016098,0.0188446,-0.0922394,-0.00965118,0.0167084,0.0251389,0.00312805
24,6,10.0097,0.000915527,-0.000915527,-2.42776,0.0535448,-0.0744527,0.0529073,0.0731066,-0.0952827,0.144098,-0.126377,-0.0859274,0.0462723,0.0252151,0.0239944,0.0163651,-0.00846863,0.0229645,0.0163651,0.0117493,-9.97986,-0.00587463,-0.027504,0.0196075,-0.100021,-0.0147629,0.0141907,0.0273514,0.00591278
24,7,10.0097,-0.00152588,-0.000610352,-2.42837,0.0529344,-0.0756734,0.0516866,0.0691393,-0.0946723,0.143792,-0.127598,-0.0859274,-0.00644684,0.0216293,0.0185394,0.0150681,-0.0152588,0.0218964,0.0269699,0.0069809,-9.97986,0.00232697,-0.0211716,0.0174713,-0.105324,-0.0374603,0.0122452,0.0239563,0.00713348
24,8,10.0097,0.000610352,0.000152588,-2.42867,0.0535448,-0.0765889,0.0529073,0.0685289,-0.095893,0.144098,-0.126987,-0.0862325,-0.0187302,0.0275803,0.0177765,0.0115585,-0.0166702,0.0216675,0.031929,0.00358582,-9.97986,0.00259399,-0.010376,0.0157547,-0.0986862,-0.0524521,0.0180054,0.0295258,0.00774384
24,9,10.0097,0,-0.000305176,-2.42837,0.0541551,-0.0799458,0.0532125,0.0694445,-0.0955879,0.144098,-0.127598,-0.0862325,-0.0458908,0.0232315,0.014267,0.0124741,-0.00923157,0.0182724,0.0198364,0.00900269,-9.97986,0.00427246,0.00324249,0.0137329,-0.0934601,-0.0595093,0.0269699,0.0308228,0.0154495
25,0,10.0097,-0.000915527,-0.0012207,-2.42959,0.0538499,-0.0756734,0.0513814,0.0706652,-0.0946723,0.141351,-0.127598,-0.0865377,-0.056076,0.0233078,0.0130081,0.0117874,-0.0101852,0.0152969,0.00358582,0.0216293,-9.97986,-0.00377655,0.00740051,0.013237,-0.0946426,-0.0675964,0.0341797,0.0394058,0.0174332
25,1,10.0097,-0.000610352,-0.000457764,-2.42898,0.0544603,-0.0747579,0.0522969,0.0697496,-0.0934516,0.144708,-0.127598,-0.0874532,-0.0263214,0.0203705,0.0104141,0.0104141,-0.00225067,0.0140762,-0.015831,0.0198364,-9.97986,-0.0126266,0.0056839,0.00423431,-0.0939178,-0.07164,0.0293732,0.0397491,0.00858307
25,2,10.0097,-0.000305176,0.000152588,-2.42776,0.0553758,-0.0756734,0.0535176,0.0697496,-0.0946723,0.143792,-0.126377,-0.0847066,-0.0012207,0.0244904,0.0162506,0.00770569,0.00350952,0.0179291,-0.0417328,0.0156021,-9.97986,-0.0193405,0.0094223,-0.00125885,-0.0896072,-0.0743866,0.0253677,0.0433731,0.00347137
25,3,10.0097,-0.0012207,0.000152588,-2.42714,0.0553758,-0.0738423,0.0522969,0.0694445,-0.0931465,0.145929,-0.125766,-0.0840963,0.0123978,0.0236893,0.0216293,0.0088501,0.00831604,0.00774384,-0.0565338,0.0138855,-9.97986,-0.00320435,0.0127029,-0.0143433,-0.0834274,-0.0827026,0.0252914,0.0479126,0.00484467
25,4,10.0097,0,0.00106812,-2.42684,0.0538499,-0.0759786,0.0535176,0.0700548,-0.094062,0.144403,-0.126072,-0.0822652,0.0222778,0.0276947,0.0216675,0.0139618,0.00858307,0.0134659,-0.0576401,0.00961304,-9.97986,0.00831604,0.0152206,-0.0296402,-0.0774765,-0.095787,0.02388,0.0470352,0.0106049
25,5,10.0097,0.00244141,0.000610352,-2.42501,0.0553758,-0.0744527,0.0553487,0.0715807,-0.090705,0.145624,-0.124546,-0.0819601,0.0514984,0.0226593,0.0237274,0.0138092,0.0101089,0.0144958,-0.0452042,0.00465393,-9.97986,0.0164413,0.0154877,-0.0385666,-0.0757217,-0.105896,0.0189209,0.0442505,0.0188065
25,6,10.0097,0.000610352,0.000457764,-2.42562,0.0553758,-0.0747579,0.0538228,0.0715807,-0.0925361,0.146234,-0.124546,-0.0819601,0.0643921,0.0282288,0.021553,0.0159073,0.0130844,0.0157928,-0.0378418,0.000991821,-9.97986,0.0274658,0.0125885,-0.0503922,-0.0615311,-0.110474,0.0160599,0.0392532,0.0230789
25,7,10.0097,0.0012207,0.00183105,-2.42501,0.0565965,-0.0735371,0.0538228,0.0706652,-0.0919257,0.145929,-0.123935,-0.0810445,0.0465393,0.0264359,0.0270462,0.0145721,0.0105667,0.0151062,-0.0295639,0.0030899,-9.97986,0.0424957,0.0132751,-0.0637436,-0.0442123,-0.125122,0.019722,0.0300217,0.0209808
25,8,10.0097,0.0012207,0.00167847,-2.42592,0.0553758,-0.0744527,0.0544332,0.0709703,-0.0919257,0.146539,-0.123935,-0.080129,0.0307083,0.0304794,0.0238419,0.0119019,0.00823975,0.0178528,-0.0286865,0.00663757,-9.97986,0.0366211,0.0102234,-0.0738144,-0.0259781,-0.129242,0.0251389,0.0246429,0.0271225
25,9,10.0097,0.00152588,0.00183105,-2.4244,0.0559862,-0.0741475,0.0550435,0.0706652,-0.0916206,0.14837,-0.12363,-0.080129,-0.00144958,0.030098,0.0279999,0.0157928,0.00762939,0.0191116,-0.0195313,0.00938416,-9.97986,0.0176239,0.0037384,-0.0805283,-0.0147247,-0.12886,0.024147,0.0209808,0.0133896
26,0,10.0097,0.00152588,-0.000305176,-2.4247,0.0562914,-0.0738423,0.0553487,0.0709703,-0.0922309,0.145624,-0.123935,-0.0807394,-0.0363159,0.0294495,0.0251389,0.0117111,0.000648499,0.014534,-0.0159836,0.00907898,-9.97986,0.00473022,0.00396729,-0.084343,-0.0125122,-0.124321,0.0244904,0.0262833,0.00785828
26,1,10.0097,0.000915527,-0.000457764,-2.42714,0.0538499,-0.0738423,0.0538228,0.0575426,-0.0925361,0.147149,-0.125461,-0.0819601,-0.0485611,0.0292969,0.0277328,0.00923157,-0.00400543,0.0183868,-0.0182724,0.00904083,-9.97986,-0.0144958,0.00289917,-0.0915527,-0.0193405,-0.124626,0.017128,0.0298309,0.0131989
26,2,10.0097,0.00244141,-0.000457764,-2.42684,0.0559862,-0.0741475,0.0544332,0.0596788,-0.0937568,0.146844,-0.125461,-0.0816549,-0.0699615,0.0265503,0.026207,0.0156403,0.00114441,0.0169754,-0.0238037,0.014801,-9.97986,-0.0293732,-0.00205994,-0.0858688,-0.0162125,-0.125046,0.010643,0.0284576,0.0175476
26,3,10.0097,0.000305176,0.000457764,-2.42653,0.0547655,-0.0741475,0.054128,0.0676134,-0.0916206,0.145929,-0.125156,-0.0825704,-0.0718689,0.0198746,0.0263214,0.00896454,-0.0019455,0.01194,-0.0324631,0.0150299,-9.97986,-0.037384,-0.00385284,-0.0875092,-0.0147629,-0.134392,0.00484467,0.027771,0.0265121
26,4,10.0097,0,0.00106812,-2.42653,0.0553758,-0.0738423,0.0547383,0.0746324,-0.0910102,0.145013,-0.125766,-0.0825704,-0.0297546,0.0246048,0.0248718,0.00984192,0.0044632,0.0124741,-0.0275421,0.0094986,-9.97986,-0.0458527,-0.00488281,-0.0804138,-0.0038147,-0.147018,-0.00610352,0.0292969,0.0338364
26,5,10.0097,-0.00152588,0.00244141,-2.42806,0.0541551,-0.0762837,0.054128,0.0831774,-0.0928413,0.144403,-0.125766,-0.0840963,0.0204468,0.0250244,0.0215912,0.00797272,0.00148773,0.0125504,-0.032196,0.0101089,-9.97986,-0.0325394,-0.001297,-0.0774765,0.00938416,-0.157166,-0.00377655,0.0289154,0.0406647
26,6,10.0097,0.000915527,0.000152588,-2.42898,0.0541551,-0.0765889,0.0529073,0.0734117,-0.0946723,0.143792,-0.125461,-0.0859274,0.0255203,0.0183487,0.0181961,0.00736237,0.0094223,0.0119019,-0.0415421,0.0120544,-9.97986,-0.00808716,0.000114441,-0.0684357,0.0128937,-0.160027,-0.00247955,0.0244904,0.0423813
26,7,10.0097,-0.000305176,-0.000305176,-2.42928,0.0541551,-0.0759786,0.0532125,0.072191,-0.094062,0.142877,-0.126072,-0.0862325,0.0294113,0.0162888,0.0169373,0.0120544,0.0121307,0.0137711,-0.0469208,0.0134659,-9.97986,0.0209427,-0.00141144,-0.0597382,0.0117874,-0.167007,0.000991821,0.0322342,0.0432205
26,8,10.0097,0.000305176,0.00213623,-2.42837,0.0535448,-0.0753682,0.0535176,0.0709703,-0.0934516,0.142572,-0.128208,-0.0859274,0.0693512,0.0180054,0.0182343,0.00839233,0.0201416,0.0063324,-0.04776,0.0149155,-9.97986,0.0437927,0.0037384,-0.0488281,0.0125504,-0.17704,-0.0126648,0.0284576,0.0415421
26,9,10.0097,0.000610352,-0.000915527,-2.42959,0.0541551,-0.0759786,0.0526021,0.0679186,-0.0955879,0.143182,-0.127598,-0.0868429,0.078392,0.0143814,0.0201035,0.00873566,0.0268555,0.00434875,-0.0463104,0.0154114,-9.97986,0.0364685,0.00228882,-0.0365829,0.0238419,-0.177765,-0.0199509,0.0310516,0.0360107
27,0,10.0097,0,0.000457764,-2.42959,0.0544603,-0.0771993,0.0522969,0.0688341,-0.0965034,0.145318,-0.126987,-0.0871481,0.0235367,0.0147247,0.0173569,0.00713348,0.0341034,0.000801086,-0.0560379,0.0117111,-9.97986,0.00938416,-0.00179291,-0.0283432,0.038681,-0.176239,-0.0196838,0.032692,0.0321198
27,1,10.0097,0.000610352,0.000762939,-2.42806,0.0538499,-0.0768941,0.0535176,0.0688341,-0.0943672,0.142877,-0.127292,-0.085317,-0.00621796,0.0127411,0.0128174,0.0043869,0.0354004,-0.00362396,-0.0645447,0.00717163,-9.97986,0.00656128,-0.00724792,-0.0228119,0.0496674,-0.183792,-0.00724792,0.033226,0.0325775
27,2,10.0097,0.0012207,0.00137329,-2.42776,0.0541551,-0.0753682,0.0535176,0.0700548,-0.0949775,0.143487,-0.126377,-0.0856222,-0.024147,0.0111771,0.0153351,0.00400543,0.0359344,-0.00419617,-0.0709534,0.0120544,-9.97986,0.047226,-0.00038147,-0.0286865,0.0686264,-0.196152,-0.00183105,0.0323486,0.0265121
27,3,10.0097,0.00183105,0.00137329,-2.42714,0.0541551,-0.0744527,0.0553487,0.07036,-0.0937568,0.148065,-0.125766,-0.0847066,-0.0395966,0.0120163,0.0167084,0.00572205,0.0312424,-0.00160217,-0.0564194,0.0163651,-9.97986,0.0828552,-0.00846863,-0.0344086,0.0767136,-0.212479,-0.00404358,0.0341034,0.022583
27,4,10.0097,0.000305176,0.000610352,-2.42684,0.0550706,-0.075063,0.0535176,0.0706652,-0.0925361,0.145929,-0.125156,-0.0847066,0.0018692,0.00961304,0.0171661,0.00457764,0.031662,-0.00133514,-0.0385284,0.0226593,-9.97986,0.0860596,-0.00648499,-0.0395203,0.0838852,-0.236626,0.000267029,0.0285339,0.0184631
27,5,10.0097,0.0012207,0.000915527,-2.42592,0.055681,-0.0726216,0.0547383,0.0715807,-0.0922309,0.146234,-0.125156,-0.0831808,0.0459671,0.00881195,0.0160217,0.00656128,0.0328445,-0.00377655,-0.0479507,0.0202942,-9.97986,0.0684738,-0.00804901,-0.0314713,0.0893021,-0.242805,0.0102997,0.0286102,0.0144577
27,6,10.0097,0.00152588,-0.000457764,-2.4244,0.055681,-0.0729268,0.0544332,0.07036,-0.0916206,0.145318,-0.124546,-0.0831808,0.0431061,0.0130844,0.0189972,0.00667572,0.0218964,-0.00255585,-0.0511551,0.0244141,-9.97986,0.0670624,-0.00530243,-0.0306702,0.0901794,-0.242004,0.0232697,0.0260162,0.0154495
27,7,10.0097,0.00213623,-0.000152588,-2.42501,0.0559862,-0.075063,0.0556539,0.0715807,-0.0913154,0.146844,-0.124241,-0.0819601,0.0378418,0.0157166,0.0128174,0.00709534,0.0258636,-0.00793457,-0.0426865,0.0276184,-9.97986,0.0756836,-0.00961304,-0.0185776,0.0922775,-0.238571,0.0372696,0.0276184,0.020752
27,8,10.0097,-0.0216675,0.000305176,-2.42623,0.0569017,-0.0701802,0.0550435,0.0712755,-0.0916206,0.134637,-0.12363,-0.0816549,0.0294495,0.0162125,0.0163269,0.00911713,0.0206375,-0.0140762,-0.0495529,0.0230408,-9.97986,0.106659,-0.0168991,-0.00980377,0.0922394,-0.246582,0.0331879,0.0276184,0.0245667
27,9,10.0097,-0.00305176,-0.000457764,-2.42501,0.0569017,-0.0720113,0.0544332,0.0709703,-0.0919257,0.143792,-0.123935,-0.0810445,0.0161743,0.0197983,0.021286,0.0101089,0.0201416,-0.0126266,-0.0522232,0.0187683,-9.97986,0.130882,-0.0130081,-0.00102997,0.0813675,-0.248108,0.0225449,0.0324249,0.0281525
28,0,10.0097,0.000610352,-0.000457764,-2.4247,0.0572069,-0.0741475,0.0550435,0.0712755,-0.0916206,0.144403,-0.124851,-0.0813497,-0.0222015,0.0175476,0.0212097,0.0087738,0.0178528,-0.00793457,-0.0461578,0.0171661,-9.97986,0.149803,-0.00293732,0.00350952,0.0733566,-0.244064,0.028038,0.0358582,0.0325394
28,1,10.0097,-0.000610352,-0.00152588,-2.42531,0.0559862,-0.0753682,0.0538228,0.0587633,-0.0925361,0.145318,-0.125156,-0.0816549,-0.0231934,0.0154114,0.0228119,0.00988007,0.0172806,-0.0131226,-0.0474167,0.0169373,-9.97986,0.171127,-0.000991821,0.0137711,0.0663376,-0.241013,0.033989,0.0323105,0.0269318
28,2,10.0097,0,-0.00152588,-2.42592,0.0550706,-0.0738423,0.054128,0.0621202,-0.0925361,0.146234,-0.125766,-0.0819601,0.0350952,0.0188446,0.0246429,0.0111008,0.0312424,-0.00404358,-0.0463867,0.0136185,-9.97986,0.158653,-0.00869751,0.0235367,0.0645065,-0.231895,0.0242615,0.036087,0.0208664
28,3,10.0097,0,-0.000152588,-2.42745,0.0550706,-0.0738423,0.0544332,0.0663927,-0.0919257,0.146539,-0.126377,-0.0837911,0.0672913,0.0177383,0.0199127,0.0075531,0.0389099,-0.0107193,-0.0457764,0.00835419,-9.97986,0.125885,-0.00812531,0.0276947,0.0615311,-0.223083,0.00343323,0.0379944,0.0244141
28,4,10.0097,0.00152588,-0.000305176,-2.42714,0.0562914,-0.073232,0.0547383,0.0737169,-0.0919257,0.144708,-0.125766,-0.0834859,0.0708771,0.0178146,0.0284576,0.0121307,0.0440979,-0.00896454,-0.0562286,0.00682831,-9.97986,0.0845718,-0.00137329,0.041275,0.0517273,-0.218773,-0.0106812,0.0408173,0.0163269
28,5,10.0097,0.00152588,0.000305176,-2.42776,0.0541551,-0.0759786,0.0538228,0.0819567,-0.0937568,0.143792,-0.126072,-0.085317,0.0535202,0.0133514,0.0246048,0.00579834,0.0492096,-0.0165176,-0.0631332,0.0116348,-9.97986,0.0356293,-0.00106812,0.0543976,0.044136,-0.218735,-0.0134277,0.0377655,0.00911713
28,6,10.0097,-0.000915527,-0.000762939,-2.42989,0.0538499,-0.0762837,0.0526021,0.0718859,-0.0949775,0.142267,-0.126072,-0.0856222,0.0220108,0.012207,0.0254822,0.00686646,0.052948,-0.0169373,-0.0670242,0.0287628,-9.97986,-0.0109482,-0.00579834,0.0651932,0.0374985,-0.221481,-0.00953674,0.0274277,-0.0120163
28,7,10.0097,0.000305176,-0.000610352,-2.42837,0.0544603,-0.075063,0.0532125,0.0700548,-0.0949775,0.143487,-0.126377,-0.0862325,0.00579834,0.0138092,0.0210571,0.00988007,0.0495148,-0.0144196,-0.0858688,0.0387955,-9.97986,-0.0543976,0.0043869,0.0776672,0.0396347,-0.222206,-0.00278473,0.0273132,-0.0226974
28,8,10.0097,0.000305176,-0.000915527,-2.42928,0.0535448,-0.0744527,0.0532125,0.0688341,-0.0943672,0.143792,-0.127598,-0.0856222,-0.0169754,0.00850677,0.014534,-0.00236511,0.0315094,-0.0156784,-0.105362,0.0365829,-9.97986,-0.0992203,-0.011673,0.0729752,0.0296402,-0.241547,-0.0125504,0.00679016,-0.0218201
28,9,10.0097,0.000915527,-0.000152588,-2.42928,0.0535448,-0.075063,0.0513814,0.0679186,-0.0955879,0.143182,-0.128208,-0.0874532,-0.0180817,0.0130463,0.024147,0.00968933,0.0304794,-0.00621796,-0.108795,0.0482559,-9.97986,-0.120392,-0.0126266,0.0851059,0.0363541,-0.23922,-0.0044632,0.0130463,-0.0217056
29,0,10.0097,0.000915527,-0.000762939,-2.42867,0.0529344,-0.0762837,0.0532125,0.0676134,-0.0943672,0.144098,-0.128513,-0.0871481,-0.026207,0.00839233,0.0161743,0.00579834,0.0302124,-0.0082016,-0.0949097,0.0437164,-9.97986,-0.127182,-0.0139618,0.0837326,0.0255585,-0.249138,-0.00473022,0.0082016,-0.0153732
29,1,10.0097,-0.000915527,-0.0012207,-2.42898,0.0538499,-0.0768941,0.0526021,0.0691393,-0.094062,0.143792,-0.126377,-0.0856222,-0.0128555,0.0105667,0.017128,0.00659943,0.0356293,-0.00587463,-0.0673294,0.0463104,-9.97986,-0.106735,0.00923157,0.0808334,0.01194,-0.262375,-0.00087738,0.00778198,0.0160217
29,2,10.0097,0.000610352,-0.000610352,-2.42867,0.0535448,-0.0747579,0.0532125,0.0724962,-0.0928413,0.145318,-0.126377,-0.0850118,0.0198364,0.00881195,0.0149536,0.00968933,0.0477219,-0.00141144,-0.0579453,0.0502014,-9.97986,-0.0699615,0.0191116,0.0737,0.0142288,-0.264168,0.0094223,0.00431061,0.0467682
29,3,10.0097,0.000305176,-0.000305176,-2.42806,0.0547655,-0.0778096,0.0532125,0.0715807,-0.0922309,0.145929,-0.126072,-0.0850118,0.0746155,0.0120926,0.0124741,0.00614166,0.053978,-0.00167847,-0.0474167,0.05867,-9.97986,-0.0120163,0.000839233,0.0622177,0.00469208,-0.25959,0.00312805,0.00324249,0.072937
29,4,10.0097,0.00213623,0,-2.42714,0.0541551,-0.0753682,0.0538228,0.0718859,-0.0928413,0.145318,-0.125156,-0.0844015,0.0904083,0.00770569,0.00789642,0.00736237,0.0646591,-0.0018692,-0.0355911,0.0709915,-9.97986,0.0415421,-0.0170135,0.0566864,0.00286102,-0.265236,0.00232697,0.000495911,0.0715256
29,5,10.0097,0.000915527,0.000305176,-2.42623,0.0575121,-0.0738423,0.054128,0.0712755,-0.0922309,0.145624,-0.125461,-0.0831808,0.0738144,0.0159073,0.00701904,0.0103378,0.0699234,-0.000572205,-0.0219727,0.0707245,-9.97986,0.0743103,-0.0333023,0.0477219,0.0103378,-0.25116,0.0102615,-0.000839233,0.0573349
29,6,10.0097,-0.000305176,-0.000610352,-2.42531,0.0569017,-0.0738423,0.0547383,0.0712755,-0.0919257,0.146539,-0.123935,-0.0816549,0.0471878,0.0179672,0.00862122,0.00442505,0.0644302,-0.00602722,-0.0178909,0.0725174,-9.97986,0.0915146,-0.0250626,0.0388336,0.0134277,-0.218658,0.0128555,-0.00846863,0.0413513
29,7,10.0097,0,0.000305176,-2.42501,0.0581224,-0.0747579,0.0535176,0.0712755,-0.0919257,0.144708,-0.124241,-0.0810445,0.0115585,0.0196075,0.0122833,0.00610352,0.0634766,-0.00331879,-0.0161362,0.069313,-9.97986,0.085907,-0.0105286,0.0399017,0.0165939,-0.198784,0.016861,-0.0102997,0.0316238
29,8,10.0097,0.000610352,0.000915527,-2.42501,0.0559862,-0.0741475,0.0547383,0.07036,-0.0928413,0.146234,-0.124546,-0.0813497,-0.00911713,0.0228882,0.0104141,0.00816345,0.0526428,-0.00198364,-0.00888824,0.0598907,-9.97986,0.0598526,-0.00522614,0.0345993,0.0241089,-0.178909,0.0193024,-0.0158691,0.0290298
29,9,10.0097,-0.00152588,0.000762939,-2.4247,0.0559862,-0.0744527,0.0538228,0.0700548,-0.0900947,0.14776,-0.124241,-0.0807394,-0.0186157,0.0259781,0.0208664,0.0140762,0.0319672,-0.0030899,-0.0050354,0.0247955,-9.97986,0.0352859,-0.0050354,0.0403595,0.0199509,-0.161514,0.0108719,-0.0139618,0.0253296
30,0,10.0097,-0.000610352,-0.000152588,-2.42501,0.0553758,-0.0771993,0.0544332,0.0694445,-0.0925361,0.147149,-0.123935,-0.0816549,-0.0269318,0.0307465,0.026207,0.0151062,0.0157547,-0.000114441,0.00652313,-0.014801,-9.97986,0.0440598,-0.0211716,0.0452805,0.0149536,-0.139694,-0.00370026,-0.0209808,0.0207138
30,1,10.0097,0,-0.000610352,-2.42531,0.0550706,-0.075063,0.0544332,0.058153,-0.0925361,0.146234,-0.126072,-0.0813497,-0.000724792,0.031662,0.025177,0.0211716,-0.0107574,0.00499725,0.00514984,-0.0234985,-9.97986,0.0414276,-0.0371933,0.0549698,0.000228882,-0.132065,-0.013504,-0.0222015,0.0146484
30,2,10.0097,0.00183105,-0.00167847,-2.42592,0.0559862,-0.0753682,0.0544332,0.0605944,-0.0928413,0.145318,-0.126072,-0.0822652,0.0250626,0.0337601,0.0360489,0.0207138,-0.0281525,0.0128937,0.00740051,-0.0331116,-9.97986,0.0134659,0.00148773,0.0654221,-0.00209808,-0.119934,-0.0246429,-0.0228882,0.0126648
30,3,10.0097,0.00244141,-0.000762939,-2.42592,0.0562914,-0.0738423,0.0544332,0.0660875,-0.0916206,0.146234,-0.126377,-0.0834859,0.0359726,0.0333786,0.0348282,0.0263596,-0.0389481,0.0218964,0.0376892,-0.031662,-9.97986,-0.0238037,0.0281906,0.0723267,-0.0123215,-0.112381,-0.0254822,-0.0231552,0.00396729
30,4,10.0097,0.00335693,-0.000305176,-2.42684,0.0547655,-0.0741475,0.0544332,0.0743273,-0.0925361,0.144708,-0.125766,-0.0828756,0.0500488,0.0329971,0.0281906,0.0213242,-0.0521851,0.0191116,0.0680923,-0.021019,-9.97986,-0.050621,0.0397491,0.0740814,-0.0175858,-0.10582,-0.0187302,-0.0289536,0.00980377
30,5,10.0097,0.0012207,0.000152588,-2.42776,0.0541551,-0.0747579,0.0538228,0.0813463,-0.0934516,0.143487,-0.126377,-0.085317,0.0601959,0.0255966,0.0204086,0.0193405,-0.0388336,0.0165558,0.0846481,-0.00972748,-9.97986,-0.0891876,0.0292206,0.0569916,-0.0230026,-0.104828,-0.0164795,-0.0320053,0.0152206
30,6,10.0097,0.00213623,-0.000305176,-2.42959,0.0547655,-0.0762837,0.0522969,0.0715807,-0.094062,0.144403,-0.126682,-0.0856222,0.037384,0.0169754,0.015564,0.017395,-0.0326157,0.0191116,0.0939941,0.00289917,-9.97986,-0.104599,0.0175476,0.0523376,-0.0322342,-0.101776,-0.0147247,-0.0381088,0.0229645
30,7,10.0097,0.000915527,-0.000457764,-2.42898,0.0529344,-0.0753682,0.0516866,0.0694445,-0.0946723,0.143182,-0.127292,-0.0862325,-0.0398254,0.0158691,0.0124359,0.0146484,-0.0168991,0.0142288,0.106316,0.0195313,-9.97986,-0.0960159,0.0205231,0.0556946,-0.0345612,-0.0918579,-0.00896454,-0.0396347,0.0318909
30,8,10.0097,0.000915527,-0.000610352,-2.4302,0.0550706,-0.0753682,0.0529073,0.0694445,-0.0946723,0.144403,-0.127292,-0.0868429,-0.0822449,0.0140762,0.00732422,0.0133133,0.00717163,0.0131989,0.105743,0.0180435,-9.97986,-0.0852203,0.0182724,0.076828,-0.0360107,-0.0831223,-0.0119781,-0.0426865,0.0117111
30,9,10.0097,0.0012207,-0.000915527,-2.42867,0.0547655,-0.0759786,0.0532125,0.0688341,-0.0949775,0.142572,-0.128513,-0.0874532,-0.0823212,0.00411987,0.00408173,0.0115967,0.0398636,0.00835419,0.0930786,0.0217438,-9.97986,-0.0953293,0.0144958,0.0921249,-0.0459671,-0.0892258,-0.0208282,-0.042572,-0.0269699
31,0,10.0097,0.000915527,-0.00106812,-2.42837,0.0544603,-0.0756734,0.0522969,0.0688341,-0.0931465,0.143792,-0.126682,-0.0883688,-0.021286,0.0108719,0.00522614,0.0153351,0.0590515,0.00762939,0.103264,0.027771,-9.97986,-0.105209,0.015831,0.114632,-0.0516129,-0.103264,-0.0152969,-0.0440216,-0.0243378
31,1,10.0097,0.0012207,-0.000305176,-2.42776,0.0535448,-0.0762837,0.0535176,0.0694445,-0.0934516,0.145624,-0.126987,-0.0862325,0.0372314,0.0104523,-0.00320435,0.00995636,0.0607681,0.010376,0.126877,0.0301361,-9.97986,-0.0709915,0.0177383,0.135193,-0.0523758,-0.121155,-0.0183105,-0.0422668,0.0110626
31,2,10.0097,0.000610352,-0.00152588,-2.42776,0.055681,-0.0738423,0.054128,0.0706652,-0.0937568,0.144098,-0.127292,-0.0856222,0.0494003,0.00152588,-0.00617981,0.0117493,0.0562286,0.0173187,0.128479,0.0292587,-9.97986,0.0214767,0.0143051,0.153389,-0.0582504,-0.134354,-0.0181198,-0.049324,0.0482178
31,3,10.0097,0.000915527,-0.000305176,-2.42837,0.0559862,-0.075063,0.0532125,0.0709703,-0.0946723,0.144403,-0.126072,-0.0856222,0.0544739,0.00305176,-0.00900269,0.0111008,0.0443268,0.0222397,0.141907,0.0296783,-9.97986,0.0999069,0.0120544,0.158348,-0.066185,-0.141411,-0.014801,-0.0465393,0.0793457
31,4,10.0097,0.000610352,-0.000305176,-2.42776,0.0559862,-0.0738423,0.0532125,0.0712755,-0.0934516,0.146234,-0.124851,-0.0844015,0.0485611,0.00263214,-0.0100327,0.00968933,0.0291443,0.02388,0.146332,0.0318909,-9.97986,0.155678,0.0114822,0.150986,-0.0637817,-0.142365,-0.0131607,-0.0353241,0.0933838
31,5,10.0097,-0.000915527,0.000457764,-2.42623,0.0562914,-0.0747579,0.054128,0.0728014,-0.0928413,0.145318,-0.123325,-0.0822652,0.0235748,-0.00240326,-0.00629425,0.00583649,0.0220108,0.0271606,0.158005,0.0332642,-9.97986,0.212708,0.0069046,0.144653,-0.0508881,-0.146446,-0.0184631,-0.0295639,0.0898743
31,6,10.0097,0.0012207,0.000915527,-2.42501,0.0569017,-0.0744527,0.0544332,0.072191,-0.0925361,0.146844,-0.125766,-0.0804342,-0.0116348,0.00247955,-0.0133133,0.00545502,0.0218964,0.0230408,0.182419,0.0334167,-9.97986,0.22274,-0.00427246,0.147858,-0.03685,-0.15934,-0.020256,-0.0306702,0.083847
31,7,10.0097,0.00244141,0.000610352,-2.42501,0.0550706,-0.0738423,0.0553487,0.0712755,-0.0919257,0.145929,-0.123935,-0.0804342,-0.0489807,0.00038147,-0.0143814,0.00793457,0.0373459,0.0165939,0.217896,0.0467682,-9.97986,0.209694,-0.00183105,0.153122,-0.0336075,-0.174179,-0.022583,-0.0282288,0.0690842
31,8,10.0097,0.000610352,0.00167847,-2.42501,0.0569017,-0.0738423,0.054128,0.07036,-0.0916206,0.147149,-0.124546,-0.0813497,-0.0564957,0.00972748,-0.013504,0.00514984,0.0608444,0.0190353,0.264091,0.0431442,-9.97986,0.200882,-0.00953674,0.151215,-0.0160217,-0.179901,-0.0212479,-0.0258636,0.0500488
31,9,10.0097,-0.000305176,0.00289917,-2.4244,0.055681,-0.0735371,0.0550435,0.0697496,-0.0916206,0.145929,-0.12363,-0.0798238,-0.0637436,0.00484467,-0.00518799,0.00492096,0.0685883,0.0188446,0.299606,0.0442886,-9.97986,0.169487,-0.0153351,0.154228,0.0144577,-0.189171,-0.0207138,-0.0191116,0.0392532
32,0,10.0097,0.00152588,0.00259399,-2.42531,0.0562914,-0.073232,0.0550435,0.0709703,-0.0919257,0.146539,-0.124546,-0.080129,-0.0624084,0.0115967,-0.00198364,0.00888824,0.0722885,0.0271606,0.306511,0.0473404,-9.97986,0.148773,-7.62939e-005,0.155869,0.0497055,-0.197639,-0.0226212,-0.0114441,0.0259781
32,1,10.0097,0.00213623,0.00213623,-2.42623,0.0559862,-0.073232,0.0538228,0.0578478,-0.0946723,0.145013,-0.125766,-0.0813497,-0.0597382,0.0136948,0.000495911,0.00488281,0.0808716,0.0265503,0.295486,0.0500107,-9.97986,0.133705,0.0183868,0.165176,0.0828171,-0.191536,-0.0209427,-0.0154495,0.0371552
32,2,10.0097,0.000610352,0.00213623,-2.42653,0.0562914,-0.075063,0.0547383,0.0605944,-0.0919257,0.145318,-0.126072,-0.0819601,-0.0530624,0.0220871,0.00629425,0.00778198,0.0862122,0.0309372,0.296898,0.045433,-9.97986,0.105782,0.0287628,0.183907,0.108757,-0.188599,-0.0218201,-0.0153351,0.0450897
32,3,10.0097,-0.0012207,0.00152588,-2.42592,0.055681,-0.0744527,0.0535176,0.0666979,-0.0919257,0.145929,-0.126072,-0.0822652,-0.0254059,0.0218964,0.0154114,0.0101089,0.0821304,0.032959,0.277977,0.0469971,-9.97986,0.080719,0.0186539,0.182419,0.117836,-0.180435,-0.0203705,-0.00785828,0.0583649
32,4,10.0097,-0.000305176,0.0012207,-2.42653,0.0544603,-0.0747579,0.0535176,0.0746324,-0.0916206,0.145929,-0.125461,-0.0828756,-0.0238037,0.0234604,0.0120163,0.00858307,0.094986,0.019455,0.256882,0.0473404,-9.97986,0.0551987,0.0167084,0.177536,0.117722,-0.185471,-0.0176239,-0.00232697,0.0609207
32,5,10.0097,0.000915527,0.000762939,-2.42776,0.0541551,-0.0756734,0.0544332,0.0828722,-0.0934516,0.143182,-0.125766,-0.0850118,-0.0473022,0.0268555,0.0159454,0.0103378,0.104828,0.00305176,0.256004,0.0449371,-9.97986,0.0554657,0.00740051,0.179863,0.114708,-0.191307,-0.0123596,3.8147e-005,0.0143051
32,6,10.0097,-0.000610352,-0.000610352,-2.42867,0.0550706,-0.075063,0.0522969,0.0740221,-0.0937568,0.144403,-0.126072,-0.0868429,-0.0575256,0.027504,0.017128,0.0149918,0.0945282,-0.0196075,0.265388,0.0492859,-9.97986,0.0704193,0.00282288,0.182419,0.102119,-0.183754,-0.00953674,0.00190735,0.00419617
32,7,10.0097,0.000610352,-0.000915527,-2.42867,0.0538499,-0.0762837,0.0538228,0.0706652,-0.0943672,0.141656,-0.127292,-0.0868429,-0.0405502,0.0265121,0.017395,0.0154495,0.0715256,-0.027504,0.276833,0.0525284,-9.97986,0.0743866,-0.00522614,0.177193,0.0915909,-0.184174,-0.00743866,0.00343323,0.0304794
32,8,10.0097,0.00152588,-0.00106812,-2.42898,0.0541551,-0.0753682,0.0529073,0.0694445,-0.094062,0.144098,-0.127292,-0.0865377,-0.0285339,0.0282669,0.0254822,0.0110626,0.0543976,-0.0350189,0.274429,0.050354,-9.97986,0.0572205,-0.0134277,0.183182,0.0840378,-0.1828,-0.00736237,0.0136948,0.0517654
32,9,10.0097,0.000610352,-0.00213623,-2.42959,0.0532396,-0.0768941,0.0538228,0.0700548,-0.0952827,0.143182,-0.126682,-0.0868429,0.00209808,0.0305939,0.0264359,0.0114441,0.0422668,-0.039711,0.265121,0.0299072,-9.97986,0.0377274,-0.0281525,0.189857,0.0792313,-0.17395,-0.0146103,0.0182724,0.0577927
33,0,10.0097,0.000305176,-0.00106812,-2.42989,0.0535448,-0.0753682,0.0532125,0.0679186,-0.0931465,0.143487,-0.127292,-0.0874532,0.0701904,0.0361252,0.0273132,0.0131607,0.0374603,-0.0476837,0.266876,0.0203705,-9.97986,0.00782013,-0.0548553,0.178719,0.0681686,-0.169373,-0.00675201,0.0232697,0.0168228
33,1,10.0097,-0.0012207,-0.000610352,-2.42928,0.0535448,-0.0759786,0.0538228,0.0682238,-0.0949775,0.142572,-0.127292,-0.0874532,0.0999451,0.038414,0.0345993,0.0155258,0.0480652,-0.0618362,0.271721,0.0136566,-9.97986,-0.0227356,-0.0570679,0.171394,0.0634003,-0.156288,0.000457764,0.0265503,-0.0402069
33,2,10.0097,0.00152588,-0.00137329,-2.42684,0.0538499,-0.0759786,0.0532125,0.0694445,-0.0925361,0.144098,-0.127598,-0.0859274,0.103836,0.0358582,0.0353622,0.0146866,0.0499344,-0.078125,0.263176,0.00751495,-9.97986,-0.055275,-0.0348282,0.169868,0.0477219,-0.132561,-0.00255585,0.0256729,-0.0694275
33,3,10.0097,0.00244141,-0.0012207,-2.42714,0.0544603,-0.0744527,0.0538228,0.0691393,-0.0934516,0.144098,-0.126987,-0.085317,0.12085,0.037384,0.0357056,0.0131989,0.0453186,-0.0868607,0.260353,0.00419617,-9.97986,-0.0744629,-0.0175095,0.170097,0.034523,-0.114822,-0.00759125,0.026207,-0.071373
33,4,10.0097,0.000915527,-0.000152588,-2.42745,0.0550706,-0.075063,0.0535176,0.0694445,-0.0925361,0.145013,-0.126377,-0.0834859,0.119781,0.0403976,0.0365067,0.0146484,0.0485992,-0.0971985,0.262985,0.00717163,-9.97986,-0.0865936,0.00411987,0.179749,0.0291824,-0.100594,-0.0191116,0.0415802,-0.0407791
33,5,10.0097,0.000305176,-0.00137329,-2.42501,0.055681,-0.0744527,0.0553487,0.0688341,-0.0925361,0.146234,-0.124851,-0.0816549,0.094223,0.0351334,0.0346756,0.00972748,0.0493622,-0.100327,0.25322,0.00522614,-9.97986,-0.12558,0.0189972,0.189514,0.0180435,-0.0921249,-0.0327682,0.0542831,-0.041275
33,6,10.0097,0,-0.00137329,-2.4244,0.0562914,-0.073232,0.0568746,0.0700548,-0.0922309,0.146539,-0.125156,-0.0819601,0.0742722,0.0405502,0.037384,0.0112915,0.0643158,-0.0814819,0.2491,0.0275803,-9.97986,-0.170593,0.0209045,0.231323,0.00175476,-0.0722504,-0.0311661,0.0634766,-0.0380707
33,7,10.0097,0.0012207,-0.000915527,-2.42562,0.0572069,-0.0741475,0.0550435,0.0697496,-0.090705,0.146234,-0.124241,-0.0813497,0.026207,0.0372314,0.041008,0.00785828,0.082016,-0.0575256,0.223885,0.0444412,-9.97986,-0.189476,0.0165558,0.232124,-0.00911713,-0.0436783,-0.0191879,0.0754166,-0.0318527
33,8,10.0097,0.0012207,-0.0012207,-2.42562,0.0559862,-0.0735371,0.0547383,0.0709703,-0.0910102,0.146234,-0.124241,-0.0819601,-0.00659943,0.033989,0.0309372,0.00488281,0.102234,-0.0402451,0.203667,0.0595474,-9.97986,-0.163918,0.00686646,0.194473,-0.0267792,-0.0150681,0.00217438,0.0747299,-0.0315857
33,9,10.0097,0.000305176,-0.000915527,-2.42653,0.055681,-0.0744527,0.0544332,0.0712755,-0.0925361,0.147455,-0.123325,-0.0813497,-0.0727081,0.0308609,0.0277328,0.00629425,0.127487,-0.0251007,0.18364,0.056572,-9.97986,-0.109138,0.00667572,0.190582,-0.030899,0.0131989,0.0168991,0.0725174,-0.0226212
34,0,10.0097,0.000610352,-0.000152588,-2.42409,0.0569017,-0.073232,0.0547383,0.0724962,-0.0919257,0.145318,-0.123935,-0.0813497,-0.132103,0.0294876,0.0300598,0.00663757,0.110054,-0.00930786,0.156403,0.0431442,-9.97986,-0.0701523,-0.00366211,0.172806,-0.0387573,0.0474167,0.0226212,0.0772858,-0.0118256
34,1,10.0097,0.000305176,-0.00167847,-2.42531,0.0559862,-0.0747579,0.0544332,0.0593737,-0.0928413,0.148065,-0.125766,-0.0825704,-0.117416,0.029335,0.0287628,0.00621796,0.0729752,-0.000267029,0.133057,0.0333405,-9.97986,-0.0487518,-0.0120926,0.127907,-0.0432205,0.0855637,0.0283051,0.0831223,-0.00598907
34,2,10.0097,-0.00183105,-0.000457764,-2.42592,0.055681,-0.0753682,0.0522969,0.0612047,-0.0922309,0.14776,-0.125766,-0.0828756,-0.078392,0.0291443,0.0273132,0.00999451,0.0754547,0.00865936,0.114746,0.00869751,-9.97986,-0.0510406,-0.0107956,0.0618744,-0.0392151,0.114899,0.0344849,0.0955963,0.0246429
34,3,10.0097,-0.000305176,0.000457764,-2.42592,0.0550706,-0.0741475,0.0522969,0.0694445,-0.090705,0.147455,-0.125461,-0.0825704,-0.00770569,0.0321198,0.030632,0.0109863,0.0649643,0.00682831,0.0897217,-0.00282288,-9.97986,-0.0678635,-0.0133896,-0.0174332,-0.0249481,0.14576,0.0343323,0.100632,0.0555038
34,4,10.0097,-0.0012207,0.00167847,-2.42653,0.055681,-0.0762837,0.0522969,0.075548,-0.0903999,0.14776,-0.124546,-0.0816549,0.0162125,0.032692,0.0289154,0.0193024,0.00804901,0.00762939,0.0597,-0.0157166,-9.97986,-0.0866318,-0.0101471,-0.0847244,-0.00507355,0.193214,0.0190735,0.104294,0.0710297
34,5,10.0097,-0.000915527,0.00305176,-2.42776,0.0544603,-0.0759786,0.0513814,0.0850084,-0.0919257,0.145013,-0.125461,-0.0844015,0.0591278,0.0317764,0.0270844,0.0194168,-0.0616837,0.0233078,0.0323486,-0.0262833,-9.97986,-0.0681305,-0.00965118,-0.151253,0.019722,0.228195,0.00827789,0.106888,0.0883102
34,6,10.0097,0.000610352,0.00259399,-2.42837,0.0538499,-0.075063,0.0498555,0.0737169,-0.0931465,0.144708,-0.126377,-0.085317,0.136337,0.0275803,0.0258255,0.0233459,-0.120735,0.0321198,0.00465393,-0.0211716,-9.97986,-0.0126648,-0.0038147,-0.211411,0.0419998,0.26104,0.00564575,0.103951,0.0920868
34,7,10.0097,-0.0012207,0.00183105,-2.42898,0.0529344,-0.0753682,0.0513814,0.072191,-0.0955879,0.143182,-0.126987,-0.0847066,0.119476,0.0190353,0.0194168,0.0208664,-0.187263,0.0299454,-0.0203705,-0.0165939,-9.97986,0.0291824,-0.0123215,-0.260925,0.0603104,0.2808,0.0069046,0.112495,0.0732803
34,8,10.0097,0.000305176,0.00106812,-2.42684,0.0532396,-0.0753682,0.0522969,0.0691393,-0.0949775,0.144403,-0.128818,-0.0862325,0.123062,0.0148773,0.0134659,0.0208282,-0.245857,0.0309753,-0.0428772,-0.0120163,-9.97986,0.0220108,-0.0138855,-0.303879,0.0676727,0.286331,0.0145721,0.123978,0.0669098
34,9,10.0097,0.000610352,-0.000915527,-2.42989,0.0544603,-0.0759786,0.0519917,0.0663927,-0.095893,0.143792,-0.127598,-0.0874532,0.128021,0.0087738,0.010643,0.0170517,-0.251541,0.0464249,-0.0587082,0.00347137,-9.97986,-0.0246811,-0.0161743,-0.321999,0.0718689,0.291328,0.0157547,0.130348,0.0644302
35,0,10.0097,0.000915527,-0.000610352,-2.42959,0.0532396,-0.0765889,0.0516866,0.0657823,-0.095893,0.143792,-0.126682,-0.0868429,0.0792313,0.00160217,0.00270844,0.018158,-0.212669,0.0631332,-0.0695419,0.0172424,-9.97986,-0.0805283,-0.0161362,-0.316391,0.0603867,0.303268,0.015831,0.130997,0.0549698
35,1,10.0097,-0.000915527,-0.000915527,-2.42806,0.0541551,-0.0744527,0.0538228,0.0679186,-0.0946723,0.144403,-0.129429,-0.085317,0.0631714,0.00209808,0.00511169,0.0153732,-0.169373,0.071106,-0.0708008,0.00988007,-9.97986,-0.144234,-0.0133514,-0.290604,0.0508499,0.327835,0.0205231,0.137138,0.0377655
35,2,10.0097,-0.000915527,-0.00137329,-2.42714,0.0544603,-0.0747579,0.054128,0.0679186,-0.0931465,0.144403,-0.126987,-0.0850118,0.0501251,0.000457764,0.000724792,0.0204086,-0.148964,0.0746918,-0.0823593,0.00984192,-9.97986,-0.181961,-0.0119781,-0.265884,0.0279617,0.34317,0.0180435,0.137901,0.0131989
35,3,10.0097,-0.000610352,-0.000305176,-2.42745,0.0547655,-0.075063,0.0535176,0.0706652,-0.0937568,0.143487,-0.126377,-0.0840963,0.0845337,-0.00301361,-0.00247955,0.016861,-0.121002,0.0735855,-0.100327,0.0205231,-9.97986,-0.15995,-0.0087738,-0.258789,0.0178146,0.35717,0.0231171,0.144615,0.00476837
35,4,10.0097,-0.000915527,-0.000610352,-2.42684,0.0553758,-0.0741475,0.0538228,0.0700548,-0.0913154,0.145624,-0.125461,-0.0834859,0.0615311,-0.0112534,-0.00766754,0.0139236,-0.0598907,0.0663757,-0.109024,0.0439835,-9.97986,-0.0775146,-0.0148773,-0.258827,0.0119019,0.375404,0.0204468,0.140381,0.0082016
35,5,10.0097,0.00152588,-0.000457764,-2.4244,0.0559862,-0.0747579,0.055959,0.0734117,-0.0931465,0.146234,-0.125156,-0.0825704,-0.0243378,-0.00816345,-0.0101089,0.0114441,0.0185776,0.0559998,-0.11425,0.0588608,-9.97986,0.077858,-0.0128174,-0.237999,0.00293732,0.380669,0.0157166,0.135269,0.0200653
35,6,10.0097,-0.000610352,-0.0012207,-2.42592,0.055681,-0.0741475,0.0556539,0.0734117,-0.0928413,0.146234,-0.123325,-0.0816549,-0.0458527,-0.0105286,-0.0144577,0.0133133,0.0675964,0.0504303,-0.111618,0.0574112,-9.97986,0.21534,-0.00823975,-0.209923,-0.0255203,0.381546,0.0110626,0.120239,0.0383377
35,7,10.0097,0.000915527,-0.00228882,-2.42531,0.0575121,-0.0747579,0.0550435,0.0718859,-0.0910102,0.146844,-0.12363,-0.0825704,-0.0582886,-0.00823975,-0.00953674,0.0178909,0.0875854,0.0533676,-0.107231,0.0474548,-9.97986,0.273438,-0.0031662,-0.177383,-0.0537109,0.380974,0.013237,0.105553,0.0556564
35,8,10.0097,-0.000915527,-0.00289917,-2.4247,0.0553758,-0.0747579,0.055959,0.0700548,-0.0928413,0.145318,-0.12363,-0.0825704,-0.0981522,0.000610352,-0.00587463,0.0201035,0.099678,0.0548553,-0.0996017,0.0225067,-9.97986,0.234718,-0.00514984,-0.138016,-0.100479,0.371437,0.0117874,0.0959015,0.0374222
35,9,10.0097,-0.00213623,-0.00320435,-2.4244,0.0569017,-0.0729268,0.0519917,0.0712755,-0.0919257,0.146539,-0.123935,-0.0816549,-0.0816345,0.00518799,0.00488281,0.0279617,0.111618,0.0617981,-0.100212,0.0038147,-9.97986,0.168724,0.00331879,-0.128746,-0.128708,0.366516,0.0144577,0.0896835,0.0246048
36,0,10.0097,0.000610352,-0.00350952,-2.42501,0.0553758,-0.0747579,0.0553487,0.0691393,-0.0922309,0.145624,-0.124241,-0.0822652,-0.0802612,0.0150681,0.0135422,0.0289917,0.102425,0.056572,-0.101318,-0.0116348,-9.97986,0.113449,0.0101471,-0.137177,-0.175095,0.356827,0.0114059,0.0799561,0.0430679
36,1,10.0097,-0.00152588,-0.00488281,-2.42562,0.0572069,-0.0747579,0.0544332,0.0566271,-0.0922309,0.146234,-0.125156,-0.0825704,-0.109787,0.0226212,0.0191879,0.0307465,0.0944519,0.0624847,-0.113029,-0.0115967,-9.97986,0.0660324,0.00419617,-0.143242,-0.220528,0.338516,-0.00148773,0.0709534,0.0592041
36,2,10.0097,0.00213623,-0.00534058,-2.42714,0.055681,-0.0744527,0.0535176,0.0624254,-0.0913154,0.145929,-0.125461,-0.0840963,-0.00926971,0.0233841,0.0218964,0.0308609,0.0778198,0.0656891,-0.118637,-0.00370026,-9.97986,0.0428391,0.00144958,-0.128365,-0.272751,0.326614,-0.0044632,0.0624084,0.0476837
36,3,10.0097,0.000305176,-0.00442505,-2.42562,0.0544603,-0.0747579,0.0550435,0.0679186,-0.0919257,0.144098,-0.125766,-0.0844015,0.0719833,0.0254822,0.0235367,0.0341415,0.0746155,0.0644302,-0.118828,0.0117111,-9.97986,0.0255966,0.00282288,-0.121002,-0.323524,0.307198,-0.00411987,0.0551224,0.0175858
36,4,10.0097,0.000610352,-0.00411987,-2.42684,0.055681,-0.0744527,0.0529073,0.0752428,-0.0934516,0.144098,-0.125766,-0.0844015,-0.000610352,0.0266266,0.0250244,0.0349045,0.0917053,0.0662231,-0.107765,0.0193405,-9.97986,0.0147629,-0.00137329,-0.127602,-0.358772,0.304947,0.00289917,0.0577545,-0.0260925
36,5,10.0097,0.00213623,-0.00244141,-2.42867,0.0532396,-0.0753682,0.0532125,0.0792101,-0.0946723,0.142572,-0.125766,-0.0859274,-0.0735474,0.0306702,0.0199127,0.0271606,0.114899,0.0685501,-0.101204,0.0276184,-9.97986,0.0286102,0.0069046,-0.135841,-0.400009,0.335236,0.0157166,0.062561,-0.113029
36,6,10.0097,0.000610352,-0.00396729,-2.42806,0.0541551,-0.0768941,0.0529073,0.072191,-0.0943672,0.141351,-0.126987,-0.0871481,-0.124321,0.022049,0.0204849,0.0235748,0.122185,0.0768661,-0.0991821,0.0505447,-9.97986,0.0296783,0.000495911,-0.127831,-0.431213,0.352898,0.0210953,0.057869,-0.193596
36,7,10.0097,0.000915527,-0.00274658,-2.42928,0.0544603,-0.0762837,0.0538228,0.07036,-0.0937568,0.144098,-0.126682,-0.0868429,-0.140381,0.0200272,0.014267,0.0180054,0.114632,0.0695801,-0.0899124,0.056572,-9.97986,0.0187683,0.00167847,-0.112038,-0.453911,0.362053,0.0249863,0.0397873,-0.175247
36,8,10.0097,0.000610352,-0.00274658,-2.42806,0.0535448,-0.0744527,0.0526021,0.0697496,-0.0943672,0.144403,-0.127292,-0.0874532,-0.114937,0.0175858,0.0154877,0.0200653,0.0894165,0.0671387,-0.07267,0.0516891,-9.97986,0.016098,0.00164032,-0.0972748,-0.477066,0.343399,0.0326538,0.0331497,-0.0883865
36,9,10.0097,-0.000305176,-0.00213623,-2.42837,0.0532396,-0.0756734,0.0532125,0.0697496,-0.0943672,0.143487,-0.127292,-0.0868429,-0.0331497,0.0230408,0.0118256,0.0194168,0.060463,0.0560379,-0.0498962,0.0359344,-9.97986,0.00816345,-0.0012207,-0.0907135,-0.494652,0.326653,0.0251007,0.0302887,-0.0252151
37,0,10.0097,0.000915527,-0.0012207,-2.42959,0.0532396,-0.0759786,0.0522969,0.0706652,-0.0931465,0.144098,-0.127292,-0.0874532,0.13504,0.0265121,0.0135422,0.0182343,0.0427246,0.0351334,-0.0299072,0.011673,-9.97986,-0.0125504,0.000457764,-0.0894547,-0.499268,0.318527,0.0124359,0.015564,0.00793457
37,1,10.0097,-0.000305176,-0.0012207,-2.42837,0.0535448,-0.075063,0.0519917,0.0685289,-0.0946723,0.144403,-0.126987,-0.0865377,0.20195,0.0233459,0.0117111,0.0222778,0.0141525,0.0190735,-0.0233459,-0.00255585,-9.97986,-0.0184631,-0.00511169,-0.0889969,-0.51487,0.29911,0.00648499,-0.0123215,0.0493622
37,2,10.0097,0.0012207,-0.00167847,-2.42806,0.0538499,-0.0729268,0.0529073,0.0682238,-0.094062,0.145013,-0.126682,-0.085317,0.126801,0.0216293,0.00736237,0.0193405,-0.00453949,0.0342178,-0.0395584,0,-9.97986,-0.0247955,-0.00751495,-0.0822067,-0.52681,0.283661,-0.000915527,-0.0294876,0.0864029
37,3,10.0097,-0.0012207,-0.000915527,-2.42776,0.0553758,-0.0747579,0.0529073,0.0679186,-0.0946723,0.145318,-0.126072,-0.085317,0.0761414,0.0185776,0.00759125,0.0190353,-0.0382233,0.0517654,-0.0592804,0.0069046,-9.97986,-0.0545502,-0.00778198,-0.121574,-0.537682,0.284119,-0.00293732,-0.0458527,0.101624
37,4,10.0097,0.000915527,-0.000915527,-2.42653,0.0553758,-0.0747579,0.0522969,0.0682238,-0.0931465,0.143792,-0.126987,-0.0847066,0.0449753,0.028038,0.0118256,0.0217438,-0.0918961,0.0707626,-0.0705719,-0.00110626,-9.97986,-0.060463,-0.00236511,-0.176926,-0.546265,0.272484,-0.00663757,-0.0429535,0.0963974
37,5,10.0097,-0.000305176,-0.000152588,-2.42592,0.0559862,-0.0744527,0.0547383,0.0712755,-0.0922309,0.145318,-0.124851,-0.0825704,0.0136948,0.0284958,0.0120926,0.0196075,-0.125084,0.0894165,-0.0751495,-0.0139999,-9.97986,-0.0642014,-0.00556946,-0.196953,-0.554581,0.265198,-0.0117111,-0.0364304,0.0614166
37,6,10.0097,0.000305176,0.000152588,-2.42501,0.055681,-0.0729268,0.0535176,0.0697496,-0.0922309,0.143792,-0.124546,-0.0819601,-0.0383377,0.0361252,0.017128,0.0230789,-0.158577,0.0899887,-0.0748062,-0.0228882,-9.97986,-0.0668716,-0.0050354,-0.189247,-0.546188,0.259705,-0.00881195,-0.0354767,0.0172043
37,7,10.0097,0.0012207,0.000305176,-2.4244,0.0565965,-0.0738423,0.0556539,0.0718859,-0.0910102,0.146234,-0.123935,-0.0810445,-0.0629807,0.0323486,0.0172424,0.0211716,-0.184097,0.0789642,-0.0576782,-0.0189972,-9.97986,-0.0513458,-0.00232697,-0.174637,-0.53833,0.270271,0.000534058,-0.0245285,-0.0149155
37,8,10.0097,0.000915527,0.00137329,-2.42623,0.0572069,-0.0744527,0.0565694,0.0734117,-0.0910102,0.145318,-0.124241,-0.0813497,0.0025177,0.032196,0.0191116,0.0214767,-0.189705,0.0646591,-0.0418091,-0.0227356,-9.97986,0.00946045,-0.00274658,-0.14431,-0.518684,0.29995,-0.000190735,-0.0130463,-0.0379944
37,9,10.0097,-0.000610352,0.00259399,-2.42501,0.0559862,-0.0729268,0.0544332,0.0731066,-0.0913154,0.145318,-0.123935,-0.0804342,0.0292969,0.0340652,0.0139618,0.0171661,-0.158501,0.0420761,-0.0200272,-0.0163651,-9.97986,0.127983,0.00133514,-0.129089,-0.486298,0.291367,0.00282288,-0.00713348,-0.0574112
38,0,10.0097,0.000610352,0.00274658,-2.42623,0.0569017,-0.0741475,0.055959,0.0731066,-0.0913154,0.146539,-0.123325,-0.0807394,0.0371933,0.0304031,0.0123215,0.0211716,-0.127602,0.0160217,-0.00659943,-0.00396729,-9.97986,0.177879,0.00587463,-0.118103,-0.461464,0.267906,-3.8147e-005,-0.00400543,-0.0639725
38,1,10.0097,0.000305176,0.00198364,-2.42623,0.0559862,-0.0747579,0.0550435,0.058153,-0.0922309,0.146844,-0.126377,-0.0813497,0.0939178,0.0229263,0.00244141,0.0136566,-0.102882,0.000457764,0.0050354,0.00312805,-9.97986,0.135841,-0.000305176,-0.111046,-0.436325,0.257759,-0.01297,-0.0138855,-0.0608444
38,2,10.0097,0.000915527,0.00228882,-2.42592,0.0559862,-0.0735371,0.0553487,0.0602892,-0.0922309,0.143792,-0.124851,-0.0813497,0.147285,0.0231552,0.00278473,0.0167465,-0.0712967,-0.00484467,0.021553,0.00583649,-9.97986,0.0629425,0.0043869,-0.0998688,-0.394516,0.23613,-0.0179291,-0.00118256,-0.0469589
38,3,10.0097,-0.000305176,0.00366211,-2.42623,0.055681,-0.0741475,0.054128,0.067003,-0.0931465,0.143182,-0.125156,-0.0819601,0.163155,0.0182343,-0.0043869,0.0126648,-0.0341415,-0.00411987,0.0383759,0.0111008,-9.97986,0.00881195,-0.000801086,-0.0936127,-0.353508,0.191078,-0.0306702,0.0118637,-0.0624847
38,4,10.0097,0.000915527,0.00457764,-2.42653,0.055681,-0.0744527,0.0529073,0.075548,-0.0928413,0.143792,-0.125461,-0.0816549,0.16201,0.0192642,-0.00164032,0.0144958,0.0259399,-0.0151825,0.0509262,0.0131226,-9.97986,-0.0340271,0.0050354,-0.113792,-0.310287,0.167732,-0.0370789,0.0250244,-0.108986
38,5,10.0097,0.0012207,0.0050354,-2.42959,0.0541551,-0.0753682,0.0538228,0.0810411,-0.0931465,0.143182,-0.125461,-0.0831808,0.142593,0.019989,0.000114441,0.0137329,0.114441,-0.0301361,0.063324,-0.000534058,-9.97986,-0.0692368,0.00873566,-0.13504,-0.259361,0.1614,-0.0437927,0.0388336,-0.0984955
38,6,10.0097,0.00213623,0.0050354,-2.42867,0.0547655,-0.0759786,0.0535176,0.0712755,-0.0961982,0.144708,-0.126682,-0.0850118,0.0738525,0.0339127,-0.000152588,0.0149155,0.20565,-0.0413513,0.0773621,-0.0082016,-9.97986,-0.0966263,0.00762939,-0.110168,-0.20401,0.154839,-0.0611496,0.0456619,-0.080986
38,7,10.0097,-0.000915527,0.00518799,-2.42867,0.0541551,-0.075063,0.0529073,0.0694445,-0.0971137,0.143792,-0.128208,-0.085317,0.0130081,0.0362778,0.00419617,0.0141907,0.252533,-0.0484467,0.0882339,-0.0075531,-9.97986,-0.0870132,0.00991821,-0.071373,-0.149841,0.14164,-0.0769043,0.0549316,-0.0852966
38,8,10.0097,0.00183105,0.00473022,-2.42867,0.0535448,-0.0762837,0.0519917,0.0679186,-0.0949775,0.143792,-0.126987,-0.0847066,-0.00530243,0.0367355,0.00465393,0.0115967,0.252533,-0.0492096,0.0938034,0.0101089,-9.97986,-0.0876617,0.0166702,-0.0416946,-0.0966644,0.11055,-0.0775909,0.0651169,-0.0568008
38,9,10.0097,0.000915527,0.00442505,-2.42837,0.0550706,-0.0756734,0.0535176,0.0682238,-0.0949775,0.144403,-0.127598,-0.0856222,-0.0661087,0.0374603,0.00354767,0.0134277,0.211525,-0.0535583,0.102577,0.0181198,-9.97986,-0.0579453,0.0178528,-0.0276566,-0.0592041,0.0893784,-0.0864792,0.0637817,-0.00591278
39,0,10.0097,-0.000610352,0.00274658,-2.42776,0.0535448,-0.0762837,0.0538228,0.0676134,-0.0934516,0.144708,-0.127292,-0.0859274,-0.0886154,0.0373459,0.00198364,0.0135422,0.1334,-0.0432587,0.102921,0.0174713,-9.97986,-0.00667572,0.0141907,-0.0168991,-0.0214767,0.0720215,-0.0775909,0.0662231,0.0209427
39,1,10.0097,0.000610352,0.00335693,-2.42898,0.055681,-0.0759786,0.0516866,0.0712755,-0.0946723,0.143487,-0.126682,-0.0850118,-0.0633621,0.0423431,-0.00408173,0.00938416,0.0616837,-0.0315094,0.10376,0.0133514,-9.97986,0.0423431,0.000190735,-0.0102615,0.0141907,0.0584793,-0.0680542,0.0702667,0.0169373
39,2,10.0097,0.0012207,0.00259399,-2.42837,0.0550706,-0.0741475,0.0526021,0.0706652,-0.0931465,0.145318,-0.126072,-0.0837911,-0.074501,0.0402451,0.000495911,0.00888824,0.0249481,-0.0188065,0.10273,0.0094986,-9.97986,0.0950623,-0.0106049,-0.0164032,0.0393677,0.0472641,-0.0598907,0.0749588,0.019455
39,3,10.0097,0.00152588,0.00259399,-2.42592,0.0553758,-0.0747579,0.054128,0.0715807,-0.0928413,0.144403,-0.126682,-0.0837911,-0.0408936,0.0482178,0.00465393,0.0123596,-0.00717163,-0.0111389,0.102196,0.00553131,-9.97986,0.132942,-0.00331879,-0.0193405,0.0617218,0.0428009,-0.0517654,0.0688934,-0.0146866
39,4,10.0097,0.000915527,0.00335693,-2.42776,0.055681,-0.0744527,0.0529073,0.0706652,-0.094062,0.142877,-0.125766,-0.0834859,-0.0114441,0.0538254,0.00564575,0.0137329,-0.0211716,-0.00976563,0.103798,0.0173187,-9.97986,0.164108,0.0110626,-0.0208664,0.0946426,0.0292969,-0.0444031,0.0564194,-0.0650024
39,5,10.0097,0.000610352,0.00183105,-2.42562,0.0559862,-0.0741475,0.0544332,0.0709703,-0.0928413,0.146539,-0.125156,-0.0813497,-0.0466537,0.0538254,0.00816345,0.0127029,-0.0209427,0.00198364,0.113182,0.0314713,-9.97986,0.184784,0.0246048,-0.0350571,0.106201,0.00644684,-0.0368118,0.0513077,-0.0986099
39,6,10.0097,0.0012207,0.00152588,-2.42562,0.0562914,-0.0729268,0.0544332,0.0712755,-0.0925361,0.145624,-0.124851,-0.0807394,-0.0853729,0.0648499,0.0128555,0.0116348,-0.0281143,0.021019,0.113411,0.0358963,-9.97986,0.190506,0.0223541,-0.0309753,0.116005,0.00152588,-0.021286,0.0500488,-0.108376
39,7,10.0097,0.00152588,0.00152588,-2.4247,0.0572069,-0.0747579,0.0544332,0.0709703,-0.0916206,0.146234,-0.124241,-0.0804342,-0.0488281,0.0670242,0.020256,0.0134277,-0.0391006,0.0339127,0.118752,0.0308609,-9.97986,0.183754,0.0143814,-0.0402451,0.13073,0.0120544,-0.0208664,0.0494385,-0.1194
39,8,10.0097,0,0.00106812,-2.4247,0.0562914,-0.0738423,0.054128,0.0706652,-0.0919257,0.146539,-0.124851,-0.0816549,-0.0104141,0.0759888,0.0321579,0.0100327,-0.0551605,0.0271988,0.115814,0.00984192,-9.97986,0.125389,0.0160599,-0.0522995,0.12867,0.0170135,-0.0149155,0.0463867,-0.150375
39,9,10.0097,0.000305176,0.000152588,-2.42531,0.0575121,-0.0723164,0.0553487,0.0694445,-0.0913154,0.146234,-0.123325,-0.0807394,-0.093689,0.0855255,0.0440598,0.0161362,-0.0519943,-0.00492096,0.122681,-0.0292587,-9.97986,0.0745773,0.0108719,-0.0463104,0.126038,0.0291824,-0.00656128,0.0458145,-0.158653
40,0,10.0097,-0.000305176,0.000305176,-2.42562,0.0553758,-0.0738423,0.054128,0.0688341,-0.0922309,0.146234,-0.12363,-0.0816549,-0.142708,0.0973511,0.0504303,0.0207901,-0.00339508,-0.0324631,0.117493,-0.0583267,-9.97986,0.0309372,0.0019455,-0.041275,0.130196,0.0209427,0.00339508,0.0341034,-0.168419
40,1,10.0097,0.000305176,-0.000457764,-2.42684,0.0565965,-0.0747579,0.0544332,0.0572374,-0.0919257,0.145013,-0.126072,-0.0816549,-0.0387955,0.101089,0.0528336,0.0242996,0.0286102,-0.0429916,0.11097,-0.0481033,-9.97986,-0.00274658,-0.00759125,-0.023613,0.129013,-0.00671387,0.00823975,0.0314713,-0.174561
40,2,10.0097,0,0.000305176,-2.42562,0.0562914,-0.0762837,0.0538228,0.0630358,-0.0910102,0.145624,-0.125156,-0.0831808,0.144157,0.0920105,0.0515747,0.0196457,0.0666046,-0.050087,0.108414,-0.0266266,-9.97986,-0.0340271,-0.00408173,-0.0205994,0.131531,-0.036087,0.00846863,0.0217819,-0.142822
40,3,10.0097,-0.0012207,0.000915527,-2.42745,0.0559862,-0.0738423,0.054128,0.0682238,-0.0919257,0.146539,-0.125766,-0.0825704,0.249939,0.0831985,0.0484848,0.0173187,0.135727,-0.0508118,0.0968552,-0.00648499,-9.97986,-0.0479889,-0.00858307,-0.0487518,0.151176,-0.0645828,0.00602722,0.00911713,-0.0905228
40,4,10.0097,0,0.00213623,-2.42745,0.0553758,-0.0741475,0.0553487,0.0734117,-0.0934516,0.144403,-0.124546,-0.0831808,0.179062,0.065918,0.0424576,0.0139618,0.205078,-0.0518799,0.0863647,0.0162888,-9.97986,-0.0829697,-0.00778198,-0.0286484,0.167046,-0.0909042,0.00282288,0.00350952,-0.0515747
40,5,10.0097,-0.00152588,0.00183105,-2.42806,0.0547655,-0.0753682,0.054128,0.080736,-0.0934516,0.143487,-0.127903,-0.0850118,0.0978088,0.036087,0.0314331,0.0104141,0.265732,-0.0658035,0.0733185,0.0191498,-9.97986,-0.134735,-0.00766754,0.00968933,0.177383,-0.0964737,0.00480652,0.000610352,-0.0474548
40,6,10.0097,0,0.00106812,-2.4305,0.0544603,-0.0759786,0.0522969,0.0728014,-0.0946723,0.142572,-0.126987,-0.0856222,0.0963211,0.0199127,0.0221634,0.0111008,0.321503,-0.0803757,0.0635529,0.0203323,-9.97986,-0.16201,-0.00362396,0.0382614,0.183067,-0.0878143,0.00724792,-0.0104904,-0.0785065
40,7,10.0097,-0.000610352,0.000915527,-2.42959,0.0550706,-0.0759786,0.0535176,0.0691393,-0.095893,0.143487,-0.126987,-0.0859274,0.0435638,0.0216675,0.0213242,0.0133896,0.325966,-0.0858688,0.053978,0.0146103,-9.97986,-0.163078,-0.00267029,0.0527573,0.201263,-0.0809479,0.0159836,-0.0235367,-0.107346
