
Devices
1200
,,BP Load cell - Voltage,String Length - Voltage,Clutch Active - Voltage,#7 iPecs - Voltage,,,,,,,,,EMG 1-8 Left - Voltage,,,,,,,,Pylon Force - Voltage,EMG 9-16 Right - Voltage,,,,,,,,
Frame,Sub Frame,BP Load Cell,String Length,From Arduino Logic,A45,A135,A225,A315,S0,S90,S180,S270,ZSum,EMG 1 Glut Max,EMG 2 Glut Med,EMG 3 Biceps Femoris Long,EMG 4 Rectus Femoris,EMG 5 Vastus Medialis,EMG 6 Tib Ant,EMG 7 Med Gas,EMG 8 Soleus,Pylon volts,EMG 9 Glut Max,EMG 10 Glut Med,EMG 11 Biceps Femoris Long,EMG 12 Rectus Femoris,EMG 13 Vastus Medialis,EMG 14 Tib Ant,EMG 15 Med Gas,EMG 16 Soleus
,,V,V,V,V,V,V,V,V,V,V,V,V,V,V,V,V,V,V,V,V,V,V,V,V,V,V,V,V,V
1,0,10.0097,0.00183105,-0.000305176,-2.42714,0.0535448,-0.0741475,0.0529073,0.07036,-0.0949775,0.145013,-0.126072,-0.0856222,0.0122833,0.0204086,0.0127792,0.00232697,0.0169754,0.00801086,0.0203323,0.0157928,-9.97986,0.0125122,0.00259399,0.0116348,0.00556946,0.0157928,-0.00801086,0.0139999,0.00587463
1,1,10.0097,-0.000610352,0.000457764,-2.42653,0.0559862,-0.0744527,0.0535176,0.0706652,-0.0931465,0.145624,-0.125461,-0.0834859,0.00888824,0.0178146,0.0197601,0.00278473,0.0194168,0.00782013,0.026474,0.0200272,-9.97986,0.0139999,0.00297546,0.0148392,0.00713348,0.0186539,-0.00453949,0.0150299,0.00583649
1,2,10.0097,0.00183105,0.000152588,-2.42684,0.0559862,-0.0753682,0.0519917,0.0715807,-0.0916206,0.145013,-0.124546,-0.0831808,0.00736237,0.0164795,0.0172424,0.00331879,0.017128,0.0120544,0.0370789,0.0206757,-9.97986,0.0151443,-0.000457764,0.0113678,0.00778198,0.0177765,-0.00968933,0.0138855,0.00461578
1,3,10.0097,0,-0.000762939,-2.4247,0.0550706,-0.0753682,0.054128,0.0709703,-0.0910102,0.147149,-0.125461,-0.0822652,0.00953674,0.0181198,0.0226212,0.0105286,0.0136948,0.00545502,0.038414,0.0206757,-9.97986,0.0121689,-0.000686646,0.0119019,0.00400543,0.0215912,-0.0159073,0.0181961,0.00659943
1,4,10.0097,0.00152588,0.000457764,-2.42562,0.0569017,-0.0729268,0.0544332,0.0706652,-0.0913154,0.145929,-0.124241,-0.0813497,0.0116348,0.0183105,0.0198746,0.00709534,0.016861,0.0160217,0.0358582,0.017395,-9.97986,0.0127792,-0.00526428,0.0127411,0.00717163,0.0209427,-0.0173569,0.0172424,0.00720978
1,5,10.0097,0.000305176,-0.00167847,-2.42714,0.0562914,-0.0747579,0.0522969,0.0242784,-0.0983344,0.145318,-0.128513,-0.0828756,0.013237,0.0163269,0.0240707,-0.0169373,0.0167465,0.0108337,0.0292969,0.0167084,-9.97986,0.0164413,-0.00255585,0.0131989,0.00946045,0.0198364,-0.0191116,0.0166321,0.00617981
1,6,2.5594,0.00152588,-0.00335693,-2.42714,0.0562914,-0.0738423,0.0510762,-0.0187513,-0.101386,0.145929,-0.130649,-0.0834859,0.0113678,0.0218201,0.0273895,-0.0156403,0.0192642,0.0110626,0.0325775,0.0195694,-9.97986,0.016861,-0.00404358,0.0137329,0.00751495,0.0182343,-0.0117493,0.0177383,0.00453949
1,7,-5.07457,0.000610352,-0.00396729,-2.42531,0.0562914,-0.073232,0.0535176,-0.0163099,-0.0968086,0.146539,-0.130649,-0.0819601,0.00900269,0.02388,0.0234604,-0.0159073,0.0209808,0.0117111,0.0282669,0.0146103,-9.97986,0.0170135,0.00595093,0.011673,0.0050354,0.0215912,0.000152588,0.0155258,0.00354767
1,8,-9.99003,0,-0.00488281,-2.42501,0.0562914,-0.0741475,0.055959,0.00505237,-0.0913154,0.146234,-0.128208,-0.0804342,0.0114059,0.0246811,0.0320816,-0.00389099,0.0210953,0.00835419,0.0303268,0.0213242,-9.97986,0.0119781,0.00297546,0.0125885,0.00465393,0.0146866,0.0019455,0.0178909,0.00453949
1,9,-9.99003,0,-0.00167847,-2.42501,0.0559862,-0.0738423,0.0562642,0.0398424,-0.0900947,0.145929,-0.126682,-0.0804342,0.00961304,0.0318527,0.0325012,0.030632,0.0196838,0.0124359,0.0301743,0.0226593,-9.97986,0.0115204,0.00259399,0.0121689,0.00598907,-0.00549316,0.00808716,0.0196838,0.00629425
2,0,-9.99003,-0.000305176,-0.000457764,-2.42653,0.0553758,-0.0744527,0.0550435,0.0560167,-0.090705,0.146234,-0.126377,-0.0825704,0.0069809,0.0386047,0.0288773,0.0205231,0.0182724,0.00961304,0.0279617,0.0233841,-9.97986,0.0111008,-0.000686646,0.0152588,0.00816345,-0.00682831,0.00553131,0.0168991,0.00495911
2,1,-9.99003,0.0012207,0,-2.42592,0.0559862,-0.0744527,0.0544332,0.0642565,-0.0913154,0.144708,-0.127292,-0.0816549,0.0116348,0.0363541,0.0327682,-0.00984192,0.0163651,0.012207,0.0281143,0.0250244,-9.97986,0.00972748,-0.00858307,0.0125885,0.00286102,-0.0114059,0.00179291,0.0157166,0.00331879
2,2,-9.99003,0,0.00137329,-2.42592,0.0547655,-0.0738423,0.0556539,0.0911119,-0.0882636,0.146234,-0.125156,-0.0831808,0.0110245,0.0442123,0.0335693,-0.00808716,0.0157928,0.0123978,0.0247574,0.0273895,-9.97986,0.0125504,-0.0025177,0.0133514,0.00766754,0.014801,0.00465393,0.0163269,0.00179291
2,3,-4.55668,-0.000610352,0.00396729,-2.42867,0.0538499,-0.0762837,0.0553487,0.134752,-0.0885688,0.145013,-0.123325,-0.0844015,0.0107193,0.0293732,0.0251007,0.00976563,0.0164032,0.0128937,0.0178146,0.0206757,-9.97986,0.014801,0.000419617,0.0150681,0.000648499,0.010376,0.00598907,0.0138474,0.00762939
2,4,2.25484,-0.000915527,0.00427246,-2.42806,0.0547655,-0.0759786,0.0547383,0.151842,-0.088874,0.143792,-0.120884,-0.0850118,0.0119019,0.0167084,0.0180817,0.0331497,0.0191116,0.0103378,0.0142288,0.0139236,-9.97986,0.0177002,-0.00652313,0.0176239,0.00728607,0.0165939,0.00751495,0.0183105,0.0101471
2,5,9.43776,0.000305176,0.00488281,-2.42867,0.0535448,-0.0756734,0.0529073,0.15642,-0.0885688,0.141961,-0.121189,-0.0856222,0.00789642,0.0138855,0.021553,0.0290298,0.0155258,0.0121307,0.0101852,0.00579834,-9.97986,0.0172806,-0.00259399,0.0136948,0.00782013,0.012207,0.00747681,0.0189209,0.00881195
2,6,10.0097,0.000610352,0.00213623,-2.43142,0.0535448,-0.0778096,0.0498555,0.108202,-0.0968086,0.142267,-0.125461,-0.0892843,0.0082016,0.0317383,0.0205994,0.019989,0.0157166,0.0112152,0.0106049,0.0136948,-9.97986,0.0167084,-0.00038147,0.0129318,0.00370026,0.00923157,0.00976563,0.0190735,0.00793457
2,7,10.0097,-0.000610352,0.00167847,-2.4305,0.0541551,-0.0759786,0.0513814,0.0850084,-0.0977241,0.142572,-0.126987,-0.0886739,0.00762939,0.0363159,0.0230026,0.0502777,0.0143051,0.0102615,0.00831604,0.0188828,-9.97986,0.0137329,-0.00335693,0.0117493,0.00434875,0.0105667,0.00804901,0.0157166,0.00862122
2,8,10.0097,0.000915527,-0.000305176,-2.42928,0.0538499,-0.0756734,0.0519917,0.077379,-0.095893,0.144708,-0.126072,-0.0868429,0.0087738,0.0306702,0.0154877,0.0576401,0.017662,0.0123215,0.0136185,0.0195313,-9.97986,0.0172806,0.000457764,0.0167847,0.00583649,0.0123978,0.00694275,0.0140762,0.00671387
2,9,10.0097,-0.000915527,-0.000457764,-2.42714,0.055681,-0.0744527,0.0535176,0.0728014,-0.0943672,0.144403,-0.126682,-0.0865377,0.01091,0.0199127,0.0146484,0.0461197,0.0170517,0.00892639,0.0176239,0.0215912,-9.97986,0.0161743,0.00141144,0.0145721,0.00404358,0.0157547,0.00312805,0.0137711,0.0094986
3,0,10.0097,0.000610352,0.000915527,-2.42806,0.0538499,-0.0753682,0.0535176,0.0731066,-0.0925361,0.144708,-0.125156,-0.0856222,0.0152206,0.0110626,0.0132751,0.0320053,0.0179672,0.0157547,0.0254822,0.0170517,-9.97986,0.0177383,0,0.0157928,0.00637054,0.0126266,-0.0019455,0.0122833,0.00679016
3,1,10.0097,0.000610352,0,-2.42745,0.0562914,-0.0747579,0.054128,0.0697496,-0.094062,0.146234,-0.126072,-0.0840963,0.0120544,0.0155258,0.0104141,0.0266266,0.0176239,0.0111771,0.0273132,0.0149536,-9.97986,0.0207901,0.000534058,0.0112915,0.00679016,0.0135422,0.00152588,0.0131226,0.00743866
3,2,10.0097,0.000305176,0.000610352,-2.42592,0.0547655,-0.0741475,0.0544332,0.0715807,-0.0916206,0.146234,-0.124851,-0.0831808,0.00873566,0.0245667,0.0100708,0.0210953,0.0169373,0.00953674,0.0290298,0.0139618,-9.97986,0.0118637,-0.0012207,0.0154114,0.00518799,0.0142288,0.00278473,0.0133896,0.00297546
3,3,10.0097,0.000305176,0.000457764,-2.42562,0.0553758,-0.0741475,0.0550435,0.072191,-0.0919257,0.146844,-0.123325,-0.0810445,0.0123978,0.0312805,0.00511169,0.0257874,0.0135422,0.0127029,0.0379944,0.018692,-9.97986,0.0162888,-0.000724792,0.0141525,0.00514984,0.0143814,0.00740051,0.0159836,0.00267029
3,4,10.0097,0.000610352,0.000152588,-2.42531,0.0559862,-0.0738423,0.0547383,0.0718859,-0.0913154,0.146539,-0.124546,-0.0810445,0.00923157,0.0251007,-0.00183105,0.0174332,0.0173187,0.0113297,0.0344849,0.0162888,-9.97986,0.0178528,0.00190735,0.0116348,0.00263214,0.0196075,0.00450134,0.0164413,0.00141144
3,5,10.0097,0,-0.00259399,-2.42623,0.0559862,-0.0738423,0.0529073,0.0230577,-0.0971137,0.146234,-0.128818,-0.0837911,0.00938416,0.0208282,-0.000915527,0.0108337,0.0157928,0.0164413,0.028801,0.0155258,-9.97986,0.0151062,-0.00164032,0.0108337,0.00259399,0.0162125,-0.00663757,0.0138474,0.00457764
3,6,2.58626,0.0012207,-0.00366211,-2.42684,0.055681,-0.0747579,0.0516866,-0.0178358,-0.101691,0.146234,-0.13126,-0.0828756,0.00823975,0.0217438,0.00217438,0.00732422,0.0165558,0.0117874,0.0301743,0.0197983,-9.97986,0.0163651,0.00205994,0.0162506,0.000801086,0.0152588,-0.00881195,0.0164413,0.00663757
3,7,-5.00407,0.00152588,-0.00411987,-2.42653,0.0565965,-0.0735371,0.054128,-0.0163099,-0.0952827,0.146234,-0.129734,-0.0819601,0.00869751,0.0203323,0.00720978,0.00839233,0.0141144,0.00598907,0.0216675,0.0169754,-9.97986,0.0117111,-0.00385284,0.0107193,0.00415802,0.0163269,-0.00835419,0.0153351,0.00640869
3,8,-9.99003,0.00152588,-0.00473022,-2.4247,0.0565965,-0.0738423,0.0550435,0.00535754,-0.0919257,0.146539,-0.128513,-0.0804342,0.00938416,0.019455,0.0149536,0.00934601,0.0205612,0.0115204,0.0198746,0.0199127,-9.97986,0.0144958,-0.00740051,0.0152588,0.00461578,0.0189972,-0.00862122,0.0146484,0.00747681
3,9,-9.99003,-0.000915527,-0.00137329,-2.42409,0.0569017,-0.0735371,0.0562642,0.0401476,-0.0894843,0.148065,-0.126072,-0.0804342,0.0088501,0.0213623,0.013504,0.0209808,0.0172806,0.0109863,0.0196457,0.0202179,-9.97986,0.0138855,-0.00991821,0.0131226,0.0037384,-0.00980377,-0.00259399,0.0140381,0.00904083
4,0,-9.99003,0.00152588,-0.000610352,-2.42592,0.0550706,-0.0744527,0.0547383,0.0566271,-0.0913154,0.145624,-0.126072,-0.0822652,0.00797272,0.0230026,0.0164032,0.0222397,0.0178528,0.0117111,0.0228119,0.0219727,-9.97986,0.0127411,-0.000724792,0.0147247,0.00778198,-0.00793457,0.000839233,0.013237,0.00530243
4,1,-9.99003,0.000915527,-0.000457764,-2.42653,0.0544603,-0.075063,0.0544332,0.0627306,-0.0922309,0.143792,-0.126072,-0.0825704,0.00766754,0.0218201,0.0157928,0.0170517,0.0146103,0.012207,0.0201797,0.021286,-9.97986,0.0174713,0.00511169,0.0162888,0.00461578,-0.0107956,0.00823975,0.0111771,0.00484467
4,2,-9.99003,-0.000305176,0.000457764,-2.42592,0.0550706,-0.0744527,0.055959,0.0923326,-0.088874,0.145013,-0.124241,-0.0828756,0.010376,0.0235367,0.0185776,0.0120926,0.0162506,0.0111771,0.0215912,0.0154114,-9.97986,0.01297,0.00610352,0.0157547,0.00385284,0.0157166,0.00606537,0.0141907,0.00976563
4,3,-4.18803,0,0.00488281,-2.42714,0.0547655,-0.0756734,0.0544332,0.132311,-0.0891792,0.144098,-0.12363,-0.0844015,0.010376,0.0277328,0.0151825,0.0112152,0.0151443,0.0105286,0.0205994,0.0170135,-9.97986,0.0165939,0.000915527,0.0128174,0.00667572,0.0104523,-0.00873566,0.0124741,0.00415802
4,4,2.53591,0.00183105,0.00457764,-2.42867,0.0541551,-0.0759786,0.0532125,0.150621,-0.0885688,0.145624,-0.121494,-0.085317,0.0082016,0.0252914,0.0186157,0.0122452,0.019722,0.010376,0.018158,0.0217819,-9.97986,0.0135422,-0.000495911,0.0135422,0.00152588,0.0112534,-0.01297,0.0168228,0.00637054
4,5,9.65901,0,0.00411987,-2.42928,0.0529344,-0.075063,0.0529073,0.155199,-0.088874,0.144403,-0.120884,-0.085317,0.0106812,0.0247192,0.0206757,0.00587463,0.015831,0.0115585,0.020256,0.0178909,-9.97986,0.0164795,-0.00576019,0.0202179,0.00724792,0.0109482,-0.00980377,0.0140381,0.00965118
4,6,10.0097,-0.000610352,0.00183105,-2.43081,0.0526292,-0.0762837,0.0504659,0.107897,-0.0980293,0.142877,-0.124546,-0.0889791,0.0125122,0.0251007,0.0187683,0.00720978,0.0191116,0.00968933,0.0193787,0.0165939,-9.97986,0.0174713,-0.00278473,0.0145721,0.00431061,0.0144958,-0.00850677,0.0141525,0.00492096
4,7,10.0097,0,0.000915527,-2.42989,0.0538499,-0.0771993,0.0504659,0.0840929,-0.0968086,0.143792,-0.127598,-0.0886739,0.0125885,0.0285721,0.0228882,0.00747681,0.0182724,0.0119781,0.0152969,0.021553,-9.97986,0.0138474,0.000457764,0.0154495,0.00774384,0.0151062,-0.00984192,0.0108719,0.0101471
4,8,10.0097,-0.000305176,-0.000152588,-2.42867,0.0550706,-0.075063,0.0519917,0.0767687,-0.0949775,0.143792,-0.126987,-0.0868429,0.00907898,0.0222397,0.0163651,0.00293732,0.0177383,0.0125122,0.0173569,0.0187302,-9.97986,0.0131989,0.00289917,0.0123596,0.00751495,0.0132751,-0.0037384,0.0110626,0.00965118
4,9,10.0097,0.000610352,0,-2.42776,0.0553758,-0.075063,0.0522969,0.072191,-0.0955879,0.145013,-0.126072,-0.0856222,0.0124741,0.0254059,0.0177383,-0.00221252,0.0169373,0.00869751,0.013504,0.0154877,-9.97986,0.0120544,0.0018692,0.0119781,0.00648499,0.0130081,0.00865936,0.0133896,0.0044632
5,0,10.0097,0.00213623,0.000305176,-2.42776,0.0547655,-0.075063,0.0538228,0.0709703,-0.0934516,0.144708,-0.125766,-0.0850118,0.0119781,0.0246811,0.0214005,0.00377655,0.0189209,0.00938416,0.0199127,0.016861,-9.97986,0.0138855,0.00476837,0.0126648,0.00556946,0.0137711,0.00957489,0.0156021,0.00869751
5,1,10.0097,0.0012207,0.000457764,-2.42684,0.0550706,-0.0747579,0.0535176,0.0706652,-0.0928413,0.145318,-0.125766,-0.0847066,0.0147629,0.0239944,0.0206375,0.00762939,0.018158,0.00965118,0.022316,0.0178146,-9.97986,0.0138092,0.000724792,0.0145721,0.00701904,0.0133896,0.0151443,0.0144196,0.00762939
5,2,10.0097,0.000610352,0.000457764,-2.42623,0.0559862,-0.0747579,0.0535176,0.0718859,-0.0928413,0.145929,-0.125766,-0.0825704,0.0123978,0.0240326,0.0226212,0.0116348,0.0193024,0.0133133,0.0214386,0.0170517,-9.97986,0.0159073,-0.00255585,0.0148392,0.00442505,0.0117874,0.0166321,0.0143433,0.0082016
5,3,10.0097,0.000915527,0.000457764,-2.42592,0.0562914,-0.0735371,0.0553487,0.0709703,-0.0925361,0.146234,-0.124546,-0.0816549,0.0117493,0.0277328,0.0167847,0.0131607,0.0175476,0.0141525,0.0201416,0.0153351,-9.97986,0.0120926,-0.00488281,0.0146484,0.00919342,0.0143433,0.0158691,0.0146866,0.0130081
5,4,10.0097,0.000610352,0.000610352,-2.42531,0.0572069,-0.0738423,0.0544332,0.0724962,-0.0913154,0.147149,-0.123935,-0.0813497,0.0156784,0.0247574,0.0193024,0.00953674,0.0203323,0.0107193,0.0270081,0.0162506,-9.97986,0.0141907,-0.0012207,0.00862122,0.00717163,0.0123596,0.00659943,0.0139618,0.010376
5,5,10.0097,0.000915527,-0.00213623,-2.42714,0.0553758,-0.0738423,0.0526021,0.0227526,-0.0980293,0.146539,-0.127903,-0.0834859,0.0104904,0.0273895,0.0209427,0.0116348,0.0175095,0.0133133,0.0273514,0.0229263,-9.97986,0.0158691,-0.00442505,0.0131989,0.00926971,0.0145721,0.00553131,0.0120163,0.00862122
5,6,2.51241,-0.00183105,-0.00488281,-2.42684,0.0550706,-0.075063,0.0513814,-0.0196669,-0.100165,0.146234,-0.129734,-0.0837911,0.0130844,0.0260162,0.0216675,0.00923157,0.0163269,0.0108337,0.0190735,0.0230408,-9.97986,0.0135803,-0.00728607,0.0161362,0.00595093,0.0106812,0.00431061,0.0154877,0.00545502
5,7,-5.12553,0.000305176,-0.00457764,-2.42592,0.0578172,-0.0735371,0.0538228,-0.0153944,-0.0961982,0.147149,-0.129734,-0.0828756,0.0133133,0.0282288,0.0233078,0.0107574,0.0165176,0.0107956,0.020752,0.0166321,-9.97986,0.0111389,-0.00549316,0.0130463,0.00751495,0.0163651,0.00141144,0.0147629,0.00541687
5,8,-9.99003,0.0012207,-0.00488281,-2.42318,0.055681,-0.0741475,0.0556539,0.00413684,-0.0916206,0.146539,-0.127598,-0.080129,0.00850677,0.0307846,0.0226593,0.0214767,0.0114822,0.0130844,0.0251389,0.0149536,-9.97986,0.0102615,-0.00328064,0.0128937,0.00423431,0.0154495,-0.00404358,0.0113297,0.0030899
5,9,-9.99003,-0.0012207,-0.00198364,-2.4247,0.0569017,-0.0744527,0.0565694,0.0398424,-0.0897895,0.146234,-0.126682,-0.0810445,0.00511169,0.0296021,0.0177383,0.0168228,0.0181961,0.00961304,0.0243378,0.019455,-9.97986,0.0137711,-0.00171661,0.0151062,0.00782013,-0.00957489,-0.00869751,0.0159454,0.00606537
6,0,-9.99003,0,-0.000915527,-2.42531,0.0553758,-0.0741475,0.0565694,0.0575426,-0.0913154,0.145318,-0.126072,-0.0816549,0.010643,0.026741,0.0220108,0.0143051,0.0199509,0.00614166,0.0242996,0.0164413,-9.97986,0.0148392,-0.000190735,0.0151062,0.00514984,-0.014267,-0.0113678,0.0147629,0.00709534
6,1,-9.99003,0.00183105,0.000610352,-2.42653,0.0547655,-0.0744527,0.0550435,0.0645616,-0.0900947,0.145013,-0.125461,-0.0834859,0.00854492,0.0246811,0.0264359,0.0143433,0.0133896,0.0132751,0.0225067,0.021553,-9.97986,0.0125504,0.00244141,0.0157547,0.0102234,-0.0124741,-0.0075531,0.0184631,0.00923157
6,2,-9.99003,-0.000305176,0.00106812,-2.42623,0.0544603,-0.0765889,0.0544332,0.0923326,-0.088874,0.145318,-0.124851,-0.0822652,0.0123978,0.0259399,0.0188828,0.0087738,0.0175858,0.0121307,0.0235367,0.018959,-9.97986,0.0144577,-0.00526428,0.0128937,0.00701904,0.0143814,-0.00530243,0.0147247,0.00629425
6,3,-4.37144,0.000305176,0.00427246,-2.42684,0.0550706,-0.075063,0.0550435,0.133531,-0.0876533,0.143792,-0.122715,-0.0837911,0.0141525,0.030365,0.0189209,0.00816345,0.0188446,0.0152969,0.0220108,0.0245285,-9.97986,0.0109482,0.000762939,0.017662,0.00930786,0.0125122,-0.00473022,0.0146103,0.00831604
6,4,2.44527,0.00274658,0.0038147,-2.42806,0.0538499,-0.0759786,0.0535176,0.152147,-0.0885688,0.144708,-0.121494,-0.0862325,0.01091,0.0394821,0.0201035,0.00583649,0.0199509,0.0100708,0.0226974,0.0248718,-9.97986,0.0140762,-0.0037384,0.0177765,0.0056076,0.0186539,-0.00305176,0.013504,0.00583649
6,5,9.61232,-0.000610352,0.00396729,-2.4305,0.0544603,-0.0756734,0.054128,0.155504,-0.0897895,0.143792,-0.122104,-0.085317,0.0117874,0.0275421,0.0217056,0.00553131,0.0207138,0.00751495,0.0297928,0.0193024,-9.97986,0.0129318,-0.00808716,0.0152588,0.00740051,0.0214005,-0.00255585,0.0143433,0.00469208
6,6,10.0097,0.00183105,0.00198364,-2.43142,0.0538499,-0.0762837,0.0504659,0.108507,-0.0961982,0.142572,-0.125156,-0.0889791,0.010643,0.0112152,0.0190735,0.0031662,0.0186157,0.00793457,0.0283051,0.0210571,-9.97986,0.0163651,-7.62939e-005,0.0157166,0.00789642,0.0164413,-0.00930786,0.0151443,0.00289917
6,7,10.0097,0.00244141,0.000762939,-2.42928,0.0535448,-0.0765889,0.0504659,0.0850084,-0.0980293,0.142877,-0.126682,-0.0880636,0.00823975,0.0148392,0.0201797,0.00663757,0.0177383,0.00968933,0.0278091,0.0200272,-9.97986,0.0128555,0.00175476,0.0151443,0.00659943,0.0202942,-0.015564,0.0137711,0
6,8,10.0097,-0.000305176,0.000152588,-2.42837,0.0535448,-0.0765889,0.0519917,0.075548,-0.0955879,0.142877,-0.125461,-0.0865377,0.0120926,0.0201035,0.0246811,0.00591278,0.0190735,0.0113297,0.0322342,0.0181198,-9.97986,0.0149536,-0.00370026,0.0109863,0.00782013,0.018959,-0.0140381,0.0142288,0.00244141
6,9,10.0097,0.000915527,0.000152588,-2.42806,0.0541551,-0.0747579,0.0516866,0.0724962,-0.094062,0.145013,-0.126987,-0.0859274,0.0104523,0.0246048,0.0214767,-0.00347137,0.0175476,0.0131989,0.0287247,0.021019,-9.97986,0.0075531,0.000686646,0.0127029,0.00617981,0.0178909,-0.0127411,0.0177765,0.00541687
7,0,10.0097,-0.00152588,-0.000610352,-2.42806,0.0547655,-0.0753682,0.0529073,0.0715807,-0.0937568,0.144708,-0.125461,-0.0840963,0.0136566,0.0321198,0.019455,0.0030899,0.0146103,0.00782013,0.02491,0.0154877,-9.97986,0.00984192,0.00476837,0.0127411,0.00595093,0.0196075,-0.0218201,0.0148773,0.00282288
7,1,10.0097,0,0.000305176,-2.42623,0.0553758,-0.075063,0.0526021,0.0709703,-0.0922309,0.145318,-0.124851,-0.0844015,0.00923157,0.0299454,0.0242615,0.00736237,0.0173187,0.00823975,0.018425,0.0188446,-9.97986,0.0164795,0.00301361,0.0136185,0.00343323,0.0148392,-0.0184631,0.0139236,0.00854492
7,2,10.0097,0,0.000152588,-2.42592,0.0559862,-0.0741475,0.0538228,0.0718859,-0.0913154,0.145624,-0.125766,-0.0831808,0.0119019,0.0401688,0.0231171,0.0128937,0.0201797,0.00713348,0.0131989,0.0148773,-9.97986,0.0104904,0.00709534,0.0118637,0.00263214,0.0203323,-0.0103378,0.0178146,0.0056076
7,3,10.0097,-0.000915527,0.000457764,-2.42562,0.0565965,-0.0747579,0.0547383,0.0706652,-0.090705,0.146844,-0.125156,-0.0813497,0.00865936,0.0459671,0.0244522,0.0228882,0.01297,0.0125885,0.0168991,0.0168228,-9.97986,0.0159836,0.00087738,0.0144958,0.0056839,0.0167847,0.000686646,0.0144958,0.00812531
7,4,10.0097,0.00213623,-0.000305176,-2.42531,0.0559862,-0.0738423,0.0538228,0.0718859,-0.0916206,0.146234,-0.125156,-0.0810445,0.00610352,0.039444,0.02491,0.0146484,0.0207138,0.00926971,0.0134659,0.0156403,-9.97986,0.0135803,0.00297546,0.0137329,0.00728607,0.00972748,0.0113297,0.0157166,0.00850677
7,5,10.0097,0.000610352,-0.00228882,-2.42623,0.0572069,-0.0747579,0.0532125,0.0242784,-0.0989448,0.146539,-0.128208,-0.0831808,0.00812531,0.0309753,0.0288773,0.0153351,0.0137711,0.0112915,0.0169373,0.0138474,-9.97986,0.0152969,-0.00133514,0.0147629,0.00476837,0.0119781,0.0160599,0.0104523,0.00576019
7,6,2.54201,0.000915527,-0.00427246,-2.42714,0.0553758,-0.0747579,0.0516866,-0.0175306,-0.0998603,0.146539,-0.129734,-0.0831808,0.0127029,0.0167847,0.0355911,0.0141525,0.016861,0.0103378,0.0258255,0.013504,-9.97986,0.016098,-0.00602722,0.0162888,0.00610352,0.0167084,0.0144196,0.0150299,0.00778198
7,7,-5.08708,0.000305176,-0.00457764,-2.42562,0.0575121,-0.0741475,0.0538228,-0.0160048,-0.0974189,0.146539,-0.130649,-0.0825704,0.00686646,0.00125885,0.0278854,0.00900269,0.0150299,0.00728607,0.0221634,0.0167465,-9.97986,0.0164795,-0.0123978,0.0127029,0.00740051,0.0168228,0.00946045,0.0167465,0.00350952
7,8,-9.99003,0,-0.00427246,-2.4244,0.0569017,-0.073232,0.0565694,0.00505237,-0.0925361,0.145318,-0.128208,-0.0807394,0.00728607,-0.00648499,0.0270844,0.00911713,0.016861,0.00858307,0.0202179,0.0123596,-9.97986,0.018692,-0.0102615,0.0140762,0.00301361,0.0140381,0.00385284,0.0143433,0.00419617
7,9,-9.99003,-0.000610352,-0.00167847,-2.4244,0.055681,-0.0735371,0.0553487,0.0395372,-0.0897895,0.145929,-0.126987,-0.0804342,0.00839233,-0.00957489,0.0249863,0.0150681,0.0180435,0.00545502,0.0239182,0.014267,-9.97986,0.0145721,-0.00541687,0.0131607,0.00350952,-0.00717163,-0.00152588,0.0128937,0.0050354
8,0,-9.99003,0.000305176,-0.000610352,-2.42531,0.055681,-0.0747579,0.0553487,0.0572374,-0.0900947,0.146539,-0.126682,-0.0813497,0.00881195,0.0038147,0.0200653,0.0110626,0.0113678,0.00720978,0.0247574,0.0148392,-9.97986,0.0167084,0.000343323,0.0169754,0.0069046,-0.00419617,-0.00453949,0.0183105,-0.000610352
8,1,-9.99003,-0.000610352,-0.000152588,-2.42684,0.0553758,-0.0753682,0.0538228,0.0639513,-0.0916206,0.143487,-0.126682,-0.0828756,0.0100708,0.00900269,0.0188828,0.00556946,0.0161362,0.0114059,0.0208282,0.0185394,-9.97986,0.0146866,0.000991821,0.014801,0.00831604,-0.00411987,-0.00865936,0.0171661,0.00556946
8,2,-9.99003,0.00244141,0.000915527,-2.42623,0.0544603,-0.0738423,0.0556539,0.0932482,-0.0891792,0.144708,-0.124851,-0.0825704,0.00957489,0.0139618,0.014801,0.00385284,0.0194931,0.0131607,0.0228882,0.021553,-9.97986,0.0146866,0.00385284,0.014534,0.0094986,0.019455,-0.0103378,0.0176239,0.00728607
8,3,-4.38579,-0.000610352,0.00411987,-2.42684,0.0538499,-0.075063,0.0550435,0.134142,-0.0882636,0.144403,-0.122715,-0.0844015,0.00541687,0.0127029,0.0075531,-0.00362396,0.0170135,0.00976563,0.019989,0.0223923,-9.97986,0.013237,0.00038147,0.0121689,0.00576019,0.0180054,-0.0117493,0.0139236,0.00495911
8,4,2.44893,-0.000305176,0.00411987,-2.42776,0.0538499,-0.0753682,0.0544332,0.151842,-0.088874,0.143487,-0.121189,-0.085317,0.0104904,0.0167465,0.0069046,0.00133514,0.0188065,0.0115585,0.0212097,0.0309753,-9.97986,0.0167465,-0.00148773,0.0167084,0.00659943,0.0147629,-0.00511169,0.016861,0.00553131
8,5,9.62697,-0.000305176,0.00442505,-2.42837,0.0541551,-0.0765889,0.0526021,0.156114,-0.0897895,0.144098,-0.121189,-0.0859274,0.01091,0.0201035,0.00774384,-0.00968933,0.0183868,0.0108337,0.0214767,0.0234604,-9.97986,0.0128937,-0.000114441,0.0120926,-0.00213623,0.0166321,-0.00419617,0.0204468,0.00614166
8,6,10.0097,0.000305176,0.00198364,-2.4305,0.0526292,-0.0768941,0.0510762,0.106066,-0.0965034,0.142572,-0.125461,-0.0886739,0.0101852,0.0178909,0.0100708,-0.014801,0.0162125,0.00534058,0.0221634,0.0218582,-9.97986,0.0144958,-0.00198364,0.0131989,0.00854492,0.017662,-0.00183105,0.0176239,0.00827789
8,7,10.0097,0.000915527,0.000457764,-2.4302,0.0541551,-0.0762837,0.0513814,0.0840929,-0.0983344,0.141351,-0.127292,-0.0886739,0.00930786,0.0227356,0.0141907,-0.0219727,0.0177765,0.0127411,0.0221252,0.0219345,-9.97986,0.014534,-0.0125122,0.0123215,0.00152588,0.0126266,0.00114441,0.0156403,0.00816345
8,8,10.0097,0.000305176,-0.000152588,-2.4305,0.0553758,-0.0765889,0.0519917,0.0770738,-0.0952827,0.144403,-0.126377,-0.0874532,0.0105667,0.0244141,0.0167847,-0.0289917,0.0180435,0.00846863,0.019455,0.0146484,-9.97986,0.0112915,-0.0200653,0.0122833,0.0037384,0.0138092,0.00457764,0.0171661,0.0094986
8,9,10.0097,-0.000305176,0.000457764,-2.42745,0.0541551,-0.0747579,0.0519917,0.0724962,-0.0934516,0.143792,-0.126682,-0.0859274,0.0120926,0.019989,0.00946045,-0.0234222,0.0163269,0.00774384,0.0200272,0.0127411,-9.97986,0.00953674,-0.0153351,0.0129318,0.00610352,0.0156403,-0.00087738,0.017128,0.00862122
9,0,10.0097,0,-0.000305176,-2.42867,0.0559862,-0.0747579,0.0532125,0.072191,-0.0949775,0.145929,-0.126682,-0.085317,0.00812531,0.0301743,0.0170135,-0.0159454,0.0170898,0.0107574,0.0201416,0.0102997,-9.97986,0.0144958,-0.010643,0.0138855,0.00305176,0.0159454,-0.00297546,0.0193405,0.00694275
9,1,10.0097,0.000610352,0.000152588,-2.42714,0.0547655,-0.0744527,0.054128,0.0706652,-0.0949775,0.146234,-0.125156,-0.0844015,0.0087738,0.0314331,0.0124359,0.0094223,0.0182343,0.011673,0.0107574,0.00907898,-9.97986,0.0123596,-0.00850677,0.01194,0.00087738,0.0101471,-0.00415802,0.014534,0.0063324
9,2,10.0097,-0.000610352,0.000457764,-2.42623,0.0562914,-0.0741475,0.0538228,0.0724962,-0.0925361,0.145624,-0.125766,-0.0837911,0.0127792,0.0276184,0.00789642,0.0385284,0.0197983,0.0062561,0.0164795,0.00831604,-9.97986,0.0134659,0.00217438,0.0163269,0.00350952,0.0140762,-0.00354767,0.0178146,0.00671387
9,3,10.0097,0.0012207,0.000152588,-2.42623,0.0569017,-0.073232,0.0529073,0.07036,-0.0919257,0.146539,-0.124851,-0.0810445,0.0101852,0.0201416,0.00392914,0.0416565,0.0189209,0.00679016,0.0172806,0.0128937,-9.97986,0.0140381,0.00816345,0.0175476,0.00240326,0.0146866,-0.00537872,0.0167084,0.00865936
9,4,10.0097,0.000610352,0.000305176,-2.42531,0.0559862,-0.0738423,0.0544332,0.0706652,-0.0919257,0.147149,-0.124241,-0.0816549,0.00812531,0.0176239,0.00495911,0.0465775,0.0191879,0.0125122,0.0224304,0.0135422,-9.97986,0.0181198,0.0044632,0.0151825,0.00541687,0.0139236,-0.00522614,0.0156021,0.00789642
9,5,10.0097,-0.0012207,-0.00244141,-2.42653,0.0565965,-0.0738423,0.0532125,0.0233629,-0.0980293,0.145624,-0.127903,-0.0828756,0.00991821,0.0281525,0.00354767,0.0643921,0.0182724,0.00530243,0.0196838,0.0128937,-9.97986,0.0153351,0.00228882,0.0171661,0.00583649,0.0127792,-0.00610352,0.0150681,0.00595093
9,6,2.49593,0.000305176,-0.0038147,-2.42623,0.0562914,-0.0738423,0.0529073,-0.0184462,-0.101386,0.146539,-0.130039,-0.0828756,0.0137329,0.0278854,0.00614166,0.0666046,0.0157166,0.00724792,0.0159836,0.014534,-9.97986,0.018959,0.00259399,0.0156784,0.00511169,0.0107574,-0.00259399,0.0185013,0.00770569
9,7,-5.16612,0.00152588,-0.00411987,-2.42562,0.0562914,-0.0738423,0.054128,-0.0166151,-0.0971137,0.146234,-0.130344,-0.0816549,0.0111771,0.0218964,0.0102234,0.0527191,0.0196075,0.00759125,0.0179672,0.0199127,-9.97986,0.0179291,-0.00232697,0.0140762,0.00720978,0.0138092,-0.00392914,0.0198746,0.00816345
9,8,-9.99003,0.00274658,-0.00411987,-2.42409,0.0565965,-0.0744527,0.0562642,0.00596789,-0.094062,0.14837,-0.127292,-0.0810445,0.0120926,0.0292587,0.0177383,0.0408936,0.0202179,0.0100327,0.0214386,0.0207901,-9.97986,0.0180435,-0.0123215,0.0208664,0.00480652,0.0141525,-0.00617981,0.0174713,0.00595093
9,9,-9.99003,0.00152588,-0.00152588,-2.4244,0.0559862,-0.0741475,0.0568746,0.0395372,-0.090705,0.145624,-0.125766,-0.0804342,0.0162888,0.0238037,0.02388,0.0211334,0.0138092,0.00850677,0.0192642,0.0170517,-9.97986,0.0143814,-0.00640869,0.0159836,0.000228882,-0.00946045,-0.019989,0.016861,0.00629425
10,0,-9.99003,0.000610352,-0.000457764,-2.42531,0.0550706,-0.0741475,0.0553487,0.0572374,-0.0900947,0.146234,-0.125766,-0.0822652,0.0127792,0.0304794,0.0270462,0.0155258,0.0188446,0.00846863,0.0212479,0.0170517,-9.97986,0.0139236,-0.0050354,0.0135803,0.00396729,-0.00782013,-0.0312805,0.0158691,0.00610352
10,1,-9.99003,0.00213623,0.000152588,-2.42562,0.0544603,-0.075063,0.0550435,0.0642565,-0.0916206,0.145318,-0.126072,-0.0828756,0.00801086,0.0291443,0.0252914,0.0144577,0.0196075,0.00946045,0.0211334,0.0187683,-9.97986,0.0180817,-0.00297546,0.0117493,0.00595093,-0.0122833,-0.0308228,0.0156021,0.00705719
10,2,-9.99003,0.000305176,0.000915527,-2.42501,0.0553758,-0.0747579,0.0556539,0.0923326,-0.0885688,0.144708,-0.124851,-0.0828756,0.00957489,0.0403595,0.0353241,0.0151825,0.0189972,0.00717163,0.022049,0.0199127,-9.97986,0.0168228,0.00370026,0.0194168,0.00591278,0.0154495,-0.0197983,0.0153351,0.00862122
10,3,-4.34123,0.000305176,0.00442505,-2.42837,0.0544603,-0.0756734,0.054128,0.132005,-0.0882636,0.144098,-0.122715,-0.0844015,0.00953674,0.0339508,0.03582,0.00911713,0.0184631,0.0108337,0.0170517,0.0160599,-9.97986,0.0136185,-0.0031662,0.0158691,0.0030899,0.0147629,-0.00621796,0.0140762,0.00858307
10,4,2.40376,-0.000305176,0.00473022,-2.42806,0.0529344,-0.0759786,0.0535176,0.152147,-0.088874,0.143792,-0.121799,-0.0840963,0.0105667,0.0390625,0.0407791,0.015831,0.0194931,0.0124359,0.0163651,0.0182343,-9.97986,0.0128555,0.00125885,0.015831,0.00389099,0.0141525,0.00915527,0.0198364,0.00766754
10,5,9.53389,0.0012207,0.00488281,-2.42867,0.0541551,-0.0765889,0.0535176,0.155504,-0.0900947,0.144098,-0.120578,-0.0859274,0.0118256,0.0391769,0.0466156,0.0157166,0.0178146,0.00865936,0.00495911,0.0176239,-9.97986,0.0195694,-0.00236511,0.0136185,0.00827789,0.011673,0.0115585,0.0138855,0.0100327
10,6,10.0097,0,0.00198364,-2.43172,0.0532396,-0.0762837,0.0504659,0.107897,-0.0971137,0.141961,-0.125156,-0.0889791,0.00919342,0.0370026,0.0438309,0.0127792,0.0167847,0.0088501,0.00865936,0.0146103,-9.97986,0.0105667,-0.0037384,0.016098,0.00522614,0.0109863,0.010376,0.0162888,0.00480652
10,7,10.0097,0.00152588,0.000457764,-2.42989,0.0523241,-0.0765889,0.0498555,0.0834825,-0.0968086,0.142267,-0.127292,-0.0877584,0.0069046,0.0369263,0.0424194,0.0166702,0.018959,0.0101471,0.0115204,0.0218582,-9.97986,0.0163651,0.00476837,0.0188065,0.00610352,0.013237,0.0139236,0.0183105,0.00911713
10,8,10.0097,0,-0.000457764,-2.42837,0.0550706,-0.0768941,0.0513814,0.0767687,-0.0952827,0.145013,-0.126682,-0.0871481,0.00907898,0.0260162,0.032959,0.0148773,0.0177002,0.00862122,0.0145721,0.0137329,-9.97986,0.0118256,-7.62939e-005,0.016098,0.00484467,0.0151062,0.0178528,0.0162125,0.00637054
10,9,10.0097,-0.000305176,-0.000152588,-2.42806,0.0550706,-0.075063,0.0522969,0.0731066,-0.0949775,0.144098,-0.127598,-0.085317,0.0132751,0.0280762,0.0240326,0.0113678,0.0172043,0.0120163,0.022583,0.0114822,-9.97986,0.0147629,0.0019455,0.0161362,0.00255585,0.0128555,0.0209808,0.0155258,0.00480652
11,0,10.0097,0,0.000305176,-2.42653,0.0541551,-0.0744527,0.0526021,0.0728014,-0.0931465,0.144403,-0.126377,-0.0847066,0.00988007,0.0261307,0.0132751,0.0124741,0.0199127,0.00770569,0.0307083,0.0115585,-9.97986,0.0187302,0.00415802,0.0150299,0.0044632,0.0135422,0.0193787,0.0185013,0.0107193
11,1,10.0097,0.000610352,0.000152588,-2.42684,0.0559862,-0.075063,0.0532125,0.0712755,-0.0931465,0.145624,-0.126377,-0.0840963,0.0117111,0.0136566,0.00427246,0.0146484,0.0149918,0.00812531,0.0236893,0.0125504,-9.97986,0.0160217,0.00370026,0.014534,0.00659943,0.016098,0.0133896,0.0142288,0.00602722
11,2,10.0097,0.00183105,0.000762939,-2.42623,0.0559862,-0.0744527,0.054128,0.0712755,-0.0922309,0.145624,-0.124851,-0.0822652,0.0118637,0.000991821,-0.00602722,0.0163651,0.0199509,0.00991821,0.0273514,0.0128174,-9.97986,0.0164032,0.0038147,0.0167465,0.00724792,0.0167847,0.0152588,0.0127792,0.00770569
11,3,10.0097,0.0012207,0.000610352,-2.42562,0.0562914,-0.0738423,0.0544332,0.0718859,-0.0919257,0.145624,-0.124241,-0.0819601,0.00652313,0.00423431,-0.0151825,0.0111771,0.0162125,0.00972748,0.0326157,0.0137711,-9.97986,0.0170898,0.00087738,0.0150681,0.00904083,0.0175476,0.00835419,0.0179672,0.00602722
11,4,10.0097,0.000305176,0.000305176,-2.42501,0.0562914,-0.0735371,0.0553487,0.0728014,-0.0922309,0.145624,-0.124241,-0.0810445,0.0107574,0.00564575,-0.0169754,0.00617981,0.0193024,0.00801086,0.0267792,0.0157166,-9.97986,0.0154495,-0.000267029,0.0158691,0.00812531,0.0148392,-0.00263214,0.0200653,0.0056076
11,5,10.0097,0.00152588,-0.00228882,-2.42562,0.0562914,-0.0738423,0.0529073,0.0236681,-0.0977241,0.145624,-0.127292,-0.0831808,0.0141525,0.00259399,-0.00896454,0.00553131,0.0179672,0.00717163,0.0177002,0.0161362,-9.97986,0.016861,-0.00297546,0.0149155,0.00629425,0.0181961,-0.0050354,0.0163651,0.00778198
11,6,2.2527,0,-0.00518799,-2.42684,0.0572069,-0.0741475,0.0513814,-0.0196669,-0.09925,0.145929,-0.130954,-0.0825704,0.0100708,0.0141144,-0.00267029,0.00217438,0.0196457,0.00553131,0.024147,0.00850677,-9.97986,0.0157547,-0.00377655,0.0129318,0.00324249,0.0143051,-0.0156021,0.0149536,0.0043869
11,7,-5.34099,0.0012207,-0.0038147,-2.42501,0.0565965,-0.0747579,0.0544332,-0.0169203,-0.0971137,0.145929,-0.129123,-0.0819601,0.0159836,0.0251389,0.0108719,0.00362396,0.0217819,0.0131226,0.0304413,0.0208664,-9.97986,0.0199127,-0.00175476,0.0205994,0.00648499,0.0221252,-0.00740051,0.0212479,0.0114059
11,8,-9.99003,0.000915527,-0.00473022,-2.4247,0.0569017,-0.0723164,0.0556539,0.00566272,-0.0931465,0.14776,-0.128208,-0.0804342,0.00747681,0.0138474,0.0125885,-0.0082016,0.0160599,0.00164032,0.020256,0.0135422,-9.97986,0.00972748,0.000572205,0.00915527,0.000839233,0.00663757,-0.0113297,0.0135422,0.00328064
11,9,-9.99003,0.000305176,-0.00198364,-2.4244,0.0565965,-0.0738423,0.0565694,0.0398424,-0.0910102,0.146234,-0.126072,-0.0804342,0.0120926,0.0206375,0.0252914,-0.00225067,0.0239944,0.0124359,0.0239182,0.0207138,-9.97986,0.0170135,0.0164795,0.0183868,0.00679016,-0.00389099,-0.00232697,0.0181961,0.00537872
12,0,-9.99003,-0.000915527,-0.000915527,-2.42562,0.0559862,-0.0753682,0.0556539,0.0587633,-0.0897895,0.145318,-0.126377,-0.0822652,0.00968933,0.0197983,0.0274658,-0.00331879,0.0202942,0.0117874,0.0245667,0.017128,-9.97986,0.0167847,0.0162125,0.0138092,0.00705719,-0.00587463,-0.00320435,0.0150299,0.00499725
12,1,-9.99003,0.000915527,0.000305176,-2.42653,0.0547655,-0.0747579,0.0547383,0.0627306,-0.0919257,0.145013,-0.125766,-0.0828756,0.00835419,0.0208664,0.0279236,0.000915527,0.0201797,0.0101852,0.0310898,0.0201797,-9.97986,0.0178146,0.0075531,0.0153351,0.00614166,-0.00415802,-0.00198364,0.0186157,0.00656128
12,2,-9.99003,0.0012207,0.000305176,-2.4247,0.0550706,-0.075063,0.0550435,0.0911119,-0.0891792,0.145624,-0.123935,-0.0828756,0.00881195,0.0195313,0.0246429,0.0162506,0.0157166,0.00686646,0.03479,0.0185776,-9.97986,0.0169754,0.000991821,0.014801,0.00389099,0.0235367,-0.00221252,0.0197983,0.00415802
12,3,-4.70653,-0.000305176,0.00366211,-2.42776,0.0550706,-0.0762837,0.0535176,0.133837,-0.0885688,0.143487,-0.123325,-0.0840963,0.0120926,0.0241089,0.0239944,0.0242233,0.0208664,0.0133514,0.03479,0.0200272,-9.97986,0.0162125,-0.0130081,0.0174332,0.00785828,0.0215149,-0.00156403,0.019989,0.00728607
12,4,2.13674,-0.000915527,0.00488281,-2.42714,0.0532396,-0.0759786,0.0550435,0.151537,-0.0882636,0.144403,-0.121494,-0.0840963,0.0117874,0.0242996,0.0246429,0.0209045,0.0179291,0.0134277,0.0282288,0.0159454,-9.97986,0.0131607,-0.0164032,0.0157166,0.00679016,0.0197601,-0.00305176,0.0151825,0.00507355
12,5,9.24367,0.000610352,0.00473022,-2.42898,0.0541551,-0.0756734,0.0529073,0.154588,-0.0897895,0.143792,-0.121799,-0.0862325,0.0133133,0.0197983,0.0230789,0.0192642,0.0187683,0.00984192,0.0321198,0.0175476,-9.97986,0.0170135,-0.00492096,0.0171661,0.00823975,0.0239944,0.00495911,0.0198746,0.0025177
12,6,10.0097,0,0.00167847,-2.43142,0.0535448,-0.0778096,0.0504659,0.109422,-0.0977241,0.142877,-0.124851,-0.0892843,0.00858307,0.0221634,0.0259399,0.0136185,0.0141144,0.0114059,0.0229263,0.0176239,-9.97986,0.0157547,-0.00682831,0.0126266,-0.00038147,0.0172043,0.00400543,0.0178528,0.00476837
12,7,10.0097,0.000915527,0.000915527,-2.43111,0.0535448,-0.0753682,0.0504659,0.0840929,-0.0955879,0.143182,-0.127598,-0.0883688,0.0109482,0.0266266,0.0283813,0.0094986,0.0161743,0.0126266,0.0250244,0.0208664,-9.97986,0.017395,0.000228882,0.014267,0.00965118,0.0144577,0.00385284,0.0167084,0.00728607
12,8,10.0097,-0.000305176,-0.000305176,-2.42837,0.0535448,-0.0756734,0.050771,0.0758531,-0.0961982,0.143792,-0.126377,-0.0871481,0.00774384,0.0238037,0.0251389,0.00637054,0.0200272,0.00766754,0.0239563,0.0302887,-9.97986,0.0153351,-0.000762939,0.0152588,0.00518799,0.0134277,0.00423431,0.0181961,0.00656128
12,9,10.0097,0.000305176,0.000305176,-2.42806,0.0544603,-0.0756734,0.0532125,0.0737169,-0.0949775,0.145013,-0.126682,-0.0865377,0.0104523,0.0239182,0.0173569,0.00873566,0.0154495,0.00972748,0.0188828,0.0301743,-9.97986,0.0130463,-0.00038147,0.0144577,0.00610352,0.0148392,0.00228882,0.0163269,0.00621796
13,0,10.0097,0.00305176,0,-2.42684,0.0547655,-0.075063,0.054128,0.0715807,-0.0937568,0.145318,-0.125461,-0.0844015,0.00972748,0.0252533,0.0173569,0.0110245,0.0173569,0.00823975,0.0143814,0.0304794,-9.97986,0.0139618,0.00125885,0.0152969,0.00675201,0.0130081,0.00225067,0.0176239,0.00854492
13,1,10.0097,0,-0.000305176,-2.42684,0.0544603,-0.0753682,0.0529073,0.0731066,-0.0946723,0.144708,-0.124241,-0.0840963,0.00965118,0.0270844,0.017128,0.0151443,0.022049,0.0102615,0.0127029,0.0252533,-9.97986,0.0168991,-0.000190735,0.0163269,0.00850677,0.0186157,-0.000686646,0.0163651,0.00782013
13,2,10.0097,-0.000305176,0.000610352,-2.42531,0.0550706,-0.0753682,0.0553487,0.0709703,-0.0934516,0.145318,-0.125766,-0.0834859,0.0102615,0.0244141,0.0117874,0.0104523,0.014534,0.00812531,0.00984192,0.0162888,-9.97986,0.015564,-0.000915527,0.0154877,0.00709534,0.0192642,-0.00396729,0.016861,0.0062561
13,3,10.0097,0.000610352,0.000457764,-2.42501,0.0559862,-0.0744527,0.0535176,0.072191,-0.0903999,0.145318,-0.124241,-0.0819601,0.0125885,0.0232315,0.0122452,0.0149918,0.0160599,0.01297,0.0130081,0.0222015,-9.97986,0.0115204,-0.000991821,0.0164032,0.0104141,0.0242996,-0.00534058,0.0175858,0.0050354
13,4,10.0097,0.000610352,0.000610352,-2.42501,0.0565965,-0.0744527,0.0547383,0.072191,-0.0910102,0.145624,-0.124546,-0.0807394,0.0131607,0.0243378,0.0156021,0.00469208,0.0203323,0.0122833,0.0167084,0.0136566,-9.97986,0.0121307,-0.00213623,0.0135422,0.00751495,0.0174332,-0.0193405,0.0200272,0.00514984
13,5,10.0097,0.00152588,-0.00167847,-2.42714,0.0565965,-0.075063,0.0516866,0.0230577,-0.0971137,0.145318,-0.127598,-0.0837911,0.0087738,0.0230789,0.0144577,-0.00823975,0.0149155,0.0115204,0.0200653,0.00804901,-9.97986,0.0153732,-0.00709534,0.0170517,0.00648499,0.0174713,-0.0333786,0.0141525,0.00732422
13,6,2.32595,-0.000915527,-0.00411987,-2.42684,0.0569017,-0.073232,0.0522969,-0.0193617,-0.100776,0.145013,-0.130039,-0.0831808,0.0126266,0.0269699,0.0123978,0.0128555,0.0152969,0.00576019,0.0224304,0.0114059,-9.97986,0.0153732,-0.000915527,0.0154877,0.0114441,0.0217438,-0.0246429,0.0156403,0.00595093
13,7,-5.31535,0,-0.00457764,-2.42592,0.0562914,-0.0741475,0.0535176,-0.0166151,-0.0955879,0.146844,-0.129734,-0.0825704,0.0104904,0.0230026,0.018425,0.0153351,0.014534,0.00751495,0.0252151,0.0150299,-9.97986,0.0145721,-0.00389099,0.0149918,0.00919342,0.0211334,-0.0218582,0.017128,0.00850677
13,8,-9.99003,0.000610352,-0.00396729,-2.42379,0.0565965,-0.0729268,0.0547383,0.00627307,-0.0922309,0.146844,-0.127598,-0.080129,0.0114441,0.0293732,0.0162506,0.0141144,0.0139999,0.0102615,0.031395,0.0110245,-9.97986,0.0175095,-0.00274658,0.0129318,0.00762939,0.0177765,-0.00907898,0.0135803,0.00839233
13,9,-9.99003,0.000305176,-0.00198364,-2.4244,0.0565965,-0.0735371,0.0568746,0.0416735,-0.0910102,0.145929,-0.126682,-0.0795187,0.01194,0.0318146,0.0156021,0.010376,0.013504,0.0120544,0.0294876,0.0158691,-9.97986,0.0173569,-0.000419617,0.0162888,0.0120163,-0.00362396,0.00152588,0.0176239,0.00312805
14,0,-9.99003,0.000915527,-0.000610352,-2.42531,0.0565965,-0.0756734,0.0556539,0.0572374,-0.0894843,0.145318,-0.126987,-0.0816549,0.0105286,0.0279617,0.0180817,0.00907898,0.0205231,0.0138474,0.0329208,0.0170135,-9.97986,0.00610352,0.00110626,0.0140381,0.00656128,-0.00255585,0.0120544,0.0156784,0.00347137
14,1,-9.99003,0.000305176,-0.000457764,-2.42653,0.0550706,-0.0741475,0.0535176,0.0642565,-0.0919257,0.144708,-0.126072,-0.0822652,0.0102615,0.0253677,0.0205231,0.00976563,0.0170135,0.0124359,0.0302505,0.0233078,-9.97986,0.0162506,0.00205994,0.0173569,0.0128937,-0.00411987,0.0137711,0.0164032,0.00450134
14,2,-9.99003,-0.00183105,0.000610352,-2.42653,0.0550706,-0.0747579,0.055959,0.0920275,-0.0885688,0.145318,-0.124851,-0.0831808,0.013504,0.0228119,0.0206757,0.00621796,0.0146484,0.0132751,0.0281525,0.0255203,-9.97986,0.0175858,0.0037384,0.0123596,0.0107193,0.0150681,0.012207,0.0153351,0.00652313
14,3,-4.57622,0,0.0038147,-2.42653,0.0538499,-0.0762837,0.0547383,0.133837,-0.0885688,0.144708,-0.121189,-0.0844015,0.0102234,0.0226593,0.0254059,0.0108337,0.0139236,0.0141144,0.0286484,0.0243378,-9.97986,0.0153732,0.000724792,0.0141525,0.0094986,0.0203323,0.00507355,0.0137329,0.00320435
14,4,2.26064,-0.000915527,0.00442505,-2.42745,0.0544603,-0.0756734,0.054128,0.151842,-0.0879585,0.143182,-0.121189,-0.0850118,0.0136185,0.0245285,0.0214005,0.01091,0.0159836,0.0121689,0.0318527,0.0263596,-9.97986,0.0159073,0.00087738,0.0134277,0.00900269,0.0197983,0.00415802,0.0168991,0.00465393
14,5,9.4164,-0.000610352,0.00473022,-2.42776,0.0541551,-0.0759786,0.054128,0.153978,-0.0900947,0.143792,-0.121494,-0.0859274,0.00827789,0.0248337,0.0217819,0.0123596,0.0192261,0.0153351,0.0261688,0.0180054,-9.97986,0.018425,0.000114441,0.0144958,0.00648499,0.0164032,3.8147e-005,0.0152588,0.00782013
14,6,10.0097,0.000610352,0.00213623,-2.43142,0.0532396,-0.0771993,0.0498555,0.108507,-0.0974189,0.141961,-0.124851,-0.0886739,0.0115967,0.0245285,0.0193024,0.00587463,0.0155258,0.00946045,0.0247192,0.0175858,-9.97986,0.014267,-0.00259399,0.0133133,0.00736237,0.0177383,0.00354767,0.0174332,0.00759125
14,7,10.0097,0.000915527,0.000457764,-2.43081,0.0550706,-0.0762837,0.0498555,0.0843981,-0.0965034,0.143487,-0.126072,-0.0883688,0.00995636,0.0191116,0.0180054,0.00915527,0.0162125,0.00862122,0.0207901,0.0179291,-9.97986,0.0177002,-0.00419617,0.0122833,-7.62939e-005,0.0177002,0.0044632,0.0157928,0.00644684
14,8,10.0097,-0.00183105,0.000457764,-2.42837,0.0535448,-0.0768941,0.0519917,0.075548,-0.0955879,0.143487,-0.126987,-0.0871481,0.0135803,0.023613,0.0212479,0.0187683,0.0172043,0.0121689,0.0224304,0.0189972,-9.97986,0.0173187,0.00667572,0.0170135,0.00751495,0.0196838,-0.00118256,0.0164413,0.00827789
14,9,10.0097,0,-0.000305176,-2.42837,0.0553758,-0.075063,0.0519917,0.0731066,-0.0952827,0.144098,-0.127292,-0.0859274,0.0151825,0.0180817,0.018692,0.0168991,0.0194931,0.0122452,0.0206757,0.0119781,-9.97986,0.0130844,-0.00038147,0.0157547,0.00793457,0.0157166,0.000724792,0.0172806,0.00915527
15,0,10.0097,0,0,-2.42623,0.0550706,-0.0753682,0.054128,0.0724962,-0.0946723,0.143182,-0.126377,-0.0850118,0.0113678,0.0215912,0.0206375,0.0168991,0.0177383,0.0136566,0.0185394,0.010376,-9.97986,0.0122452,-0.001297,0.0173187,0.00564575,0.0162506,0.00278473,0.0134277,0.00606537
15,1,10.0097,0.000915527,-0.000152588,-2.42714,0.055681,-0.0747579,0.0535176,0.0706652,-0.0934516,0.144403,-0.126072,-0.0847066,0.00968933,0.0230026,0.0196075,0.0120544,0.0176239,0.00835419,0.0167084,0.0212479,-9.97986,0.0117493,-0.000228882,0.0117111,0.00354767,0.0149536,7.62939e-005,0.014801,0.00648499
15,2,10.0097,0,-0.000152588,-2.42592,0.0547655,-0.0741475,0.0547383,0.0706652,-0.0934516,0.146844,-0.125156,-0.0837911,0.00865936,0.0261307,0.0202179,0.0056839,0.0156021,0.00923157,0.0190735,0.0242615,-9.97986,0.0178146,0.00469208,0.0102997,0.00545502,0.0215912,-0.00808716,0.0170517,0.00545502
15,3,10.0097,0.000610352,0.000152588,-2.42531,0.0562914,-0.0747579,0.054128,0.0724962,-0.0922309,0.146844,-0.124546,-0.0819601,0.0123596,0.0236893,0.0247955,0.00743866,0.0162506,0.0109482,0.0206375,0.0152206,-9.97986,0.0180054,0.00595093,0.0164795,0.00564575,0.0159073,-0.00411987,0.0161743,0.00759125
15,4,10.0097,0,-0.000457764,-2.42562,0.0562914,-0.0741475,0.0550435,0.0718859,-0.0919257,0.147149,-0.123325,-0.0813497,0.013237,0.0210953,0.0213242,0.00514984,0.0153732,0.00968933,0.0205612,0.0161362,-9.97986,0.0120163,0.00576019,0.0124741,0.00259399,0.0143051,-0.00713348,0.0197601,0.00801086
15,5,10.0097,0,-0.00198364,-2.42745,0.0559862,-0.0741475,0.0519917,0.0221422,-0.0980293,0.146234,-0.127903,-0.0825704,0.0141525,0.0252151,0.0203323,0.00816345,0.0139236,0.010643,0.019455,0.0151825,-9.97986,0.0148773,0.00461578,0.0174713,0.00740051,0.0162506,-0.00682831,0.018158,0.00938416
15,6,2.14406,-0.0012207,-0.00442505,-2.42714,0.0562914,-0.0738423,0.0519917,-0.0193617,-0.101386,0.146539,-0.130344,-0.0831808,0.00984192,0.0310898,0.0217438,0.00762939,0.0177002,0.0126266,0.021286,0.0161362,-9.97986,0.01194,0.00274658,0.0137711,0.00473022,0.0152206,-0.0056839,0.0173187,0.0114059
15,7,-5.54179,-0.00152588,-0.00457764,-2.42592,0.0562914,-0.0735371,0.0535176,-0.0150892,-0.0955879,0.146234,-0.130954,-0.0822652,0.00797272,0.0354004,0.0267029,0.00564575,0.0174713,0.0115967,0.0192261,0.0133133,-9.97986,0.0117111,-0.00648499,0.0112534,0.0043869,0.0170135,-0.00648499,0.0151825,0.00614166
15,8,-9.99003,0.00213623,-0.00442505,-2.42379,0.0565965,-0.0738423,0.055959,0.00535754,-0.0928413,0.147149,-0.127598,-0.080129,0.0125122,0.0401688,0.0207138,0.0127411,0.0168991,0.0127411,0.0229645,0.0124741,-9.97986,0.0162506,-0.0050354,0.0110245,0.00637054,0.0110626,-0.00267029,0.0175858,0.00656128
15,9,-9.99003,0.00152588,-0.00198364,-2.42562,0.0550706,-0.0738423,0.055959,0.0413683,-0.0900947,0.147149,-0.126987,-0.0804342,0.0134277,0.0260544,0.0221252,0.00961304,0.0162506,0.00999451,0.0163269,0.0154114,-9.97986,0.0135803,-0.000419617,0.00984192,0.00617981,-0.00400543,-0.00282288,0.0160217,0.00480652
16,0,-9.99003,-0.000610352,-0.000457764,-2.42592,0.0547655,-0.0747579,0.0553487,0.058153,-0.090705,0.146234,-0.125766,-0.0819601,0.0142288,0.0188065,0.0232697,0.01091,0.0185776,0.00896454,0.020752,0.0175858,-9.97986,0.0157547,0.00106812,0.0146103,0.00377655,-0.0103378,-0.00396729,0.0151443,0.00526428
16,1,-9.99003,-0.000610352,0.000610352,-2.42623,0.0547655,-0.0756734,0.054128,0.0633409,-0.0913154,0.145013,-0.126377,-0.0822652,0.0118637,0.0245667,0.0232697,0.00484467,0.0135422,0.00904083,0.0162506,0.0158691,-9.97986,0.0177765,-0.00244141,0.0157928,0.00526428,-0.00850677,0.000114441,0.0146484,0.0038147
16,2,-9.99003,0,0.000305176,-2.42562,0.0559862,-0.0747579,0.054128,0.0886705,-0.0882636,0.146234,-0.125766,-0.0831808,0.01194,0.0216293,0.0249863,0.00686646,0.0128937,0.0114441,0.0189972,0.0202179,-9.97986,0.0152969,-0.00125885,0.0120544,0.00404358,0.0121307,0.00144958,0.0182343,0.00514984
16,3,-5.12034,0.00152588,0.00427246,-2.42714,0.0535448,-0.0753682,0.0538228,0.133531,-0.0894843,0.143792,-0.12241,-0.0840963,0.00919342,0.025177,0.0209045,0.00530243,0.0134659,0.00888824,0.0200272,0.0211334,-9.97986,0.0171661,-0.00247955,0.0104523,0.00339508,0.0153351,-0.00415802,0.0157928,0.00350952
16,4,1.95302,-0.000610352,0.00442505,-2.42837,0.0538499,-0.0747579,0.0535176,0.150316,-0.0885688,0.143182,-0.122104,-0.0847066,0.0144577,0.0264359,0.0174713,0.00476837,0.0154877,0.00606537,0.0192642,0.0187302,-9.97986,0.0191498,0.000534058,0.0171661,0.00701904,0.0178528,-0.00671387,0.019722,0.00556946
16,5,9.05904,-0.000305176,0.00411987,-2.42776,0.0538499,-0.0765889,0.0535176,0.15642,-0.0897895,0.144708,-0.121189,-0.085317,0.0101471,0.0292969,0.0249481,0.0106049,0.018158,0.0110245,0.0141144,0.00511169,-9.97986,0.015831,-0.00480652,0.0114441,0.00606537,0.0145721,-0.00915527,0.0199509,0.00640869
16,6,10.0097,0.000610352,0.00259399,-2.43142,0.0526292,-0.0762837,0.050771,0.110338,-0.0974189,0.142267,-0.124851,-0.0892843,0.0130463,0.0298309,0.0274277,0.0094223,0.0166702,0.01091,0.0137711,0.00556946,-9.97986,0.0133133,-0.00511169,0.0133133,0.00423431,0.0152206,-0.00312805,0.0149536,0.00358582
16,7,10.0097,0.00183105,0.000152588,-2.42959,0.0541551,-0.0765889,0.0501607,0.0859239,-0.0980293,0.142267,-0.126682,-0.0880636,0.0117493,0.0309753,0.0291443,0.00858307,0.0201797,0.0131989,0.0162125,0.0193024,-9.97986,0.0172043,-0.00148773,0.0153351,0.00534058,0.0148773,-0.00427246,0.0157928,0.00583649
16,8,10.0097,0,-0.000610352,-2.42898,0.0541551,-0.0759786,0.0516866,0.0764635,-0.095893,0.143487,-0.127292,-0.0874532,0.00823975,0.0249863,0.0268936,0.00717163,0.0135803,0.00652313,0.0150299,0.0173569,-9.97986,0.0114822,-0.00534058,0.0125122,0.00484467,0.0142288,-0.00591278,0.0190353,0.00812531
16,9,10.0097,0.000305176,-0.000915527,-2.42684,0.0550706,-0.0753682,0.0532125,0.0728014,-0.094062,0.144098,-0.126072,-0.0859274,0.0150299,0.0215149,0.0244141,0.00747681,0.0149918,0.0101089,0.0104904,0.0183487,-9.97986,0.0138855,-0.00263214,0.0193787,0.00736237,0.0140381,-0.00907898,0.0131607,0.00953674
17,0,10.0097,0.000915527,0,-2.42806,0.0553758,-0.0762837,0.0535176,0.0718859,-0.0943672,0.144098,-0.126072,-0.0850118,0.0124359,0.0282669,0.0291824,0.00919342,0.0165176,0.00930786,0.0180817,0.0255585,-9.97986,0.0189972,-0.0044632,0.0180435,0.00846863,0.00968933,-0.00724792,0.0167847,0.00713348
17,1,10.0097,0.000305176,0.000305176,-2.42714,0.0553758,-0.075063,0.0544332,0.0712755,-0.0916206,0.145624,-0.125766,-0.0847066,0.00850677,0.0349808,0.0274277,0.0112152,0.0157928,0.0111771,0.0162888,0.0220871,-9.97986,0.0175858,-0.00232697,0.0146484,0.00621796,0.0117874,-0.00389099,0.0152969,0.0105286
17,2,10.0097,-0.000305176,0.000305176,-2.42592,0.0565965,-0.0741475,0.054128,0.0715807,-0.0925361,0.145318,-0.124241,-0.0822652,0.0138092,0.0342941,0.0234222,0.0134659,0.0178146,0.0128174,0.018692,0.0286102,-9.97986,0.0156403,-0.00488281,0.0153351,0.00778198,0.0167084,-0.00167847,0.018959,0.00671387
17,3,10.0097,-0.000610352,0.000305176,-2.42501,0.0559862,-0.0747579,0.0547383,0.0718859,-0.0928413,0.147455,-0.124851,-0.0819601,0.0120926,0.0274277,0.0162506,0.0174713,0.0175095,0.00610352,0.0237656,0.0235748,-9.97986,0.0168991,-0.00354767,0.01194,0.0019455,0.0182343,-0.00244141,0.0177383,0.00614166
17,4,10.0097,0.00213623,-0.000305176,-2.42531,0.0569017,-0.0735371,0.0547383,0.0724962,-0.0919257,0.146844,-0.12363,-0.0813497,0.0125885,0.0149536,0.0104904,0.0154495,0.0156021,0.0101471,0.0186539,0.0200272,-9.97986,0.0154114,-0.00217438,0.0120163,0.00350952,0.0173187,0.0100708,0.0177383,0.00587463
17,5,10.0097,-0.000915527,-0.00183105,-2.42592,0.0562914,-0.0747579,0.0513814,0.0242784,-0.0977241,0.146844,-0.127292,-0.0831808,0.0116348,0.0121689,0.00709534,0.0145721,0.0188065,0.0120544,0.0164413,0.0167084,-9.97986,0.0178528,-0.00144958,0.0148773,0.00427246,0.0165939,0.00846863,0.0149918,0.00602722
17,6,2.45259,0.00152588,-0.0038147,-2.42623,0.0569017,-0.0744527,0.0532125,-0.0184462,-0.09925,0.146844,-0.131565,-0.0825704,0.0108719,0.0101089,0.00450134,0.0152206,0.0153351,0.0100708,0.0279999,0.0175476,-9.97986,0.0219727,-0.00301361,0.00797272,0.00682831,0.0165939,0.0107193,0.021553,0.00720978
17,7,-5.2119,0.000915527,-0.00473022,-2.42592,0.0572069,-0.0741475,0.0532125,-0.0166151,-0.0974189,0.145624,-0.129429,-0.0819601,0.0109863,0.0152969,0.00736237,0.0108337,0.0200653,0.00892639,0.0245667,0.00572205,-9.97986,0.0170135,-0.00244141,0.0131226,0.00259399,0.0146484,0.00694275,0.0192642,0.00488281
17,8,-9.99003,0.000915527,-0.00427246,-2.4244,0.0572069,-0.0738423,0.0556539,0.00627307,-0.0928413,0.146539,-0.128513,-0.0807394,0.00961304,0.0185394,0.0125122,0.0103378,0.0178146,0.0104904,0.0250626,0.00534058,-9.97986,0.0196838,-0.00183105,0.0113297,0.00267029,0.00823975,0.00526428,0.0155258,0.00148773
17,9,-9.99003,0.0012207,-0.00152588,-2.4247,0.0559862,-0.0738423,0.0568746,0.0392321,-0.0900947,0.146844,-0.126072,-0.0804342,0.0112915,0.018425,0.0161362,0.0138474,0.0178909,0.0138092,0.0255203,0.0176239,-9.97986,0.0185776,-0.00102997,0.0120926,0.00839233,-0.0101089,0.00583649,0.0172043,0.00629425
18,0,-9.99003,0.00183105,-0.000762939,-2.42592,0.0553758,-0.0741475,0.0553487,0.0566271,-0.0910102,0.144708,-0.126072,-0.0819601,0.00667572,0.0111389,0.00652313,0.0100327,0.0157166,0.00881195,0.0209045,0.0156403,-9.97986,0.0164032,-0.001297,0.0112915,0.00751495,-0.0148392,0.0031662,0.0134659,0.00400543
18,1,-9.99003,0.000305176,0,-2.42592,0.0547655,-0.0756734,0.0538228,0.0642565,-0.0922309,0.145318,-0.125461,-0.0825704,0.0115585,0.0145721,0.0104141,0.0137329,0.019722,0.0108337,0.0220871,0.0197983,-9.97986,0.0151443,0.000152588,0.00801086,0.00431061,-0.01091,-0.00553131,0.0200272,0.0062561
18,2,-9.99003,0.0012207,0.000915527,-2.42531,0.055681,-0.0741475,0.0553487,0.0901964,-0.0891792,0.145929,-0.124241,-0.0825704,0.00701904,0.0244522,0.0118637,0.0112915,0.0151825,0.01091,0.0208282,0.0191498,-9.97986,0.0173187,-0.00244141,0.0117493,0.00595093,0.00904083,-0.0123978,0.0228882,0.00629425
18,3,-4.77946,-0.000610352,0.00411987,-2.42714,0.0550706,-0.0759786,0.0553487,0.134142,-0.0882636,0.145013,-0.12302,-0.0847066,0.0094223,0.0266266,0.0162506,0.0101089,0.0199509,0.00968933,0.0180054,0.0187683,-9.97986,0.0157166,-0.00770569,0.0123215,0.00507355,0.0127411,-0.0194931,0.0162506,0.00583649
18,4,2.24599,-0.000305176,0.00396729,-2.42776,0.0538499,-0.0759786,0.054128,0.151232,-0.0870429,0.143182,-0.122104,-0.0844015,0.0128555,0.018425,0.0152588,0.0130844,0.0179291,0.0115967,0.0222015,0.0177383,-9.97986,0.0139618,-0.00476837,0.0162125,0.00682831,0.0177765,-0.0201035,0.0208282,0.00617981
18,5,9.41915,0.000610352,0.00442505,-2.42806,0.0532396,-0.0762837,0.0535176,0.154894,-0.090705,0.144098,-0.121189,-0.0862325,0.0123215,0.0101471,0.0148773,0.0112152,0.0129318,0.0114822,0.0200272,0.0179672,-9.97986,0.0167084,-0.00400543,0.012207,0.00476837,0.0167084,-0.0127029,0.0191498,0.00534058
18,6,10.0097,-0.00183105,0.00244141,-2.43142,0.0529344,-0.0771993,0.0501607,0.108202,-0.0974189,0.142877,-0.124546,-0.0886739,0.0108337,0.0143814,0.0214386,0.0174713,0.0152588,0.01194,0.0177002,0.0168991,-9.97986,0.0135422,-0.001297,0.0134277,0.00274658,0.0130081,-0.00926971,0.0144958,0.00328064
18,7,10.0097,0.00274658,0.000305176,-2.43142,0.0538499,-0.0762837,0.0510762,0.0847032,-0.0971137,0.142572,-0.126682,-0.0886739,0.0102997,0.0181198,0.0191116,0.0134659,0.0173187,0.0104523,0.0197983,0.0204086,-9.97986,0.0120926,0.000534058,0.0144196,0.00808716,0.0131226,-0.00270844,0.0175858,0.00602722
18,8,10.0097,0.000305176,0.000152588,-2.42837,0.0550706,-0.0765889,0.0510762,0.0764635,-0.0949775,0.144403,-0.127598,-0.0871481,0.0144577,0.0266647,0.0249863,0.0136566,0.015831,0.00835419,0.0239944,0.0156403,-9.97986,0.0111771,0.000419617,0.0128937,0.000762939,0.0156021,0.00118256,0.0177765,0.0063324
18,9,10.0097,0.00152588,-0.000457764,-2.42714,0.055681,-0.0762837,0.0532125,0.0740221,-0.0934516,0.144098,-0.126377,-0.0859274,0.00934601,0.0352097,0.0263596,0.00926971,0.0170517,0.00629425,0.0290298,0.0158691,-9.97986,0.00892639,0.00648499,0.0133133,0.00396729,0.0174713,-0.000839233,0.0170517,0.00556946
19,0,10.0097,0.00152588,0.000152588,-2.42714,0.0535448,-0.0759786,0.0522969,0.07036,-0.0943672,0.145929,-0.125461,-0.0850118,0.0111389,0.0328827,0.0276184,0.0139999,0.0206375,0.0110245,0.022583,0.0200653,-9.97986,0.0121689,0.00816345,0.00984192,0.010376,0.014267,-0.00419617,0.0127411,0.00762939
19,1,10.0097,0.0012207,0.000610352,-2.42806,0.0553758,-0.0756734,0.0532125,0.0712755,-0.0937568,0.145013,-0.125766,-0.0840963,0.0100327,0.0364304,0.0235748,0.0153351,0.0172043,0.00976563,0.0235367,0.0197983,-9.97986,0.0110626,0.00831604,0.0131607,0.00476837,0.0128555,0.00087738,0.0150299,0.00598907
19,2,10.0097,0.00152588,0.000610352,-2.42531,0.0559862,-0.0738423,0.054128,0.0709703,-0.0913154,0.144098,-0.125461,-0.0825704,0.00427246,0.0270081,0.0278854,0.0139236,0.0178528,0.00907898,0.0201035,0.0169754,-9.97986,0.0115204,0.0056076,0.0155258,0.00904083,0.0165939,0.00171661,0.0157547,0.0056076
19,3,10.0097,0.000610352,0.000305176,-2.42623,0.0565965,-0.0738423,0.0547383,0.0737169,-0.0925361,0.147455,-0.124851,-0.0816549,0.00965118,0.0317001,0.0256348,0.0124741,0.0152588,0.00751495,0.0226212,0.0223541,-9.97986,0.00862122,0.00213623,0.0167084,0.00480652,0.0162506,0.00404358,0.014534,0.0025177
19,4,10.0097,0.000915527,-0.000152588,-2.42562,0.0559862,-0.0744527,0.0550435,0.0724962,-0.0922309,0.146844,-0.124546,-0.0804342,0.0101089,0.0288391,0.0226593,0.0162506,0.014534,0.0106049,0.0274658,0.0273895,-9.97986,0.0111008,0.00167847,0.0140381,0.0056076,0.0154877,0.00320435,0.0160599,0.00236511
19,5,10.0097,0,-0.00259399,-2.42592,0.0559862,-0.0744527,0.0522969,0.0236681,-0.0971137,0.144708,-0.127903,-0.0844015,0.00789642,0.0242615,0.0217056,0.0187683,0.0131989,0.0122833,0.0211334,0.0287628,-9.97986,0.013504,-0.00244141,0.0105667,0.00476837,0.0178528,-0.00110626,0.0130081,0.00392914
19,6,2.29085,0,-0.00411987,-2.42714,0.055681,-0.073232,0.0526021,-0.0208876,-0.0998603,0.147149,-0.130344,-0.0831808,0.0110245,0.0329208,0.0217056,0.0144577,0.0147247,0.0137711,0.0183105,0.0268555,-9.97986,0.0104523,-0.0111771,0.0137329,0.0069046,0.0204849,-0.00179291,0.0131607,0.00614166
19,7,-5.36937,0.0012207,-0.00442505,-2.42562,0.0572069,-0.0735371,0.0550435,-0.0172255,-0.0971137,0.148675,-0.130649,-0.0816549,0.00507355,0.0244904,0.0201797,0.0130463,0.0198364,0.0104141,0.0165939,0.0194931,-9.97986,0.0108719,-0.0117493,0.0133896,0.00465393,0.0135422,-0.00534058,0.0166702,0.0101471
19,8,-9.99003,0,-0.00488281,-2.42409,0.0565965,-0.0744527,0.0562642,0.00657824,-0.0925361,0.147149,-0.127903,-0.0804342,0.00816345,0.022049,0.0177383,0.0128555,0.0151062,0.00926971,0.0162888,0.0179672,-9.97986,0.0122833,-0.0101471,0.0166702,0.00431061,0.00499725,-0.000228882,0.015831,0.00663757
19,9,-9.99003,-0.000305176,-0.000915527,-2.4247,0.0559862,-0.0738423,0.0571797,0.0404528,-0.0897895,0.145318,-0.126987,-0.0798238,0.0139236,0.017662,0.0170517,0.0113678,0.0178528,0.00930786,0.0144958,0.0183105,-9.97986,0.0115967,-0.00312805,0.0119019,0.00827789,-0.0129318,-0.00354767,0.0134277,0.00526428
20,0,-9.99003,0.0012207,-0.000152588,-2.42653,0.055681,-0.0747579,0.0553487,0.0578478,-0.0910102,0.145318,-0.125156,-0.0822652,0.00953674,0.0243378,0.0170898,0.0101471,0.0197983,0.00720978,0.0156403,0.0111008,-9.97986,0.0114441,-0.00450134,0.0143814,0.00682831,-0.0117874,-0.00152588,0.0154114,0.00518799
20,1,-9.99003,0.0012207,0.000152588,-2.42592,0.0559862,-0.0744527,0.0556539,0.0645616,-0.0922309,0.144098,-0.126377,-0.0828756,0.0121689,0.0253677,0.0146866,0.0107193,0.0185394,0.0127411,0.0223541,0.00682831,-9.97986,0.0126266,0.00156403,0.0127792,0.00682831,-0.00827789,-0.000610352,0.0137711,0.00404358
20,2,-9.99003,0.000305176,0.000915527,-2.42562,0.0553758,-0.075063,0.0568746,0.0920275,-0.0894843,0.145318,-0.124241,-0.0828756,0.0120163,0.0270844,0.0175858,0.0123978,0.0196457,0.00965118,0.0244522,0.0122452,-9.97986,0.0122452,-0.00488281,0.0124741,0.00637054,0.013237,0.00377655,0.014534,0.00499725
20,3,-4.96135,0.000610352,0.00442505,-2.42745,0.0523241,-0.0765889,0.054128,0.134752,-0.0870429,0.144098,-0.12241,-0.0840963,0.0134277,0.0301361,0.017662,0.0125885,0.0187302,0.00934601,0.0287628,0.0130081,-9.97986,0.0127411,-0.00736237,0.0183868,0.0107574,0.0105286,0.00614166,0.0151062,0.00286102
20,4,2.11537,0.000305176,0.00396729,-2.42714,0.0538499,-0.075063,0.054128,0.151232,-0.0882636,0.143182,-0.12241,-0.0847066,0.00850677,0.0233078,0.0125122,0.0121307,0.0165939,0.0133514,0.0256729,0.0104141,-9.97986,0.0142288,-0.00259399,0.0118637,0.0094986,0.0135422,0.00541687,0.0154114,0.00488281
20,5,9.24672,0,0.00427246,-2.42837,0.0535448,-0.0753682,0.0526021,0.153978,-0.0897895,0.143182,-0.120884,-0.0865377,0.0139999,0.0238419,0.0141907,0.0149918,0.0186539,0.0136566,0.0277328,0.0155258,-9.97986,0.0193787,0.00507355,0.0167847,0.00816345,0.0169754,0.00965118,0.0162125,0.00583649
20,6,10.0097,-0.000610352,0.00244141,-2.43203,0.0535448,-0.0768941,0.04894,0.108507,-0.0971137,0.143792,-0.125766,-0.0895895,0.00980377,0.0200272,0.0130844,0.0102615,0.014534,0.00679016,0.0322723,0.0151443,-9.97986,0.0128555,-0.000267029,0.00999451,0.00858307,0.0172043,0.00751495,0.0146484,0.00282288
20,7,10.0097,0,0.000305176,-2.42989,0.0538499,-0.0762837,0.050771,0.0862291,-0.0971137,0.143487,-0.125766,-0.0880636,0.0108719,0.0282669,0.0149536,0.00923157,0.016861,0.0144577,0.0313187,0.0173187,-9.97986,0.0118256,-0.00190735,0.0150299,0.00782013,0.0178146,0.00244141,0.0160599,0.00534058
20,8,10.0097,-0.000610352,0,-2.42928,0.0541551,-0.0756734,0.0513814,0.0767687,-0.095893,0.143792,-0.126377,-0.0862325,0.00774384,0.0397491,0.0101852,0.00862122,0.0162125,0.00865936,0.0286484,0.0214767,-9.97986,0.0177002,-0.00293732,0.0120163,0.00694275,0.0193787,0.00366211,0.014534,0.00579834
20,9,10.0097,0.000305176,-0.000152588,-2.42806,0.0547655,-0.075063,0.0516866,0.0743273,-0.094062,0.143792,-0.126987,-0.0859274,0.00907898,0.030365,0.00778198,0.0120163,0.0167465,0.011673,0.0271606,0.0130081,-9.97986,0.0151825,-0.00164032,0.0154495,0.00968933,0.0148392,-0.00331879,0.0147247,0.00411987
21,0,10.0097,0.0012207,-0.000457764,-2.42745,0.0559862,-0.0744527,0.0532125,0.0712755,-0.094062,0.144098,-0.125461,-0.0844015,0.0075531,0.000534058,0.0100708,0.00812531,0.018692,0.00709534,0.0273895,0.0171661,-9.97986,0.0131989,0.00217438,0.0104904,0.0113297,0.0170898,-0.0012207,0.0115204,0.00148773
21,1,10.0097,-0.000305176,-0.000152588,-2.42745,0.0547655,-0.075063,0.0535176,0.07036,-0.0931465,0.145624,-0.126072,-0.085317,0.0111771,-0.00450134,0.0101471,0.00576019,0.0192642,0.00270844,0.0271225,0.0213623,-9.97986,0.0130081,0.00789642,0.011673,0.0088501,0.0157928,-0.00518799,0.0135422,0.00114441
21,2,10.0097,0.00244141,-0.000305176,-2.42531,0.055681,-0.0738423,0.0535176,0.072191,-0.0928413,0.146844,-0.124546,-0.0831808,0.0130081,0.00598907,0.0143433,0.00587463,0.0163269,0.00888824,0.029068,0.0144958,-9.97986,0.0143051,0.00602722,0.0130081,0.00732422,0.0215149,-0.0139618,0.0160599,0.00427246
21,3,10.0097,-0.0012207,0,-2.42592,0.0553758,-0.0741475,0.0535176,0.0718859,-0.0913154,0.145624,-0.124546,-0.0816549,0.00984192,0.00728607,0.0144196,0.00705719,0.0141144,0.0107956,0.032196,0.0169373,-9.97986,0.0148773,0.00232697,0.0112915,0.00705719,0.0181961,-0.0213623,0.0132751,0.00442505
21,4,10.0097,-0.000305176,0.000762939,-2.42501,0.0562914,-0.0741475,0.0550435,0.0728014,-0.0916206,0.146844,-0.124241,-0.0816549,0.013504,0.0195313,0.0193024,0.0122833,0.0153732,0.0069809,0.0320816,0.0193787,-9.97986,0.0149536,-3.8147e-005,0.0143051,0.00495911,0.0199127,-0.025444,0.0147247,0.00545502
21,5,10.0097,0.000610352,-0.0012207,-2.42745,0.0562914,-0.0747579,0.0526021,0.0239733,-0.0974189,0.146844,-0.126987,-0.0825704,0.0135422,0.0150299,0.0183105,0.0186157,0.017128,0.00934601,0.0268173,0.0194168,-9.97986,0.0151443,-0.00221252,0.0122452,0.0109863,0.0172043,-0.0196457,0.0126266,0.00694275
21,6,2.36501,-0.000915527,-0.00396729,-2.42684,0.0559862,-0.0735371,0.0513814,-0.0184462,-0.100165,0.145929,-0.130954,-0.0834859,0.0135803,0.0197601,0.0220108,0.0179291,0.0151825,0.00938416,0.0305176,0.0183105,-9.97986,0.0149918,-0.00453949,0.016861,0.00988007,0.024147,-0.00667572,0.0150681,0.00724792
21,7,-5.35228,0.00183105,-0.00427246,-2.42531,0.0569017,-0.0741475,0.0553487,-0.0150892,-0.0974189,0.146844,-0.130649,-0.0816549,0.0075531,0.0201797,0.0181198,0.0102997,0.0211334,0.00980377,0.0243759,0.0172424,-9.97986,0.0101852,-0.0088501,0.0123215,0.00854492,0.0209808,-0.00747681,0.014801,0.00804901
21,8,-9.99003,0,-0.00350952,-2.42379,0.0565965,-0.0735371,0.0562642,0.00688342,-0.0928413,0.147455,-0.127903,-0.080129,0.0146866,0.0226212,0.0214386,0.0141144,0.0180817,0.010376,0.0223541,0.0160217,-9.97986,0.0182343,-0.00972748,0.0123215,0.00999451,0.0169754,0.00209808,0.0138855,0.00869751
21,9,-9.99003,-0.000305176,-0.00106812,-2.4247,0.0572069,-0.0735371,0.055959,0.0413683,-0.090705,0.148065,-0.126072,-0.0810445,0.00835419,0.0255203,0.0237274,0.0144958,0.0201797,0.0094986,0.0220108,0.0178909,-9.97986,0.0160599,-0.00740051,0.0129318,0.00602722,-0.00171661,0.00637054,0.0128555,0.00511169
22,0,-9.99003,-0.000610352,-0.000610352,-2.42562,0.0547655,-0.0744527,0.0562642,0.058153,-0.0903999,0.144708,-0.124851,-0.0813497,0.0140381,0.0225449,0.0196838,0.0136185,0.0154495,0.0141525,0.0214005,0.0164795,-9.97986,0.014534,-0.00785828,0.0143433,0.00743866,-0.000267029,0.00289917,0.0157928,0.00865936
22,1,-9.99003,0.0012207,0.000305176,-2.42592,0.0553758,-0.0753682,0.0547383,0.0630358,-0.0928413,0.145624,-0.125156,-0.0831808,0.0105667,0.026207,0.0187683,0.0133896,0.0189209,0.0102234,0.0189209,0.0174713,-9.97986,0.0170517,-0.00133514,0.0163269,0.0137711,-0.00331879,-0.000343323,0.0136185,0.00553131
22,2,-9.99003,0.000305176,0.000915527,-2.42562,0.0550706,-0.0735371,0.055959,0.0911119,-0.0891792,0.144708,-0.124241,-0.0825704,0.0107956,0.0263214,0.019455,0.0148392,0.0210953,0.0119781,0.0214005,0.0169373,-9.97986,0.0107193,-0.00549316,0.0168228,0.00556946,0.021286,-0.000343323,0.0153351,0.00797272
22,3,-4.93846,0.000915527,0.00427246,-2.42714,0.0532396,-0.0765889,0.0556539,0.134447,-0.0873481,0.144098,-0.12302,-0.0831808,0.0117111,0.02388,0.0153351,0.0151443,0.0176239,0.0087738,0.0183105,0.0214005,-9.97986,0.0141525,-0.00434875,0.0107193,0.00846863,0.022316,0.000839233,0.0144196,0.00835419
22,4,2.21334,0.000610352,0.00396729,-2.42776,0.0544603,-0.0756734,0.0532125,0.151842,-0.0894843,0.143792,-0.121189,-0.0850118,0.00789642,0.0232697,0.0161743,0.00617981,0.0196075,0.0121689,0.0186157,0.0179672,-9.97986,0.013237,-0.00522614,0.0111008,0.0101089,0.0180817,0.0056076,0.0151825,0.00816345
22,5,9.32637,0.000305176,0.00518799,-2.42745,0.0535448,-0.0753682,0.0532125,0.155504,-0.0900947,0.144403,-0.120884,-0.085317,0.0128174,0.0245285,0.0191498,0.00556946,0.0179291,0.0105667,0.0149918,0.0175095,-9.97986,0.0127411,0.00205994,0.012207,0.01091,0.0197601,0.00572205,0.0160599,0.00679016
22,6,10.0097,0.00244141,0.00228882,-2.43142,0.0529344,-0.0771993,0.0495503,0.108507,-0.0971137,0.142877,-0.126377,-0.0883688,0.00926971,0.0263977,0.0230408,0.00225067,0.0146484,0.00682831,0.0148392,0.0164795,-9.97986,0.0123215,-0.00301361,0.0122833,0.0082016,0.0170517,0.000190735,0.0169754,0.00659943
22,7,10.0097,0,0.000305176,-2.42989,0.0544603,-0.0768941,0.0492452,0.0840929,-0.0974189,0.143487,-0.126377,-0.0892843,0.0124741,0.030899,0.0255585,0.00610352,0.0183868,0.0103378,0.0131226,0.0175476,-9.97986,0.0126648,0.000686646,0.0173187,0.0125122,0.0209808,0.00202179,0.0122452,0.00553131
22,8,10.0097,0.0012207,-0.000305176,-2.42898,0.0535448,-0.0747579,0.0510762,0.077379,-0.095893,0.143182,-0.127292,-0.0871481,0.00919342,0.0259399,0.0216293,-0.000305176,0.0166702,0.0114441,0.0136948,0.0191498,-9.97986,0.0149536,0.00137329,0.0128937,0.0088501,0.0177383,-0.0025177,0.0162506,0.00629425
22,9,10.0097,0.00152588,-0.000457764,-2.42837,0.0538499,-0.0747579,0.0535176,0.0724962,-0.0943672,0.144403,-0.126987,-0.0862325,0.0088501,0.0332642,0.0241852,0.0069809,0.0157547,0.00911713,0.0179672,0.018425,-9.97986,0.0110626,0.00686646,0.00862122,0.00831604,0.0133133,-0.000648499,0.0158691,0.00595093
23,0,10.0097,0.00183105,-0.000152588,-2.42837,0.0547655,-0.075063,0.0538228,0.0709703,-0.0931465,0.145318,-0.125461,-0.0840963,0.0122833,0.0267029,0.02285,0.0183105,0.0164795,0.00946045,0.0225067,0.0193787,-9.97986,0.0144196,0.00640869,0.0130844,0.0144196,0.0151825,-0.000534058,0.0185394,0.00808716
23,1,10.0097,0.000610352,-0.000152588,-2.42714,0.0547655,-0.0759786,0.0532125,0.0688341,-0.0931465,0.145013,-0.125156,-0.0837911,0.0115967,0.0307465,0.0240326,0.0226593,0.017662,0.00873566,0.0190353,0.0130463,-9.97986,0.0139999,0.00190735,0.0156403,0.0109482,0.0178146,0.00408173,0.0159836,0.00957489
23,2,10.0097,0.000915527,0.000152588,-2.42623,0.0553758,-0.0744527,0.0538228,0.0712755,-0.0931465,0.146234,-0.124546,-0.0828756,0.0082016,0.0312805,0.0246429,0.0251389,0.0170135,0.0108337,0.0209808,0.0169754,-9.97986,0.0144196,0.0148392,0.0165176,0.0102615,0.0203323,0.00171661,0.0166702,0.00556946
23,3,10.0097,0.00152588,0.000610352,-2.42653,0.055681,-0.075063,0.0544332,0.0709703,-0.0913154,0.145318,-0.123935,-0.0810445,0.0103378,0.0330353,0.0239944,0.0188446,0.017128,0.0116348,0.0244904,0.0185013,-9.97986,0.0123596,0.0189209,0.0141144,0.00682831,0.0195313,0.0025177,0.0172806,0.00644684
23,4,10.0097,0.0012207,0.000305176,-2.42409,0.0569017,-0.073232,0.054128,0.0712755,-0.0919257,0.14837,-0.124241,-0.0813497,0.00671387,0.0318146,0.0259399,0.0177002,0.0153732,0.0114059,0.019989,0.0152969,-9.97986,0.0140762,0.0056839,0.0119019,0.0104523,0.0191879,-0.00701904,0.0149536,0.00759125
23,5,10.0097,0.00335693,-0.00183105,-2.42684,0.0562914,-0.0744527,0.0529073,0.0224474,-0.0977241,0.146234,-0.128513,-0.0834859,0.0113678,0.0292587,0.0230408,0.0128555,0.0164795,0.00598907,0.0186539,0.0157928,-9.97986,0.0139999,-0.0159073,0.0128174,0.00984192,0.0185013,-0.0172806,0.0146866,0.00492096
23,6,2.19411,0.000610352,-0.00396729,-2.42531,0.0562914,-0.075063,0.0516866,-0.0187513,-0.09925,0.145013,-0.129734,-0.0834859,0.0119781,0.0308609,0.0232697,0.0122452,0.0174713,0.00747681,0.0201797,0.0168228,-9.97986,0.0104904,-0.0232697,0.0146484,0.01194,0.0195694,-0.014534,0.0182724,0.00747681
23,7,-5.46763,0.000610352,-0.00457764,-2.4244,0.0562914,-0.0729268,0.0535176,-0.0153944,-0.0968086,0.14776,-0.130649,-0.0816549,0.0111008,0.0273132,0.0157547,0.00835419,0.0150681,0.00839233,0.018158,0.0161362,-9.97986,0.018158,-0.0231171,0.0118637,0.00968933,0.0230408,-0.0104904,0.015831,0.00499725
23,8,-9.99003,0.0012207,-0.00411987,-2.42409,0.0562914,-0.0729268,0.0562642,0.00444201,-0.0913154,0.146844,-0.128513,-0.0795187,0.0111008,0.0249481,0.0115585,0.0134277,0.0207138,0.0105667,0.0234222,0.0206757,-9.97986,0.0146103,-0.0138855,0.0139999,0.0105667,0.0144196,-0.00907898,0.0146866,0.00961304
23,9,-9.99003,0.000610352,-0.00137329,-2.42501,0.055681,-0.0717061,0.0568746,0.0428942,-0.0913154,0.145929,-0.126377,-0.0804342,0.0117493,0.0166702,0.00679016,0.0114059,0.0165939,0.0105667,0.02491,0.0232315,-9.97986,0.0125885,-0.0115204,0.0126648,0.0101471,-0.00404358,-0.00156403,0.0159454,0.00267029
24,0,-9.99003,0.000305176,-0.0012207,-2.42562,0.055681,-0.075063,0.0562642,0.058153,-0.0922309,0.146234,-0.127292,-0.0816549,0.0131989,0.0069809,0.00644684,0.0119019,0.0205994,0.0137711,0.0316238,0.0279617,-9.97986,0.0197601,0.00305176,0.0167084,0.0102234,0.00431061,0.0102234,0.0230026,0.00873566
24,1,-9.99003,0.00152588,-0.000457764,-2.42592,0.0562914,-0.0729268,0.0550435,0.0627306,-0.0913154,0.144708,-0.126377,-0.0825704,0.00743866,0.0018692,0.00904083,0.0101471,0.00862122,0.00598907,0.0203705,0.0239563,-9.97986,0.0120926,-0.00133514,0.0102997,0.00831604,-0.00896454,0.00259399,0.00976563,0.00164032
24,2,-9.99003,-0.000610352,0.0012207,-2.42592,0.0550706,-0.0747579,0.0562642,0.0892809,-0.088874,0.144708,-0.12302,-0.0825704,0.0109482,0.0175095,0.0211716,0.0156784,0.0162888,0.0141144,0.0275421,0.0251007,-9.97986,0.017128,-0.00160217,0.018692,0.0120163,0.0201797,0.0100708,0.0206375,0.00907898
24,3,-5.15971,0.000610352,0.00366211,-2.42684,0.0544603,-0.0762837,0.0553487,0.134142,-0.0882636,0.145318,-0.12302,-0.0850118,0.00671387,0.0258636,0.0121307,0.0135422,0.0150681,0.00537872,0.0227737,0.0160217,-9.97986,0.0112152,-0.00701904,0.0178528,0.00854492,0.02491,-0.000648499,0.0167084,0.00671387
24,4,1.9637,0.000305176,0.00457764,-2.42898,0.0553758,-0.0756734,0.0532125,0.152147,-0.0879585,0.144098,-0.121189,-0.0850118,0.0122452,0.0252533,0.0198746,0.00808716,0.0145721,0.00778198,0.0216293,0.0183868,-9.97986,0.0107956,-0.001297,0.0173569,0.00839233,0.022316,-0.00282288,0.0188065,0.00736237
24,5,9.05354,0.000305176,0.00427246,-2.42806,0.0535448,-0.0756734,0.054128,0.155504,-0.0900947,0.143792,-0.121799,-0.0847066,0.013237,0.0309372,0.0187683,0.0119781,0.0180817,0.0100327,0.0194168,0.013504,-9.97986,0.0138092,-0.00228882,0.0172806,0.0088501,0.0209045,-0.0101852,0.0186539,0.00598907
24,6,10.0097,-0.000915527,0.00259399,-2.4305,0.0526292,-0.0771993,0.0504659,0.110033,-0.0965034,0.142877,-0.126682,-0.0892843,0.0139618,0.0207901,0.0144958,0.01297,0.0172043,0.0113297,0.0224686,0.0106812,-9.97986,0.0149918,0.000305176,0.0123596,0.00663757,0.0172424,-0.0125885,0.0138474,0.00556946
24,7,10.0097,0,0.000610352,-2.43081,0.0535448,-0.0762837,0.0498555,0.0859239,-0.0968086,0.142877,-0.126987,-0.0883688,0.0124741,0.0236511,0.0165939,0.0114441,0.0167847,0.00850677,0.0217056,0.0111771,-9.97986,0.0179291,0.000152588,0.0117111,0.00782013,0.0225067,-0.0050354,0.020752,0.00473022
24,8,10.0097,0.0012207,0.000305176,-2.42928,0.0547655,-0.075063,0.050771,0.0767687,-0.095893,0.144403,-0.125766,-0.0868429,0.014534,0.0254822,0.0191116,0.0108337,0.0168228,0.01091,0.0242615,0.00545502,-9.97986,0.0124359,-0.000648499,0.0163269,0.00785828,0.0246048,0.0025177,0.0186539,0.00617981
24,9,10.0097,0.0012207,0,-2.42776,0.0544603,-0.075063,0.0519917,0.0728014,-0.0934516,0.144403,-0.126072,-0.0865377,0.0110626,0.0286865,0.0177383,0.0102615,0.0160217,0.0133896,0.0154877,0.0133133,-9.97986,0.0127792,-0.0025177,0.0160599,0.00389099,0.0179672,0.00137329,0.0161743,0.00671387
25,0,10.0097,-0.000305176,0.000457764,-2.42745,0.0553758,-0.0756734,0.0532125,0.0712755,-0.0952827,0.145929,-0.126682,-0.0847066,0.0130463,0.0317001,0.0152969,0.0123215,0.0157166,0.00873566,0.016861,0.0125122,-9.97986,0.0139236,-0.00236511,0.0114822,0.00553131,0.0176239,0.00133514,0.017662,0.00408173
25,1,10.0097,0.000610352,0,-2.42714,0.0544603,-0.0747579,0.0529073,0.0712755,-0.094062,0.145624,-0.126072,-0.0837911,0.00915527,0.0382233,0.0149155,0.013504,0.0163651,0.0116348,0.0179291,0.0141144,-9.97986,0.0115585,-0.00549316,0.0151062,0.00434875,0.0170517,-0.00190735,0.0161743,0.00659943
25,2,10.0097,0,0,-2.42592,0.0553758,-0.0744527,0.0532125,0.0718859,-0.0922309,0.145624,-0.125461,-0.0828756,0.0128555,0.0382233,0.0202942,0.0156784,0.0178528,0.0104904,0.0179672,0.0198746,-9.97986,0.0144577,0.00335693,0.0167465,0.00991821,0.0185776,0.00156403,0.0190353,0.00686646
25,3,10.0097,0.000305176,0,-2.42623,0.0562914,-0.0744527,0.0544332,0.0715807,-0.0934516,0.145624,-0.124851,-0.0816549,0.00911713,0.034256,0.0131989,0.0120926,0.017128,0.0109482,0.0196075,0.0180054,-9.97986,0.0112915,-0.00343323,0.0122452,0.000801086,0.014534,-0.00205994,0.0135803,0.00469208
25,4,10.0097,-0.00152588,0.000610352,-2.42531,0.0569017,-0.0735371,0.0550435,0.072191,-0.090705,0.147455,-0.12302,-0.0816549,0.0102615,0.0331879,0.0136566,0.0118637,0.018425,0.0113678,0.0225067,0.0215912,-9.97986,0.0136185,-0.00370026,0.00968933,0.00858307,0.0198746,-0.00106812,0.021019,0.00644684
25,5,10.0097,0.00152588,-0.00244141,-2.42714,0.0559862,-0.0756734,0.0519917,0.0230577,-0.0983344,0.146234,-0.128208,-0.0831808,0.0123215,0.0325775,0.0107193,0.0115967,0.0137329,0.00831604,0.0170517,0.0165176,-9.97986,0.0138474,-0.00415802,0.0151825,0.0043869,0.0167084,-0.00377655,0.0165176,0.00389099
25,6,2.21517,-0.000915527,-0.00442505,-2.42592,0.0572069,-0.0741475,0.0529073,-0.0178358,-0.100165,0.145929,-0.130039,-0.0828756,0.00961304,0.0139236,0.014534,0.00751495,0.0162506,0.00892639,0.022583,0.0174713,-9.97986,0.0158691,-0.000686646,0.0151443,0.00686646,0.0184631,-0.000152588,0.014267,0.00617981
25,7,-5.42369,0.000915527,-0.00427246,-2.42592,0.0569017,-0.0741475,0.0532125,-0.0163099,-0.095893,0.146844,-0.130039,-0.0816549,0.0125885,-0.00259399,0.0154877,0.0141907,0.0128937,0.00911713,0.0194168,0.0175476,-9.97986,0.0178909,0.00209808,0.0139618,0.00701904,0.0164032,-0.00411987,0.0192261,0.00576019
25,8,-9.99003,-0.000610352,-0.00457764,-2.42409,0.0569017,-0.073232,0.0547383,0.00474719,-0.0919257,0.146539,-0.129734,-0.080129,0.00888824,0.00232697,0.0146866,0.0163269,0.0155258,0.0114822,0.0189972,0.0215149,-9.97986,0.0137329,0.00511169,0.0112152,0.00606537,0.0106049,-0.00228882,0.0159454,0.00751495
25,9,-9.99003,-0.000610352,-0.00183105,-2.42379,0.0559862,-0.0753682,0.0562642,0.0419786,-0.0894843,0.146234,-0.126682,-0.0807394,0.0122833,0.0171661,0.0169373,0.0140762,0.0134659,0.0136566,0.022316,0.0209427,-9.97986,0.0157547,0.00389099,0.0101089,0.0106049,-0.00354767,-0.00988007,0.0132751,0.00343323
26,0,-9.99003,0.000915527,-0.000610352,-2.42653,0.0547655,-0.0741475,0.0556539,0.0572374,-0.0919257,0.146539,-0.125766,-0.0822652,0.0110626,0.0187683,0.0168991,0.0111008,0.02491,0.00907898,0.0193405,0.0212097,-9.97986,0.0166702,0.00209808,0.0160599,0.00873566,-0.00610352,-0.0135422,0.0164413,0.00434875
26,1,-9.99003,0,0.000152588,-2.42623,0.0559862,-0.0753682,0.0547383,0.0639513,-0.0925361,0.145013,-0.124546,-0.0822652,0.0156403,0.0230789,0.0191879,0.0169754,0.0157166,0.0139618,0.0214005,0.0243378,-9.97986,0.0167465,0.0037384,0.0140762,0.0050354,-0.00701904,-0.0123215,0.0169373,0.00537872
26,2,-9.99003,0.00274658,0.000762939,-2.42684,0.0550706,-0.0744527,0.0553487,0.0917223,-0.0882636,0.145013,-0.125766,-0.0825704,0.0125122,0.0220108,0.0204086,0.0107193,0.0152588,0.0128555,0.02388,0.0178528,-9.97986,0.0169373,0.000686646,0.0120544,0.00915527,0.016098,-0.010643,0.0144196,0.00537872
26,3,-5.09166,0,0.0038147,-2.42776,0.0538499,-0.0756734,0.0562642,0.135057,-0.0885688,0.144098,-0.12302,-0.0840963,0.0105286,0.0227356,0.019722,0.00995636,0.0133514,0.00930786,0.0183868,0.018158,-9.97986,0.018158,0.000495911,0.0163269,0.00793457,0.0173187,-0.014534,0.0156784,0.00671387
26,4,2.02718,0,0.00473022,-2.42776,0.0526292,-0.0753682,0.0535176,0.150621,-0.0894843,0.143182,-0.122715,-0.085317,0.0134277,0.0204086,0.0193024,0.013237,0.0175858,0.0117874,0.0152588,0.015564,-9.97986,0.0143814,-0.00392914,0.0144196,0.00736237,0.0174713,-0.0130844,0.0146484,0.00854492
26,5,9.11305,0.00152588,0.00457764,-2.42806,0.0544603,-0.0756734,0.0535176,0.153368,-0.090705,0.143792,-0.121189,-0.0850118,0.0151062,0.0180435,0.017128,0.014267,0.0172806,0.0114059,0.0156403,0.0164413,-9.97986,0.0139618,3.8147e-005,0.0156403,0.00946045,0.0170517,-0.00102997,0.0165558,0.00709534
26,6,10.0097,0.000915527,0.00274658,-2.43081,0.0520189,-0.0759786,0.0501607,0.110033,-0.0955879,0.141351,-0.126072,-0.0883688,0.0134659,0.0246048,0.0217056,0.00637054,0.0166702,0.00694275,0.0197601,0.0170135,-9.97986,0.0152588,0.000419617,0.0137329,0.00671387,0.0175476,0.00846863,0.017395,0.0063324
26,7,10.0097,0.0012207,0.000457764,-2.4302,0.0541551,-0.0762837,0.0501607,0.0856188,-0.0977241,0.142572,-0.126072,-0.0877584,0.0131226,0.0273514,0.0229645,0.0094223,0.0172806,0.0123215,0.020256,0.0113678,-9.97986,0.0144196,0.00293732,0.0134277,0.00629425,0.0171661,0.00873566,0.0172424,0.00766754
26,8,10.0097,0.000305176,0.000152588,-2.42837,0.0553758,-0.0756734,0.0522969,0.0776842,-0.0965034,0.144708,-0.126072,-0.0865377,0.0112152,0.0270462,0.0162888,0.0087738,0.0167465,0.0113678,0.0276566,0.00934601,-9.97986,0.00984192,0.00270844,0.0147629,0.00854492,0.0188446,0.0204468,0.0159073,0.00514984
26,9,10.0097,0,-0.000152588,-2.42806,0.0547655,-0.0747579,0.0526021,0.0734117,-0.0937568,0.144708,-0.126682,-0.0856222,0.0137329,0.0265884,0.0239563,0.011673,0.0135803,0.0118637,0.0207138,0.0130081,-9.97986,0.0191498,-0.00137329,0.0132751,0.00522614,0.0179291,0.0122452,0.0153351,0.00385284
27,0,10.0097,0.000915527,0.000152588,-2.42684,0.0547655,-0.0741475,0.0526021,0.0715807,-0.0952827,0.145013,-0.125766,-0.0850118,0.0104904,0.0247574,0.0185013,0.0112152,0.0168228,0.00640869,0.0210953,0.0106049,-9.97986,0.015564,0.000152588,0.0157547,0.00862122,0.0200272,0.00492096,0.0178528,0.00629425
27,1,10.0097,0.000610352,0.000762939,-2.42592,0.0550706,-0.0756734,0.0529073,0.07036,-0.0934516,0.145624,-0.124851,-0.0844015,0.00782013,0.0239944,0.0198364,0.0124741,0.014801,0.0134659,0.0209427,0.0143433,-9.97986,0.0161743,-0.00301361,0.0141525,0.0069046,0.0181961,-0.00331879,0.0125885,0.00705719
27,2,10.0097,0.000610352,0.000152588,-2.42562,0.0550706,-0.0753682,0.0535176,0.072191,-0.0913154,0.145624,-0.124241,-0.0828756,0.0117111,0.0247574,0.0263977,0.0102997,0.0152588,0.0115204,0.0172043,0.0156403,-9.97986,0.0127411,-0.00118256,0.0140381,0.00705719,0.0183868,-0.0121307,0.0124741,0.00804901
27,3,10.0097,0.000915527,0,-2.42592,0.0553758,-0.0747579,0.054128,0.072191,-0.0928413,0.145929,-0.124851,-0.0816549,0.0094986,0.0226974,0.0236511,0.0125122,0.0145721,0.00961304,0.0196457,0.0160217,-9.97986,0.0167084,0.00118256,0.0157166,0.00919342,0.0189209,-0.0137329,0.0148773,0.00709534
27,4,10.0097,0,0.000152588,-2.4244,0.0572069,-0.0738423,0.0550435,0.0715807,-0.090705,0.146844,-0.123935,-0.0816549,0.00892639,0.0268936,0.02388,0.0128937,0.0189209,0.0117111,0.0207901,0.0183105,-9.97986,0.0120544,-0.00167847,0.0121689,0.0056076,0.0175095,-0.0087738,0.0146484,0.00778198
27,5,9.97365,0,-0.00274658,-2.42684,0.0559862,-0.0744527,0.0522969,0.0227526,-0.0983344,0.144098,-0.127903,-0.0837911,0.00770569,0.0267792,0.0229645,0.0107193,0.0161743,0.00934601,0.0183487,0.0154495,-9.97986,0.0138092,0.00144958,0.0180054,0.00675201,0.0195313,-0.0038147,0.0123215,0.00717163
27,6,2.13735,0.000610352,-0.00442505,-2.42653,0.0562914,-0.0744527,0.0519917,-0.0202772,-0.0998603,0.14776,-0.130039,-0.0834859,0.00984192,0.0265503,0.00835419,0.00705719,0.0157166,0.00926971,0.0179672,0.0154114,-9.97986,0.0157928,0.00247955,0.0143814,0.00652313,0.0125885,-0.00144958,0.0120926,0.00934601
27,7,-5.54515,0.000610352,-0.00411987,-2.42562,0.0575121,-0.0738423,0.0532125,-0.0172255,-0.0961982,0.145318,-0.130344,-0.0822652,0.0143433,0.0291061,0.0133133,0.0106049,0.0180817,0.0147247,0.0204468,0.0247574,-9.97986,0.0198746,0.00789642,0.0177765,0.00827789,0.0175858,0.00453949,0.0136948,0.00846863
27,8,-9.99003,0.0012207,-0.00457764,-2.4244,0.0565965,-0.0738423,0.0553487,0.00596789,-0.0925361,0.146539,-0.128208,-0.0810445,0.0104523,0.0174713,0.0125885,0.00926971,0.0174713,0.00881195,0.0204086,0.0239944,-9.97986,0.0189972,0.00617981,0.0148392,0.0100327,0.0118637,0.00946045,0.0151062,0.00923157
27,9,-9.99003,0.00183105,-0.00152588,-2.42531,0.0553758,-0.0729268,0.055959,0.0422838,-0.0900947,0.146539,-0.126682,-0.080129,0.00888824,0.00637054,0.0154114,0.0108337,0.017395,0.0101852,0.0206375,0.0206757,-9.97986,0.0159454,-0.00205994,0.0196075,0.00629425,-0.00461578,0.0122452,0.0108719,0.00778198
28,0,-9.99003,0.000610352,-0.000762939,-2.42562,0.0547655,-0.0735371,0.0556539,0.0578478,-0.0897895,0.146539,-0.126682,-0.0822652,0.0108337,0.0114822,0.0229645,0.0131607,0.0169373,0.0115204,0.0221634,0.0185776,-9.97986,0.0104141,-0.00148773,0.0161362,0.00377655,-0.00431061,0.0121307,0.0110626,0.0075531
28,1,-9.99003,0.000305176,-0.000915527,-2.42592,0.0559862,-0.0747579,0.0547383,0.0639513,-0.0919257,0.144098,-0.126072,-0.0828756,0.0088501,0.015564,0.0233078,0.0102615,0.0187302,0.00911713,0.0215912,0.0150681,-9.97986,0.0177383,-3.8147e-005,0.014534,0.0087738,-0.0069046,0.00801086,0.0133133,0.00362396
28,2,-9.99003,0.000610352,0.000610352,-2.42562,0.0544603,-0.0747579,0.0556539,0.0917223,-0.088874,0.145318,-0.12302,-0.0825704,0.0088501,0.0193405,0.0196457,0.0108337,0.0156784,0.0101852,0.0212479,0.0183105,-9.97986,0.0160217,0.00385284,0.0088501,0.00873566,0.0119019,0.00255585,0.0157928,0.00400543
28,3,-5.11638,0.0012207,0.00366211,-2.42623,0.0541551,-0.075063,0.0547383,0.133837,-0.0882636,0.144708,-0.122715,-0.0844015,0.0110626,0.0283051,0.0199127,0.0111008,0.0168991,0.0157928,0.0224304,0.0174713,-9.97986,0.0143433,-0.00179291,0.0144958,0.00667572,0.0159073,-0.00202179,0.0134659,0.00270844
28,4,1.99971,-0.000305176,0.00473022,-2.42776,0.0541551,-0.0759786,0.054128,0.151842,-0.088874,0.144708,-0.121799,-0.085317,0.0102615,0.0486755,0.0249481,0.00774384,0.0150299,0.0109482,0.016098,0.0169754,-9.97986,0.0183487,0.00572205,0.0136185,0.00797272,0.0214005,-0.00205994,0.0161743,0.00724792
28,5,9.09291,0.0012207,0.00457764,-2.42928,0.0526292,-0.0747579,0.054128,0.154588,-0.0900947,0.143792,-0.121189,-0.085317,0.0094223,0.0443649,0.029068,0.00923157,0.0131226,0.0104141,0.0230789,0.00686646,-9.97986,0.0117111,-3.8147e-005,0.0138092,0.00595093,0.0183487,-0.00785828,0.0129318,0.0056839
28,6,10.0097,-0.000305176,0.00244141,-2.4305,0.0523241,-0.0765889,0.0495503,0.110338,-0.0968086,0.142572,-0.125156,-0.0889791,0.010376,0.0367355,0.0252151,0.0120926,0.0170898,0.0137711,0.0259018,0.00804901,-9.97986,0.0131226,-0.00644684,0.0141144,0.00686646,0.0178146,-0.00915527,0.0127029,0.00492096
28,7,10.0097,0.000915527,0.000305176,-2.42989,0.0541551,-0.0759786,0.050771,0.0856188,-0.0980293,0.143487,-0.126072,-0.0883688,0.00953674,0.0327301,0.0226593,0.00682831,0.0188065,0.0108719,0.0202179,0.0120926,-9.97986,0.0159073,-0.0153351,0.0170898,0.00511169,0.0182724,-0.00789642,0.017395,0.0062561
28,8,10.0097,0.000610352,-0.000305176,-2.42837,0.0541551,-0.0747579,0.0513814,0.0767687,-0.0955879,0.143487,-0.126682,-0.0871481,0.0110245,0.0285339,0.0175858,0.0101471,0.0135803,0.0126648,0.0219345,0.0138092,-9.97986,0.0158691,-0.0125122,0.0129318,0.00686646,0.0227737,-0.00858307,0.0150299,0.00747681
28,9,10.0097,-0.0012207,0,-2.42745,0.0553758,-0.075063,0.0538228,0.0734117,-0.0943672,0.144403,-0.126987,-0.085317,0.0114441,0.0254059,0.0133896,0.0105667,0.0156021,0.0144196,0.0196838,0.0176239,-9.97986,0.016861,-0.00476837,0.0141525,0.00682831,0.018158,-0.0125122,0.010643,0.00705719
29,0,10.0097,0.0012207,0.000152588,-2.42806,0.0538499,-0.0747579,0.0538228,0.0718859,-0.0937568,0.145318,-0.127292,-0.0850118,0.0101471,0.0196838,0.0111389,0.00869751,0.0154114,0.0119781,0.0171661,0.018959,-9.97986,0.0200272,0.000343323,0.0186539,0.00232697,0.0148392,-0.0050354,0.014534,0.0102997
29,1,10.0097,0.00183105,0.000457764,-2.42745,0.0547655,-0.0747579,0.0532125,0.07036,-0.0943672,0.144708,-0.125766,-0.0847066,0.00858307,0.0182724,0.0138474,0.00514984,0.0165939,0.0150299,0.0157547,0.019455,-9.97986,0.0165939,-0.00522614,0.0150299,0.00713348,0.0208664,-0.00816345,0.0132751,0.00617981
29,2,10.0097,0.000305176,0,-2.42531,0.0565965,-0.0756734,0.0547383,0.0712755,-0.0925361,0.146539,-0.125156,-0.0844015,0.0094986,0.0232315,0.0113678,0.00621796,0.0157166,0.0119019,0.0168228,0.0200653,-9.97986,0.0151825,-0.00137329,0.0151825,0.00595093,0.0178528,-0.00904083,0.0143433,0.0103378
29,3,10.0097,0.00152588,0.000305176,-2.42592,0.0562914,-0.0741475,0.054128,0.0728014,-0.0916206,0.146539,-0.124241,-0.0813497,0.00968933,0.0218964,0.0152969,0.00984192,0.0180054,0.0136948,0.0157928,0.0220871,-9.97986,0.0164413,-0.00648499,0.015831,0.00553131,0.0153732,-0.00919342,0.0133896,0.00595093
29,4,10.0097,-0.000610352,-0.000305176,-2.42562,0.0559862,-0.0747579,0.0550435,0.0724962,-0.0925361,0.146539,-0.124851,-0.0810445,0.0105286,0.0217819,0.015831,0.00968933,0.0188828,0.013237,0.0160217,0.0225449,-9.97986,0.0190353,0.000495911,0.0159073,0.00576019,0.0164795,-0.00682831,0.0145721,0.00598907
29,5,10.0097,0.000305176,-0.00213623,-2.42592,0.0559862,-0.0747579,0.0529073,0.0215319,-0.0980293,0.145624,-0.128208,-0.0840963,0.0112152,0.0234222,0.0163269,0.00988007,0.016098,0.0123215,0.0156403,0.0180817,-9.97986,0.0126648,-0.00377655,0.0130844,0.00343323,0.0194931,-0.00732422,0.0139618,0.00984192
29,6,2.24538,0.00183105,-0.00427246,-2.42653,0.0565965,-0.0747579,0.0522969,-0.0190565,-0.0998603,0.146844,-0.131565,-0.0834859,0.0137711,0.0270844,0.0186157,0.0128937,0.0205612,0.00804901,0.013504,0.0188446,-9.97986,0.00556946,-0.000762939,0.0185394,0.00640869,0.016861,-0.0149155,0.0143051,0.00762939
29,7,-5.43345,0.00213623,-0.00411987,-2.42592,0.0575121,-0.073232,0.0532125,-0.0172255,-0.0971137,0.147455,-0.130039,-0.0819601,0.0148773,0.030365,0.0169754,0.0100708,0.0167847,0.00915527,0.0218964,0.0195313,-9.97986,0.0144196,-0.00694275,0.0128937,0.00537872,0.0159836,-0.00774384,0.0178909,0.00576019
29,8,-9.99003,0.000915527,-0.00442505,-2.4244,0.0569017,-0.0726216,0.0553487,0.00688342,-0.0934516,0.146234,-0.128208,-0.0810445,0.0088501,0.0279617,0.0205231,0.00846863,0.0159454,0.0103378,0.0259018,0.0174713,-9.97986,0.0157547,-0.00442505,0.0135803,0.0062561,0.00961304,0.00324249,0.0153351,0.00331879
29,9,-9.99003,0,-0.00213623,-2.42379,0.0569017,-0.0741475,0.0565694,0.0413683,-0.0900947,0.146234,-0.126682,-0.0807394,0.00526428,0.0120544,0.0190353,0.00747681,0.0154877,0.0114441,0.0231171,0.0167084,-9.97986,0.0144196,-0.000534058,0.0174713,0.0043869,-0.0106049,0.00835419,0.0150299,0.00534058
30,0,-9.99003,0.000610352,-0.000152588,-2.42562,0.0550706,-0.0738423,0.0553487,0.0569322,-0.0900947,0.145929,-0.126377,-0.0813497,0.010376,0.0069046,0.0210571,0.0113297,0.0201035,0.0106812,0.0227737,0.0186539,-9.97986,0.0159836,-0.000267029,0.0180817,0.00419617,-0.00614166,0.00778198,0.0159836,0.00705719
30,1,-9.99003,0.000915527,0.000305176,-2.42684,0.0547655,-0.0744527,0.0535176,0.0645616,-0.0919257,0.145013,-0.126072,-0.0828756,0.0106049,0.0125885,0.0206375,0.00774384,0.0189209,0.0123596,0.0218582,0.0199509,-9.97986,0.0150681,0.00732422,0.0168228,0.0056076,-0.0126266,0.0111771,0.0184631,0.00663757
30,2,-9.99003,0.00152588,0.000762939,-2.42684,0.0547655,-0.0753682,0.0553487,0.0898912,-0.0897895,0.144708,-0.124546,-0.0831808,0.0105286,0.0150299,0.020752,0.0126648,0.0203323,0.0111389,0.0203323,0.0172806,-9.97986,0.015564,0.0174332,0.0181961,0.00556946,0.00858307,0.0156021,0.017662,0.00747681
30,3,-4.96074,0.0012207,0.00396729,-2.42776,0.0526292,-0.0765889,0.054128,0.133226,-0.0879585,0.144098,-0.12302,-0.0844015,0.00831604,0.0151443,0.0170898,0.0144577,0.0207138,0.00831604,0.0192642,0.0154495,-9.97986,0.0154495,0.0169754,0.0128937,0.00732422,0.0136185,0.00408173,0.0151443,0.00659943
30,4,2.09065,0.000915527,0.00366211,-2.42623,0.0541551,-0.0747579,0.0544332,0.150926,-0.0891792,0.144098,-0.121799,-0.085317,0.0105667,0.0179672,0.014801,0.0130844,0.0190735,0.0128174,0.0220871,0.0170517,-9.97986,0.0148392,0.00988007,0.0120544,0.00621796,0.0185394,0.0018692,0.0168228,0.00442505
30,5,9.14327,0.00213623,0.00396729,-2.42806,0.0535448,-0.0759786,0.0538228,0.153673,-0.0891792,0.143182,-0.121189,-0.0850118,0.0113297,0.0185394,0.015831,0.0124359,0.0157928,0.00911713,0.0157928,0.0190353,-9.97986,0.0125504,-0.00892639,0.0136566,0.00396729,0.0135803,0.000190735,0.0133133,0.0075531
30,6,10.0097,-0.000610352,0.00183105,-2.43172,0.0532396,-0.0768941,0.0492452,0.109728,-0.0961982,0.141961,-0.125766,-0.0886739,0.00740051,0.0138855,0.00835419,0.012207,0.0182724,0.0120926,0.0144196,0.018158,-9.97986,0.0158691,-0.0225449,0.0172043,0.00679016,0.0123215,-0.00087738,0.0129318,0.0106049
30,7,10.0097,-0.000305176,0.000915527,-2.42928,0.0532396,-0.0765889,0.0516866,0.0859239,-0.0971137,0.143792,-0.127598,-0.0883688,0.0129318,0.0149155,0.0088501,0.0124741,0.0187683,0.0122833,0.0193405,0.0240326,-9.97986,0.0157547,-0.0191879,0.0146484,0.00747681,0.0178909,-0.0115585,0.0190353,0.00839233
30,8,10.0097,0.00244141,-0.000152588,-2.42898,0.0538499,-0.0756734,0.0522969,0.0767687,-0.0952827,0.144403,-0.126072,-0.0865377,0.00976563,0.0167465,0.012207,0.0133896,0.0182343,0.0128174,0.026474,0.029068,-9.97986,0.0146866,-0.00709534,0.0107956,0.00450134,0.0162888,-0.0153351,0.0149918,0.00923157
30,9,10.0097,-0.000305176,-0.000152588,-2.42837,0.0559862,-0.0744527,0.0516866,0.0728014,-0.0946723,0.144403,-0.127292,-0.0859274,0.0100327,0.0168991,0.0193405,0.0156403,0.0211334,0.0125122,0.025177,0.0265121,-9.97986,0.0177002,-0.00328064,0.0164795,0.00305176,0.0170135,-0.0159073,0.0113678,0.00507355
31,0,10.0097,0,-0.000152588,-2.42653,0.0547655,-0.0753682,0.0526021,0.0715807,-0.0943672,0.144708,-0.125461,-0.085317,0.00968933,0.0234604,0.0169754,0.0110626,0.018959,0.0111008,0.028038,0.0224686,-9.97986,0.0101089,-0.000762939,0.0132751,0.00427246,0.021019,-0.0161362,0.0116348,0.00614166
31,1,10.0097,0.000915527,-0.000152588,-2.42776,0.0550706,-0.0753682,0.0532125,0.07036,-0.0943672,0.144403,-0.126377,-0.0840963,0.00759125,0.0249481,0.0224686,0.0164795,0.018692,0.0108719,0.0247574,0.0240707,-9.97986,0.0201416,-0.00205994,0.0184631,0.00419617,0.0189209,-0.0151825,0.0144958,0.00789642
31,2,10.0097,0.000610352,0.000305176,-2.42562,0.0569017,-0.0738423,0.0535176,0.0718859,-0.0922309,0.146234,-0.126377,-0.0831808,0.0113678,0.0242996,0.0156784,0.0145721,0.0167847,0.0127411,0.0251389,0.0254822,-9.97986,0.0167847,-0.00270844,0.0172424,0.00324249,0.0181961,-0.0175476,0.0133896,0.00392914
31,3,10.0097,0.000915527,0,-2.42562,0.055681,-0.0744527,0.0544332,0.0715807,-0.0922309,0.14776,-0.123935,-0.0810445,0.00999451,0.0260162,0.0188828,0.0102615,0.0202179,0.015564,0.0282288,0.0217438,-9.97986,0.0157547,0.000152588,0.014534,0.00564575,0.0189972,-0.00961304,0.0165558,0.00617981
31,4,10.0097,-0.00183105,-0.000152588,-2.4244,0.0572069,-0.0747579,0.0544332,0.0724962,-0.0922309,0.145929,-0.125156,-0.0816549,0.00888824,0.0273895,0.0166702,0.0139236,0.0172806,0.00965118,0.0249481,0.0197601,-9.97986,0.0144196,-0.00404358,0.0101471,0.00576019,0.0156403,-0.00473022,0.0111008,0.00705719
31,5,10.0097,0.00305176,-0.00152588,-2.42653,0.0565965,-0.0741475,0.0522969,0.0221422,-0.0971137,0.146844,-0.128513,-0.0834859,0.0124741,0.0279236,0.0197983,0.0153732,0.0108337,0.0154495,0.0284195,0.019989,-9.97986,0.0142288,-0.00461578,0.0144577,0.0044632,0.0167465,0.00171661,0.0169754,0.00808716
31,6,2.20418,0,-0.00427246,-2.42653,0.0553758,-0.0741475,0.0510762,-0.0178358,-0.100471,0.145318,-0.130039,-0.0834859,0.010643,0.029335,0.019722,0.0114822,0.0209045,0.0141144,0.0260925,0.0191879,-9.97986,0.00858307,-0.00179291,0.0160217,0.00648499,0.0188446,0.0012207,0.0170517,0.00377655
31,7,-5.46916,0.0012207,-0.00473022,-2.4247,0.0572069,-0.0744527,0.0532125,-0.0178358,-0.0980293,0.146234,-0.130344,-0.0825704,0.00831604,0.0275803,0.0185013,0.0138855,0.0208282,0.0147629,0.028038,0.0157547,-9.97986,0.0120544,-0.00556946,0.0139236,0.00396729,0.0126266,-0.000457764,0.0137711,0.00682831
31,8,-9.99003,0,-0.00457764,-2.4244,0.0569017,-0.0726216,0.055959,0.00596789,-0.0922309,0.146539,-0.127903,-0.0804342,0.0134277,0.0243759,0.0250244,0.0117874,0.0232315,0.0126648,0.0223541,0.013237,-9.97986,0.00831604,-0.00473022,0.0165558,0.00175476,0.00854492,7.62939e-005,0.0116348,0.00591278
31,9,-9.99003,0.000610352,-0.00167847,-2.4247,0.055681,-0.0744527,0.0556539,0.0407579,-0.0891792,0.146234,-0.126987,-0.0807394,0.0075531,0.0285721,0.0268173,0.0122833,0.0173187,0.0105667,0.0134277,0.00965118,-9.97986,0.0162506,-0.00209808,0.0139236,0.00385284,-0.00598907,0.0038147,0.016861,0.0056839
32,0,-9.99003,-0.00183105,0.000305176,-2.42592,0.055681,-0.075063,0.0556539,0.0572374,-0.090705,0.145929,-0.126377,-0.0825704,0.0131607,0.0292969,0.0241852,0.0136185,0.0201797,0.0104523,0.0162506,0.0111771,-9.97986,0.0146484,-0.00236511,0.0163651,0.00263214,-0.0110626,0.0043869,0.0154495,0.00629425
32,1,-9.99003,0,-0.000305176,-2.42623,0.0550706,-0.0747579,0.0547383,0.0639513,-0.090705,0.144708,-0.126072,-0.0831808,0.0159454,0.0302887,0.0312424,0.0120544,0.0170898,0.00808716,0.0105286,0.0221252,-9.97986,0.0142288,0.00114441,0.0138474,0.00152588,-0.0101852,0.00209808,0.0159073,0.00713348
32,2,-9.99003,0.00183105,0.000762939,-2.42562,0.055681,-0.075063,0.0553487,0.0914171,-0.0897895,0.145929,-0.124546,-0.0825704,0.0131989,0.0281525,0.0336456,0.0128555,0.0186157,0.00717163,0.0178909,0.0182724,-9.97986,0.0104523,0.000190735,0.0164032,0.00926971,0.0160599,0.00453949,0.0172043,0.00736237
32,3,-5.02604,0,0.00350952,-2.42653,0.0547655,-0.0765889,0.0553487,0.134142,-0.0876533,0.143792,-0.12241,-0.0828756,0.00995636,0.0283813,0.0370789,0.0112534,0.0179672,0.0111008,0.0175858,0.0184631,-9.97986,0.0114059,-0.00358582,0.0127029,0.00377655,0.0101471,0.00385284,0.0156784,0.00709534
32,4,2.07143,0.000610352,0.00488281,-2.42776,0.0550706,-0.0747579,0.0535176,0.151842,-0.088874,0.142877,-0.120578,-0.0859274,0.0122452,0.0322723,0.0341797,0.0137329,0.0202942,0.0114441,0.0189209,0.00991821,-9.97986,0.0146484,0.000686646,0.0134659,0.0069046,0.01091,0.0019455,0.0165176,0.00591278
32,5,9.16554,0.00244141,0.00473022,-2.42898,0.0541551,-0.0756734,0.0538228,0.152147,-0.0894843,0.144098,-0.121494,-0.0856222,0.0108337,0.0291824,0.0276566,0.00965118,0.019455,0.0117111,0.0274658,0.00465393,-9.97986,0.0128555,-0.00175476,0.0142288,0.0102234,0.0186157,-0.011673,0.0192642,0.00812531
32,6,10.0097,0.000305176,0.00259399,-2.43081,0.0535448,-0.0768941,0.050771,0.110338,-0.0971137,0.141656,-0.125156,-0.0886739,0.00976563,0.028038,0.0239563,0.0118256,0.0177765,0.00839233,0.0318146,0.00831604,-9.97986,0.0143051,-0.000419617,0.0146866,0.00602722,0.0172806,-0.0168228,0.0136185,0.00873566
32,7,10.0097,0.000610352,0.0012207,-2.4302,0.0538499,-0.0759786,0.050771,0.0847032,-0.0983344,0.144098,-0.127598,-0.0889791,0.00972748,0.0249481,0.0228119,0.0124359,0.017395,0.0141907,0.0379562,0.015564,-9.97986,0.0119019,7.62939e-005,0.0162888,0.00526428,0.022049,-0.0172043,0.0165939,0.0106049
32,8,10.0097,0,0,-2.42928,0.0538499,-0.075063,0.0522969,0.0770738,-0.0943672,0.144708,-0.126072,-0.0871481,0.0101471,0.0177002,0.0138474,0.0122452,0.0188446,0.00793457,0.0310135,0.0164795,-9.97986,0.0152969,0.00171661,0.0130463,0.00350952,0.022049,-0.0181198,0.0170517,0.00564575
32,9,10.0097,0,0.000152588,-2.42623,0.0547655,-0.075063,0.0522969,0.0734117,-0.0937568,0.144708,-0.126072,-0.0859274,0.0154877,0.0226593,0.017395,0.0137329,0.0193024,0.0143433,0.0282669,0.0157547,-9.97986,0.0173187,0.000610352,0.0146866,0.00442505,0.0239944,-0.0135803,0.0162888,0.00732422
33,0,10.0097,0.00183105,-0.000305176,-2.42806,0.0547655,-0.0741475,0.0522969,0.0715807,-0.0931465,0.145624,-0.127598,-0.0856222,0.00740051,0.0174332,0.0110626,0.00816345,0.0164413,0.00995636,0.0238419,0.00873566,-9.97986,0.0151825,-0.00267029,0.0101089,0.00385284,0.0201797,-0.00255585,0.0138092,0.00442505
33,1,10.0097,0,0.000152588,-2.42776,0.055681,-0.0738423,0.0535176,0.0715807,-0.0928413,0.145013,-0.126377,-0.0840963,0.0114822,0.0260925,0.0142288,0.01297,0.0179672,0.011673,0.0179291,0.014801,-9.97986,0.0136185,-0.00335693,0.0155258,0.00808716,0.018692,0.0170898,0.0203323,0.0094986
33,2,10.0097,0.0012207,0.000457764,-2.42592,0.0562914,-0.0744527,0.0538228,0.0718859,-0.0922309,0.146844,-0.124851,-0.0837911,0.0118637,0.02388,0.0185013,0.0102234,0.0210571,0.00915527,0.0133133,0.0155258,-9.97986,0.0139618,-0.00473022,0.0146103,0.00541687,0.0172424,0.0219345,0.0163269,0.00984192
33,3,10.0097,0,0.000152588,-2.42562,0.055681,-0.0735371,0.054128,0.0709703,-0.0910102,0.146234,-0.124241,-0.0810445,0.0121307,0.034256,0.0204086,0.00904083,0.0185776,0.0130463,0.0182343,0.0149536,-9.97986,0.0175095,0.00038147,0.0178146,0.00827789,0.0161362,0.0154495,0.0141907,0.00980377
33,4,10.0097,0.000610352,0,-2.42348,0.0565965,-0.073232,0.0544332,0.0709703,-0.0916206,0.146844,-0.125461,-0.0810445,0.0101852,0.0489426,0.0172043,0.00904083,0.0167084,0.00980377,0.0180054,0.0156403,-9.97986,0.0147247,0.001297,0.014267,0.0075531,0.0154495,0.0117874,0.0151062,0.0082016
33,5,10.0097,0.000610352,-0.00198364,-2.42714,0.0559862,-0.0747579,0.0529073,0.0227526,-0.0980293,0.146539,-0.128513,-0.0844015,0.0183868,0.0442505,0.0183105,0.0107193,0.016861,0.0105667,0.0220108,0.0137329,-9.97986,0.0138092,0.00167847,0.0182724,0.00358582,0.0180817,0.000267029,0.0167465,0.00686646
33,6,2.21639,0.00183105,-0.00411987,-2.42714,0.0565965,-0.0744527,0.0532125,-0.0178358,-0.0995551,0.146539,-0.130039,-0.0828756,0.0133133,0.0289536,0.00736237,0.00823975,0.0166702,0.0131607,0.0243759,0.0115585,-9.97986,0.0161362,0.0025177,0.0151825,0.00675201,0.0125122,-0.000915527,0.0170135,0.00511169
33,7,-5.3831,-0.0012207,-0.00457764,-2.42501,0.0565965,-0.0735371,0.0544332,-0.018141,-0.0974189,0.147455,-0.129123,-0.0819601,0.00907898,0.0335312,0.0109482,0.00656128,0.0173187,0.0108337,0.0185013,0.0172043,-9.97986,0.0138855,-0.00347137,0.0121307,0.00774384,0.00827789,-0.00953674,0.0151062,0.00797272
33,8,-9.99003,0.000305176,-0.00427246,-2.4244,0.0565965,-0.0735371,0.0556539,0.00657824,-0.0919257,0.146539,-0.128513,-0.0798238,0.0127029,0.0394058,0.0131607,0.0105286,0.0223541,0.0123978,0.0233078,0.0183868,-9.97986,0.014534,0.001297,0.0138474,0.0094223,0.00953674,-0.0101852,0.014267,0.00827789
33,9,-9.99003,0.000610352,-0.00137329,-2.42409,0.0565965,-0.075063,0.055959,0.0404528,-0.0900947,0.146844,-0.125461,-0.080129,0.0100708,0.0257111,0.0139236,0.00862122,0.014534,0.00743866,0.0193787,0.0162506,-9.97986,0.0152969,-0.000648499,0.0155258,0.00659943,-0.00694275,-0.0133896,0.0161743,0.00587463
34,0,-9.99003,0.000305176,-0.000610352,-2.42684,0.0550706,-0.0744527,0.0547383,0.0563219,-0.0916206,0.146234,-0.126682,-0.0822652,0.0119781,0.0123978,0.0123596,0.012207,0.0181198,0.00946045,0.0251389,0.0177765,-9.97986,0.0143814,0.00545502,0.0159836,0.00526428,-0.0114441,-0.0111389,0.0166702,0.00595093
34,1,-9.99003,0,-0.000305176,-2.42562,0.0553758,-0.0747579,0.0544332,0.0630358,-0.0913154,0.145318,-0.126072,-0.0828756,0.0159073,0.0133896,0.0116348,0.00770569,0.0160599,0.0109863,0.0216293,0.0199127,-9.97986,0.0185394,-0.00137329,0.0179672,0.0044632,-0.0113297,-0.00907898,0.0164795,0.00740051
34,2,-9.99003,0.000305176,0.000915527,-2.42592,0.0544603,-0.0747579,0.0544332,0.092943,-0.0885688,0.146539,-0.124241,-0.0825704,0.0113297,0.0204086,0.0126648,0.00926971,0.0136566,0.00659943,0.0191116,0.0130463,-9.97986,0.0174332,0.00591278,0.0109863,0.00782013,0.0114441,-0.00999451,0.0145721,0.00476837
34,3,-4.78251,0.00152588,0.0038147,-2.42745,0.0541551,-0.0747579,0.0553487,0.134447,-0.0882636,0.145013,-0.12302,-0.0834859,0.0107574,0.0253296,0.0127029,0.0136185,0.0147247,0.0107193,0.019455,0.0143051,-9.97986,0.0163269,-0.000534058,0.0125504,0.00526428,0.014801,-0.0192642,0.0172806,0.00488281
34,4,2.33327,0.0012207,0.00442505,-2.42806,0.0541551,-0.0756734,0.0535176,0.150316,-0.0894843,0.143792,-0.12241,-0.0850118,0.0136185,0.0292969,0.018692,0.0117874,0.01297,0.0130844,0.0234222,0.0162888,-9.97986,0.0159073,-0.00164032,0.0156403,0.00724792,0.0154114,-0.0163269,0.018425,0.00255585
34,5,9.36543,0.00213623,0.00442505,-2.42898,0.0547655,-0.0762837,0.0526021,0.155809,-0.090705,0.143792,-0.121189,-0.0856222,0.00835419,0.0242233,0.0182343,0.00778198,0.0127411,0.0112152,0.0225067,0.0180817,-9.97986,0.0133896,0.000572205,0.0101089,0.00495911,0.0120926,-0.0211716,0.0152588,0.00556946
34,6,10.0097,-0.000610352,0.00198364,-2.42959,0.0529344,-0.0762837,0.0498555,0.109117,-0.0971137,0.143182,-0.125156,-0.0889791,0.0128937,0.0304031,0.0249863,0.0156784,0.018158,0.0109482,0.0283051,0.0187683,-9.97986,0.0180817,0.00492096,0.0109482,0.0056076,0.0149536,-0.0233459,0.0152588,0.00682831
34,7,10.0097,-0.000305176,0.000152588,-2.4305,0.0535448,-0.0759786,0.0504659,0.0843981,-0.0977241,0.143182,-0.126377,-0.0880636,0.00923157,0.0165939,0.0180054,0.00907898,0.0141907,0.00556946,0.0244522,0.0170898,-9.97986,0.021553,0.00659943,0.014534,0.00656128,0.0150681,-0.0140762,0.0156403,0.00747681
34,8,10.0097,0.000915527,-0.000305176,-2.42989,0.0550706,-0.0756734,0.0516866,0.0758531,-0.0961982,0.144403,-0.127598,-0.0868429,0.0114441,0.00572205,0.0191116,0.0139618,0.0104523,0.00640869,0.0351334,0.0181961,-9.97986,0.0154495,0.00228882,0.0130844,0.00385284,0.0132751,-0.00709534,0.0130463,0.00225067
34,9,10.0097,0.0012207,0,-2.42776,0.0544603,-0.075063,0.0526021,0.0724962,-0.094062,0.143487,-0.125766,-0.0859274,0.0123978,0.0135422,0.0187302,0.014534,0.0186157,0.0121689,0.0362778,0.0177383,-9.97986,0.0199127,-0.0030899,0.0110626,0.00915527,0.0182724,0.00350952,0.0155258,0.00530243
35,0,10.0097,0.000915527,-0.000610352,-2.42684,0.0547655,-0.0753682,0.0532125,0.0718859,-0.094062,0.145624,-0.126377,-0.0850118,0.00957489,0.0104904,0.0139236,0.0125122,0.0159454,0.00591278,0.0338364,0.0165939,-9.97986,0.0191116,-0.0130844,0.0130844,0.00991821,0.0167465,0.00427246,0.0146103,0.00541687
35,1,10.0097,0.000610352,0.000152588,-2.42653,0.0547655,-0.0747579,0.0535176,0.0718859,-0.0931465,0.144098,-0.125461,-0.0834859,0.0109863,0.00869751,0.0156403,0.0151825,0.0168228,0.0104523,0.0355148,0.0190735,-9.97986,0.0146103,-0.00850677,0.00831604,0.0018692,0.0170898,0.00553131,0.0169373,0.00545502
35,2,10.0097,0.000305176,0.000762939,-2.42714,0.0559862,-0.075063,0.0532125,0.07036,-0.0916206,0.145624,-0.124546,-0.0834859,0.0137329,0.0157547,0.0165558,0.0154495,0.0170517,0.0128937,0.0283813,0.0292587,-9.97986,0.0187683,0.00167847,0.0120544,0.00862122,0.0193405,0.0141907,0.0162125,0.00400543
35,3,10.0097,0.000915527,0.000305176,-2.42562,0.055681,-0.0747579,0.0535176,0.0715807,-0.0919257,0.146539,-0.124851,-0.0813497,0.00900269,0.0110245,0.0137711,0.0156403,0.0192642,0.011673,0.0317001,0.0284958,-9.97986,0.0205231,-3.8147e-005,0.0102234,0.00614166,0.0226974,0.0069046,0.0162888,0.0069809
35,4,10.0097,0.0012207,0.000152588,-2.42531,0.0544603,-0.0741475,0.0547383,0.072191,-0.0913154,0.147455,-0.124241,-0.0807394,0.00953674,0.0112152,0.0132751,0.0101852,0.0199509,0.00843048,0.0265503,0.02491,-9.97986,0.0156784,0.00583649,0.0100708,0.0087738,0.0177383,0.00957489,0.0140762,0.00743866
35,5,10.0097,0.000610352,-0.00274658,-2.42592,0.0559862,-0.0744527,0.0526021,0.0224474,-0.0961982,0.145929,-0.127292,-0.0831808,0.0112152,0.0175095,0.0126648,0.0136185,0.017128,0.00808716,0.0241852,0.019722,-9.97986,0.0169373,0.00133514,0.0131226,0.00644684,0.0152588,0.0143433,0.0170135,0.00808716
35,6,2.22035,0,-0.0038147,-2.42684,0.0569017,-0.0744527,0.0516866,-0.018141,-0.0995551,0.146234,-0.130649,-0.0831808,0.0114441,0.0201035,0.0138092,0.0136185,0.0174332,0.00843048,0.02285,0.0194168,-9.97986,0.0146103,-3.8147e-005,0.0133896,0.00492096,0.0123978,0.0289917,0.0187683,0.00564575
35,7,-5.38066,0.0012207,-0.00457764,-2.42623,0.0569017,-0.0726216,0.054128,-0.0169203,-0.0971137,0.147455,-0.129734,-0.0810445,0.00782013,0.0183105,0.0159073,0.0137711,0.0194168,0.00629425,0.0202179,0.0167847,-9.97986,0.0160599,-7.62939e-005,0.0146866,0.00770569,0.0156403,0.0239563,0.0196457,0.00461578
35,8,-9.99003,0.000915527,-0.00473022,-2.42409,0.0578172,-0.0726216,0.0547383,0.00657824,-0.0928413,0.146844,-0.128513,-0.0810445,0.0126648,0.0173569,0.0173187,0.0115204,0.0156784,0.0115204,0.0177383,0.0130463,-9.97986,0.0124359,-0.00644684,0.0157547,0.00324249,0.0101852,0.0171661,0.0192261,0.00637054
35,9,-9.99003,0,-0.00152588,-2.42531,0.0562914,-0.0744527,0.0562642,0.0404528,-0.0897895,0.147149,-0.126377,-0.0810445,0.0137711,0.0191879,0.0214386,0.0115967,0.0143814,0.0122833,0.0183868,0.0109482,-9.97986,0.0176239,-0.0151825,0.0143433,0.00991821,-0.00999451,0.0138474,0.0154114,0.00843048
36,0,-9.99003,0.00213623,-0.000457764,-2.42592,0.0553758,-0.0744527,0.0556539,0.0578478,-0.0910102,0.146844,-0.125156,-0.0825704,0.0107193,0.0216293,0.0194168,0.0125504,0.0123215,0.012207,0.0199127,0.0120544,-9.97986,0.0183487,-0.00602722,0.0154114,0.00827789,-0.00747681,0.00900269,0.0197983,0.00736237
36,1,-9.99003,0.0012207,0,-2.42653,0.0541551,-0.0747579,0.054128,0.0639513,-0.0916206,0.144403,-0.126377,-0.0825704,0.00511169,0.0160599,0.0171661,0.01194,0.018425,0.00919342,0.0249481,0.0123215,-9.97986,0.0172424,-0.00648499,0.0160599,0.00888824,-0.00823975,0.00740051,0.0170135,0.00232697
36,2,-9.99003,-0.000610352,0.00152588,-2.4247,0.0541551,-0.0744527,0.0553487,0.0935533,-0.0885688,0.144708,-0.124851,-0.0822652,0.0147247,0.0156021,0.0233078,0.0167465,0.020256,0.0104904,0.0234985,0.0174713,-9.97986,0.0149918,-0.0018692,0.0137711,0.00453949,0.0159454,0.0114441,0.0160217,0.00747681
36,3,-4.7697,0.000915527,0.00366211,-2.42867,0.0544603,-0.0765889,0.054128,0.134142,-0.088874,0.143792,-0.12241,-0.0847066,0.0069809,0.0117111,0.0143814,0.00900269,0.0149918,0.00556946,0.0191879,0.0144196,-9.97986,0.0111389,-0.00442505,0.0158691,0.00579834,0.0120163,0.00751495,0.0198746,0.00843048
36,4,2.40102,0,0.00442505,-2.42745,0.0544603,-0.075063,0.054128,0.152147,-0.0885688,0.143182,-0.120884,-0.085317,0.00766754,0.0217819,0.0185394,0.00915527,0.0199509,0.0124741,0.0179291,0.0211334,-9.97986,0.0122833,-0.00587463,0.0163651,0.00499725,0.0139618,7.62939e-005,0.016861,0.00587463
36,5,9.50154,-0.000610352,0.00442505,-2.42867,0.0529344,-0.0747579,0.0535176,0.154283,-0.0903999,0.143792,-0.122104,-0.0859274,0.0101089,0.0275421,0.0226212,0.0115585,0.0182724,0.00598907,0.0180435,0.02388,-9.97986,0.0180435,-0.000190735,0.0217438,0.00640869,0.0196838,-0.00183105,0.0201797,0.0105667
36,6,10.0097,-0.000305176,0.00198364,-2.43142,0.0535448,-0.0765889,0.0504659,0.107897,-0.0980293,0.143182,-0.124851,-0.0889791,0.0118637,0.0246811,0.0177765,0.0069809,0.0202179,0.00709534,0.0167847,0.0209427,-9.97986,0.0146103,-0.0019455,0.01091,0.0062561,0.0159454,-0.00526428,0.0120926,0.00221252
36,7,10.0097,0.00244141,0.000305176,-2.4305,0.0532396,-0.0762837,0.0513814,0.0840929,-0.0968086,0.143792,-0.127292,-0.0880636,0.0113297,0.026474,0.0218201,0.0112534,0.0177765,0.0124741,0.0153732,0.0227737,-9.97986,0.0131607,-0.00469208,0.0137329,0.0075531,0.0134659,-0.00995636,0.0143814,0.00694275
36,8,10.0097,0.000305176,-0.000152588,-2.42714,0.0547655,-0.0762837,0.0516866,0.0743273,-0.0949775,0.143792,-0.127292,-0.0865377,0.0082016,0.0254059,0.0205612,0.0139999,0.0164795,0.0102997,0.0128937,0.0197601,-9.97986,0.0141525,-0.000343323,0.0146103,0.0101852,0.0156403,-0.022316,0.0189972,0.00587463
36,9,10.0097,0.00183105,0.000610352,-2.42806,0.0550706,-0.0762837,0.0532125,0.0737169,-0.0943672,0.145318,-0.126987,-0.085317,0.00888824,0.0281525,0.017128,0.0102234,0.0177765,0.0050354,0.018425,0.0188446,-9.97986,0.016861,-0.000457764,0.0163269,0.00717163,0.0113297,-0.0296402,0.0185394,0.00774384
37,0,10.0097,0.000915527,-0.000305176,-2.42837,0.0550706,-0.0744527,0.0529073,0.0715807,-0.0937568,0.144708,-0.125461,-0.0859274,0.00740051,0.0307465,0.018158,0.0103378,0.015831,0.00663757,0.0180817,0.014267,-9.97986,0.0114441,-0.00492096,0.0135803,0.00160217,0.00843048,-0.0243378,0.017662,0.00774384
37,1,10.0097,0.000915527,0.000457764,-2.42623,0.0550706,-0.0759786,0.0538228,0.0706652,-0.0937568,0.145318,-0.125156,-0.0837911,0.00732422,0.0260925,0.018425,0.0082016,0.0204086,0.00843048,0.0190735,0.016098,-9.97986,0.014534,0.000190735,0.015564,0.00648499,0.0109482,-0.0314331,0.0180054,0.00751495
37,2,10.0097,0.00183105,0.000152588,-2.42531,0.0553758,-0.0744527,0.0544332,0.0718859,-0.0922309,0.145624,-0.125156,-0.0831808,0.0094223,0.024147,0.0181961,0.00938416,0.018158,0.0094986,0.0206375,0.0147629,-9.97986,0.0127792,-0.000991821,0.00984192,0.0037384,0.01297,-0.0428009,0.0215912,0.00549316
37,3,10.0097,-0.000915527,0,-2.42531,0.0559862,-0.0744527,0.0544332,0.0728014,-0.0928413,0.146844,-0.124241,-0.0822652,0.0101471,0.0214005,0.0206757,0.0112915,0.0156403,0.0131226,0.0229645,0.0138092,-9.97986,0.0135803,-0.000457764,0.0144958,0.00553131,0.0131607,-0.0600433,0.0171661,0.00339508
37,4,10.0097,0.000610352,0.000152588,-2.42409,0.0565965,-0.0744527,0.0547383,0.0715807,-0.0916206,0.14776,-0.125156,-0.0798238,0.0063324,0.0221252,0.0208664,0.00778198,0.013504,0.00965118,0.0192261,0.0111771,-9.97986,0.0148773,0.00228882,0.0133133,0.00431061,0.00938416,-0.0539398,0.0172043,0.00480652
37,5,10.0097,0.000610352,-0.00213623,-2.42684,0.0559862,-0.0744527,0.0526021,0.0239733,-0.0977241,0.146234,-0.128818,-0.0837911,0.00717163,0.0233078,0.0168991,0.0115585,0.0152206,0.0101852,0.0212097,0.015564,-9.97986,0.0164413,0.00595093,0.0138092,0.00816345,0.0139618,-0.0388336,0.0153732,0.0056839
37,6,2.28261,-0.00244141,-0.00427246,-2.42745,0.0544603,-0.0735371,0.0519917,-0.0172255,-0.101081,0.147455,-0.130039,-0.0837911,0.00907898,0.0227356,0.0198746,0.00907898,0.0172424,0.0130463,0.0233841,0.0169373,-9.97986,0.0113678,0.00514984,0.0138092,0.00335693,0.0170898,-0.0118256,0.0181198,0.00682831
37,7,-5.33244,-0.000305176,-0.00427246,-2.42531,0.0559862,-0.0738423,0.054128,-0.0153944,-0.0971137,0.146844,-0.130039,-0.0813497,0.0130463,0.02491,0.0217056,0.0118256,0.0197601,0.00900269,0.0244904,0.0185013,-9.97986,0.0140381,0.00431061,0.0187683,0.00473022,0.0188828,0.0142288,0.0154877,0.00705719
37,8,-9.99003,0,-0.00473022,-2.4247,0.0572069,-0.0729268,0.0556539,0.0071886,-0.0922309,0.147455,-0.127903,-0.0810445,0.0101089,0.0254822,0.0193024,0.00797272,0.0170898,0.0122833,0.0204468,0.0148773,-9.97986,0.0124359,-0.00389099,0.00911713,0.000801086,0.0104523,0.0314713,0.0139618,0.00274658
37,9,-9.99003,-0.000305176,-0.00213623,-2.42318,0.0565965,-0.0741475,0.0568746,0.0407579,-0.0913154,0.147149,-0.126682,-0.0804342,0.0106049,0.02388,0.0197983,0.0149155,0.0159073,0.0160217,0.0214386,0.018692,-9.97986,0.0135422,0.00530243,0.0149918,0.00492096,-0.00946045,0.0488663,0.0191116,0.00522614
38,0,-9.99003,0,-0.000457764,-2.42531,0.0547655,-0.075063,0.0550435,0.0572374,-0.0900947,0.144403,-0.124546,-0.0813497,0.0069809,0.0263977,0.0204468,0.00846863,0.0146866,0.00839233,0.0173187,0.0162125,-9.97986,0.0116348,-0.000610352,0.0143814,0.00221252,-0.0114059,0.0448227,0.0190353,0.00492096
38,1,-9.99003,0.00152588,0,-2.42592,0.0541551,-0.0735371,0.0550435,0.0642565,-0.0928413,0.145013,-0.127292,-0.0834859,0.00972748,0.0283432,0.0222015,0.00869751,0.0183487,0.0113297,0.0172806,0.017395,-9.97986,0.0127792,-0.0056076,0.0119019,0.00556946,-0.00995636,0.0318527,0.0152206,0.0087738
38,2,-9.99003,0.0012207,0.00106812,-2.42592,0.0553758,-0.0738423,0.055959,0.0959947,-0.0879585,0.145318,-0.12363,-0.0819601,0.00862122,0.0259781,0.0209427,0.00999451,0.0186539,0.0134659,0.0187302,0.0220108,-9.97986,0.0110626,-0.00152588,0.0137329,0.00507355,0.0177002,0.0241852,0.0191498,0.00801086
38,3,-4.55852,-0.000305176,0.00427246,-2.42776,0.0532396,-0.0759786,0.0550435,0.134447,-0.0876533,0.143792,-0.122104,-0.0840963,0.00907898,0.0235367,0.022049,0.00595093,0.0173187,0.0134277,0.0196075,0.0240326,-9.97986,0.010643,-0.00473022,0.0141907,0.0018692,0.0127029,0.0130844,0.0162125,0.00572205
38,4,2.6003,-0.00152588,0.00457764,-2.42684,0.0547655,-0.0759786,0.0550435,0.152452,-0.0891792,0.143487,-0.121494,-0.0850118,0.01297,0.0257111,0.0266266,0.0113297,0.0217819,0.0134659,0.0205231,0.0279999,-9.97986,0.0102615,0.00457764,0.0146866,0.000724792,0.018158,0.0134277,0.0149536,0.00831604
38,5,9.79024,0.00274658,0.00396729,-2.42745,0.0535448,-0.0759786,0.0535176,0.154283,-0.0891792,0.144708,-0.122104,-0.0859274,0.0117493,0.0271606,0.0220108,0.0108719,0.0178146,0.00869751,0.0180435,0.0221252,-9.97986,0.0154877,0.00423431,0.0176239,0.00648499,0.0166702,0.00900269,0.0131989,0.00904083
38,6,10.0097,0.000915527,0.00213623,-2.43172,0.0526292,-0.07842,0.0486348,0.106371,-0.0968086,0.142267,-0.125766,-0.0886739,0.0075531,0.0278473,0.0291061,0.00881195,0.021019,0.0101089,0.0170135,0.0229263,-9.97986,0.0120544,0.00247955,0.0149536,0.00392914,0.016861,0.00892639,0.0166321,0.0069809
38,7,10.0097,-0.000610352,0.000915527,-2.42989,0.0535448,-0.0765889,0.050771,0.0834825,-0.0971137,0.142877,-0.126377,-0.0871481,0.01297,0.0243759,0.0274658,0.0111389,0.0175858,0.00976563,0.0229263,0.0220108,-9.97986,0.0117111,0.00240326,0.014267,0.00247955,0.0181961,0.0075531,0.0178146,0.00816345
38,8,10.0097,-0.000305176,-0.000457764,-2.42837,0.0541551,-0.0756734,0.0513814,0.0764635,-0.0952827,0.144098,-0.126682,-0.0865377,0.00789642,0.0244522,0.0305557,0.013237,0.0204086,0.0108719,0.0276566,0.0187302,-9.97986,0.0134277,-3.8147e-005,0.0149536,0.00694275,0.0163651,0.00415802,0.0173187,0.00812531
38,9,10.0097,-0.000915527,0.000152588,-2.42837,0.0550706,-0.075063,0.0522969,0.0734117,-0.0946723,0.145318,-0.125461,-0.085317,0.00705719,0.0282669,0.0291061,0.0111771,0.0136948,0.00953674,0.0283432,0.0173187,-9.97986,0.0126266,-0.000152588,0.0154877,0.00576019,0.0144196,0.00408173,0.0156784,0.00782013
39,0,10.0097,0.0012207,0.000610352,-2.42684,0.055681,-0.075063,0.0538228,0.0718859,-0.0946723,0.145318,-0.125766,-0.0850118,0.0119781,0.0268555,0.0331879,0.0103378,0.0165176,0.0109482,0.0270462,0.0114822,-9.97986,0.0125122,-0.00602722,0.0166321,0.00209808,0.0193024,0.000762939,0.0172424,0.00682831
39,1,10.0097,-0.000305176,-0.000152588,-2.42714,0.0550706,-0.0747579,0.0532125,0.0712755,-0.0946723,0.144403,-0.126072,-0.0847066,0.0123215,0.0306702,0.0288391,0.0110245,0.0186539,0.00923157,0.0249481,0.0110245,-9.97986,0.0139236,-0.0111389,0.0109863,0.00343323,0.0170517,-0.00289917,0.0165176,0.00301361
39,2,10.0097,0,0.000305176,-2.42501,0.0565965,-0.075063,0.0547383,0.0718859,-0.0925361,0.147455,-0.126072,-0.0831808,0.0121307,0.0308228,0.0292587,0.0114822,0.0171661,0.00637054,0.0263596,0.0120163,-9.97986,0.0124741,-0.0116348,0.0151825,0.00762939,0.0186539,-0.000610352,0.0170135,0.00629425
39,3,10.0097,0.000610352,-0.000305176,-2.42592,0.0550706,-0.0738423,0.0538228,0.0709703,-0.0916206,0.146539,-0.124241,-0.0819601,0.0108719,0.0333023,0.0260544,0.00873566,0.0196838,0.00839233,0.0220108,0.0125885,-9.97986,0.0157928,-0.0120544,0.0161362,0.00259399,0.0164413,-0.00686646,0.0153732,0.00507355
39,4,10.0097,0.000915527,0,-2.42592,0.0565965,-0.0738423,0.054128,0.0724962,-0.0928413,0.145929,-0.123935,-0.0822652,0.0125122,0.0294495,0.0217819,0.0143814,0.0184631,0.0107193,0.0193405,0.018959,-9.97986,0.0141525,-0.00396729,0.0153351,0.00724792,0.0185776,-0.00511169,0.017395,0.00793457
39,5,10.0097,0.000305176,-0.00198364,-2.42745,0.0553758,-0.0744527,0.0519917,0.0242784,-0.0980293,0.145318,-0.127598,-0.0831808,0.0150681,0.0273514,0.013237,0.0128555,0.0174713,0.0107193,0.0170898,0.0196457,-9.97986,0.016098,0.00358582,0.0110245,0.00347137,0.0175095,-0.00137329,0.014534,0.00659943
39,6,2.3293,0.000305176,-0.00396729,-2.42653,0.0575121,-0.0753682,0.0516866,-0.0178358,-0.0989448,0.145318,-0.130954,-0.0831808,0.0101471,0.0218582,-0.000114441,0.00480652,0.0136948,0.00537872,0.0125885,0.0183868,-9.97986,0.0127029,0.00545502,0.0154114,0.0043869,0.0125122,-0.00743866,0.0172043,0.00457764
39,7,-5.24547,0.000915527,-0.00396729,-2.4247,0.0569017,-0.0744527,0.0535176,-0.0163099,-0.0983344,0.146539,-0.129734,-0.0813497,0.0101852,0.0178909,0.000572205,0.00953674,0.0156784,0.0111008,0.0127792,0.014267,-9.97986,0.0144577,0.00106812,0.0124359,0.00610352,0.0179291,-0.0105286,0.0134277,0.00934601
39,8,-9.99003,0.000610352,-0.00396729,-2.42379,0.0575121,-0.0741475,0.055959,0.00749377,-0.0931465,0.145929,-0.127292,-0.080129,0.0125122,0.0207901,0.00408173,0.0075531,0.0178146,0.00873566,0.0101089,0.0209427,-9.97986,0.019455,-0.0031662,0.0181961,0.0056076,0.0136566,-0.00965118,0.0164032,0.0101089
39,9,-9.99003,0.000915527,-0.00167847,-2.42562,0.0565965,-0.0735371,0.0562642,0.0407579,-0.0894843,0.147455,-0.126987,-0.0804342,0.0101471,0.0246048,0.00988007,0.0119019,0.0161362,0.00980377,0.00114441,0.0193787,-9.97986,0.0158691,-0.00946045,0.0119781,0.00236511,-0.0152206,-0.0172043,0.0145721,0.00644684
40,0,-9.99003,0.000610352,-0.000305176,-2.42562,0.0562914,-0.075063,0.055959,0.0566271,-0.0900947,0.145624,-0.125766,-0.0807394,0.00896454,0.0233459,0.0137711,0.0115204,0.0195694,0.00900269,0.0037384,0.0198364,-9.97986,0.0175476,-0.00556946,0.0162125,0.00278473,-0.0119019,-0.0156403,0.0152206,0.0107574
40,1,-9.99003,-0.000610352,-0.000457764,-2.42684,0.0550706,-0.075063,0.0532125,0.0621202,-0.0913154,0.145624,-0.126377,-0.0825704,0.00896454,0.0219345,0.0125504,0.00499725,0.0186157,0.00583649,0.0094986,0.0161362,-9.97986,0.0152969,-0.0069809,0.0168228,0.00366211,-0.0145721,-0.0118256,0.0164795,0.0088501
40,2,-9.99003,0.000915527,0.00137329,-2.42531,0.0562914,-0.0756734,0.0553487,0.094774,-0.0894843,0.145013,-0.123325,-0.0828756,0.013504,0.0191879,0.010643,-0.00312805,0.0172043,0.00595093,0.00984192,0.0177765,-9.97986,0.0139618,-0.00499725,0.0134277,0.00343323,0.0127792,-0.00610352,0.014534,0.00984192
40,3,-4.4694,-0.00152588,0.00442505,-2.42745,0.0547655,-0.0753682,0.0547383,0.137499,-0.0885688,0.141961,-0.123325,-0.0850118,0.00827789,0.0187302,0.0110245,-0.00823975,0.0156403,0.00621796,0.0148392,0.0176239,-9.97986,0.0128555,-0.00225067,0.0121307,0.00415802,0.00793457,0.00221252,0.0137329,0.00984192
40,4,2.70314,0.0012207,0.00442505,-2.42776,0.0538499,-0.075063,0.0544332,0.152147,-0.0882636,0.142877,-0.121189,-0.0840963,0.00713348,0.0203323,0.0133514,0.00320435,0.0241852,0.00621796,0.0246048,0.0182724,-9.97986,0.0122833,-0.00564575,0.0158691,0.00862122,0.0170517,-0.00320435,0.0159836,0.0125122
40,5,9.73622,0.000610352,0.00442505,-2.42837,0.0538499,-0.0762837,0.0547383,0.156114,-0.0897895,0.143182,-0.122104,-0.0862325,0.0105286,0.0188065,0.012207,0.0127029,0.0150681,0.00717163,0.0299835,0.0162125,-9.97986,0.017662,-0.000915527,0.0152588,0.00545502,0.0155258,-0.00732422,0.019722,0.00770569
40,6,10.0097,0.000305176,0.00183105,-2.4305,0.0529344,-0.0771993,0.0501607,0.106981,-0.0968086,0.142572,-0.126072,-0.0901998,0.0082016,0.0133133,0.0101471,0.0102234,0.0156021,0.00743866,0.0214767,0.0159454,-9.97986,0.0175095,-0.000457764,0.0144196,0.00350952,0.0115585,-0.00854492,0.0146866,0.00682831
