
Devices
1200
,,BP Load cell - Voltage,String Length - Voltage,Clutch Active - Voltage,#7 iPecs - Voltage,,,,,,,,,EMG 1-8 Left - Voltage,,,,,,,,Pylon Force - Voltage,EMG 9-16 Right - Voltage,,,,,,,,
Frame,Sub Frame,BP Load Cell,String Length,From Arduino Logic,A45,A135,A225,A315,S0,S90,S180,S270,ZSum,EMG 1 Glut Max,EMG 2 Glut Med,EMG 3 Biceps Femoris Long,EMG 4 Rectus Femoris,EMG 5 Vastus Medialis,EMG 6 Tib Ant,EMG 7 Med Gas,EMG 8 Soleus,Pylon volts,EMG 9 Glut Max,EMG 10 Glut Med,EMG 11 Biceps Femoris Long,EMG 12 Rectus Femoris,EMG 13 Vastus Medialis,EMG 14 Tib Ant,EMG 15 Med Gas,EMG 16 Soleus
,,V,V,V,V,V,V,V,V,V,V,V,V,V,V,V,V,V,V,V,V,V,V,V,V,V,V,V,V,V
1,0,-9.99003,0.00183105,0.000152588,-2.42653,0.0550706,-0.0744527,0.0556539,0.0737169,-0.0903999,0.147149,-0.124851,-0.0831808,0.00858307,0.0235748,0.0186157,0.0112534,0.0177002,0.00816345,0.0240707,0.0139236,-9.97986,0.00862122,-0.00602722,0.0148392,0.00236511,0.00736237,-0.00087738,0.0179672,0.00556946
1,1,-9.68944,0.000305176,0.00259399,-2.4244,0.0547655,-0.0753682,0.0562642,0.123461,-0.0858222,0.144403,-0.122104,-0.0828756,0.0128937,0.0235367,0.0164032,0.0102997,0.0174713,0.0104141,0.0203705,0.0115585,-9.97986,0.00858307,0.000228882,0.0166702,0.00728607,0.0177765,0.00225067,0.0138474,0.00728607
1,2,-1.29863,0.000610352,0.00396729,-2.42806,0.0529344,-0.0747579,0.0544332,0.142687,-0.0882636,0.144098,-0.121799,-0.0834859,0.0133896,0.0242996,0.0198746,0.0142288,0.0165558,0.00938416,0.0225449,0.00804901,-9.97986,0.00865936,0.00282288,0.0170135,0.00740051,0.0191116,-0.00358582,0.0163651,0.00473022
1,3,6.38814,-0.000915527,0.00457764,-2.42867,0.0535448,-0.0759786,0.054128,0.153368,-0.0882636,0.144098,-0.122104,-0.0856222,0.00900269,0.0218201,0.0201416,0.0121307,0.0172424,0.00980377,0.0192261,0.00907898,-9.97986,0.0116348,-0.00255585,0.0177765,0.00312805,0.0174332,-0.00453949,0.0139999,0.0075531
1,4,10.0097,-0.000305176,0.00457764,-2.42928,0.0526292,-0.0765889,0.0495503,0.129564,-0.0937568,0.143182,-0.12302,-0.0889791,0.0101852,0.0250244,0.019455,0.00804901,0.0180817,0.0087738,0.0222778,0.0125122,-9.97986,0.0114822,0.000953674,0.0157928,0.00614166,0.0148392,-0.00602722,0.0130463,0.00595093
1,5,10.0097,-0.000305176,0.000762939,-2.42989,0.0535448,-0.0771993,0.0510762,0.0911119,-0.0968086,0.144098,-0.126987,-0.0877584,0.00968933,0.0235367,0.020752,0.0136185,0.0159836,0.00843048,0.0187683,0.0147247,-9.97986,0.0123215,0.00202179,0.0139618,0.00862122,0.0157547,-0.00598907,0.0120544,0.00743866
1,6,10.0097,0.00183105,0.000152588,-2.4302,0.0538499,-0.0756734,0.0513814,0.0792101,-0.0968086,0.142877,-0.126987,-0.0877584,0.00900269,0.0211716,0.0190735,0.014267,0.0165558,0.0113678,0.021019,0.0172043,-9.97986,0.0134277,-0.00324249,0.0155258,0.00598907,0.0157547,0.000686646,0.018692,0.00946045
1,7,10.0097,0.000610352,-0.000305176,-2.42928,0.0544603,-0.075063,0.0532125,0.0737169,-0.0955879,0.145318,-0.126377,-0.0865377,0.00946045,0.0255585,0.0170898,0.010376,0.0185776,0.0109863,0.022049,0.0138474,-9.97986,0.0123978,0.00087738,0.0156403,0.00713348,0.0156784,-0.00228882,0.0130844,0.0075531
1,8,10.0097,0,-0.000152588,-2.42714,0.0550706,-0.0753682,0.0529073,0.0724962,-0.0934516,0.143792,-0.126377,-0.0859274,0.00926971,0.0270844,0.0193405,0.0133133,0.0183487,0.014801,0.0229263,0.0192261,-9.97986,0.0153732,-0.00293732,0.0148392,0.00358582,0.0198746,-0.00236511,0.0144577,0.00797272
1,9,10.0097,0.000610352,0.000305176,-2.42745,0.0550706,-0.0756734,0.0522969,0.0724962,-0.0928413,0.145013,-0.126377,-0.0847066,0.0126648,0.0257492,0.0166321,0.0149536,0.0177383,0.0115585,0.0172424,0.0148773,-9.97986,0.0143814,-0.00728607,0.0161743,0.00617981,0.0146866,0.000495911,0.0130081,0.00579834
2,0,10.0097,0.000610352,0.000305176,-2.42745,0.0550706,-0.0753682,0.0547383,0.0697496,-0.0943672,0.145624,-0.125156,-0.0837911,0.0101852,0.0244141,0.0187683,0.0112915,0.0179672,0.0112915,0.0202179,0.0195694,-9.97986,0.00938416,-0.000572205,0.0148773,0.0107956,0.018425,-0.0031662,0.0177383,0.00724792
2,1,10.0097,0.000610352,0,-2.42592,0.055681,-0.0735371,0.0538228,0.0718859,-0.0919257,0.146539,-0.124546,-0.0825704,0.0104904,0.0232315,0.0181961,0.0159836,0.0143433,0.014267,0.0165939,0.0219345,-9.97986,0.0178909,-0.00183105,0.0161743,0.00671387,0.0181961,-0.00518799,0.0157166,0.00484467
2,2,10.0097,0.000915527,-0.000152588,-2.42592,0.0550706,-0.0729268,0.0544332,0.0724962,-0.0922309,0.146539,-0.124241,-0.0825704,0.0120926,0.0213242,0.0198364,0.0119781,0.0191879,0.01297,0.0191879,0.0218582,-9.97986,0.0190353,0.000610352,0.0139618,0.00640869,0.0182724,-0.00522614,0.0177765,0.00431061
2,3,10.0097,-0.000610352,0.000152588,-2.42592,0.0565965,-0.0747579,0.0556539,0.0724962,-0.0916206,0.146539,-0.123935,-0.0819601,0.0107193,0.0208664,0.0159073,0.0128555,0.0167084,0.00774384,0.021019,0.0263214,-9.97986,0.0149536,-0.0030899,0.0164795,0.00514984,0.0203705,-0.00511169,0.0159454,0.00789642
2,4,9.86989,0.000610352,-0.00198364,-2.42623,0.0565965,-0.0744527,0.0516866,0.0288561,-0.0968086,0.146539,-0.126987,-0.0834859,0.01297,0.0245285,0.0176239,0.0122452,0.0212479,0.0127792,0.0220871,0.0290298,-9.97986,0.0230026,-0.00213623,0.0179291,0.00850677,0.0188828,-0.00362396,0.0150299,0.00728607
2,5,1.17604,0.0012207,-0.00427246,-2.42623,0.0562914,-0.0735371,0.0532125,-0.00440808,-0.0971137,0.146539,-0.128513,-0.0807394,0.0129318,0.0229263,0.0169754,0.0101089,0.0163651,0.00801086,0.0169373,0.0260925,-9.97986,0.0232315,0,0.0179672,0.00873566,0.0191879,-0.000991821,0.0162888,0.00740051
2,6,-5.74199,0.000915527,-0.00457764,-2.42531,0.0565965,-0.0735371,0.0538228,-0.0150892,-0.0968086,0.145318,-0.130649,-0.0816549,0.0127411,0.024147,0.0177383,0.0106049,0.0178146,0.0122833,0.0226593,0.0257492,-9.97986,0.0192261,-0.00305176,0.0142288,0.00564575,0.0152969,-0.00656128,0.0141144,0.00488281
2,7,-9.99003,0.000915527,-0.00350952,-2.42531,0.055681,-0.0741475,0.055959,0.00810412,-0.0925361,0.146539,-0.128818,-0.0819601,0.0133896,0.0242996,0.0133133,0.0144958,0.0145721,0.0147629,0.022583,0.0180435,-9.97986,0.0207138,0.00102997,0.0191116,0.00812531,0.0217819,0.000686646,0.0166702,0.00766754
2,8,-9.99003,0.000915527,-0.00213623,-2.4247,0.0559862,-0.0747579,0.0562642,0.0355699,-0.090705,0.146234,-0.127292,-0.0810445,0.00911713,0.0230789,0.0163651,0.0134277,0.0169754,0.00995636,0.0210953,0.0191116,-9.97986,0.0126266,-0.00240326,0.0101471,0.00583649,-0.0037384,-0.00991821,0.0157166,0.00244141
2,9,-9.99003,-0.000305176,-0.0012207,-2.42714,0.0550706,-0.0747579,0.0550435,0.0560167,-0.0913154,0.145624,-0.125766,-0.0825704,0.00812531,0.0191116,0.0172806,0.00801086,0.0179291,0.0133133,0.0237274,0.0163651,-9.97986,0.0152588,-0.000686646,0.0128937,0.00782013,-0.00667572,-0.000572205,0.0149536,0.00629425
3,0,-9.99003,0.000610352,0.000610352,-2.42531,0.0538499,-0.0753682,0.0556539,0.0737169,-0.0891792,0.145318,-0.125766,-0.0819601,0.0112152,0.0268936,0.0198364,0.0106049,0.0181198,0.010376,0.018959,0.0154877,-9.97986,0.0104904,0.00301361,0.0138474,0.00724792,0.00125885,-0.00564575,0.0185776,0.00549316
3,1,-9.97966,0.00183105,0.00167847,-2.42562,0.0541551,-0.0756734,0.055959,0.12285,-0.0839912,0.145624,-0.12241,-0.0822652,0.00629425,0.0236511,0.0159073,0.00850677,0.0175476,0.00904083,0.0213242,0.0128174,-9.97986,0.00537872,-0.000762939,0.0159836,0.00766754,0.0159454,-0.000534058,0.0167847,0.00583649
3,2,-1.48509,0,0.00335693,-2.42776,0.0550706,-0.0753682,0.0553487,0.143602,-0.0882636,0.143792,-0.12241,-0.0840963,0.0101471,0.0242615,0.018425,0.0104904,0.0174332,0.00999451,0.0209045,0.00728607,-9.97986,0.0094223,-0.00114441,0.0148392,0.00747681,0.0164413,-0.00156403,0.0151062,0.00606537
3,3,6.24349,0.000915527,0.00488281,-2.42928,0.0550706,-0.0753682,0.0532125,0.155199,-0.0897895,0.144098,-0.121799,-0.085317,0.00598907,0.0252914,0.016098,0.00968933,0.017395,0.00873566,0.0204849,0.00957489,-9.97986,0.010643,-0.00183105,0.0136566,0.00644684,0.0136185,-0.00514984,0.0140381,0.00614166
3,4,10.0097,0,0.0050354,-2.4305,0.0526292,-0.0771993,0.050771,0.129869,-0.0955879,0.142572,-0.123935,-0.0883688,0.0121689,0.0235748,0.0184631,0.0120163,0.0160217,0.0120926,0.0237656,0.00900269,-9.97986,0.0120163,-0.00205994,0.0157166,0.00865936,0.0182724,-0.00259399,0.0160217,0.00679016
3,5,10.0097,0.0012207,0.000915527,-2.43172,0.0538499,-0.0765889,0.050771,0.0923326,-0.0977241,0.143182,-0.126072,-0.0883688,0.0113678,0.0232697,0.0166321,0.0107574,0.019455,0.0115585,0.0215912,0.0122452,-9.97986,0.0134277,-0.00267029,0.0150299,0.00839233,0.0203705,-0.00198364,0.0186539,0.00492096
3,6,10.0097,0,0.000152588,-2.42989,0.0535448,-0.075063,0.0516866,0.0792101,-0.095893,0.143792,-0.126987,-0.0877584,0.00827789,0.0212097,0.0197983,0.00793457,0.0205231,0.0056076,0.0251389,0.0161362,-9.97986,0.0133896,0.000228882,0.0159454,0.0104904,0.0139999,0.00087738,0.0174713,0.00499725
3,7,10.0097,-0.000305176,-0.000152588,-2.42776,0.0541551,-0.0747579,0.0526021,0.0731066,-0.0955879,0.145013,-0.126072,-0.0868429,0.00770569,0.0231934,0.0194168,0.0128937,0.0182724,0.0108337,0.019722,0.0176239,-9.97986,0.00923157,-0.000534058,0.0124741,0.00595093,0.0165176,-0.00144958,0.0146866,0.00724792
3,8,10.0097,0.000610352,0,-2.42898,0.0547655,-0.0753682,0.0535176,0.0724962,-0.0943672,0.145013,-0.124851,-0.085317,0.0107956,0.0243759,0.0133133,0.0130081,0.0219345,0.0107193,0.0237656,0.0157547,-9.97986,0.0174332,-0.00225067,0.0120163,0.00736237,0.013237,-0.00267029,0.0206375,0.00648499
3,9,10.0097,0.0012207,0.000152588,-2.42714,0.0550706,-0.0735371,0.054128,0.0718859,-0.0937568,0.145013,-0.125766,-0.0837911,0.0127792,0.0162506,0.0164413,0.0137711,0.0186539,0.00965118,0.0223923,0.0178528,-9.97986,0.0137329,0.00106812,0.0127029,0.00564575,0.0151443,0.000305176,0.0172806,0.00450134
4,0,10.0097,-0.000915527,0.000305176,-2.42684,0.0550706,-0.0747579,0.0532125,0.0709703,-0.0934516,0.145318,-0.125766,-0.0837911,0.0111008,0.024147,0.0162888,0.00984192,0.0181198,0.0127411,0.0233459,0.0165939,-9.97986,0.0172424,-0.00492096,0.0115967,0.00873566,0.0176239,-0.00232697,0.0185013,0.0037384
4,1,10.0097,0.000305176,0,-2.42592,0.0569017,-0.073232,0.0535176,0.0712755,-0.0925361,0.145318,-0.124546,-0.0822652,0.00648499,0.0224304,0.0194168,0.0117874,0.0193405,0.013504,0.0190353,0.0176239,-9.97986,0.0137329,-0.0025177,0.0151062,0.00797272,0.0162888,-0.000572205,0.0153351,0.00644684
4,2,10.0097,0.0012207,0,-2.42379,0.0565965,-0.0738423,0.0544332,0.0718859,-0.090705,0.147455,-0.123935,-0.0825704,0.010376,0.0222778,0.0181961,0.00831604,0.0240707,0.0124359,0.0224686,0.02285,-9.97986,0.015831,-0.00267029,0.0139618,0.0062561,0.0133133,-0.00133514,0.0137329,0.00839233
4,3,10.0097,0,0,-2.4244,0.0572069,-0.073232,0.055959,0.072191,-0.0922309,0.146234,-0.12363,-0.0807394,0.0128174,0.0243759,0.0168228,0.0117874,0.0176239,0.0147247,0.0246048,0.0260162,-9.97986,0.0217056,-0.00286102,0.0119781,0.0043869,0.0150681,-0.00312805,0.0144577,0.00469208
4,4,10.0097,0.00152588,-0.00259399,-2.42562,0.0562914,-0.0744527,0.0538228,0.0288561,-0.0971137,0.145013,-0.126987,-0.0828756,0.0100708,0.025177,0.0151825,0.00923157,0.0182724,0.013237,0.02388,0.0275421,-9.97986,0.0240707,0.00202179,0.0117874,0.00579834,0.0182343,-0.00339508,0.0160217,0.00843048
4,5,1.37593,0.000915527,-0.00411987,-2.4244,0.0565965,-0.0738423,0.0538228,-0.00379773,-0.0977241,0.147455,-0.128818,-0.0822652,0.0112534,0.0216293,0.0163651,0.0141525,0.0149918,0.013237,0.0148773,0.0279999,-9.97986,0.0206375,-0.00102997,0.0163269,0.0087738,0.0178528,-0.0037384,0.0167465,0.00835419
4,6,-5.49357,0,-0.00457764,-2.42653,0.0565965,-0.0738423,0.0538228,-0.0156996,-0.0965034,0.146234,-0.128818,-0.0804342,0.00911713,0.0230408,0.018425,0.0125122,0.0200653,0.0107193,0.02285,0.022583,-9.97986,0.0168991,-0.0038147,0.014534,0.00713348,0.0180435,-0.00324249,0.0172424,0.00900269
4,7,-9.99003,0.000915527,-0.0038147,-2.42501,0.0553758,-0.0738423,0.0556539,0.00688342,-0.0934516,0.146844,-0.129123,-0.0813497,0.0088501,0.0236893,0.0172424,0.00953674,0.017395,0.0118637,0.0209427,0.0235367,-9.97986,0.0174713,-0.00175476,0.0141525,0.00659943,0.0178528,-0.00301361,0.0112152,0.00682831
4,8,-9.99003,-0.000610352,-0.00213623,-2.4247,0.0562914,-0.0735371,0.055959,0.037401,-0.0913154,0.14776,-0.127598,-0.0816549,0.0087738,0.019722,0.0159073,0.0110626,0.019722,0.0123215,0.019722,0.019722,-9.97986,0.0165176,0.000762939,0.0138092,0.00396729,0.00202179,-0.00812531,0.0148773,0.00801086
4,9,-9.99003,0.000610352,-0.000762939,-2.42592,0.055681,-0.0738423,0.0553487,0.0557115,-0.090705,0.145929,-0.126072,-0.0819601,0.00724792,0.0261307,0.0151443,0.012207,0.016098,0.0116348,0.0192642,0.0153732,-9.97986,0.0102234,0.0019455,0.0131226,0.0069809,-0.00320435,-0.00442505,0.0163651,0.0043869
5,0,-9.99003,-0.000915527,-0.000152588,-2.42592,0.0547655,-0.0747579,0.0547383,0.0743273,-0.0903999,0.145624,-0.125461,-0.0831808,0.00926971,0.0229645,0.018158,0.0117493,0.0151443,0.00930786,0.0215912,0.0118256,-9.97986,0.0105667,-0.000762939,0.0125885,0.00549316,0.00686646,-0.00457764,0.0144577,0.0056839
5,1,-9.53471,0.00183105,0.00137329,-2.42501,0.0550706,-0.075063,0.0562642,0.121935,-0.0867378,0.144708,-0.123325,-0.0819601,0.00904083,0.0224686,0.0188446,0.0101471,0.0144577,0.0134277,0.0226212,0.00766754,-9.97986,0.00801086,-0.00350952,0.01297,0.00556946,0.0128555,-0.00476837,0.0162506,0.00770569
5,2,-1.11491,0.000305176,0.00396729,-2.42592,0.0535448,-0.0753682,0.0550435,0.142687,-0.088874,0.144098,-0.122715,-0.0844015,0.00843048,0.0238419,0.0164413,0.00896454,0.013237,0.0128555,0.0217819,0.00915527,-9.97986,0.00995636,-0.00164032,0.0105667,0.00888824,0.0127411,0.000572205,0.0127792,0.00492096
5,3,6.63594,0.000610352,0.00350952,-2.42806,0.0535448,-0.0775044,0.0544332,0.15703,-0.0900947,0.143487,-0.120884,-0.085317,0.0125122,0.0216293,0.0175858,0.00675201,0.014267,0.00801086,0.0256348,0.0107193,-9.97986,0.00644684,-0.00526428,0.0134659,0.0123215,0.0165176,0.000686646,0.0191498,0.00823975
5,4,10.0097,0.000610352,0.00473022,-2.43111,0.0532396,-0.0768941,0.0510762,0.127123,-0.0949775,0.143182,-0.123935,-0.0880636,0.00968933,0.022583,0.0199127,0.0104523,0.013504,0.0100327,0.0238419,0.0143433,-9.97986,0.0136185,0.00274658,0.0147247,0.00740051,0.0165939,0.00228882,0.0144196,0.00663757
5,5,10.0097,0.00152588,0.000610352,-2.4302,0.0523241,-0.0771993,0.0501607,0.0911119,-0.0974189,0.142877,-0.126072,-0.0889791,0.0122452,0.0163269,0.017662,0.0107193,0.0128937,0.0107956,0.0146484,0.0108719,-9.97986,0.0102234,-0.000114441,0.00846863,0.00385284,0.01194,-0.00450134,0.0142288,0.0030899
5,6,10.0097,0,0.000610352,-2.42959,0.0547655,-0.0771993,0.0513814,0.0792101,-0.0961982,0.142877,-0.126682,-0.0871481,0.0117493,0.0221252,0.0173569,0.0112152,0.0130844,0.00801086,0.0205994,0.0159454,-9.97986,0.0131607,0.000991821,0.0120163,0.00873566,0.0151825,-0.00156403,0.0188446,0.00991821
5,7,10.0097,0.000915527,-0.000305176,-2.42837,0.0547655,-0.0756734,0.0526021,0.0731066,-0.0949775,0.144708,-0.125766,-0.0871481,0.00919342,0.0240326,0.0186539,0.0105667,0.0138474,0.00644684,0.0191879,0.0150681,-9.97986,0.0165176,0.00411987,0.0117874,0.00774384,0.0165939,0.00106812,0.0143814,0.00850677
5,8,10.0097,0.000610352,-0.0012207,-2.42776,0.0544603,-0.0762837,0.0526021,0.0724962,-0.0946723,0.143182,-0.126072,-0.0859274,0.00812531,0.0248337,0.0193787,0.0114441,0.018158,0.00888824,0.0183487,0.0212479,-9.97986,0.0169373,-0.00179291,0.0144958,0.00762939,0.0151443,-0.0019455,0.0163651,0.00534058
5,9,10.0097,-0.000305176,-0.000305176,-2.42745,0.055681,-0.0756734,0.0532125,0.0709703,-0.0931465,0.145624,-0.126682,-0.0850118,0.0120163,0.0255203,0.0170135,0.0123596,0.0149536,0.00713348,0.0203323,0.0127411,-9.97986,0.0149155,0.00263214,0.0136566,0.00476837,0.016098,0.00213623,0.0149918,0.00610352
6,0,10.0097,0.000915527,0.000152588,-2.42684,0.0550706,-0.0756734,0.0538228,0.0712755,-0.0928413,0.144708,-0.126377,-0.0844015,0.0126648,0.0185394,0.0195313,0.015564,0.0165939,0.0128174,0.0222778,0.0157166,-9.97986,0.0165558,0.001297,0.0136566,0.00984192,0.0164795,-0.000190735,0.0152588,0.00751495
6,1,10.0097,-0.000915527,0,-2.42653,0.0569017,-0.0738423,0.054128,0.072191,-0.0925361,0.145929,-0.124851,-0.0828756,0.0115204,0.0246811,0.018158,0.0102615,0.0122452,0.00869751,0.0217438,0.0145721,-9.97986,0.0156403,-0.000762939,0.0128174,0.00854492,0.0170517,0.00225067,0.0143433,0.0037384
6,2,10.0097,0.000915527,0.000305176,-2.42501,0.0562914,-0.0744527,0.0544332,0.0706652,-0.0922309,0.146234,-0.124241,-0.0819601,0.0124741,0.0251389,0.0162506,0.00926971,0.0202179,0.0120926,0.0180817,0.0233841,-9.97986,0.0158691,-0.00240326,0.0126266,0.00751495,0.0171661,0.00171661,0.0148392,0.00564575
6,3,10.0097,-0.000305176,0.000610352,-2.42562,0.0550706,-0.0738423,0.0550435,0.0718859,-0.090705,0.145929,-0.124851,-0.0810445,0.0139618,0.0249863,0.0186539,0.0114822,0.0215912,0.0120926,0.0221634,0.024147,-9.97986,0.0178146,-0.00328064,0.0126266,0.00801086,0.0199509,-0.000343323,0.0181198,0.00980377
6,4,9.85036,0.000610352,-0.00183105,-2.42684,0.0559862,-0.0741475,0.0547383,0.027025,-0.0961982,0.145624,-0.127598,-0.0831808,0.0139999,0.0247574,0.0136566,0.0103378,0.010643,0.0106049,0.0210571,0.0260925,-9.97986,0.0233078,0.000114441,0.0154877,0.00766754,0.0209808,-0.00431061,0.015831,0.00694275
6,5,1.12233,0.000610352,-0.00457764,-2.42592,0.0559862,-0.073232,0.0526021,-0.00349256,-0.095893,0.146844,-0.129734,-0.0813497,0.0154877,0.0230789,0.0189209,0.015831,0.0219727,0.0125504,0.0221634,0.0304031,-9.97986,0.0252151,0.00297546,0.0139618,0.00762939,0.0183487,0.00137329,0.0197983,0.00972748
6,6,-5.60862,0.000305176,-0.00457764,-2.42531,0.0572069,-0.0744527,0.0538228,-0.0135634,-0.0974189,0.147149,-0.130344,-0.0816549,0.0120926,0.0276184,0.0170898,0.0143814,0.0123215,0.00736237,0.0209045,0.022316,-9.97986,0.021553,-0.000801086,0.0156021,0.00610352,0.0193024,0.00160217,0.015564,0.00732422
6,7,-9.99003,0.000610352,-0.00366211,-2.42409,0.0562914,-0.0747579,0.055959,0.00779895,-0.0931465,0.145929,-0.127598,-0.0810445,0.0162125,0.0272751,0.0169754,0.0137329,0.0211334,0.00919342,0.0195313,0.0226212,-9.97986,0.0173569,-0.00492096,0.0183487,0.00637054,0.0212479,0.000648499,0.0187302,0.0104523
6,8,-9.99003,-0.000915527,-0.00259399,-2.42562,0.0553758,-0.0741475,0.055959,0.0364855,-0.0916206,0.146844,-0.126377,-0.0810445,0.0105667,0.0234604,0.0177383,0.00900269,0.0201416,0.0117111,0.0169754,0.0197601,-9.97986,0.0162125,-0.0018692,0.0138092,0.00255585,-0.001297,-0.00228882,0.0163269,0.013237
6,9,-9.99003,-0.000305176,-0.000762939,-2.42531,0.055681,-0.0747579,0.0553487,0.054796,-0.0913154,0.146844,-0.126682,-0.0819601,0.0168228,0.0259018,0.0198364,0.012207,0.0167465,0.0126266,0.0227737,0.0154495,-9.97986,0.0149536,0.00118256,0.0186539,0.00038147,-0.00598907,0.00114441,0.0148392,0.00831604
7,0,-9.99003,-0.000305176,0.000610352,-2.42592,0.055681,-0.0741475,0.0553487,0.0746324,-0.0903999,0.145624,-0.126072,-0.0819601,0.0111771,0.022049,0.0195313,0.0112534,0.0180817,0.00862122,0.019722,0.00938416,-9.97986,0.00900269,-0.00213623,0.0128555,0.00579834,0.00637054,-0.000991821,0.0123215,0.00972748
7,1,-9.60185,-0.000915527,0.00198364,-2.42562,0.0544603,-0.0753682,0.0568746,0.124071,-0.0858222,0.145318,-0.121189,-0.0825704,0.0106812,0.0234985,0.0186539,0.0100327,0.018158,0.0117493,0.0172806,0.00968933,-9.97986,0.00965118,-0.00175476,0.0172043,0.00774384,0.0145721,-0.000228882,0.0138092,0.00724792
7,2,-1.37584,0.0012207,0.00366211,-2.42806,0.0529344,-0.0756734,0.0550435,0.141771,-0.0882636,0.143792,-0.121799,-0.0847066,0.0075531,0.0249863,0.0202942,0.0133896,0.0188446,0.00808716,0.0195694,0.00961304,-9.97986,0.00953674,0.00213623,0.0160599,0.00869751,0.018425,0.000190735,0.0142288,0.00495911
7,3,6.34542,-0.00152588,0.00442505,-2.42745,0.0535448,-0.0756734,0.054128,0.153978,-0.0897895,0.144708,-0.120884,-0.0850118,0.0134659,0.0230408,0.0177002,0.011673,0.0184631,0.00545502,0.0163651,0.00976563,-9.97986,0.0129318,0.00038147,0.0120163,0.00846863,0.0180435,-0.000534058,0.0185776,0.00743866
7,4,10.0097,0.000305176,0.0050354,-2.43111,0.0532396,-0.0771993,0.0516866,0.129564,-0.0943672,0.142267,-0.124241,-0.0883688,0.00583649,0.0273132,0.0167847,0.0105286,0.0161362,0.010643,0.0203705,0.010643,-9.97986,0.0119781,-0.0044632,0.0115204,0.00659943,0.0131989,-0.00221252,0.0165176,0.00926971
7,5,10.0097,0.00152588,0.00152588,-2.4305,0.0538499,-0.0762837,0.0495503,0.0914171,-0.095893,0.142267,-0.125461,-0.0880636,0.00946045,0.0271606,0.0167084,0.0120163,0.0175858,0.0082016,0.0214767,0.0123596,-9.97986,0.00785828,0.000953674,0.020752,0.00965118,0.0197983,0.00133514,0.015564,0.00934601
7,6,10.0097,0.00152588,0.000305176,-2.43111,0.0532396,-0.0759786,0.0513814,0.0801256,-0.0971137,0.143792,-0.126682,-0.0880636,0.00900269,0.0207138,0.015564,0.011673,0.0162888,0.00991821,0.0194931,0.0185776,-9.97986,0.0123978,-0.00205994,0.0128937,0.00530243,0.0162888,0.00217438,0.0136566,0.00572205
7,7,10.0097,-0.000610352,0.000457764,-2.42898,0.0544603,-0.075063,0.0526021,0.0724962,-0.0943672,0.145318,-0.126072,-0.0868429,0.00888824,0.0221252,0.0147247,0.0118256,0.0196075,0.0104904,0.0201797,0.0167465,-9.97986,0.0147247,-0.0031662,0.0154114,0.00762939,0.0144958,-0.00228882,0.0143051,0.00816345
7,8,10.0097,0.000915527,-0.000305176,-2.42867,0.0538499,-0.0747579,0.0535176,0.0715807,-0.0949775,0.143792,-0.125461,-0.0856222,0.00934601,0.0214386,0.0169373,0.0075531,0.0138855,0.00968933,0.0248718,0.0118637,-9.97986,0.010643,0.00221252,0.0143814,0.00587463,0.0166702,-0.00171661,0.0165558,0.00595093
7,9,10.0097,-0.000305176,-0.000610352,-2.42684,0.0553758,-0.0747579,0.0532125,0.072191,-0.094062,0.145013,-0.126072,-0.0844015,0.0128174,0.0255585,0.0160217,0.0136185,0.0217819,0.0114059,0.0201797,0.0187683,-9.97986,0.0149918,-0.00259399,0.0122833,0.00598907,0.0151825,-0.000610352,0.0172424,0.00324249
8,0,10.0097,0.000610352,0.000305176,-2.42623,0.0550706,-0.0738423,0.0544332,0.0709703,-0.0934516,0.144708,-0.126072,-0.0844015,0.0122452,0.0262833,0.0178528,0.00892639,0.0162506,0.0101471,0.021286,0.018692,-9.97986,0.0117874,0.000686646,0.0135803,0.00576019,0.017662,-0.000419617,0.0178909,0.00774384
8,1,10.0097,-0.000305176,-0.000610352,-2.42562,0.0553758,-0.0729268,0.054128,0.0712755,-0.0916206,0.146234,-0.124546,-0.0819601,0.0102615,0.0257111,0.0200653,0.0117874,0.0202179,0.0152206,0.0236893,0.0182343,-9.97986,0.0179291,-0.000991821,0.016861,0.00915527,0.0133133,0.00148773,0.0163269,0.00759125
8,2,10.0097,-0.000610352,0.000305176,-2.42501,0.055681,-0.0747579,0.054128,0.0706652,-0.0925361,0.145318,-0.123935,-0.0822652,0.00869751,0.0242615,0.0175858,0.0127029,0.0143051,0.00869751,0.0215912,0.0212097,-9.97986,0.0202179,0.001297,0.0166321,0.00915527,0.0139236,0.00221252,0.014267,0.0031662
8,3,10.0097,0,0.000457764,-2.42714,0.0559862,-0.073232,0.055959,0.072191,-0.0922309,0.146539,-0.125156,-0.0822652,0.0125122,0.0270462,0.0172043,0.00984192,0.0187302,0.00785828,0.0207138,0.0262833,-9.97986,0.0162125,-0.00202179,0.0147629,0.00545502,0.0163269,-0.00183105,0.0139618,0.00900269
8,4,9.80824,-0.000305176,-0.00274658,-2.42653,0.055681,-0.0741475,0.0529073,0.030382,-0.0961982,0.146844,-0.126987,-0.0825704,0.0130463,0.0252914,0.0185013,0.00686646,0.023613,0.0140381,0.0227356,0.0265503,-9.97986,0.0205994,-0.00404358,0.0131989,0.00610352,0.0159836,-0.00465393,0.0204849,0.00507355
8,5,1.09944,0.00152588,-0.00411987,-2.42531,0.0565965,-0.0729268,0.0538228,-0.00440808,-0.0977241,0.146234,-0.128513,-0.0819601,0.0122452,0.0239182,0.020256,0.0117111,0.0210571,0.0136948,0.0278091,0.0279236,-9.97986,0.0203705,-0.0019455,0.0105286,0.00988007,0.0162506,-0.00366211,0.0177002,0.00720978
8,6,-5.75114,0.00152588,-0.00473022,-2.42623,0.0565965,-0.0738423,0.0535176,-0.0144789,-0.0968086,0.146539,-0.130954,-0.0813497,0.00789642,0.0233841,0.0189972,0.0124359,0.0191879,0.00823975,0.0219727,0.0227356,-9.97986,0.019989,-0.00541687,0.0124741,0.0069046,0.0155258,-0.00423431,0.0162506,0.00896454
8,7,-9.99003,-0.000915527,-0.00213623,-2.4244,0.0572069,-0.0735371,0.0550435,0.00749377,-0.0928413,0.146844,-0.128818,-0.0810445,0.00720978,0.0254059,0.0192642,0.01091,0.0151825,0.0107193,0.0259399,0.025177,-9.97986,0.0214767,0,0.0170135,0.00434875,0.0123596,-0.00408173,0.0160599,0.00835419
8,8,-9.99003,0.0012207,-0.00183105,-2.42501,0.0562914,-0.0729268,0.055959,0.0364855,-0.0910102,0.14776,-0.127292,-0.0813497,0.0126266,0.0242996,0.0164032,0.0111008,0.018425,0.0140762,0.0261688,0.0206375,-9.97986,0.0155258,-0.00350952,0.0141907,0.00667572,-0.00640869,3.8147e-005,0.0186157,0.0102234
8,9,-9.99003,0,-0.000305176,-2.42531,0.0553758,-0.075063,0.0550435,0.0554064,-0.0903999,0.145624,-0.126682,-0.0813497,0.00602722,0.0210953,0.0176239,0.011673,0.0174713,0.0110626,0.0220108,0.0167084,-9.97986,0.0152206,-0.00350952,0.0123978,0.0075531,-0.00930786,-0.00328064,0.0161362,0.00534058
9,0,-9.99003,0.00305176,0.000762939,-2.42562,0.0550706,-0.0729268,0.055959,0.0724962,-0.0897895,0.145318,-0.126072,-0.0822652,0.010643,0.0252151,0.023613,0.0146484,0.0152588,0.0107574,0.0242233,0.0120544,-9.97986,0.0108337,0.00259399,0.0128937,0.0038147,0.0025177,0.000457764,0.0160217,0.00617981
9,1,-9.99003,0,0.00213623,-2.42531,0.0550706,-0.0747579,0.0553487,0.12163,-0.0867378,0.144708,-0.12241,-0.0828756,0.00591278,0.0260925,0.0175858,0.00995636,0.0175095,0.0143814,0.0242996,0.00514984,-9.97986,0.00656128,0.00320435,0.0126648,0.0087738,0.0164032,-0.00160217,0.0159454,0.00732422
9,2,-1.54826,0.000915527,0.00366211,-2.42837,0.0547655,-0.0747579,0.0553487,0.142687,-0.0885688,0.143182,-0.12241,-0.0847066,0.00823975,0.0251007,0.0179672,0.00751495,0.0198364,0.0130844,0.025444,0.00972748,-9.97986,0.0100708,-0.00213623,0.0168991,0.0043869,0.0159454,-0.0030899,0.0127411,0.00453949
9,3,6.18215,0.000915527,0.00442505,-2.42684,0.0547655,-0.0759786,0.0547383,0.154588,-0.0885688,0.143182,-0.121189,-0.0859274,0.00850677,0.0223541,0.022049,0.00873566,0.0133133,0.0104523,0.0197983,0.0119019,-9.97986,0.012207,-0.00217438,0.0154495,0.00469208,0.0120926,-0.0019455,0.0134277,0.00362396
9,4,10.0097,0.000610352,0.00488281,-2.42959,0.0532396,-0.0771993,0.0513814,0.130174,-0.0949775,0.142877,-0.124241,-0.0871481,0.0104904,0.0250244,0.0172806,0.00968933,0.014534,0.0121307,0.025177,0.01194,-9.97986,0.0123978,-0.000457764,0.0124359,0.00598907,0.0169373,0.00038147,0.013504,0.00343323
9,5,10.0097,-0.0012207,0.000610352,-2.4305,0.0544603,-0.0759786,0.0501607,0.0935533,-0.0977241,0.143792,-0.125461,-0.0886739,0.0094223,0.0220108,0.0175858,0.00995636,0.0191116,0.0128174,0.0200653,0.0107956,-9.97986,0.0137329,0.00175476,0.0170135,0.00965118,0.0167465,-0.000991821,0.0152588,0.00556946
9,6,10.0097,0.00152588,-0.000305176,-2.42959,0.0544603,-0.0759786,0.050771,0.0804308,-0.0968086,0.142572,-0.126377,-0.0883688,0.0115204,0.0242233,0.0178909,0.0120163,0.0139618,0.0112152,0.0206757,0.0153732,-9.97986,0.0146484,0.00144958,0.0148773,0.00801086,0.0159454,-0.00167847,0.0157928,0.00156403
9,7,10.0097,0.000305176,-0.000152588,-2.42776,0.0535448,-0.075063,0.0516866,0.0749376,-0.0955879,0.143487,-0.126377,-0.0868429,0.0112534,0.0216675,0.0222778,0.0124359,0.0160599,0.0125122,0.0234222,0.0171661,-9.97986,0.0131607,0.0012207,0.0164413,0.00541687,0.0166321,-0.00209808,0.0179291,0.00366211
9,8,10.0097,0.000305176,0,-2.42562,0.0553758,-0.075063,0.0535176,0.0718859,-0.094062,0.143487,-0.126682,-0.0859274,0.0117874,0.0209808,0.0148773,0.0137711,0.0178909,0.0107193,0.0188828,0.0154495,-9.97986,0.0154877,-0.000610352,0.0152588,0.00495911,0.0167084,-0.000648499,0.0156784,0.00602722
9,9,10.0097,0.00152588,0,-2.42684,0.0559862,-0.0759786,0.0522969,0.0700548,-0.0937568,0.145318,-0.126377,-0.0847066,0.00858307,0.0230026,0.0193405,0.0115585,0.0196838,0.0148392,0.0257492,0.0233078,-9.97986,0.0159073,-0.0031662,0.0190735,0.0031662,0.0180435,-0.00343323,0.0124359,0.00526428
10,0,10.0097,0.000305176,0.000610352,-2.42684,0.0559862,-0.075063,0.0535176,0.0709703,-0.0934516,0.145013,-0.125461,-0.0837911,0.0130844,0.0235748,0.0178146,0.0126648,0.0165176,0.0130463,0.0160599,0.013237,-9.97986,0.0127411,0.00190735,0.017662,0.00431061,0.0191879,-0.00209808,0.0144577,0.00328064
10,1,10.0097,0,0.000457764,-2.42562,0.0547655,-0.0747579,0.054128,0.072191,-0.0922309,0.146234,-0.124851,-0.0825704,0.0114441,0.0234222,0.0191116,0.0130081,0.0192642,0.0143814,0.0230408,0.0200653,-9.97986,0.00812531,-0.00343323,0.0125122,0.0120163,0.0162506,-0.00480652,0.0165176,0.00534058
10,2,10.0097,0.000610352,0,-2.42501,0.0569017,-0.0738423,0.0547383,0.072191,-0.0913154,0.146234,-0.125156,-0.0810445,0.0134659,0.0242233,0.0207138,0.0106049,0.0178146,0.0101471,0.0191116,0.018158,-9.97986,0.0204468,-0.000228882,0.0165176,0.00553131,0.0148773,-0.00385284,0.0186157,0.0030899
10,3,10.0097,0.00274658,0.000152588,-2.42501,0.0553758,-0.0747579,0.0547383,0.072191,-0.0919257,0.146844,-0.12363,-0.0813497,0.012207,0.0263214,0.0188828,0.0128937,0.0177002,0.0134277,0.0195694,0.0232697,-9.97986,0.0200272,7.62939e-005,0.0138092,0.00602722,0.0205994,-0.00232697,0.0148392,0.00534058
10,4,9.88881,0.000915527,-0.00213623,-2.42684,0.0559862,-0.0744527,0.0532125,0.0267198,-0.0983344,0.144708,-0.126682,-0.0831808,0.013504,0.0212097,0.0232697,0.0122452,0.0201035,0.0119019,0.0172424,0.029068,-9.97986,0.0194168,-0.00247955,0.010376,0.00797272,0.0205612,-0.00572205,0.0177383,0.00617981
10,5,1.19893,0,-0.00457764,-2.42592,0.0572069,-0.0735371,0.0535176,-0.00257703,-0.0968086,0.14837,-0.129429,-0.0819601,0.0111389,0.0246429,0.0187683,0.0119781,0.0185013,0.0119019,0.0223923,0.0282288,-9.97986,0.0196838,-0.00347137,0.0154877,0.00720978,0.0189209,-0.0075531,0.0186539,0.0044632
10,6,-5.5833,-0.000610352,-0.0038147,-2.4247,0.0565965,-0.0735371,0.0544332,-0.0153944,-0.0965034,0.145624,-0.129734,-0.0825704,0.0143433,0.019989,0.0202179,0.0150299,0.0151062,0.00873566,0.022583,0.0268936,-9.97986,0.0206375,0.00411987,0.0153732,0.00751495,0.0210953,-0.00644684,0.0198746,0.00534058
10,7,-9.99003,0.000915527,-0.00320435,-2.42501,0.0559862,-0.0747579,0.0553487,0.00810412,-0.0922309,0.146539,-0.128513,-0.0816549,0.00980377,0.0214386,0.0200272,0.0139236,0.0163269,0.00888824,0.0234222,0.0252533,-9.97986,0.0152969,0.001297,0.0119781,0.00652313,0.0166321,-0.00453949,0.0172424,0.00431061
10,8,-9.99003,0.000610352,-0.00167847,-2.4247,0.055681,-0.0744527,0.0565694,0.0349596,-0.0916206,0.146844,-0.128513,-0.0816549,0.00984192,0.0217819,0.018959,0.0117874,0.0216675,0.0126648,0.0203705,0.0193024,-9.97986,0.0222778,0.0012207,0.0165176,0.00617981,-0.000915527,-0.00278473,0.0156784,0.0100327
10,9,-9.99003,0.000305176,-0.000610352,-2.42592,0.0562914,-0.075063,0.0553487,0.0560167,-0.0900947,0.145624,-0.126072,-0.0816549,0.00648499,0.0209808,0.0178146,0.0135422,0.0174713,0.00865936,0.0189209,0.00995636,-9.97986,0.00923157,-0.00240326,0.0139236,0.00919342,-0.00415802,0.000114441,0.0157547,0.00621796
11,0,-9.99003,0.000915527,-0.000152588,-2.42623,0.0544603,-0.075063,0.0544332,0.0737169,-0.0897895,0.145318,-0.126072,-0.0825704,0.00988007,0.0211716,0.014267,0.00968933,0.0141525,0.00659943,0.0203323,0.0101089,-9.97986,0.0133896,-0.00358582,0.00946045,0.0075531,0.00816345,-0.00320435,0.0211716,0.00488281
11,1,-9.80876,0,0.00213623,-2.42653,0.0538499,-0.0744527,0.055959,0.120104,-0.0858222,0.145624,-0.122715,-0.0822652,0.0088501,0.0234222,0.0188065,0.0105667,0.0151443,0.00747681,0.0189972,0.0122833,-9.97986,0.0123978,0.00202179,0.0164413,0.0103378,0.0175095,-3.8147e-005,0.0180054,0.00694275
11,2,-1.54246,0.00213623,0.00320435,-2.42837,0.0538499,-0.075063,0.0535176,0.142687,-0.0894843,0.143792,-0.122715,-0.0850118,0.00782013,0.0254059,0.017395,0.0136566,0.0167084,0.00762939,0.0240707,0.00762939,-9.97986,0.0106812,-0.000801086,0.0139236,0.00537872,0.0144196,-0.00358582,0.0143051,0.00511169
11,3,6.16506,0.000610352,0.0038147,-2.42837,0.0529344,-0.0753682,0.0547383,0.153673,-0.088874,0.143792,-0.12241,-0.0856222,0.00961304,0.0235748,0.0201797,0.0148392,0.0206375,0.0116348,0.0229645,0.0114059,-9.97986,0.0117874,0.00289917,0.0162506,0.00686646,0.014534,-0.00225067,0.0182724,0.00640869
11,4,10.0097,-0.0012207,0.00442505,-2.43081,0.0535448,-0.0765889,0.050771,0.131395,-0.0943672,0.142877,-0.124546,-0.0874532,0.00984192,0.0236893,0.0174713,0.00843048,0.0139236,0.00980377,0.0210953,0.0138855,-9.97986,0.00545502,0.00087738,0.0172043,0.00743866,0.0165176,-0.00202179,0.014534,0.00545502
11,5,10.0097,-0.000610352,0.00183105,-2.4302,0.0550706,-0.0756734,0.0513814,0.0926378,-0.0983344,0.142877,-0.126682,-0.0883688,0.0130081,0.0239944,0.0203323,0.0108719,0.0168228,0.00923157,0.0219345,0.0127792,-9.97986,0.0152206,0.00289917,0.0128174,0.00743866,0.0161362,-0.00293732,0.0162125,0.00434875
11,6,10.0097,0.000305176,0.000457764,-2.42959,0.0547655,-0.0762837,0.0513814,0.0795153,-0.0971137,0.141961,-0.127598,-0.0880636,0.0128937,0.0235748,0.019722,0.0144577,0.0154114,0.00858307,0.0203705,0.0117493,-9.97986,0.0151825,0.00175476,0.0148773,0.00988007,0.0153351,-0.0043869,0.0206757,0.00522614
11,7,10.0097,0.0012207,-0.000152588,-2.42776,0.0538499,-0.0753682,0.0516866,0.0734117,-0.0949775,0.142877,-0.126682,-0.0868429,0.0136185,0.0240326,0.0186539,0.0133896,0.0154877,0.00865936,0.0217056,0.0159454,-9.97986,0.0152588,0.00267029,0.0128174,0.00923157,0.0163269,-0.00434875,0.0138855,0.00480652
11,8,10.0097,0.00274658,0,-2.42806,0.0553758,-0.0756734,0.0532125,0.0731066,-0.0949775,0.143792,-0.126072,-0.085317,0.0117493,0.0202179,0.0186539,0.0107956,0.0153732,0.00492096,0.0229645,0.013237,-9.97986,0.0120544,0.0012207,0.0128937,0.00858307,0.0183868,-0.00457764,0.0170898,0.00720978
11,9,10.0097,0.00152588,0.000152588,-2.42745,0.0544603,-0.0744527,0.0529073,0.0709703,-0.094062,0.144403,-0.126987,-0.0844015,0.0111008,0.0231934,0.018158,0.00923157,0.0153351,0.00751495,0.0209808,0.0183487,-9.97986,0.0118256,-0.00125885,0.0101471,0.00728607,0.0164413,0.00137329,0.0172424,0.00663757
12,0,10.0097,0.000915527,-0.000152588,-2.42653,0.0553758,-0.0744527,0.0535176,0.0712755,-0.0934516,0.145013,-0.126072,-0.0834859,0.00926971,0.0164413,0.0170135,0.01091,0.0160599,0.00808716,0.0222778,0.0213242,-9.97986,0.0150299,0.000343323,0.0144196,0.00831604,0.0205994,-0.00160217,0.0179291,0.0088501
12,1,10.0097,0.000915527,0.000152588,-2.42684,0.055681,-0.0744527,0.0535176,0.0718859,-0.0922309,0.145929,-0.12363,-0.0816549,0.0127029,0.0221634,0.0174713,0.0148392,0.0146103,0.00915527,0.0220108,0.0202942,-9.97986,0.0161362,0.00183105,0.0162125,0.0043869,0.0200653,-0.00259399,0.0153351,0.00534058
12,2,10.0097,0.00152588,0.000457764,-2.42531,0.055681,-0.0738423,0.0544332,0.0709703,-0.090705,0.147149,-0.124851,-0.0813497,0.0136948,0.0234985,0.0181961,0.0127792,0.0190735,0.00926971,0.0233841,0.0209427,-9.97986,0.0153351,0.00278473,0.0157928,0.00709534,0.0212097,-0.00217438,0.0185776,0.00846863
12,3,10.0097,0.000915527,-0.000610352,-2.42562,0.0569017,-0.0738423,0.054128,0.0706652,-0.0919257,0.145318,-0.124546,-0.0807394,0.0101089,0.0229645,0.0200653,0.00873566,0.0135803,0.0087738,0.0198364,0.0279999,-9.97986,0.0166702,-0.00259399,0.0115967,0.00782013,0.0177765,-0.00663757,0.0154114,0.00549316
12,4,9.82167,0.000610352,-0.00213623,-2.42592,0.055681,-0.075063,0.0529073,0.0306871,-0.0965034,0.145318,-0.127292,-0.0825704,0.0114441,0.0226212,0.0141144,0.0127029,0.019455,0.00556946,0.0213623,0.031929,-9.97986,0.0214386,-0.000343323,0.0148392,0.00656128,0.0220871,-0.00236511,0.0173569,0.00923157
12,5,1.15224,0.000610352,-0.0050354,-2.42623,0.0572069,-0.0741475,0.0529073,-0.00471326,-0.0977241,0.145624,-0.128818,-0.0810445,0.0146103,0.0269699,0.0166702,0.0146484,0.0195313,0.00442505,0.0213242,0.0256729,-9.97986,0.0189209,-0.000228882,0.0143433,0.00652313,0.0220871,-0.00255585,0.0170135,0.00617981
12,6,-5.7957,0.000305176,-0.00488281,-2.42623,0.0569017,-0.073232,0.0535176,-0.0144789,-0.095893,0.146844,-0.129734,-0.0822652,0.01091,0.0222015,0.0186157,0.0107956,0.0193405,0.00854492,0.0225449,0.0276184,-9.97986,0.0194168,-0.000724792,0.0115967,0.0101089,0.0232697,-0.0030899,0.0135803,0.00785828
12,7,-9.99003,-0.000305176,-0.00350952,-2.4244,0.0575121,-0.0741475,0.0562642,0.0071886,-0.0919257,0.146234,-0.128208,-0.0813497,0.0120163,0.021553,0.0177002,0.01297,0.020752,0.00915527,0.0211334,0.0183868,-9.97986,0.0162125,-0.00541687,0.0127792,0.00854492,0.0169373,-0.00450134,0.0170898,0.00717163
12,8,-9.99003,0.000915527,-0.00183105,-2.42531,0.0562914,-0.075063,0.0562642,0.0377062,-0.0916206,0.145624,-0.126682,-0.0810445,0.0104904,0.0258255,0.0173569,0.0113678,0.0188446,0.00915527,0.0266266,0.0214005,-9.97986,0.0150299,-0.00213623,0.0177765,0.00900269,-0.00526428,-0.00427246,0.0135803,0.00598907
12,9,-9.99003,0.000610352,-0.000305176,-2.42501,0.0569017,-0.0744527,0.055959,0.0563219,-0.090705,0.145624,-0.126377,-0.0819601,0.00961304,0.0182724,0.0164032,0.0136566,0.0168991,0.0087738,0.022316,0.0157166,-9.97986,0.0105286,-0.000839233,0.0162125,0.00930786,-0.00850677,-0.00404358,0.0172806,0.00495911
13,0,-9.99003,0.00213623,0,-2.42684,0.0559862,-0.0741475,0.055959,0.072191,-0.0891792,0.144403,-0.124851,-0.0819601,0.00988007,0.0205231,0.0188065,0.0131607,0.0196075,0.00507355,0.0204086,0.013504,-9.97986,0.0108719,0.000457764,0.0114059,0.00747681,-0.00190735,-0.00453949,0.0157547,0.00740051
13,1,-9.99003,0.000305176,0.00183105,-2.42562,0.0541551,-0.0741475,0.0577901,0.123155,-0.0849067,0.145318,-0.12241,-0.0831808,0.00766754,0.0235748,0.0188446,0.00919342,0.0167084,0.0087738,0.0206757,0.00442505,-9.97986,0.0117493,-0.00358582,0.0154877,0.00473022,0.0187683,0.000495911,0.0162125,0.00816345
13,2,-1.74174,0.000610352,0.00350952,-2.42684,0.0544603,-0.075063,0.0544332,0.143602,-0.0885688,0.142877,-0.121494,-0.0844015,0.00919342,0.0233841,0.0196457,0.0109482,0.0195694,0.0111008,0.018692,0.0104141,-9.97986,0.0135422,-0.00171661,0.0150681,0.00602722,0.0162506,-7.62939e-005,0.0144958,0.00743866
13,3,6.04451,0.00152588,0.00442505,-2.42806,0.0535448,-0.0759786,0.054128,0.155504,-0.0891792,0.145013,-0.121799,-0.085317,0.0101471,0.0246811,0.0177765,0.00923157,0.0179672,0.0164032,0.0254059,0.0143433,-9.97986,0.00988007,0.000648499,0.0151062,0.00480652,0.0130463,0.000534058,0.014534,0.00682831
13,4,10.0097,0.00152588,0.00488281,-2.42959,0.0535448,-0.0759786,0.0504659,0.133531,-0.0934516,0.142572,-0.12363,-0.0877584,0.0138092,0.0214005,0.0172043,0.0101471,0.0176239,0.00747681,0.024147,0.0135803,-9.97986,0.00984192,0.00156403,0.0127411,0.00904083,0.0145721,-0.00179291,0.0144196,0.0043869
13,5,10.0097,0.0012207,0.00137329,-2.42959,0.0541551,-0.0747579,0.0501607,0.0935533,-0.0971137,0.143182,-0.126072,-0.0880636,0.0111771,0.0258255,0.0144196,0.0124741,0.0161362,0.00968933,0.0221252,0.0132751,-9.97986,0.0129318,0.00427246,0.0156021,0.00694275,0.0158691,-0.0038147,0.0166702,0.0037384
13,6,10.0097,0.000305176,0.000610352,-2.42898,0.0541551,-0.0768941,0.0510762,0.0792101,-0.095893,0.141656,-0.125461,-0.0880636,0.0118256,0.02285,0.0212097,0.0141525,0.0204849,0.0128937,0.017128,0.0181961,-9.97986,0.0142288,0.000152588,0.0140762,0.0100708,0.0182343,-0.00274658,0.0139999,0.00400543
13,7,10.0097,0.000610352,0.000305176,-2.42867,0.0535448,-0.0759786,0.0532125,0.0740221,-0.0937568,0.144708,-0.125461,-0.0871481,0.0124741,0.0244522,0.0198746,0.0123215,0.0188065,0.0124359,0.020752,0.0124359,-9.97986,0.0180435,0.00183105,0.014534,0.00293732,0.013504,-0.000152588,0.0183105,0.00335693
13,8,10.0097,-0.000610352,-0.000152588,-2.42776,0.0541551,-0.0753682,0.0532125,0.0728014,-0.095893,0.144098,-0.126682,-0.0862325,0.0125122,0.0237656,0.014267,0.0126266,0.0159836,0.0143433,0.0179291,0.0153351,-9.97986,0.0173569,0.00118256,0.0182724,0.0088501,0.0162506,-0.00118256,0.0157547,0.0069046
13,9,10.0097,0.000305176,-0.000152588,-2.42684,0.055681,-0.0753682,0.0532125,0.0709703,-0.0946723,0.145318,-0.126377,-0.0840963,0.0123596,0.0239182,0.0185776,0.0120926,0.0194931,0.00984192,0.0193024,0.0150681,-9.97986,0.0153732,-0.00324249,0.0138092,0.00370026,0.020256,-0.00267029,0.0164032,0.00595093
14,0,10.0097,-0.000610352,0.000152588,-2.42623,0.0550706,-0.075063,0.0526021,0.0706652,-0.0922309,0.145624,-0.126072,-0.0840963,0.0131607,0.0242996,0.020256,0.0143051,0.0196838,0.0114822,0.021019,0.0198364,-9.97986,0.0111389,-0.000991821,0.0146484,0.00732422,0.0189209,-0.00244141,0.0164032,0.00610352
14,1,10.0097,-0.0012207,0,-2.42623,0.0562914,-0.0747579,0.0547383,0.0709703,-0.0928413,0.147149,-0.125156,-0.0822652,0.0131607,0.0227737,0.0211334,0.014801,0.0153351,0.0112534,0.0208282,0.013504,-9.97986,0.0159454,-0.00167847,0.0150681,0.00862122,0.0217819,-0.00339508,0.0173187,0.00564575
14,2,10.0097,0.000305176,-0.000457764,-2.4247,0.0565965,-0.0744527,0.054128,0.0718859,-0.0919257,0.145318,-0.123935,-0.0816549,0.00801086,0.0215149,0.0186539,0.00999451,0.017662,0.01091,0.026474,0.0152969,-9.97986,0.0199509,0.00106812,0.014801,0.00923157,0.0177002,-0.00370026,0.015564,0.00694275
14,3,10.0097,0.00244141,0.000305176,-2.42501,0.0572069,-0.0735371,0.0535176,0.0718859,-0.0925361,0.146844,-0.124241,-0.0810445,0.01297,0.0286865,0.0201797,0.0125504,0.0185776,0.0120926,0.0222397,0.0265503,-9.97986,0.0156784,-0.00244141,0.0157166,0.00713348,0.0231171,-0.00324249,0.0180435,0.00637054
14,4,9.74599,0,-0.00198364,-2.42653,0.0562914,-0.0747579,0.054128,0.0285509,-0.0961982,0.146539,-0.128208,-0.0828756,0.0131226,0.0284195,0.0161743,0.0111008,0.0177383,0.0114822,0.02388,0.0276184,-9.97986,0.0185013,0.00267029,0.0127792,0.00812531,0.0164795,-0.00286102,0.014267,0.0069809
14,5,1.04878,0.000305176,-0.00427246,-2.42531,0.0559862,-0.0735371,0.0538228,-0.00532361,-0.0965034,0.146234,-0.128513,-0.0825704,0.0130081,0.0249481,0.0200272,0.0134277,0.0187683,0.00892639,0.0233459,0.0284958,-9.97986,0.0215149,-0.0019455,0.00888824,0.00576019,0.0173569,-0.00537872,0.0159454,0.00583649
14,6,-5.84483,0.00183105,-0.00518799,-2.42684,0.0562914,-0.0747579,0.0529073,-0.0147841,-0.0971137,0.14837,-0.129734,-0.0816549,0.0105286,0.0245667,0.0165176,0.00789642,0.0175095,0.0120544,0.0218201,0.0263977,-9.97986,0.0216675,-0.0030899,0.0114059,0.0104141,0.0188446,-0.00686646,0.0154495,0.00648499
14,7,-9.99003,0.000305176,-0.00305176,-2.4244,0.0572069,-0.0735371,0.0550435,0.00901965,-0.0922309,0.145624,-0.128513,-0.0813497,0.013237,0.023613,0.0214386,0.0152206,0.020256,0.0143814,0.0234985,0.0244522,-9.97986,0.0189972,-0.000343323,0.0120544,0.00961304,0.0162125,7.62939e-005,0.0171661,0.00579834
14,8,-9.99003,0.00213623,-0.00152588,-2.42653,0.055681,-0.0735371,0.0556539,0.0367906,-0.0913154,0.145624,-0.127598,-0.0810445,0.00801086,0.0240326,0.021553,0.0149155,0.0217438,0.00679016,0.0238037,0.0224304,-9.97986,0.0189972,0.000686646,0.0166702,0.00873566,-0.00602722,-0.00377655,0.0180817,0.00797272
14,9,-9.99003,0.000610352,-0.000762939,-2.42531,0.0553758,-0.0744527,0.0553487,0.0554064,-0.090705,0.144403,-0.126682,-0.0816549,0.00469208,0.0178909,0.018959,0.01091,0.0208664,0.0104141,0.0249481,0.0195694,-9.97986,0.0143433,-0.00244141,0.01297,0.00278473,-0.00789642,-0.00270844,0.0139618,0.00408173
15,0,-9.99003,0.000305176,0.000305176,-2.42653,0.0559862,-0.0744527,0.0553487,0.0718859,-0.0900947,0.146539,-0.124546,-0.0825704,0.0113678,0.0199127,0.0205994,0.013237,0.0173569,0.0094223,0.0226212,0.0128555,-9.97986,0.0120926,-0.00537872,0.0136185,0.00583649,0.00244141,-0.00225067,0.014267,0.00740051
15,1,-9.99003,0.00152588,0.00137329,-2.42714,0.0541551,-0.0744527,0.0553487,0.121019,-0.0873481,0.145929,-0.121494,-0.0825704,0.00965118,0.0259399,0.0196457,0.0115967,0.0199127,0.0101471,0.0196075,0.0135803,-9.97986,0.0124359,0,0.017395,0.00389099,0.0160217,-0.00183105,0.0141907,0.0043869
15,2,-1.75212,0.0012207,0.00411987,-2.42684,0.0535448,-0.0753682,0.0550435,0.142687,-0.0873481,0.143182,-0.121494,-0.0847066,0.0115585,0.0241089,0.0220108,0.018158,0.020752,0.0155258,0.0281525,0.0148773,-9.97986,0.0153351,0.00190735,0.0197601,0.00988007,0.0228882,0.00217438,0.0211334,0.0112915
15,3,5.96089,0.00152588,0.00427246,-2.42959,0.0532396,-0.0756734,0.0526021,0.154588,-0.0885688,0.143792,-0.120884,-0.0850118,0.0037384,0.0190735,0.01091,0.00602722,0.0118637,0.00202179,0.0178146,0.00724792,-9.97986,0.00602722,-0.00694275,0.00812531,-0.00450134,0.0154495,-0.00919342,0.00991821,0.00282288
15,4,10.0097,0.000305176,0.0050354,-2.43142,0.0523241,-0.0771993,0.0516866,0.134142,-0.0943672,0.142267,-0.12302,-0.0877584,0.0123215,0.0234604,0.020752,0.0147629,0.0185394,0.00930786,0.021553,0.0136566,-9.97986,0.0133133,0.00274658,0.0165558,0.0056076,0.0189209,0.000915527,0.0188446,0.00919342
15,5,10.0097,0,0.00106812,-2.4305,0.0532396,-0.0781148,0.0504659,0.0935533,-0.0971137,0.142877,-0.126377,-0.0883688,0.010376,0.0196838,0.0177383,0.0100708,0.015564,0.00843048,0.0253296,0.0128937,-9.97986,0.00968933,-0.00175476,0.0133896,0.00709534,0.015831,0.000495911,0.016098,0.00999451
15,6,10.0097,0.000610352,0.000305176,-2.4302,0.0544603,-0.0771993,0.0513814,0.0801256,-0.0977241,0.143182,-0.127598,-0.0865377,0.00835419,0.020256,0.0167084,0.0137329,0.0188828,0.0110626,0.022583,0.0151062,-9.97986,0.00797272,0.00144958,0.0130844,0.00743866,0.0156403,-0.00171661,0.0139236,0.00717163
15,7,10.0097,0.000610352,0,-2.4302,0.0535448,-0.0756734,0.0516866,0.0743273,-0.094062,0.143792,-0.126682,-0.0865377,0.0147247,0.0254822,0.0191879,0.0127792,0.0189209,0.0141907,0.0205994,0.0124741,-9.97986,0.0163651,-0.000152588,0.0185394,0.0037384,0.0141525,-0.000839233,0.0191498,0.00785828
15,8,10.0097,0.000915527,0,-2.42776,0.0544603,-0.0753682,0.0535176,0.0728014,-0.0946723,0.145318,-0.125766,-0.085317,0.0115585,0.0235367,0.0157166,0.0136566,0.0202179,0.0115967,0.0222397,0.0179291,-9.97986,0.0107956,-0.000724792,0.0157547,0.00473022,0.0188828,-0.000839233,0.0143433,0.00713348
15,9,10.0097,-0.000305176,0.000610352,-2.42684,0.0550706,-0.0753682,0.0532125,0.0712755,-0.0946723,0.144403,-0.126072,-0.0850118,0.00926971,0.0211334,0.0194931,0.0193787,0.0183487,0.00621796,0.0229645,0.0169373,-9.97986,0.0141525,-0.00209808,0.0141525,0.00709534,0.0194168,-0.00225067,0.0115967,0.00476837
16,0,10.0097,0.000610352,0.000457764,-2.42592,0.0562914,-0.075063,0.0535176,0.0718859,-0.0943672,0.144708,-0.126377,-0.0847066,0.0136185,0.0215149,0.020256,0.0115967,0.0179672,0.00904083,0.0223541,0.0197601,-9.97986,0.0135422,-0.00255585,0.0148773,0.00736237,0.0183105,-0.000457764,0.0167084,0.00770569
16,1,10.0097,0.000915527,0.000152588,-2.42501,0.0559862,-0.0738423,0.0544332,0.0700548,-0.0919257,0.146234,-0.126072,-0.0822652,0.0165558,0.0230789,0.0175858,0.0111771,0.0164795,0.0139236,0.0224304,0.0188828,-9.97986,0.0172424,-0.00267029,0.0165176,0.00644684,0.0195694,-0.00404358,0.0155258,0.00404358
16,2,10.0097,0.000305176,0,-2.4244,0.0562914,-0.073232,0.0553487,0.0728014,-0.0922309,0.146844,-0.124241,-0.0819601,0.0128555,0.0208282,0.0194931,0.00919342,0.0172424,0.0101471,0.0205994,0.0235367,-9.97986,0.0169373,-0.00102997,0.0155258,0.00301361,0.016861,-0.00221252,0.0151825,0.00598907
16,3,10.0097,0.000610352,0.000152588,-2.42501,0.0569017,-0.0744527,0.0544332,0.0724962,-0.0919257,0.146234,-0.123935,-0.0816549,0.0114441,0.0250244,0.0156784,0.00873566,0.0200653,0.00614166,0.020256,0.025177,-9.97986,0.0196075,-0.00293732,0.0177765,0.00576019,0.0194931,-0.000801086,0.0185776,0.00816345
16,4,9.82015,0.000610352,-0.00213623,-2.42684,0.055681,-0.075063,0.0535176,0.027025,-0.0968086,0.145624,-0.126987,-0.0819601,0.0127792,0.0203323,0.0191498,0.00843048,0.0165176,0.0122452,0.0227356,0.029068,-9.97986,0.0215149,-0.00392914,0.0151443,0.0069809,0.0164032,-0.00724792,0.0164795,0.00354767
16,5,1.12538,0.0012207,-0.00411987,-2.42592,0.0572069,-0.0738423,0.0529073,-0.00440808,-0.0961982,0.146844,-0.129123,-0.0819601,0.01194,0.0216675,0.0211716,0.0126266,0.0193787,0.00801086,0.0239563,0.0252914,-9.97986,0.02388,-0.000953674,0.0133514,0.00720978,0.0235748,-0.00606537,0.018158,0.00740051
16,6,-5.72825,-0.0012207,-0.00534058,-2.42714,0.0562914,-0.0723164,0.0538228,-0.0126478,-0.0968086,0.145624,-0.129429,-0.0822652,0.0121689,0.0235748,0.0184631,0.0128555,0.0198364,0.0118256,0.0190353,0.0266647,-9.97986,0.0156021,-0.00339508,0.0153351,0.00671387,0.0208282,-0.0136185,0.0142288,0.00591278
16,7,-9.99003,0,-0.00289917,-2.42501,0.055681,-0.0741475,0.0556539,0.00749377,-0.0931465,0.146844,-0.128513,-0.0804342,0.010376,0.0265121,0.0189972,0.00904083,0.0170898,0.0113678,0.0206375,0.0256729,-9.97986,0.0203705,-0.00335693,0.0151062,0.00328064,0.0165176,-0.00553131,0.0170135,0.00953674
16,8,-9.99003,0.000915527,-0.00167847,-2.42562,0.0550706,-0.0747579,0.0562642,0.0358751,-0.0900947,0.145929,-0.126987,-0.0816549,0.0127029,0.0273895,0.0180435,0.0131226,0.0185776,0.0122833,0.0235748,0.0203323,-9.97986,0.0157547,-0.00282288,0.0160599,0.00720978,-0.00686646,-0.00331879,0.0154114,0.00785828
16,9,-9.99003,0.00152588,-0.000762939,-2.42562,0.0559862,-0.0738423,0.0565694,0.0566271,-0.090705,0.145929,-0.127292,-0.0816549,0.0056076,0.0262833,0.0193787,0.0138855,0.0159073,0.0103378,0.0251389,0.0153732,-9.97986,0.0130844,0.000534058,0.0143433,0.00492096,-0.00797272,-0.00263214,0.0146866,0.00961304
17,0,-9.99003,-0.00183105,0.000152588,-2.42562,0.0547655,-0.0747579,0.0550435,0.0728014,-0.090705,0.144708,-0.125156,-0.0822652,0.0094223,0.0247192,0.0180817,0.00804901,0.0107193,0.00774384,0.0214005,0.0104904,-9.97986,0.0127029,-0.00198364,0.0122452,0.00499725,0.00331879,-0.000495911,0.0152588,0.00225067
17,1,-9.95952,0.000915527,0.00198364,-2.42623,0.0550706,-0.0738423,0.0565694,0.12285,-0.0858222,0.145013,-0.121799,-0.0831808,0.011673,0.0252914,0.0169754,0.0125885,0.0143051,0.00865936,0.0247574,0.0111008,-9.97986,0.00823975,-0.00682831,0.0169754,0.00629425,0.0193787,-0.00259399,0.0157166,0.00850677
17,2,-1.60533,0.00213623,0.00366211,-2.42806,0.0544603,-0.075063,0.0553487,0.142687,-0.0897895,0.144403,-0.121799,-0.0844015,0.0114822,0.0258255,0.0189972,0.0117874,0.014267,0.00957489,0.018692,0.00671387,-9.97986,0.0114441,-0.0019455,0.0140762,0.00541687,0.0130844,-0.00377655,0.0134277,0.00331879
17,3,6.01613,0.000305176,0.00442505,-2.42867,0.0535448,-0.0756734,0.054128,0.152452,-0.0882636,0.143792,-0.121189,-0.0850118,0.0111389,0.0244522,0.0175858,0.0125885,0.017128,0.01091,0.017662,0.0123596,-9.97986,0.00995636,0.000724792,0.0157928,0.00778198,0.0165558,-0.000915527,0.0168991,0.00461578
17,4,10.0097,-0.000305176,0.00427246,-2.4305,0.0526292,-0.0759786,0.0504659,0.133531,-0.0946723,0.143792,-0.12363,-0.0874532,0.014801,0.0283432,0.0134659,0.0129318,0.0154877,0.0109482,0.0176239,0.0127029,-9.97986,0.0124359,-0.0063324,0.0153732,0.00839233,0.0152588,-0.000991821,0.0132751,0.00507355
17,5,10.0097,-0.00183105,0.00137329,-2.43081,0.0538499,-0.0762837,0.0492452,0.092943,-0.0980293,0.144403,-0.126987,-0.0883688,0.0102615,0.0261307,0.015564,0.00854492,0.0197983,0.0101089,0.0226974,0.0162506,-9.97986,0.0141907,-0.000228882,0.0172043,0.00553131,0.0158691,0.00106812,0.0142288,0.00637054
17,6,10.0097,0.000915527,-0.000152588,-2.42989,0.0535448,-0.0759786,0.0510762,0.0789049,-0.0971137,0.144098,-0.126377,-0.0877584,0.0113678,0.0242996,0.0166702,0.00869751,0.0188446,0.00938416,0.0198364,0.0145721,-9.97986,0.0136948,0.000190735,0.0173569,0.0062561,0.0163269,-0.00663757,0.018692,0.00812531
17,7,10.0097,0.00244141,0.000305176,-2.42837,0.0544603,-0.0768941,0.0519917,0.0740221,-0.095893,0.144098,-0.126682,-0.0868429,0.00728607,0.0229645,0.0178909,0.0124741,0.0164413,0.00953674,0.023613,0.0148392,-9.97986,0.0155258,-0.000686646,0.0165939,0.00701904,0.0154495,-0.0030899,0.0146103,0.00728607
17,8,10.0097,0,0.000457764,-2.42714,0.0544603,-0.0759786,0.0532125,0.0731066,-0.094062,0.144403,-0.126682,-0.0859274,0.00469208,0.0257492,0.0201416,0.00980377,0.0151825,0.0114822,0.0272751,0.0177765,-9.97986,0.0188065,-0.0069046,0.0167084,0.00766754,0.013237,-0.00217438,0.0179672,0.0056839
17,9,10.0097,-0.000305176,0.0012207,-2.42806,0.0544603,-0.0747579,0.0529073,0.0712755,-0.0943672,0.145318,-0.127292,-0.0847066,0.00843048,0.0271606,0.0170898,0.0062561,0.019989,0.0102997,0.0208282,0.0183487,-9.97986,0.0125885,-0.00461578,0.00995636,0.00686646,0.0153732,-0.0038147,0.0185394,0.00598907
18,0,10.0097,0.00152588,0.000305176,-2.42531,0.0550706,-0.0747579,0.0538228,0.0709703,-0.0913154,0.145013,-0.125461,-0.0831808,0.0111771,0.0229645,0.0165176,0.00869751,0.0208664,0.0111771,0.0204086,0.0185776,-9.97986,0.0144196,0.000152588,0.0142288,0.00205994,0.0170517,-0.00263214,0.015564,0.00610352
18,1,10.0097,-0.000915527,0.000305176,-2.42623,0.0553758,-0.0735371,0.0550435,0.0709703,-0.0928413,0.146234,-0.125766,-0.0825704,0.00713348,0.022049,0.0169754,0.00724792,0.0242615,0.00740051,0.022049,0.0209808,-9.97986,0.0185013,-0.00110626,0.0155258,0.00495911,0.0134659,-0.00354767,0.0137329,0.00709534
18,2,10.0097,0.000610352,0.000152588,-2.42592,0.0562914,-0.0741475,0.054128,0.0715807,-0.0910102,0.146234,-0.124851,-0.0816549,0.00846863,0.0206757,0.014267,0.00591278,0.0172424,0.00602722,0.0213623,0.0213242,-9.97986,0.014267,-0.00190735,0.0143051,0.00366211,0.0165176,-0.00411987,0.0152588,0.00606537
18,3,10.0097,-0.000305176,0.000152588,-2.4244,0.055681,-0.073232,0.0550435,0.0712755,-0.0919257,0.146539,-0.124546,-0.0816549,0.010643,0.0247955,0.0183487,0.0131226,0.0199509,0.0094223,0.0214767,0.0268173,-9.97986,0.0214005,-0.0038147,0.0130081,0.000534058,0.0158691,-0.00137329,0.0159073,0.00843048
18,4,9.82808,-0.000305176,-0.00259399,-2.42623,0.0550706,-0.0747579,0.0526021,0.0294664,-0.0965034,0.146234,-0.127903,-0.0831808,0.0165176,0.0222397,0.0173569,0.00972748,0.0213623,0.00801086,0.0226974,0.0255585,-9.97986,0.0245667,-0.00450134,0.0143051,0.00419617,0.014534,-0.00457764,0.0117493,0.00545502
18,5,1.15315,-0.000610352,-0.00366211,-2.42501,0.0569017,-0.0744527,0.0544332,-0.00379773,-0.0955879,0.146844,-0.129123,-0.0816549,0.0102997,0.0243378,0.0159073,0.00892639,0.0212097,0.0119781,0.0273132,0.031395,-9.97986,0.0224686,-0.00427246,0.0137711,0.00518799,0.020752,-0.00610352,0.0167847,0.00576019
18,6,-5.71818,0.000915527,-0.0050354,-2.42653,0.0572069,-0.0741475,0.0532125,-0.0153944,-0.0968086,0.147455,-0.129429,-0.0813497,0.00694275,0.0217819,0.0190353,0.0108719,0.0180817,0.0138092,0.0175476,0.0242233,-9.97986,0.0211334,-0.00289917,0.0138855,0.00469208,0.0147629,-0.00572205,0.0151062,0.00705719
18,7,-9.99003,0.000915527,-0.00335693,-2.42562,0.0559862,-0.0747579,0.0556539,0.00810412,-0.0916206,0.146844,-0.129123,-0.0816549,0.0125504,0.0227737,0.0218582,0.00972748,0.0164795,0.00972748,0.0228882,0.0222015,-9.97986,0.0192642,0.00106812,0.0168228,0.0056839,0.0199509,-0.00205994,0.0133896,0.0050354
18,8,-9.99003,-0.00213623,-0.00183105,-2.42623,0.0553758,-0.0747579,0.0556539,0.0367906,-0.0910102,0.146234,-0.126682,-0.0798238,0.0117111,0.0268936,0.0185776,0.0101089,0.0193787,0.00675201,0.0235748,0.0209808,-9.97986,0.0189972,-0.00164032,0.0182724,0.00717163,-0.00106812,0.000495911,0.0137711,0.00934601
18,9,-9.99003,-0.000305176,-0.000152588,-2.4247,0.0547655,-0.075063,0.0556539,0.0560167,-0.090705,0.145624,-0.125766,-0.0819601,0.00740051,0.0234985,0.0193024,0.00976563,0.0201035,0.0115204,0.0222778,0.0166321,-9.97986,0.0153351,0.000762939,0.0183487,0.00888824,-0.00480652,-0.00450134,0.016098,0.00938416
19,0,-9.99003,-0.000610352,0,-2.42653,0.0544603,-0.0744527,0.0565694,0.0728014,-0.0903999,0.145929,-0.126072,-0.0819601,0.00514984,0.0247955,0.0148392,0.00907898,0.0142288,0.0102234,0.019455,0.0130844,-9.97986,0.0117874,3.8147e-005,0.0130844,0.00720978,-0.00106812,-0.00362396,0.0206375,0.0056839
19,1,-9.99003,-0.000305176,0.00228882,-2.42592,0.055681,-0.0738423,0.0562642,0.121324,-0.0849067,0.145013,-0.121189,-0.0816549,0.0100327,0.0268555,0.0207901,0.0107193,0.0172806,0.0112915,0.0221252,0.00782013,-9.97986,0.00976563,0.001297,0.0169754,0.00904083,0.0162888,0.000190735,0.0165176,0.00640869
19,2,-1.63005,0.000305176,0.00411987,-2.42745,0.0547655,-0.075063,0.0553487,0.143297,-0.0873481,0.143487,-0.120578,-0.0850118,0.0109863,0.0223923,0.0208282,0.0062561,0.0150299,0.0116348,0.0191879,0.0108719,-9.97986,0.0105667,0.00263214,0.0153732,0.00823975,0.0185776,-0.00320435,0.0159836,0.00465393
19,3,6.12111,0.000915527,0.00396729,-2.42745,0.0547655,-0.0759786,0.0532125,0.155504,-0.0894843,0.144098,-0.121494,-0.085317,0.0107574,0.0272369,0.0152206,0.0062561,0.0175858,0.0141907,0.022049,0.0102997,-9.97986,0.00759125,0.00167847,0.0128555,0.00564575,0.0155258,-0.00480652,0.0161743,0.00736237
19,4,10.0097,-0.000305176,0.00488281,-2.4302,0.0523241,-0.0759786,0.0516866,0.1317,-0.0949775,0.142877,-0.123325,-0.0871481,0.00583649,0.0207138,0.0178146,0.00938416,0.0169373,0.00995636,0.025177,0.0125885,-9.97986,0.0094986,0.00190735,0.014534,0.00766754,0.0170135,-0.00347137,0.0174713,0.00347137
19,5,10.0097,0.000915527,0.000762939,-2.4305,0.0538499,-0.0765889,0.0492452,0.0932482,-0.0977241,0.142877,-0.125461,-0.0886739,0.00843048,0.0299835,0.018425,0.0112915,0.0173187,0.0115967,0.0272751,0.00862122,-9.97986,0.0101089,-0.000648499,0.0156021,0.00709534,0.0152588,0.000648499,0.0137329,0.00507355
19,6,10.0097,0.000915527,0.000305176,-2.42959,0.0532396,-0.0762837,0.0526021,0.0789049,-0.0955879,0.142572,-0.126987,-0.0880636,0.00831604,0.0279236,0.0143051,0.00804901,0.0166321,0.0104523,0.0188446,0.0166702,-9.97986,0.0117493,0.00358582,0.015564,0.00305176,0.0177002,0.00202179,0.015831,0.00572205
19,7,10.0097,0.000915527,0,-2.42928,0.0535448,-0.075063,0.0522969,0.0740221,-0.095893,0.143182,-0.126377,-0.0868429,0.0108719,0.0253296,0.0176239,0.0106049,0.0162888,0.0114059,0.0193024,0.0117493,-9.97986,0.0106812,0.00427246,0.0123978,0.0109482,0.0186539,0.00198364,0.0193024,0.00431061
19,8,10.0097,0.00183105,0.000152588,-2.42837,0.0547655,-0.0753682,0.0532125,0.0728014,-0.0952827,0.144403,-0.126682,-0.085317,0.00999451,0.0247192,0.0152206,0.0137711,0.0172043,0.00988007,0.0254059,0.0166321,-9.97986,0.00988007,0.0012207,0.0133896,0.00606537,0.0175858,0.00289917,0.0170517,0.00507355
19,9,10.0097,0.000610352,0.000152588,-2.42806,0.0544603,-0.0747579,0.0526021,0.07036,-0.094062,0.144098,-0.126072,-0.0847066,0.00991821,0.0221252,0.0196457,0.011673,0.0181198,0.0135422,0.0247955,0.0178528,-9.97986,0.0125885,-0.000190735,0.0128174,0.0030899,0.0181961,0.00144958,0.0183487,0.00736237
20,0,10.0097,-0.000610352,0.000610352,-2.42653,0.0553758,-0.0744527,0.0547383,0.07036,-0.0925361,0.145318,-0.126987,-0.0840963,0.00659943,0.0256348,0.0160217,0.0118637,0.0138855,0.00907898,0.0221252,0.0163651,-9.97986,0.0128555,0.00301361,0.00938416,0.00808716,0.0175858,-0.00133514,0.0159836,0.00350952
20,1,10.0097,0.0012207,-0.000152588,-2.4247,0.0559862,-0.0744527,0.0544332,0.0715807,-0.0919257,0.145013,-0.125766,-0.0831808,0.00843048,0.0225067,0.0188828,0.00743866,0.0203323,0.0134277,0.0227356,0.0198364,-9.97986,0.0164032,0,0.0158691,0.00846863,0.0193024,-0.00198364,0.0170898,0.00679016
20,2,10.0097,0.000915527,0.000305176,-2.4247,0.0559862,-0.073232,0.0553487,0.0712755,-0.0931465,0.146844,-0.124241,-0.0822652,0.0131607,0.0251007,0.0152206,0.0120544,0.0157547,0.0122833,0.0257874,0.0207138,-9.97986,0.0182724,0.00038147,0.0183487,0.00953674,0.0200272,0.00087738,0.0151062,0.00671387
20,3,10.0097,-0.000305176,0.000305176,-2.42562,0.0572069,-0.0744527,0.0556539,0.0706652,-0.0919257,0.146539,-0.124241,-0.0810445,0.0137329,0.0221252,0.0162125,0.0110245,0.0180435,0.0124359,0.0221252,0.0209427,-9.97986,0.0183105,-0.00270844,0.0178909,0.0056076,0.0146103,-0.00335693,0.0139999,0.0050354
20,4,9.98006,0.000610352,-0.00198364,-2.42745,0.055681,-0.0735371,0.0538228,0.0300768,-0.0968086,0.145929,-0.126682,-0.0825704,0.0133514,0.0316238,0.0200272,0.0151062,0.0193405,0.0125885,0.0244141,0.0290298,-9.97986,0.0215912,0.000991821,0.0120163,0.0104523,0.0190353,-0.00160217,0.0156021,0.00476837
20,5,1.35884,0.000305176,-0.00442505,-2.42531,0.0565965,-0.0735371,0.0535176,-0.00471326,-0.0980293,0.146844,-0.129734,-0.0816549,0.011673,0.0269699,0.0179672,0.0111008,0.0164032,0.0133133,0.0218201,0.0295639,-9.97986,0.0227356,-0.00183105,0.0153732,0.00404358,0.0202942,-0.00297546,0.0177383,0.00816345
20,6,-5.49754,-0.000915527,-0.00411987,-2.42531,0.0569017,-0.0747579,0.0538228,-0.0150892,-0.0965034,0.146234,-0.130344,-0.0816549,0.0149536,0.0259781,0.0177765,0.0128555,0.0205231,0.0108337,0.0255585,0.026207,-9.97986,0.0242615,-0.000114441,0.0141525,0.00526428,0.0203705,-0.00335693,0.015564,0.00843048
20,7,-9.99003,0.0012207,-0.0038147,-2.42501,0.0565965,-0.0735371,0.0553487,0.00871447,-0.0931465,0.146844,-0.128818,-0.0810445,0.0069809,0.0240326,0.0172806,0.00759125,0.0186539,0.0122452,0.0204849,0.0261688,-9.97986,0.0187302,-0.00450134,0.0182343,0.00793457,0.0192261,-0.000228882,0.0146866,0.00564575
20,8,-9.99003,-0.000610352,-0.00213623,-2.42562,0.0559862,-0.0741475,0.0556539,0.0377062,-0.0922309,0.145318,-0.126072,-0.0810445,0.00953674,0.0257492,0.0192642,0.0111771,0.0164795,0.0133133,0.0237656,0.0209427,-9.97986,0.0186157,-0.000343323,0.0151062,0.00797272,-0.0044632,0.00339508,0.0137711,0.00530243
20,9,-9.99003,-0.000610352,0.000152588,-2.42531,0.0547655,-0.0744527,0.0562642,0.0551012,-0.090705,0.145929,-0.125766,-0.0813497,0.00930786,0.0298691,0.0156784,0.0106812,0.017128,0.0143433,0.020752,0.0133514,-9.97986,0.014267,-0.00217438,0.0148773,0.0115204,-0.00457764,-0.00255585,0.0177383,0.00743866
21,0,-9.99003,0.000610352,-0.000457764,-2.42684,0.0559862,-0.0741475,0.0553487,0.0743273,-0.0922309,0.145929,-0.125156,-0.0825704,0.00858307,0.0246048,0.0164413,0.0148392,0.016861,0.0135422,0.021553,0.0139236,-9.97986,0.00747681,-0.00167847,0.0113678,0.00572205,0.0115204,-0.00267029,0.0187302,0.00732422
21,1,-9.62443,0.00213623,0.00183105,-2.42531,0.0547655,-0.0747579,0.055959,0.12163,-0.0861274,0.145013,-0.121799,-0.0813497,0.0123596,0.0249863,0.0164032,0.0120163,0.0159836,0.0123978,0.0218201,0.0088501,-9.97986,0.00972748,-0.00144958,0.0103378,0.00778198,0.0183868,-0.00225067,0.0168228,0.00469208
21,2,-1.33189,0,0.00366211,-2.42684,0.0544603,-0.0759786,0.0538228,0.143297,-0.0882636,0.144708,-0.121494,-0.0847066,0.00823975,0.0225449,0.0198746,0.00782013,0.0194931,0.0147247,0.0185394,0.0115204,-9.97986,0.0122833,0.000114441,0.0112152,0.00423431,0.0141144,-0.00392914,0.0163651,0.00553131
21,3,6.41622,-0.000305176,0.0038147,-2.42867,0.0526292,-0.075063,0.0532125,0.154588,-0.0894843,0.145013,-0.121494,-0.0850118,0.0112152,0.0181961,0.018425,0.0131989,0.020256,0.00843048,0.024147,0.00938416,-9.97986,0.00759125,-0.00198364,0.0134277,0.00740051,0.0157547,-0.00270844,0.0157928,0.00679016
21,4,10.0097,0.000915527,0.00473022,-2.4302,0.0523241,-0.0768941,0.050771,0.130174,-0.0946723,0.143792,-0.123935,-0.0871481,0.00995636,0.0212479,0.0157928,0.0147247,0.0156784,0.0139999,0.0199509,0.0120926,-9.97986,0.00999451,0.00247955,0.012207,0.00682831,0.0170135,-0.00350952,0.0177002,0.00751495
21,5,10.0097,-0.00152588,0.000610352,-2.43081,0.0529344,-0.0759786,0.0510762,0.092943,-0.0974189,0.143487,-0.126072,-0.0880636,0.00637054,0.0214005,0.0173187,0.0137329,0.0204849,0.00858307,0.0205231,0.0149918,-9.97986,0.0113297,0.00255585,0.0147629,0.00553131,0.0150299,-0.00595093,0.018959,0.00858307
21,6,10.0097,0.000610352,0.000152588,-2.4302,0.0547655,-0.0765889,0.050771,0.0776842,-0.0955879,0.143182,-0.126987,-0.0883688,0.0128937,0.02388,0.0170135,0.0124741,0.0187302,0.00797272,0.0247955,0.0127029,-9.97986,0.0143433,0.000152588,0.0146484,0.00675201,0.0170135,0.000305176,0.0181198,0.00801086
21,7,10.0097,0.000915527,0.000305176,-2.42745,0.0544603,-0.075063,0.0516866,0.0746324,-0.0937568,0.144098,-0.126377,-0.085317,0.0135422,0.0249481,0.0165939,0.0152969,0.0164413,0.0130463,0.0238037,0.018959,-9.97986,0.0139618,-0.000190735,0.0112534,0.00370026,0.0154495,-0.00217438,0.0144577,0.00644684
21,8,10.0097,0.0012207,0.000305176,-2.42714,0.0550706,-0.0747579,0.0529073,0.0715807,-0.0946723,0.144403,-0.127598,-0.0847066,0.0116348,0.0244522,0.0205612,0.0142288,0.0217438,0.0115585,0.0247955,0.014534,-9.97986,0.0146866,0.00167847,0.0118256,0.00850677,0.0135422,-0.00511169,0.0163651,0.00541687
21,9,10.0097,0,0.000457764,-2.42745,0.0559862,-0.0747579,0.0532125,0.0709703,-0.0937568,0.145013,-0.126682,-0.085317,0.0146103,0.0244522,0.0215912,0.00862122,0.014267,0.00801086,0.0204849,0.013504,-9.97986,0.0153351,0.000648499,0.0131989,0.00766754,0.0146866,-0.00663757,0.0159454,0.00553131
22,0,10.0097,0.000610352,0.000305176,-2.42806,0.0544603,-0.075063,0.0535176,0.0715807,-0.0937568,0.145013,-0.125461,-0.0844015,0.0128174,0.0204849,0.020752,0.00991821,0.0190353,0.0139236,0.0265884,0.017128,-9.97986,0.0175858,-0.00293732,0.0138474,0.00617981,0.0177765,0.000991821,0.0177765,0.00694275
22,1,10.0097,-0.000305176,-0.000152588,-2.42562,0.0569017,-0.0738423,0.0538228,0.072191,-0.0919257,0.147149,-0.124546,-0.0813497,0.0110245,0.0185776,0.0185394,0.0112534,0.018959,0.0120926,0.0236511,0.0182724,-9.97986,0.0154877,-0.00530243,0.0135422,0.0069809,0.0153351,-0.00305176,0.0161743,0.00576019
22,2,10.0097,-0.000610352,0.000305176,-2.42501,0.0559862,-0.0747579,0.0553487,0.0718859,-0.0922309,0.146539,-0.12363,-0.0825704,0.0141144,0.027504,0.0144577,0.0152206,0.0183868,0.00968933,0.0234985,0.0233459,-9.97986,0.021019,-0.00385284,0.0141144,0.00976563,0.0122833,-0.00240326,0.0170135,0.00774384
22,3,10.0097,0.0012207,0.000305176,-2.42562,0.055681,-0.0744527,0.0538228,0.0712755,-0.0919257,0.146844,-0.12363,-0.0816549,0.0107956,0.0238419,0.0148773,0.0150299,0.0167084,0.0109863,0.0205231,0.0255203,-9.97986,0.0203705,-0.00305176,0.0111771,0.00522614,0.0160599,-0.00255585,0.0160217,0.00499725
22,4,10.0097,0,-0.00244141,-2.42653,0.0562914,-0.0735371,0.0516866,0.0291613,-0.0974189,0.146539,-0.127292,-0.0822652,0.0123978,0.0209045,0.0181961,0.0140381,0.0170517,0.0113297,0.0226212,0.0282669,-9.97986,0.0245285,-0.00144958,0.0128174,0.00442505,0.0206757,-0.0012207,0.0169754,0.00934601
22,5,1.31825,0.000610352,-0.0050354,-2.42623,0.0562914,-0.0735371,0.0529073,-0.00532361,-0.0971137,0.146539,-0.128818,-0.0822652,0.0120926,0.0201416,0.0159454,0.0138855,0.0170517,0.0114441,0.0228119,0.0294113,-9.97986,0.0238419,-0.000686646,0.0137329,0.00640869,0.0166321,-0.00411987,0.0141144,0.00564575
22,6,-5.57597,-0.0012207,-0.00411987,-2.42501,0.0565965,-0.073232,0.0535176,-0.0141737,-0.0968086,0.146844,-0.129734,-0.0819601,0.0152969,0.0258255,0.0188065,0.0147247,0.0200272,0.012207,0.0227737,0.02388,-9.97986,0.020752,-0.0044632,0.0124359,0.00892639,0.0177383,-0.00183105,0.0165558,0.00667572
22,7,-9.99003,-0.000305176,-0.00274658,-2.42379,0.0559862,-0.0735371,0.0547383,0.00871447,-0.0928413,0.14776,-0.129429,-0.0810445,0.0167084,0.0252151,0.0169754,0.0108719,0.0215149,0.0118256,0.0197601,0.0232315,-9.97986,0.0234604,0.00118256,0.0132751,0.0062561,0.0160599,-0.00228882,0.0194931,0.00831604
22,8,-9.99003,0.000610352,-0.00198364,-2.42592,0.0565965,-0.0735371,0.0556539,0.0377062,-0.0903999,0.147455,-0.127598,-0.0813497,0.0111389,0.021553,0.0193787,0.0113678,0.0185776,0.0158691,0.0218201,0.0219345,-9.97986,0.0165176,-0.000305176,0.0115967,0.00778198,-0.00160217,-0.00152588,0.0142288,0.00514984
22,9,-9.99003,0,-0.000457764,-2.42592,0.0544603,-0.0738423,0.055959,0.0557115,-0.0903999,0.145624,-0.125766,-0.0810445,0.00831604,0.0232697,0.0172043,0.0102997,0.0176239,0.0146103,0.0194931,0.0141144,-9.97986,0.0120163,-0.000762939,0.0137329,0.00495911,-0.00480652,-0.00431061,0.0154114,0.0082016
23,0,-9.99003,0,0.000457764,-2.42592,0.0544603,-0.075063,0.0550435,0.0746324,-0.0885688,0.144708,-0.125461,-0.0819601,0.0114822,0.021286,0.0162125,0.0107956,0.0216293,0.0102615,0.0212479,0.0141525,-9.97986,0.0128174,-0.00286102,0.0118637,0.00499725,0.00457764,-0.00152588,0.0160599,0.00736237
23,1,-9.94853,-0.000305176,0.00167847,-2.42562,0.0544603,-0.0759786,0.0571797,0.121324,-0.0864326,0.145624,-0.122104,-0.0825704,0.0112534,0.0205994,0.0168228,0.00759125,0.0135803,0.00816345,0.0166702,0.00911713,-9.97986,0.0110626,-0.00213623,0.0144577,0.0056839,0.0156021,-0.00629425,0.0156403,0.00419617
23,2,-1.4564,0.000610352,0.00396729,-2.42806,0.0541551,-0.0759786,0.054128,0.141161,-0.0876533,0.143792,-0.122104,-0.0844015,0.00953674,0.0214767,0.0151825,0.00804901,0.0112915,0.00984192,0.0233078,0.0123596,-9.97986,0.0106049,-0.000419617,0.0143433,0.00579834,0.0104523,-0.00286102,0.0164032,0.00846863
23,3,6.29109,0.0012207,0.00457764,-2.42867,0.0535448,-0.0753682,0.0522969,0.153673,-0.0885688,0.143487,-0.121189,-0.085317,0.00988007,0.0226593,0.0187302,0.0115967,0.0162125,0.0143051,0.0198364,0.0152588,-9.97986,0.01297,0.0018692,0.013504,0.00495911,0.0125504,-0.00610352,0.0147629,0.00408173
23,4,10.0097,0,0.00473022,-2.43203,0.0529344,-0.075063,0.0510762,0.13048,-0.094062,0.143182,-0.12363,-0.0871481,0.00404358,0.0255585,0.0150299,0.00957489,0.0153732,0.01297,0.0227737,0.00976563,-9.97986,0.00778198,-0.00366211,0.0117874,0.00324249,0.0129318,-0.00225067,0.0162125,0.00694275
23,5,10.0097,-0.000305176,0.000915527,-2.42959,0.0535448,-0.0762837,0.050771,0.092943,-0.0977241,0.142877,-0.125766,-0.0886739,0.00873566,0.0213623,0.0172043,0.0101471,0.0163269,0.0104523,0.0170517,0.0126266,-9.97986,0.0123215,-0.0038147,0.0100327,0.00583649,0.0182724,-0.00469208,0.0179291,0.00534058
23,6,10.0097,0,-0.000457764,-2.42867,0.0541551,-0.0762837,0.0501607,0.0792101,-0.0965034,0.143792,-0.126682,-0.0886739,0.0082016,0.0224686,0.0174713,0.0102615,0.0175095,0.00999451,0.022583,0.0159073,-9.97986,0.0117493,-0.00190735,0.0113678,0.00537872,0.0139999,-0.00370026,0.0187683,0.00343323
23,7,10.0097,0.000305176,0.000305176,-2.42714,0.0547655,-0.0756734,0.0516866,0.0734117,-0.0955879,0.145013,-0.126987,-0.0859274,0.0133514,0.0235748,0.0210953,0.0133896,0.0163651,0.0115585,0.0199127,0.0126648,-9.97986,0.0094986,-0.00545502,0.0134659,0.00350952,0.0149536,-0.000114441,0.0138092,0.00488281
23,8,10.0097,0.00152588,-0.000610352,-2.42684,0.0544603,-0.0765889,0.0522969,0.0712755,-0.0937568,0.144708,-0.126682,-0.0850118,0.013504,0.0194168,0.0225067,0.0146866,0.0132751,0.00797272,0.0234222,0.017662,-9.97986,0.017128,0.00198364,0.010376,0.00888824,0.0164032,-0.00476837,0.0153351,0.00789642
23,9,10.0097,-0.000610352,0.000457764,-2.42776,0.0538499,-0.0756734,0.054128,0.0706652,-0.0931465,0.146234,-0.125766,-0.0837911,0.010376,0.0178528,0.018425,0.0110245,0.013237,0.011673,0.0175095,0.0156784,-9.97986,0.0141144,-0.00713348,0.0138474,0.00499725,0.0144196,-0.00488281,0.0145721,0.00553131
24,0,10.0097,-0.000305176,0,-2.42653,0.0547655,-0.0741475,0.0535176,0.0706652,-0.0928413,0.144403,-0.126072,-0.0837911,0.0124741,0.0214386,0.0191498,0.00988007,0.0188828,0.0105286,0.018692,0.0213242,-9.97986,0.0146484,-0.00228882,0.0151443,0.00694275,0.0125885,-0.00171661,0.0163269,0.00740051
24,1,10.0097,0.0012207,-0.000152588,-2.4244,0.0559862,-0.0738423,0.0556539,0.0718859,-0.0922309,0.146234,-0.124851,-0.0822652,0.0115204,0.0188446,0.0195694,0.0133514,0.0170517,0.00667572,0.0205231,0.0152206,-9.97986,0.0141144,0.000648499,0.01194,0.00915527,0.0161743,-0.00293732,0.0191116,0.00488281
24,2,10.0097,-0.000305176,0.000305176,-2.42501,0.0550706,-0.0723164,0.0544332,0.0709703,-0.0928413,0.145318,-0.12363,-0.0813497,0.0145721,0.0239944,0.0172806,0.0119019,0.0157547,0.0125885,0.0210571,0.0226212,-9.97986,0.0196457,-0.0025177,0.0174713,0.00675201,0.0154495,-0.00106812,0.0139618,0.00648499
24,3,10.0097,0.000305176,0.000305176,-2.42562,0.0559862,-0.0738423,0.0535176,0.0712755,-0.0922309,0.145318,-0.123935,-0.0813497,0.0128555,0.0243759,0.0166702,0.01194,0.0187302,0.0123596,0.0199127,0.0284576,-9.97986,0.0199509,0.000343323,0.0114822,0.00713348,0.017662,0.000305176,0.0167084,0.00648499
24,4,9.84548,0.00152588,-0.00259399,-2.42745,0.055681,-0.0744527,0.0535176,0.0300768,-0.0955879,0.146539,-0.127292,-0.0828756,0.0152206,0.0223923,0.017662,0.01194,0.015564,0.0094223,0.0221634,0.0263214,-9.97986,0.0205231,-0.00263214,0.0110245,0.00865936,0.0217438,-0.00312805,0.0194931,0.00888824
24,5,1.24379,-0.000305176,-0.00473022,-2.42409,0.0581224,-0.0735371,0.0550435,-0.00471326,-0.0968086,0.146234,-0.128513,-0.0822652,0.0119781,0.0188065,0.0165176,0.0149536,0.0140762,0.010376,0.0221252,0.0272751,-9.97986,0.0240707,-0.00671387,0.0140381,0.00705719,0.0179291,-0.00141144,0.0147247,0.00713348
24,6,-5.57078,0.000305176,-0.00518799,-2.42562,0.055681,-0.0744527,0.0529073,-0.0153944,-0.0961982,0.147149,-0.130344,-0.0816549,0.00915527,0.0196838,0.018425,0.0118637,0.0181198,0.0156784,0.0178528,0.0228882,-9.97986,0.0214767,-0.00705719,0.0170517,0.00419617,0.0200272,-0.00511169,0.0165558,0.00450134
24,7,-9.99003,0.0012207,-0.00228882,-2.4244,0.0562914,-0.0744527,0.0544332,0.00688342,-0.0931465,0.146234,-0.128208,-0.0810445,0.0104523,0.02388,0.0183487,0.0106049,0.0186539,0.0105286,0.0222397,0.0236893,-9.97986,0.0206757,-0.00476837,0.0149155,0.00717163,0.0170517,-0.00225067,0.0143051,0.00858307
24,8,-9.99003,0,-0.00183105,-2.4247,0.0550706,-0.0747579,0.0556539,0.0377062,-0.090705,0.145013,-0.127292,-0.0810445,0.0101471,0.0217056,0.017395,0.00961304,0.0154495,0.00789642,0.0154114,0.0182343,-9.97986,0.0184631,-0.00377655,0.0133133,0.00957489,-0.00812531,-0.0025177,0.0170135,0.00553131
24,9,-9.99003,-0.00244141,-0.000915527,-2.4244,0.0565965,-0.0744527,0.0535176,0.0551012,-0.0910102,0.147149,-0.126682,-0.0828756,0.0130081,0.0222397,0.0164413,0.0112915,0.0156021,0.00865936,0.0194168,0.0179291,-9.97986,0.0189209,0.00183105,0.0131989,0.00862122,-0.00610352,-0.00289917,0.0162125,0.00640869
25,0,-9.99003,0.000915527,-0.000305176,-2.42562,0.0550706,-0.0753682,0.055959,0.0734117,-0.0900947,0.145318,-0.124546,-0.0819601,0.00507355,0.0230026,0.0167084,0.0056839,0.0138092,0.00759125,0.0219345,0.0124359,-9.97986,0.00881195,-0.00289917,0.0131226,0.00667572,0.0037384,-0.00167847,0.0157166,0.00587463
25,1,-9.99003,0.0012207,0.00183105,-2.42653,0.0544603,-0.0747579,0.0556539,0.119493,-0.0852119,0.145013,-0.122715,-0.0831808,0.00896454,0.0235367,0.0178146,0.010376,0.016861,0.0120544,0.018692,0.00667572,-9.97986,0.0120926,-0.0037384,0.0122833,0.00663757,0.0157166,-0.00255585,0.0172424,0.00495911
25,2,-1.49516,-0.000610352,0.0038147,-2.42806,0.0529344,-0.0762837,0.054128,0.141161,-0.0897895,0.143487,-0.12241,-0.0844015,0.0149536,0.0220108,0.0218582,0.0102615,0.0159073,0.0069046,0.0187302,0.011673,-9.97986,0.0124741,-0.00156403,0.0140381,0.00980377,0.013504,-0.000648499,0.0215149,0.00629425
25,3,6.18672,0,0.0038147,-2.42837,0.0535448,-0.0747579,0.0532125,0.155199,-0.088874,0.143487,-0.122715,-0.085317,0.00423431,0.0204086,0.0141907,0.0107956,0.0128937,0.00823975,0.0160217,0.00694275,-9.97986,0.00701904,-0.00282288,0.0152206,0.00183105,0.0100708,-0.00270844,0.0140381,0.0025177
25,4,10.0097,0,0.00473022,-2.4305,0.0517137,-0.0759786,0.0510762,0.130785,-0.0937568,0.142877,-0.124241,-0.0883688,0.0140762,0.018692,0.0159836,0.0156021,0.0131226,0.00614166,0.0234985,0.014534,-9.97986,0.0100327,0.000190735,0.0148392,0.00495911,0.0183868,0.00106812,0.0146103,0.00579834
25,5,10.0097,0.00244141,0.00137329,-2.42959,0.0538499,-0.0768941,0.0501607,0.0938585,-0.0971137,0.142877,-0.126987,-0.0889791,0.00808716,0.0244522,0.0188065,0.0114441,0.013237,0.00610352,0.021286,0.0110626,-9.97986,0.0109863,-0.00518799,0.0123596,0.00419617,0.0189972,-0.00144958,0.0184631,0.00595093
25,6,10.0097,-0.000915527,-0.000152588,-2.42959,0.0541551,-0.0753682,0.0519917,0.0789049,-0.0968086,0.144098,-0.126377,-0.0886739,0.0102997,0.0197983,0.016861,0.0117874,0.0154877,0.00740051,0.0193024,0.0121689,-9.97986,0.0137329,-0.000839233,0.00957489,0.00782013,0.0172043,0.000228882,0.0159454,0.00389099
25,7,10.0097,0.00152588,-0.000305176,-2.42989,0.0541551,-0.075063,0.0516866,0.0743273,-0.0943672,0.144098,-0.127598,-0.0862325,0.0128174,0.0218582,0.017662,0.013237,0.0191498,0.00400543,0.0214386,0.0156021,-9.97986,0.0154495,-0.00354767,0.0139999,0.00648499,0.0166702,-0.0063324,0.0145721,0.00389099
25,8,10.0097,0.0012207,0.000305176,-2.42745,0.0547655,-0.0747579,0.0532125,0.072191,-0.0934516,0.145318,-0.126072,-0.0862325,0.0143814,0.0169754,0.0215912,0.0114822,0.0188065,0.0107956,0.0212479,0.0170898,-9.97986,0.0133133,-0.000610352,0.0130463,0.00682831,0.0151443,-0.00175476,0.0152969,0.00576019
25,9,10.0097,0.0012207,0.000152588,-2.42806,0.055681,-0.0756734,0.0532125,0.0715807,-0.0934516,0.145013,-0.126682,-0.0844015,0.00862122,0.018959,0.0173569,0.0115204,0.0139236,0.0119781,0.0202179,0.0154877,-9.97986,0.0148392,-0.000762939,0.00835419,0.0094986,0.0165939,-0.00339508,0.0159454,0.00495911
26,0,10.0097,-0.000610352,0.000457764,-2.42745,0.0550706,-0.075063,0.0535176,0.0709703,-0.0931465,0.145624,-0.125461,-0.0840963,0.0114059,0.0219345,0.0161362,0.0113678,0.0158691,0.0113297,0.0176239,0.0185394,-9.97986,0.0175476,-0.00434875,0.0132751,0.00289917,0.018158,0.00133514,0.0129318,0.00747681
26,1,10.0097,0.00152588,-0.000305176,-2.42653,0.0562914,-0.0747579,0.0544332,0.0709703,-0.0910102,0.146234,-0.124546,-0.0822652,0.0108337,0.017128,0.0180054,0.00900269,0.0195694,0.00888824,0.0218201,0.0142288,-9.97986,0.0137329,-0.00255585,0.0105667,0.00526428,0.0148392,-0.00396729,0.0136948,0.0056839
26,2,10.0097,0.000915527,-0.000305176,-2.42562,0.055681,-0.0735371,0.054128,0.0709703,-0.0922309,0.146539,-0.124241,-0.0819601,0.0109482,0.0210571,0.0242615,0.0120163,0.0192642,0.0138092,0.0208664,0.0211334,-9.97986,0.0173569,-0.00549316,0.0131607,0.00473022,0.0169754,-0.00164032,0.0157928,0.00648499
26,3,10.0097,0,-0.000305176,-2.4247,0.0569017,-0.0735371,0.0550435,0.0715807,-0.0910102,0.146234,-0.124851,-0.0810445,0.00846863,0.0196838,0.0151825,0.00724792,0.0172043,0.00907898,0.018959,0.0232697,-9.97986,0.0198746,-0.00522614,0.0111771,0.0025177,0.017395,-0.00434875,0.0130463,0.0056076
26,4,9.82808,0,-0.00228882,-2.42684,0.0559862,-0.0735371,0.0519917,0.0291613,-0.0965034,0.145929,-0.127598,-0.0822652,0.0139999,0.0227737,0.0177383,0.0175858,0.0164032,0.0101471,0.0216675,0.0278091,-9.97986,0.0282669,-0.00137329,0.0138092,0.00648499,0.0189972,-0.00343323,0.0163651,0.0087738
26,5,1.17787,0.00152588,-0.00457764,-2.4247,0.0575121,-0.0738423,0.0529073,-0.00501844,-0.0971137,0.146234,-0.128208,-0.0819601,0.011673,0.0191879,0.019722,0.00881195,0.017395,0.00732422,0.0258636,0.0225449,-9.97986,0.0249481,-0.00198364,0.0157166,0.00579834,0.0172806,-0.0063324,0.0137711,0.00576019
26,6,-5.72276,0.00244141,-0.00442505,-2.42623,0.0559862,-0.0735371,0.0538228,-0.0153944,-0.0965034,0.146234,-0.130344,-0.0816549,0.0125885,0.0231171,0.0185394,0.00965118,0.0202179,0.0125885,0.02388,0.0230789,-9.97986,0.0212097,0.00114441,0.0170517,0.00850677,0.0204468,-0.00610352,0.0185394,0.00782013
26,7,-9.99003,-0.000305176,-0.00396729,-2.42562,0.0569017,-0.0738423,0.0550435,0.0071886,-0.0922309,0.146844,-0.129734,-0.0804342,0.0102997,0.0226974,0.0168228,0.00709534,0.0164032,0.010376,0.0220871,0.0243378,-9.97986,0.023613,-0.00595093,0.0139999,0.00450134,0.0164413,-0.00183105,0.0136566,0.00701904
26,8,-9.99003,0.000915527,-0.00183105,-2.42501,0.0553758,-0.0735371,0.0562642,0.0383165,-0.0916206,0.145013,-0.126377,-0.0807394,0.0136185,0.0255585,0.0164795,0.0104904,0.0163651,0.0122833,0.0259018,0.0216675,-9.97986,0.0166321,-0.00263214,0.0126266,0.00663757,-0.00556946,-0.000991821,0.0141144,0.00541687
26,9,-9.99003,-0.000915527,-0.000457764,-2.42562,0.0559862,-0.075063,0.0550435,0.0569322,-0.0916206,0.145318,-0.125461,-0.0822652,0.0114822,0.0239182,0.0177765,0.0123596,0.0212097,0.0118637,0.0190353,0.018959,-9.97986,0.0109482,-0.000305176,0.0141907,0.00659943,-0.00736237,-0.0056076,0.0170517,0.00572205
27,0,-9.99003,0.000915527,0.000152588,-2.42592,0.0550706,-0.0747579,0.0556539,0.0724962,-0.0900947,0.145624,-0.125766,-0.0819601,0.00999451,0.0213242,0.0191879,0.0130844,0.0144577,0.0134659,0.0221252,0.00934601,-9.97986,0.00679016,0.00209808,0.00862122,0.00614166,0.00415802,-0.000915527,0.0159454,0.00556946
27,1,-9.99003,0.00183105,0.00152588,-2.4247,0.0547655,-0.0753682,0.0547383,0.121324,-0.0858222,0.145013,-0.12241,-0.0825704,0.00720978,0.0195694,0.0185776,0.0105286,0.0156021,0.010376,0.0219345,0.0128937,-9.97986,0.00999451,0.00324249,0.0162888,0.0110245,0.0191498,0.00198364,0.0159073,0.00827789
27,2,-1.74296,0.00274658,0.00289917,-2.42776,0.0538499,-0.075063,0.0544332,0.140856,-0.0891792,0.145318,-0.122104,-0.0844015,0.0138092,0.0185013,0.0202179,0.0124359,0.00968933,0.0114441,0.0201035,0.00686646,-9.97986,0.00545502,-0.00335693,0.0130081,0.00217438,0.0168228,0.00125885,0.0135803,0.00427246
27,3,6.05062,-0.000610352,0.0050354,-2.42837,0.0529344,-0.0756734,0.0553487,0.155809,-0.0891792,0.143487,-0.120884,-0.0859274,0.0164032,0.0255966,0.0241852,0.0153732,0.0228882,0.0151825,0.0305557,0.0114059,-9.97986,0.0104904,0.00404358,0.0141144,0.00854492,0.0177383,0.00198364,0.0194168,0.0063324
27,4,10.0097,0.000915527,0.00442505,-2.42959,0.0526292,-0.0775044,0.0513814,0.132616,-0.094062,0.142267,-0.123325,-0.0877584,0.00576019,0.0170898,0.0170135,0.00751495,0.0163651,0.00789642,0.0152969,0.00831604,-9.97986,0.00816345,0.00087738,0.0144196,0.00411987,0.0149155,-0.00110626,0.0121307,0.00289917
27,5,10.0097,-0.000305176,0.00106812,-2.4305,0.0541551,-0.0765889,0.0504659,0.092943,-0.0968086,0.142267,-0.126377,-0.0883688,0.0134277,0.0242233,0.0203705,0.0104904,0.015564,0.00900269,0.0266266,0.0137329,-9.97986,0.0108337,0.00114441,0.0141525,0.00953674,0.0195313,0.000915527,0.0172043,0.00823975
27,6,10.0097,0,0.000457764,-2.4302,0.0535448,-0.0765889,0.0510762,0.0795153,-0.0971137,0.142877,-0.126377,-0.0874532,0.00995636,0.0221634,0.0178909,0.00953674,0.0174332,0.00938416,0.0203705,0.0128174,-9.97986,0.0142288,-0.00183105,0.0165939,0.00965118,0.0177002,-0.00236511,0.0143433,0.00526428
27,7,10.0097,0.000610352,-0.000305176,-2.42928,0.0535448,-0.0756734,0.0535176,0.0737169,-0.0952827,0.144708,-0.126682,-0.0868429,0.0105667,0.0229645,0.0236893,0.0113297,0.0141525,0.00930786,0.0177383,0.0161362,-9.97986,0.0133896,-0.00221252,0.0178146,0.00774384,0.0171661,-0.00255585,0.0167847,0.00614166
27,8,10.0097,0,0.000305176,-2.42837,0.0547655,-0.075063,0.0513814,0.0715807,-0.094062,0.143487,-0.126072,-0.0856222,0.0117493,0.0219727,0.0214767,0.0118637,0.0215149,0.00629425,0.0197601,0.0191498,-9.97986,0.01297,-3.8147e-005,0.010643,0.0056839,0.0156403,-0.00175476,0.0160599,0.00629425
27,9,10.0097,-0.000915527,0.000762939,-2.42623,0.0550706,-0.0762837,0.0538228,0.0728014,-0.0937568,0.144403,-0.126377,-0.0850118,0.0117874,0.0234604,0.0182724,0.0125122,0.0140381,0.0147247,0.0205994,0.0137329,-9.97986,0.0164413,-0.00225067,0.0153732,0.0108337,0.0149536,-0.00541687,0.0147629,0.00358582
28,0,10.0097,-0.000305176,0.000305176,-2.42653,0.0559862,-0.0747579,0.0535176,0.0718859,-0.0937568,0.146844,-0.124546,-0.0828756,0.00926971,0.0261307,0.0181961,0.00782013,0.0138855,0.00782013,0.0235367,0.0172043,-9.97986,0.0150299,-0.00400543,0.012207,0.00663757,0.0138474,-0.00469208,0.0158691,0.00671387
28,1,10.0097,0.000610352,0.000305176,-2.4247,0.055681,-0.0741475,0.0553487,0.0718859,-0.0919257,0.145624,-0.125156,-0.0822652,0.0113678,0.0248718,0.0170135,0.0136566,0.014801,0.0111008,0.0233841,0.0226974,-9.97986,0.018692,0.00114441,0.0187302,0.00789642,0.0178146,-0.00225067,0.0124359,0.00511169
28,2,10.0097,-0.000305176,-0.000610352,-2.42562,0.0559862,-0.0720113,0.0547383,0.0718859,-0.0922309,0.145929,-0.124851,-0.0819601,0.0131607,0.016861,0.0208664,0.0133514,0.0189209,0.00644684,0.0212479,0.0194931,-9.97986,0.0177765,0.00137329,0.0127411,0.00534058,0.0132751,-0.000991821,0.0172806,0.00434875
28,3,10.0097,0.000610352,0.000305176,-2.4247,0.0565965,-0.0738423,0.0547383,0.0712755,-0.0922309,0.145318,-0.124851,-0.0807394,0.0104904,0.0219727,0.0144196,0.0139236,0.0170898,0.00732422,0.0239944,0.0230408,-9.97986,0.0182724,-0.00190735,0.0148773,0.00888824,0.0175858,-0.00286102,0.0170898,0.00774384
28,4,10.0097,-0.0012207,-0.00289917,-2.42806,0.0559862,-0.0744527,0.0526021,0.0300768,-0.0971137,0.147149,-0.127292,-0.0831808,0.0125122,0.0188446,0.017395,0.0135422,0.0164795,0.00789642,0.0199509,0.0237274,-9.97986,0.019989,-0.000762939,0.0136185,0.00709534,0.0174332,-0.00778198,0.0143051,0.00679016
28,5,1.38478,-0.000915527,-0.00442505,-2.42501,0.0575121,-0.0723164,0.0526021,-0.00227185,-0.0971137,0.146234,-0.128513,-0.0822652,0.013504,0.022316,0.018692,0.0159454,0.0169373,0.0127029,0.0239563,0.0263596,-9.97986,0.021286,0.000610352,0.0170898,0.00659943,0.0194931,-0.00499725,0.0192642,0.00782013
28,6,-5.40568,0.00152588,-0.00442505,-2.42562,0.0562914,-0.0735371,0.0538228,-0.0135634,-0.0955879,0.146234,-0.129734,-0.0810445,0.00598907,0.0245667,0.0181961,0.0112534,0.0164413,0.00881195,0.0194931,0.0261307,-9.97986,0.0239944,-0.00087738,0.0166702,0.00331879,0.0163651,-0.00370026,0.0124741,0.0082016
28,7,-9.99003,-0.000610352,-0.00335693,-2.42562,0.055681,-0.0738423,0.0538228,0.00688342,-0.0925361,0.146234,-0.129429,-0.0810445,0.0138092,0.0259399,0.0193024,0.0131607,0.0187302,0.0110626,0.019722,0.0201797,-9.97986,0.0188065,0.000839233,0.0131989,0.00854492,0.016861,-0.00267029,0.0123596,0.0082016
28,8,-9.99003,0.0012207,-0.00152588,-2.4244,0.0559862,-0.073232,0.0550435,0.0377062,-0.090705,0.146234,-0.127598,-0.0810445,0.0123596,0.0236893,0.0180817,0.0134277,0.0167847,0.00991821,0.0204849,0.0182724,-9.97986,0.0153351,-0.000991821,0.0186539,0.0123596,-0.00156403,-0.00286102,0.0156403,0.00812531
28,9,-9.99003,0.000305176,-0.000152588,-2.42501,0.0559862,-0.0741475,0.0553487,0.054796,-0.0900947,0.145318,-0.126377,-0.0816549,0.00865936,0.0228882,0.0169373,0.0126648,0.0141144,0.00671387,0.0198364,0.0138855,-9.97986,0.0133133,-0.00274658,0.0147247,0.00492096,-0.00717163,-0.00583649,0.0122452,0.00785828
29,0,-9.99003,-0.00152588,-0.000152588,-2.42592,0.0553758,-0.073232,0.0550435,0.0731066,-0.0903999,0.145624,-0.125461,-0.0828756,0.00835419,0.0201035,0.0162888,0.0141907,0.0120163,0.0105667,0.0226974,0.00999451,-9.97986,0.00610352,0.00087738,0.01297,0.0088501,0.00160217,-0.00457764,0.014801,0.00457764
29,1,-9.99003,0.0012207,0.00183105,-2.4244,0.0553758,-0.0747579,0.0571797,0.121324,-0.0858222,0.146539,-0.121799,-0.0825704,0.00556946,0.0217438,0.0208282,0.0148773,0.0125504,0.00518799,0.0227737,0.00972748,-9.97986,0.00946045,-0.000152588,0.0169754,0.00984192,0.0151825,-0.00301361,0.0148392,0.00545502
29,2,-1.59831,0.00244141,0.00350952,-2.42653,0.0535448,-0.0744527,0.054128,0.142076,-0.0879585,0.144403,-0.12241,-0.0850118,0.00778198,0.0221252,0.0147247,0.0117493,0.0122452,0.00946045,0.0205994,0.00762939,-9.97986,0.00797272,-0.000762939,0.0168228,0.00881195,0.0146866,-0.0038147,0.0140762,0.00427246
29,3,6.12416,0,0.00457764,-2.42806,0.0544603,-0.0762837,0.0544332,0.153673,-0.0894843,0.143792,-0.122104,-0.0850118,0.00789642,0.0241089,0.0175095,0.0125504,0.0147247,0.0130081,0.0237656,0.012207,-9.97986,0.00442505,-0.00164032,0.0160599,0.00835419,0.0151825,-0.00442505,0.0151825,0.00499725
29,4,10.0097,-0.000610352,0.00442505,-2.43081,0.0523241,-0.0762837,0.0510762,0.133226,-0.0931465,0.142572,-0.12302,-0.0883688,0.00747681,0.0206757,0.0209427,0.0115585,0.0155258,0.00572205,0.020752,0.012207,-9.97986,0.0110626,-0.00190735,0.0160599,0.00713348,0.015831,-0.00434875,0.0162888,0.00797272
29,5,10.0097,-0.000305176,0.00106812,-2.43142,0.0535448,-0.0759786,0.0504659,0.0926378,-0.0971137,0.141961,-0.126987,-0.0877584,0.0106812,0.0231171,0.0180817,0.0136185,0.0170517,0.0109863,0.017662,0.0112915,-9.97986,0.012207,7.62939e-005,0.0177765,0.00598907,0.0183868,-0.00106812,0.0148773,0.00644684
29,6,10.0097,0.000610352,-0.000152588,-2.42928,0.0529344,-0.0771993,0.050771,0.0792101,-0.0952827,0.143487,-0.126987,-0.0880636,0.00961304,0.017662,0.0160217,0.0106049,0.0151443,0.00896454,0.0226212,0.013237,-9.97986,0.00774384,-0.00659943,0.0111008,0.00484467,0.0135422,-0.00556946,0.0139236,0.00553131
29,7,10.0097,0,-0.000305176,-2.42837,0.0541551,-0.0753682,0.0519917,0.075548,-0.0949775,0.142572,-0.126987,-0.0862325,0.00919342,0.0231552,0.0191498,0.0120163,0.018425,0.00999451,0.0229263,0.0138474,-9.97986,0.0143433,0.000343323,0.0166702,0.00953674,0.016861,-0.000267029,0.0158691,0.00640869
29,8,10.0097,0.00183105,-0.000152588,-2.42776,0.0553758,-0.0756734,0.0532125,0.0718859,-0.0946723,0.145318,-0.125766,-0.085317,0.00793457,0.0242996,0.0188828,0.0138092,0.0196457,0.0114441,0.0210571,0.0157166,-9.97986,0.0121689,0.000114441,0.0162125,0.011673,0.0180435,0.00087738,0.0190353,0.00961304
29,9,10.0097,0.00183105,0,-2.42684,0.0553758,-0.0747579,0.0519917,0.0706652,-0.0937568,0.145013,-0.126072,-0.0844015,0.00595093,0.0198746,0.0149918,0.0113678,0.0135422,0.00984192,0.0216675,0.0144577,-9.97986,0.0131989,-0.00125885,0.0135422,0.00740051,0.0151443,-0.00278473,0.0146866,0.00434875
30,0,10.0097,0.000915527,0.000915527,-2.42806,0.0550706,-0.0741475,0.0526021,0.0712755,-0.0934516,0.145624,-0.126072,-0.0834859,0.00984192,0.0216675,0.0161362,0.0157166,0.0187683,0.0109482,0.0254822,0.0173187,-9.97986,0.0157928,0.00152588,0.016861,0.00980377,0.014801,0.00087738,0.0181961,0.0101089
30,1,10.0097,-0.000305176,0.000305176,-2.42531,0.055681,-0.0741475,0.0544332,0.0728014,-0.0928413,0.146234,-0.124851,-0.0828756,0.0117111,0.0243378,0.0192261,0.0140381,0.0163651,0.00961304,0.0245285,0.0180817,-9.97986,0.0146866,0.000495911,0.0180054,0.00659943,0.0170135,-0.00110626,0.0170898,0.00648499
30,2,10.0097,0.000610352,-0.000305176,-2.4247,0.0572069,-0.0735371,0.0553487,0.0718859,-0.0919257,0.146539,-0.124241,-0.0816549,0.0136185,0.0223541,0.0196838,0.0170135,0.0242615,0.0121689,0.0197983,0.0281525,-9.97986,0.0124359,-0.00171661,0.0157928,0.00904083,0.0165558,-0.000534058,0.0166702,0.00743866
30,3,10.0097,0.000610352,0.000152588,-2.42501,0.0565965,-0.073232,0.0547383,0.0724962,-0.0922309,0.147149,-0.124546,-0.0810445,0.00961304,0.0195694,0.0157166,0.00926971,0.0157928,0.00579834,0.0210571,0.0260925,-9.97986,0.0164413,-0.00289917,0.0188446,0.00434875,0.0157547,-0.001297,0.0170135,0.00614166
30,4,10.0097,0.0012207,-0.00213623,-2.42653,0.0559862,-0.073232,0.0535176,0.030382,-0.0968086,0.146539,-0.127292,-0.0825704,0.00709534,0.0236893,0.0167084,0.0130081,0.0179672,0.010643,0.0170517,0.0242996,-9.97986,0.0150681,-0.00896454,0.0129318,0.00247955,0.0143051,-0.00717163,0.0128937,0.00293732
30,5,1.41713,-0.000305176,-0.00488281,-2.42531,0.0578172,-0.0735371,0.0535176,-0.00532361,-0.0983344,0.14776,-0.129429,-0.0819601,0.0108337,0.0212479,0.0165939,0.0131226,0.0173187,0.0123215,0.0234985,0.0284195,-9.97986,0.0246811,-0.00198364,0.0170898,0.0105667,0.0216293,-0.00175476,0.0169754,0.00888824
30,6,-5.50792,0.0012207,-0.00457764,-2.42592,0.0581224,-0.0735371,0.0544332,-0.0150892,-0.0961982,0.146234,-0.130039,-0.0816549,0.00495911,0.0231552,0.0128174,0.00854492,0.0191498,0.00720978,0.0225449,0.0182724,-9.97986,0.0157928,-0.00328064,0.0156784,0.0050354,0.0180817,-0.0044632,0.0151443,0.00335693
30,7,-9.99003,0.000610352,-0.00289917,-2.42501,0.0553758,-0.073232,0.0556539,0.00749377,-0.0928413,0.146539,-0.128818,-0.0813497,0.0113297,0.024147,0.0203705,0.00923157,0.0140381,0.00961304,0.0251007,0.0214386,-9.97986,0.0205612,-0.00225067,0.0149155,0.00587463,0.0139999,-0.00511169,0.0166702,0.00846863
30,8,-9.99003,0.000915527,-0.00183105,-2.4247,0.0547655,-0.0738423,0.0565694,0.0367906,-0.0916206,0.146539,-0.126987,-0.0819601,0.0117111,0.0212479,0.0185776,0.0145721,0.0172806,0.0153351,0.0244141,0.02388,-9.97986,0.014534,-0.00518799,0.0144196,0.00728607,-0.00289917,-0.00244141,0.0185776,0.00659943
30,9,-9.99003,-0.000305176,-0.000305176,-2.42531,0.055681,-0.0747579,0.055959,0.054796,-0.0910102,0.146539,-0.126377,-0.0819601,0.010643,0.0224686,0.0169754,0.0101089,0.0162125,0.00827789,0.0193787,0.0154114,-9.97986,0.0125122,-0.00038147,0.0141144,0.00244141,-0.00595093,-0.00198364,0.0144958,0.0104523
31,0,-9.99003,-0.000610352,-0.000457764,-2.42623,0.0550706,-0.0756734,0.0547383,0.0728014,-0.0897895,0.145929,-0.124851,-0.0831808,0.0112534,0.0256729,0.0200653,0.0127792,0.014534,0.0140762,0.0239563,0.00778198,-9.97986,0.00816345,-0.000991821,0.0161362,0.00400543,0.00484467,-0.0018692,0.0181198,0.00480652
31,1,-9.99003,0.00152588,0.00183105,-2.42531,0.0550706,-0.075063,0.0562642,0.12163,-0.0861274,0.145013,-0.123325,-0.0822652,0.0110626,0.0237274,0.017395,0.00961304,0.0170898,0.0101471,0.0191879,0.0135803,-9.97986,0.010376,-0.00202179,0.0155258,0.0082016,0.0151062,-0.00492096,0.0156403,0.00865936
31,2,-1.50676,-0.000305176,0.0038147,-2.42837,0.0544603,-0.075063,0.0547383,0.141771,-0.0870429,0.144403,-0.12241,-0.0844015,0.00804901,0.0228119,0.0164032,0.0159454,0.00915527,0.012207,0.0211716,0.0119019,-9.97986,0.0101471,-0.0019455,0.017395,0.00751495,0.0152969,-0.00534058,0.0191879,0.00335693
31,3,6.22579,0.000610352,0.00396729,-2.42806,0.0538499,-0.075063,0.0532125,0.153978,-0.088874,0.143792,-0.121494,-0.0859274,0.00934601,0.0214767,0.0152969,0.00827789,0.0120544,0.00858307,0.0154495,0.0105667,-9.97986,0.0114441,0.000152588,0.0154877,0.00656128,0.0149918,-0.00423431,0.0148773,0.00396729
31,4,10.0097,-0.000305176,0.00457764,-2.42959,0.0520189,-0.0768941,0.0513814,0.13048,-0.0937568,0.143792,-0.123325,-0.0877584,0.0110245,0.0271225,0.0165558,0.0102234,0.016861,0.0117493,0.0214386,0.0138855,-9.97986,0.0130081,0.00148773,0.0136566,0.00667572,0.016861,0.000190735,0.01297,0.00701904
31,5,10.0097,0.000305176,0.000915527,-2.43081,0.0544603,-0.0756734,0.0495503,0.0938585,-0.0971137,0.143182,-0.126072,-0.0880636,0.00675201,0.0275803,0.0169373,0.0114059,0.0187302,0.00827789,0.0201797,0.0139999,-9.97986,0.0147247,0.000762939,0.0154495,0.0094986,0.0157166,-0.00347137,0.0156403,0.00461578
31,6,10.0097,0.000610352,0.000305176,-2.42867,0.0532396,-0.0759786,0.0513814,0.0785997,-0.0965034,0.143487,-0.127292,-0.0868429,0.00854492,0.0182343,0.0179291,0.0122452,0.0161362,0.00770569,0.015831,0.0177765,-9.97986,0.0147247,-0.00102997,0.0173569,0.00816345,0.0178528,-0.00247955,0.0114822,0.00270844
31,7,10.0097,0.0012207,0.000305176,-2.42928,0.0541551,-0.0747579,0.0522969,0.0728014,-0.0955879,0.144403,-0.126072,-0.0862325,0.0131989,0.0273514,0.0205231,0.0129318,0.0216293,0.0141525,0.0183487,0.0131989,-9.97986,0.0130844,0.00141144,0.0144196,0.00587463,0.0167084,-0.00267029,0.017128,0.00701904
31,8,10.0097,0.0012207,-0.000152588,-2.42928,0.0541551,-0.0762837,0.0522969,0.0724962,-0.0949775,0.144708,-0.124851,-0.0847066,0.0161362,0.0249863,0.0140381,0.0139999,0.0196457,0.0107574,0.0211716,0.0184631,-9.97986,0.0120544,0.000190735,0.0138092,0.0104141,0.0143814,-0.00190735,0.0160217,0.00782013
31,9,10.0097,0.00183105,0.000610352,-2.42776,0.0544603,-0.0762837,0.0538228,0.0715807,-0.094062,0.145318,-0.126072,-0.0850118,0.0140381,0.0279617,0.0183868,0.0101471,0.0152588,0.0094986,0.0193787,0.0133514,-9.97986,0.0120544,-0.00209808,0.0138092,0.00816345,0.0174332,-0.00171661,0.0193024,0.00667572
32,0,10.0097,0,-0.000305176,-2.42592,0.0550706,-0.0738423,0.0529073,0.0700548,-0.0934516,0.144098,-0.125766,-0.0847066,0.0125122,0.0270844,0.017395,0.01091,0.0156784,0.0126266,0.0153732,0.0194931,-9.97986,0.0178909,-0.00450134,0.0151443,0.0125504,0.015564,-0.0012207,0.0177002,0.00732422
32,1,10.0097,0.000915527,0.000610352,-2.42501,0.0559862,-0.0747579,0.0529073,0.072191,-0.0928413,0.145624,-0.124851,-0.0828756,0.012207,0.0256729,0.0200653,0.00972748,0.0203323,0.0103378,0.0237274,0.0220108,-9.97986,0.0128555,-0.00720978,0.0101471,0.0043869,0.014267,-0.0044632,0.0176239,0.00679016
32,2,10.0097,0.000305176,-0.000152588,-2.42501,0.0562914,-0.0747579,0.0547383,0.0712755,-0.0919257,0.146539,-0.123935,-0.0822652,0.0115204,0.028801,0.020752,0.0127029,0.022583,0.0113297,0.0220871,0.0230408,-9.97986,0.0169754,-0.00499725,0.0143814,0.0100708,0.015831,-0.00530243,0.0175095,0.00728607
32,3,10.0097,0.000610352,-0.000305176,-2.42409,0.0565965,-0.0738423,0.0544332,0.0728014,-0.0916206,0.146234,-0.124851,-0.0810445,0.0102615,0.0245285,0.0139618,0.0087738,0.0183105,0.00881195,0.0196075,0.0242996,-9.97986,0.0185776,-0.00442505,0.0104141,0.00873566,0.014534,-0.00556946,0.0138855,0.00854492
32,4,10.0097,-0.000610352,-0.00198364,-2.42653,0.0553758,-0.0729268,0.0526021,0.0316027,-0.0968086,0.145929,-0.126987,-0.0822652,0.0121307,0.0236511,0.0188065,0.012207,0.0190353,0.0118256,0.021019,0.0304413,-9.97986,0.0247574,-0.00366211,0.0163269,0.00892639,0.0188446,-0.0031662,0.0182343,0.0094223
32,5,1.56575,-0.000915527,-0.00473022,-2.42592,0.0559862,-0.0735371,0.0532125,-0.00440808,-0.0949775,0.147455,-0.128818,-0.0825704,0.00946045,0.0244904,0.0220871,0.0130463,0.0180817,0.0124741,0.0239563,0.0241852,-9.97986,0.0251389,0.00164032,0.0136566,0.0050354,0.0180817,-0.0050354,0.0141144,0.00785828
32,6,-5.32634,0.00183105,-0.00488281,-2.42531,0.0578172,-0.0735371,0.0547383,-0.0135634,-0.0961982,0.147149,-0.129734,-0.0816549,0.0117493,0.0217438,0.0152588,0.00953674,0.0150681,0.0124359,0.0229263,0.0259018,-9.97986,0.0214767,0.000152588,0.01194,0.0112534,0.0131989,-0.0038147,0.0194168,0.00812531
32,7,-9.99003,0.000610352,-0.00305176,-2.42592,0.0569017,-0.0735371,0.0568746,0.0071886,-0.0931465,0.147149,-0.127903,-0.0816549,0.0128555,0.0227737,0.0183487,0.00682831,0.0200653,0.0120926,0.0219345,0.0247955,-9.97986,0.0211334,0.000953674,0.0141525,0.00835419,0.0172424,-0.00350952,0.0193787,0.00709534
32,8,-9.99003,0,-0.00274658,-2.42379,0.0553758,-0.0753682,0.0556539,0.0367906,-0.0913154,0.145929,-0.126682,-0.0813497,0.0122833,0.0198364,0.0185394,0.0159836,0.0180817,0.00831604,0.0204849,0.0210953,-9.97986,0.0162888,-0.00137329,0.0115585,0.00759125,0.000114441,-0.00282288,0.0133514,0.00850677
32,9,-9.99003,0.000305176,-0.000457764,-2.42562,0.0538499,-0.0753682,0.0553487,0.0563219,-0.0916206,0.146539,-0.126072,-0.0819601,0.00907898,0.0233078,0.0173187,0.01194,0.0189209,0.00801086,0.0258255,0.0136948,-9.97986,0.0119019,0.000801086,0.0128555,0.00324249,-0.00846863,-0.00637054,0.0143433,0.00465393
33,0,-9.99003,0.000610352,0.000762939,-2.42531,0.055681,-0.0741475,0.0556539,0.0724962,-0.0900947,0.145318,-0.125461,-0.0822652,0.0112915,0.0197983,0.0172424,0.00843048,0.016098,0.0106049,0.0224304,0.0131607,-9.97986,0.0114822,0.00213623,0.011673,0.00988007,0.0050354,-0.00183105,0.0140762,0.0088501
33,1,-9.99003,0.000610352,0.00106812,-2.42562,0.0559862,-0.0744527,0.0556539,0.120409,-0.0861274,0.145624,-0.12241,-0.0822652,0.0069809,0.0213242,0.0204468,0.00968933,0.0165939,0.00629425,0.0239182,0.00999451,-9.97986,0.0115585,-0.000534058,0.0161743,0.00156403,0.0123596,-0.0025177,0.0144196,0.00614166
33,2,-1.55925,0,0.00335693,-2.42745,0.0538499,-0.0759786,0.0547383,0.141161,-0.0882636,0.144403,-0.121799,-0.0844015,0.00869751,0.0210953,0.0166321,0.0108719,0.0143051,0.00965118,0.0207138,0.00812531,-9.97986,0.0112915,0.0056076,0.0166321,0.00423431,0.0156021,-0.00614166,0.0158691,0.00637054
33,3,6.17238,0.000610352,0.00427246,-2.42867,0.0535448,-0.0759786,0.0532125,0.155809,-0.0891792,0.142572,-0.121799,-0.085317,0.00904083,0.0204468,0.0159454,0.00759125,0.0211334,0.0111008,0.0240326,0.0114059,-9.97986,0.013504,0.00263214,0.0172424,0.0094986,0.0167847,-0.00335693,0.0167465,0.00530243
33,4,10.0097,0.0012207,0.00534058,-2.42989,0.0523241,-0.0756734,0.050771,0.132616,-0.094062,0.143182,-0.12302,-0.0880636,0.00736237,0.0201797,0.0159454,0.0104141,0.0177383,0.00900269,0.0204849,0.00980377,-9.97986,0.0132751,7.62939e-005,0.017128,0.0088501,0.0167847,-0.0030899,0.015564,0.0063324
33,5,10.0097,0.000305176,0.00183105,-2.42959,0.0526292,-0.0771993,0.0501607,0.092943,-0.0977241,0.142877,-0.125766,-0.0883688,0.00839233,0.0247955,0.021286,0.0119019,0.019722,0.0117493,0.019722,0.0157547,-9.97986,0.0156021,0.00556946,0.0165939,0.00839233,0.0151443,-0.00320435,0.0167847,0.00526428
33,6,10.0097,0.000610352,0.000305176,-2.42989,0.0544603,-0.075063,0.0501607,0.0795153,-0.0965034,0.142572,-0.126682,-0.0880636,0.00812531,0.0200653,0.0164032,0.0105286,0.0172806,0.00904083,0.017662,0.0133896,-9.97986,0.0111771,0.0050354,0.0128174,0.00465393,0.0160599,-0.00160217,0.0140762,0.00343323
33,7,10.0097,0,0.000305176,-2.42745,0.0544603,-0.0756734,0.0522969,0.0728014,-0.0955879,0.144403,-0.127292,-0.0871481,0.00991821,0.0252151,0.0170898,0.0123215,0.0156784,0.0144196,0.0236893,0.0111008,-9.97986,0.0146484,-0.000114441,0.0163651,0.00915527,0.0178528,-0.000152588,0.0183868,0.00583649
33,8,10.0097,0.0012207,0.000152588,-2.42745,0.0535448,-0.0747579,0.0526021,0.0712755,-0.094062,0.144403,-0.126682,-0.0862325,0.0101471,0.0257492,0.018158,0.00598907,0.0163269,0.00972748,0.0189972,0.0148392,-9.97986,0.0131226,0.000228882,0.0157547,0.0062561,0.0112152,-0.00480652,0.0165558,0.00526428
33,9,10.0097,0.000915527,0.000610352,-2.42684,0.055681,-0.0747579,0.0529073,0.07036,-0.094062,0.145013,-0.126072,-0.0840963,0.0140381,0.0260162,0.0165939,0.0107956,0.0193405,0.00976563,0.0273132,0.0174332,-9.97986,0.0150681,-0.000762939,0.0142288,0.00965118,0.0189972,0.00171661,0.0176239,0.00541687
34,0,10.0097,0.000610352,0.000610352,-2.42714,0.0544603,-0.0747579,0.0532125,0.07036,-0.0937568,0.145013,-0.125766,-0.0840963,0.00896454,0.0246811,0.016861,0.00991821,0.017662,0.00965118,0.0188065,0.0144196,-9.97986,0.0122452,-0.000991821,0.0108337,0.00751495,0.0140762,-0.00396729,0.0113678,0.00556946
34,1,10.0097,0.000305176,0.000915527,-2.4247,0.0553758,-0.0729268,0.0544332,0.0715807,-0.0916206,0.146234,-0.124241,-0.0825704,0.00839233,0.0258636,0.0183868,0.0119019,0.0182343,0.0136185,0.0212479,0.0201797,-9.97986,0.0183868,0.0018692,0.0139999,0.00484467,0.0182343,-0.00663757,0.0159073,0.00545502
34,2,10.0097,0.000610352,0,-2.42592,0.0569017,-0.0744527,0.054128,0.07036,-0.0919257,0.146539,-0.123935,-0.0810445,0.00602722,0.0260925,0.0176239,0.00865936,0.0145721,0.00938416,0.022316,0.0202942,-9.97986,0.0158691,-0.00175476,0.0135803,0.00743866,0.0204086,-0.0030899,0.0148773,0.00499725
34,3,10.0097,-0.000915527,0.000152588,-2.4247,0.0562914,-0.0735371,0.0553487,0.0709703,-0.0913154,0.147149,-0.12363,-0.0813497,0.0126266,0.0243759,0.0172043,0.0112915,0.0178909,0.0111771,0.0235748,0.0228882,-9.97986,0.0218964,0.000343323,0.0140381,0.00732422,0.0207138,-0.000419617,0.0148392,0.00778198
34,4,9.97731,0.000305176,-0.00274658,-2.42776,0.0562914,-0.0735371,0.0526021,0.0306871,-0.0968086,0.146539,-0.127292,-0.0816549,0.0127029,0.0242233,0.018692,0.0120163,0.0165558,0.0115967,0.0234222,0.0290298,-9.97986,0.0224304,-0.00213623,0.0114822,0.00728607,0.0157547,-0.00408173,0.0159073,0.00423431
34,5,1.4211,0.0012207,-0.00427246,-2.42562,0.0562914,-0.073232,0.0532125,-0.00440808,-0.0971137,0.145318,-0.129429,-0.0816549,0.0104904,0.0227356,0.0178909,0.00972748,0.0196457,0.0082016,0.0212097,0.027504,-9.97986,0.0206757,0.00133514,0.0101852,0.00640869,0.0166321,-0.0087738,0.0157547,0.00595093
34,6,-5.43651,0.00152588,-0.00442505,-2.4247,0.0572069,-0.0744527,0.0544332,-0.0138685,-0.095893,0.145624,-0.129734,-0.0819601,0.0138092,0.0249863,0.0159454,0.00946045,0.0174332,0.0101089,0.0217056,0.0212479,-9.97986,0.020256,0.000457764,0.0150299,0.00953674,0.0171661,-0.00385284,0.0157547,0.00778198
34,7,-9.99003,-0.000305176,-0.00289917,-2.42501,0.0565965,-0.0738423,0.0550435,0.00779895,-0.0919257,0.147455,-0.129429,-0.0810445,0.00930786,0.0239563,0.0169373,0.0111771,0.0215912,0.00789642,0.0254822,0.0242996,-9.97986,0.0188828,-0.000839233,0.0113678,0.00591278,0.0188828,-0.00198364,0.0127792,0.00621796
34,8,-9.99003,-0.000610352,-0.00213623,-2.42531,0.0562914,-0.0738423,0.0565694,0.0367906,-0.0919257,0.147149,-0.127292,-0.0807394,0.00965118,0.0222397,0.0181961,0.0123596,0.0160217,0.0101089,0.0250244,0.019989,-9.97986,0.0157928,-0.0018692,0.0113678,0.00457764,-0.00133514,-0.00408173,0.0123978,0.00694275
34,9,-9.99003,0.000610352,0,-2.42745,0.0547655,-0.0744527,0.0553487,0.0554064,-0.0913154,0.146539,-0.126072,-0.0816549,0.0087738,0.0258255,0.0162125,0.0117874,0.0131607,0.013504,0.0227356,0.0188828,-9.97986,0.0110245,0.001297,0.0128555,0.00782013,-0.00659943,-0.00297546,0.0157166,0.00644684
35,0,-9.99003,0.000305176,-0.000305176,-2.4244,0.0544603,-0.0738423,0.0547383,0.0734117,-0.090705,0.145318,-0.125461,-0.0819601,0.00762939,0.019722,0.0161362,0.0103378,0.0194168,0.0102615,0.0226212,0.0101852,-9.97986,0.0069046,-0.000915527,0.0134659,0.00759125,0.00988007,0.00133514,0.0177765,0.00415802
35,1,-9.89726,0.00152588,0.00152588,-2.42592,0.0550706,-0.0738423,0.055959,0.120409,-0.0864326,0.145624,-0.12241,-0.0816549,0.00984192,0.0215149,0.0125885,0.0110245,0.0165558,0.0139999,0.0201416,0.0139618,-9.97986,0.00396729,-0.00198364,0.0127792,0.00808716,0.0143814,-0.00350952,0.0149155,0.00526428
35,2,-1.38194,0.00152588,0.00366211,-2.42653,0.0541551,-0.075063,0.054128,0.141161,-0.088874,0.145013,-0.121799,-0.0831808,0.00782013,0.0255203,0.0201797,0.01194,0.0192261,0.0117111,0.0221634,0.0104523,-9.97986,0.00823975,-0.00423431,0.0143433,0.00728607,0.0151825,0.00102997,0.0185013,0.00282288
35,3,6.27004,0.000305176,0.00442505,-2.42837,0.0526292,-0.0762837,0.054128,0.153978,-0.0885688,0.143487,-0.121189,-0.085317,0.00732422,0.0198746,0.017128,0.00988007,0.0185013,0.010643,0.0196838,0.0104904,-9.97986,0.00705719,-0.00038147,0.0133896,0.00743866,0.0134659,-0.000762939,0.0120544,0.0044632
35,4,10.0097,0,0.0050354,-2.42989,0.0529344,-0.0771993,0.0510762,0.13109,-0.094062,0.142572,-0.12363,-0.0877584,0.00823975,0.0231934,0.0193024,0.0138474,0.0215149,0.0137711,0.0241089,0.0108337,-9.97986,0.01091,-0.001297,0.0123978,0.0075531,0.0145721,-0.00183105,0.0162125,0.0044632
35,5,10.0097,0,0.000762939,-2.43172,0.0544603,-0.0765889,0.0501607,0.0920275,-0.0980293,0.142877,-0.125461,-0.0883688,0.00671387,0.0222778,0.016098,0.0136948,0.0159454,0.0127792,0.0219345,0.0137711,-9.97986,0.0149155,0.00411987,0.0118637,0.00545502,0.0191116,0.000190735,0.0147247,0.00904083
35,6,10.0097,0,0.000762939,-2.42959,0.0538499,-0.0765889,0.0510762,0.0782946,-0.0971137,0.142267,-0.127292,-0.0892843,0.0121689,0.0209427,0.0196075,0.0127029,0.0146103,0.0130463,0.0229263,0.0157166,-9.97986,0.0127411,-0.000152588,0.0131989,0.00541687,0.0180817,0.00236511,0.0169373,0.00751495
35,7,10.0097,-0.000305176,0.000457764,-2.42837,0.0553758,-0.0759786,0.0522969,0.0737169,-0.0955879,0.142877,-0.126377,-0.0865377,0.0120926,0.0231171,0.0169373,0.0125885,0.0152206,0.0117874,0.0232315,0.0170135,-9.97986,0.0142288,0.00144958,0.00980377,0.00411987,0.0173569,0.00152588,0.0160599,0.00904083
35,8,10.0097,0.000610352,0.000305176,-2.42684,0.0550706,-0.075063,0.0532125,0.0712755,-0.0934516,0.144098,-0.127292,-0.085317,0.0132751,0.0225067,0.0154495,0.0124741,0.0172806,0.00858307,0.0227737,0.0123596,-9.97986,0.0147247,0.000419617,0.0145721,0.00629425,0.0179672,-0.00450134,0.0146866,0.00835419
35,9,10.0097,-0.0012207,0.00106812,-2.42714,0.0547655,-0.0756734,0.0529073,0.0715807,-0.0937568,0.145318,-0.126377,-0.0847066,0.01091,0.0263596,0.0197601,0.0106812,0.0172043,0.010376,0.0217056,0.0146103,-9.97986,0.0137711,-0.00389099,0.0125885,0.00782013,0.0134659,-0.000572205,0.0143051,0.00785828
36,0,10.0097,0.000915527,0,-2.42684,0.0572069,-0.075063,0.0538228,0.0709703,-0.0934516,0.144098,-0.126072,-0.0840963,0.00598907,0.0231552,0.0183105,0.0118637,0.019989,0.0107574,0.0260162,0.0170517,-9.97986,0.0180435,-0.00270844,0.014534,0.00579834,0.0172806,-0.00240326,0.0135803,0.0025177
36,1,10.0097,0.000915527,0.000305176,-2.42623,0.0553758,-0.0747579,0.0544332,0.0715807,-0.0919257,0.147149,-0.125461,-0.0819601,0.0128174,0.0245667,0.0168228,0.0101471,0.0167465,0.00915527,0.021286,0.0196075,-9.97986,0.0153351,-0.00679016,0.0137711,0.00572205,0.0131607,-0.000915527,0.014267,0.00701904
36,2,10.0097,0.00152588,0.000762939,-2.42531,0.0559862,-0.0741475,0.0538228,0.0706652,-0.0925361,0.147149,-0.124546,-0.0822652,0.0135422,0.0193787,0.0182724,0.01091,0.0160217,0.00709534,0.0238419,0.02388,-9.97986,0.0214386,-0.00125885,0.0158691,0.00705719,0.0139236,-0.000190735,0.0122452,0.00514984
36,3,10.0097,0.000915527,-0.000457764,-2.42501,0.0562914,-0.0735371,0.0553487,0.0715807,-0.0916206,0.146234,-0.125461,-0.0810445,0.0110626,0.0206375,0.0161362,0.0123978,0.0151062,0.00976563,0.0230408,0.0260925,-9.97986,0.0232697,-0.000495911,0.0151062,0.00514984,0.0183105,-0.00133514,0.0151062,0.0063324
36,4,9.92726,0.000305176,-0.00228882,-2.42592,0.0565965,-0.0744527,0.0526021,0.0325182,-0.095893,0.145318,-0.127903,-0.0825704,0.0118256,0.0190353,0.0166321,0.0111008,0.0135803,0.0131226,0.0205231,0.0291824,-9.97986,0.0234985,-0.00179291,0.0177765,0.00621796,0.0175858,-0.00293732,0.0177383,0.00511169
36,5,1.43605,0.000915527,-0.00442505,-2.42623,0.0575121,-0.073232,0.0538228,-0.00471326,-0.0971137,0.146539,-0.129429,-0.0819601,0.0139236,0.0187683,0.020256,0.0100327,0.0157166,0.0139618,0.0230026,0.0315857,-9.97986,0.0204468,-0.00522614,0.0129318,0.00465393,0.0198364,-0.00614166,0.0170898,0.00846863
36,6,-5.51677,0.000610352,-0.0050354,-2.42623,0.0572069,-0.0735371,0.0547383,-0.0150892,-0.0971137,0.146234,-0.130039,-0.0813497,0.0124359,0.0207901,0.0150681,0.0123596,0.0157928,0.00988007,0.0209427,0.0228119,-9.97986,0.0195694,-0.00240326,0.0137711,0.00217438,0.0170898,-0.00419617,0.0149918,0.0038147
36,7,-9.99003,-0.000305176,-0.00289917,-2.42409,0.0553758,-0.0726216,0.0550435,0.00627307,-0.0913154,0.14776,-0.128208,-0.0798238,0.00736237,0.0217438,0.014801,0.0136185,0.0181961,0.0146866,0.0230408,0.0262833,-9.97986,0.0196075,-0.00335693,0.0151825,0.00556946,0.0175476,-0.00453949,0.0146484,0.00629425
36,8,-9.99003,0,-0.00167847,-2.42531,0.0559862,-0.0744527,0.0544332,0.0367906,-0.0910102,0.145624,-0.126682,-0.080129,0.0130844,0.0230408,0.0183487,0.0131989,0.0188065,0.00846863,0.0217819,0.0217819,-9.97986,0.0165939,-0.00713348,0.0115967,0.00400543,-0.00751495,-0.0044632,0.0149536,0.00789642
36,9,-9.99003,0.0012207,-0.000152588,-2.42592,0.0547655,-0.0747579,0.0553487,0.0560167,-0.0897895,0.145318,-0.125766,-0.0819601,0.0126648,0.0228119,0.0177383,0.0107193,0.0204086,0.00850677,0.0222778,0.0128174,-9.97986,0.0154877,-0.000762939,0.0130463,0.00587463,-0.00762939,-0.00133514,0.0136566,0.00743866
37,0,-9.99003,0.000915527,0.00137329,-2.42623,0.0559862,-0.075063,0.0544332,0.0728014,-0.090705,0.145929,-0.125766,-0.0819601,0.00999451,0.0225449,0.018158,0.00774384,0.0196075,0.00980377,0.0205231,0.0144577,-9.97986,0.01091,-0.00259399,0.0156021,0.00198364,0.00408173,-0.00152588,0.015564,0.00869751
37,1,-9.99003,0,0.00183105,-2.42562,0.0547655,-0.0744527,0.0571797,0.121324,-0.0839912,0.144403,-0.12302,-0.0822652,0.0125885,0.0229645,0.0186539,0.00892639,0.0157166,0.00846863,0.0178909,0.00988007,-9.97986,0.00980377,-0.00606537,0.0159454,0.0031662,0.0186157,-0.00179291,0.0150299,0.00663757
37,2,-1.65294,0.000305176,0.00350952,-2.42806,0.0541551,-0.0759786,0.0547383,0.142687,-0.0882636,0.143487,-0.122715,-0.0847066,0.00801086,0.0201797,0.016861,0.0101089,0.0192261,0.00988007,0.0232315,0.0100708,-9.97986,0.00621796,-0.00419617,0.0114441,0.00350952,0.0158691,-0.00339508,0.0174713,0.00282288
37,3,6.04024,0,0.00411987,-2.42837,0.0541551,-0.0759786,0.0544332,0.154894,-0.0885688,0.143792,-0.121799,-0.0859274,0.0131989,0.0237274,0.0162506,0.0094223,0.0146484,0.0123978,0.0220108,0.00793457,-9.97986,0.00965118,-0.00328064,0.0111389,0.0069046,0.0153351,-0.00400543,0.014534,0.00469208
37,4,10.0097,-0.000610352,0.00473022,-2.43081,0.0517137,-0.0771993,0.0516866,0.133226,-0.0937568,0.141351,-0.12302,-0.0874532,0.00850677,0.0221252,0.0164795,0.0126266,0.0193024,0.0107193,0.0204849,0.0139999,-9.97986,0.011673,7.62939e-005,0.0121307,0.00377655,0.0171661,-0.00164032,0.0151825,0.00762939
37,5,10.0097,0.00183105,0.00137329,-2.4305,0.0538499,-0.0759786,0.0504659,0.0920275,-0.0980293,0.142572,-0.126072,-0.0883688,0.00835419,0.0234604,0.0192642,0.0094223,0.0110245,0.0135422,0.0218582,0.0142288,-9.97986,0.01297,-0.0037384,0.0178909,0.00789642,0.0177002,-0.000953674,0.0162888,0.00598907
37,6,10.0097,0.000915527,0.000305176,-2.42898,0.0541551,-0.0762837,0.0510762,0.0789049,-0.0968086,0.142877,-0.126987,-0.0874532,0.0123978,0.0254059,0.0160217,0.00938416,0.0195694,0.0112915,0.0206757,0.0130844,-9.97986,0.013504,-0.00747681,0.0121307,0.00816345,0.0150681,-0.00087738,0.0130081,0.00644684
37,7,10.0097,-0.000305176,0,-2.42867,0.0541551,-0.0756734,0.0532125,0.0746324,-0.0952827,0.144098,-0.126682,-0.0874532,0.0129318,0.0238037,0.0208664,0.0109482,0.0151062,0.0130081,0.0212479,0.0178528,-9.97986,0.0148392,-0.000839233,0.0120163,0.00759125,0.0177383,0.00190735,0.0175476,0.00686646
37,8,10.0097,0.000305176,-0.000152588,-2.42714,0.0547655,-0.0747579,0.0532125,0.0731066,-0.0943672,0.144098,-0.126682,-0.085317,0.0115967,0.0222015,0.0188828,0.00965118,0.0172806,0.010376,0.0220108,0.0149536,-9.97986,0.0148392,0.000610352,0.0174713,0.0075531,0.0177383,-0.00038147,0.0164032,0.00652313
37,9,10.0097,0.000915527,-0.000152588,-2.42684,0.0550706,-0.0741475,0.0532125,0.0700548,-0.0937568,0.143487,-0.125156,-0.0844015,0.0136566,0.0223923,0.0187683,0.00782013,0.0167084,0.0094223,0.0220108,0.0184631,-9.97986,0.0155258,0.00278473,0.0111389,0.00377655,0.0178146,-0.00225067,0.0167084,0.00667572
38,0,10.0097,0.000610352,0.000152588,-2.42714,0.0562914,-0.0744527,0.0522969,0.0700548,-0.0934516,0.145013,-0.126987,-0.0840963,0.0117111,0.0260162,0.0211716,0.0131989,0.0182343,0.0146866,0.0208664,0.017395,-9.97986,0.0157547,0.00217438,0.0136948,0.00724792,0.0199127,-0.00400543,0.0150681,0.00644684
38,1,10.0097,0.000610352,0.000305176,-2.42653,0.055681,-0.0756734,0.054128,0.0706652,-0.0925361,0.145624,-0.124851,-0.0825704,0.0115204,0.0222015,0.0180435,0.0128937,0.0196075,0.0125885,0.0261307,0.0198364,-9.97986,0.0172806,0.000267029,0.0147247,0.00617981,0.0152206,-0.0019455,0.0139618,0.00743866
38,2,10.0097,0.0012207,-0.000152588,-2.42501,0.0559862,-0.0738423,0.0547383,0.0709703,-0.0916206,0.147455,-0.124546,-0.0816549,0.00961304,0.0223923,0.0175858,0.00934601,0.0173187,0.00679016,0.0243378,0.0197601,-9.97986,0.018692,-0.00228882,0.0117493,0.00671387,0.0196838,0.000686646,0.0169373,0.0075531
38,3,10.0097,0.00152588,0.000305176,-2.42653,0.0553758,-0.0735371,0.054128,0.0718859,-0.0913154,0.146539,-0.12302,-0.0810445,0.0114822,0.0244904,0.0196075,0.010376,0.015831,0.0128555,0.0224686,0.024147,-9.97986,0.0218582,-0.00244141,0.0151443,0.00759125,0.0194931,-0.000801086,0.0192642,0.00717163
38,4,10.0078,0.000610352,-0.00228882,-2.42714,0.0565965,-0.0741475,0.0529073,0.0312975,-0.0965034,0.145318,-0.127292,-0.0831808,0.0117493,0.0249481,0.0180817,0.0106049,0.0203323,0.0113297,0.0270844,0.0244522,-9.97986,0.0229645,-0.000534058,0.0197983,0.00701904,0.0206375,0.000114441,0.0146103,0.00667572
38,5,1.45894,0.000915527,-0.00457764,-2.42623,0.0572069,-0.0735371,0.0532125,-0.00410291,-0.0971137,0.147149,-0.128818,-0.0819601,0.0123978,0.0280762,0.0181198,0.0147247,0.0165558,0.0124741,0.0241852,0.02285,-9.97986,0.0244141,-0.000305176,0.0158691,0.00652313,0.0190735,-0.00301361,0.0137329,0.0104141
38,6,-5.4658,0.000610352,-0.00442505,-2.42562,0.055681,-0.0741475,0.0547383,-0.0150892,-0.0977241,0.146539,-0.129734,-0.0819601,0.0121689,0.0219727,0.0178146,0.0114822,0.0225449,0.00862122,0.0225067,0.0221252,-9.97986,0.0177002,-0.00354767,0.0146103,0.00686646,0.016098,-0.00305176,0.0174332,0.0056839
38,7,-9.99003,-0.000915527,-0.00335693,-2.42562,0.0565965,-0.073232,0.0550435,0.0071886,-0.094062,0.145624,-0.128208,-0.0810445,0.00923157,0.021553,0.017395,0.0114059,0.0163269,0.0108719,0.0218201,0.022316,-9.97986,0.0178146,0.000343323,0.0150299,0.00766754,0.0159073,-0.00205994,0.0136566,0.00583649
38,8,-9.99003,0.000610352,-0.00167847,-2.42501,0.0569017,-0.073232,0.0544332,0.0352648,-0.0910102,0.146234,-0.127292,-0.0810445,0.00720978,0.0265503,0.0132751,0.00812531,0.0192642,0.0104904,0.0231934,0.0182343,-9.97986,0.0152969,-0.00263214,0.0135422,0.00778198,-0.00343323,-0.00377655,0.017662,0.00564575
38,9,-9.99003,-0.000610352,-0.000610352,-2.42684,0.0553758,-0.073232,0.0550435,0.0544908,-0.0900947,0.146539,-0.126072,-0.0822652,0.00686646,0.0223541,0.014534,0.0113678,0.0172806,0.0108337,0.0192642,0.013504,-9.97986,0.0154495,-0.00125885,0.0170135,0.00904083,-0.00595093,-0.0069046,0.0178146,0.00919342
39,0,-9.99003,0.0012207,-0.000305176,-2.42592,0.0544603,-0.0738423,0.0547383,0.0734117,-0.0897895,0.145318,-0.125156,-0.0822652,0.00972748,0.022049,0.0198364,0.00965118,0.020752,0.00907898,0.0206757,0.0130081,-9.97986,0.00862122,-0.000190735,0.01194,0.00850677,0.00541687,7.62939e-005,0.0171661,0.00709534
39,1,-9.93541,0.00183105,0.00183105,-2.42562,0.0547655,-0.0741475,0.0562642,0.122545,-0.0855171,0.145013,-0.12241,-0.0813497,0.00808716,0.0225067,0.0166702,0.0107574,0.0129318,0.00888824,0.0251389,0.00904083,-9.97986,0.00770569,-0.000114441,0.0131989,0.00518799,0.0124741,-0.00556946,0.0136185,0.00385284
39,2,-1.37889,0.00213623,0.0038147,-2.42776,0.0544603,-0.0756734,0.0544332,0.142687,-0.0870429,0.143792,-0.122715,-0.0850118,0.0111771,0.0276184,0.0159836,0.01194,0.019722,0.0104523,0.0222397,0.0101471,-9.97986,0.00827789,-0.00347137,0.0180054,0.00896454,0.0159836,-0.0056076,0.0125122,0.00801086
39,3,6.34419,0.000305176,0.00442505,-2.42837,0.0541551,-0.0744527,0.054128,0.154588,-0.0900947,0.143182,-0.120273,-0.0850118,0.0125504,0.0247955,0.019722,0.0130463,0.0199127,0.0134277,0.0206375,0.011673,-9.97986,0.00595093,-0.00175476,0.0144958,0.0094223,0.0149918,-0.00392914,0.0143051,0.00537872
39,4,10.0097,0.000610352,0.00396729,-2.4302,0.0532396,-0.0762837,0.0510762,0.130174,-0.095893,0.141961,-0.12363,-0.0877584,0.00545502,0.0237656,0.0146484,0.00667572,0.0217438,0.00854492,0.0229645,0.0130463,-9.97986,0.0111008,0.000915527,0.0130081,0.00846863,0.0173187,-0.0012207,0.0153351,0.00526428
39,5,10.0097,0,0.00183105,-2.43081,0.0535448,-0.0756734,0.0495503,0.0905016,-0.0986396,0.143182,-0.126682,-0.0883688,0.015564,0.0274658,0.0196838,0.0109863,0.0204086,0.0108719,0.022583,0.0167084,-9.97986,0.0122833,-0.00549316,0.0157166,0.00816345,0.0148773,-0.00232697,0.017128,0.0075531
39,6,10.0097,0.00183105,0,-2.42989,0.0544603,-0.075063,0.0501607,0.0795153,-0.095893,0.145013,-0.127598,-0.0874532,0.0094223,0.0194931,0.0117874,0.0069046,0.0139999,0.0103378,0.0199127,0.0128937,-9.97986,0.0127792,-0.00492096,0.012207,0.00282288,0.00965118,-0.00331879,0.012207,0.00343323
39,7,10.0097,0.000610352,0.000305176,-2.42867,0.0541551,-0.0759786,0.0522969,0.0724962,-0.0946723,0.143792,-0.126682,-0.0859274,0.00923157,0.0252533,0.0205994,0.014534,0.0213623,0.0136948,0.0207901,0.017128,-9.97986,0.0136566,-0.00175476,0.0124741,0.00671387,0.0123596,-0.000114441,0.0182343,0.00522614
39,8,10.0097,0,-0.000457764,-2.42806,0.055681,-0.0753682,0.0513814,0.0724962,-0.0952827,0.144708,-0.126377,-0.0847066,0.0125122,0.0232697,0.020256,0.0117493,0.0172424,0.00873566,0.0201797,0.0134659,-9.97986,0.0127029,-0.00354767,0.0148392,0.00930786,0.0126648,-0.00137329,0.0147629,0.00564575
39,9,10.0097,-0.000610352,0.000915527,-2.42745,0.0544603,-0.0753682,0.0532125,0.0718859,-0.0928413,0.145013,-0.126072,-0.0847066,0.0111008,0.0258255,0.0178528,0.0132751,0.0199509,0.0123978,0.0207901,0.0150299,-9.97986,0.0167084,-0.00160217,0.0157547,0.00858307,0.015564,-0.00133514,0.0174332,0.00671387
40,0,10.0097,0.000610352,0.000915527,-2.42653,0.0550706,-0.0762837,0.0535176,0.0724962,-0.0922309,0.145318,-0.125766,-0.0834859,0.0121307,0.0268555,0.0205231,0.00900269,0.0172043,0.00774384,0.0238419,0.0203323,-9.97986,0.0177383,-3.8147e-005,0.0183868,0.00919342,0.017662,-0.00267029,0.0189972,0.0114822
40,1,10.0097,0.0012207,0.000457764,-2.42714,0.0544603,-0.0741475,0.0535176,0.0694445,-0.0925361,0.145624,-0.123935,-0.0819601,0.0100708,0.0278473,0.0143814,0.01091,0.0177765,0.0108719,0.0191116,0.0189972,-9.97986,0.0107956,-0.0019455,0.0111008,0.00595093,0.0165939,-0.000762939,0.0157928,0.00453949
40,2,10.0097,0.00152588,0.000610352,-2.42562,0.0572069,-0.0741475,0.0544332,0.0715807,-0.0913154,0.145624,-0.126072,-0.0810445,0.0174713,0.0271606,0.0173569,0.0202942,0.0209427,0.0156021,0.0243378,0.0232697,-9.97986,0.0214767,0.0025177,0.0207138,0.014534,0.025177,0.00476837,0.0208664,0.00995636
40,3,10.0097,0.000305176,-0.000457764,-2.42501,0.0559862,-0.0735371,0.0532125,0.0724962,-0.0922309,0.146234,-0.123935,-0.0813497,0.0101089,0.0185394,0.0144958,0.0125885,0.0143814,0.00694275,0.0167847,0.0231171,-9.97986,0.0193405,-0.00362396,0.0150299,0.0050354,0.0170135,-0.0050354,0.0165558,0.00404358
40,4,10.0097,0,-0.00274658,-2.42684,0.0559862,-0.0747579,0.0532125,0.0312975,-0.095893,0.145929,-0.126987,-0.0828756,0.0128174,0.0263977,0.0182724,0.00972748,0.0186539,0.00961304,0.0225067,0.0225449,-9.97986,0.0170135,-0.00419617,0.014801,0.00411987,0.0153732,-0.00366211,0.0144958,0.00419617
40,5,1.5508,0.00152588,-0.00442505,-2.42623,0.0562914,-0.0726216,0.0526021,-0.00532361,-0.0961982,0.146844,-0.129429,-0.0822652,0.0175858,0.0254059,0.0201416,0.0135422,0.0226212,0.0135422,0.0269699,0.0292206,-9.97986,0.0263977,-0.00160217,0.0146866,0.00827789,0.0198364,-0.00114441,0.0172806,0.00785828
