
Devices
1200
,,BP Load cell - Voltage,String Length - Voltage,Clutch Active - Voltage,#7 iPecs - Voltage,,,,,,,,,EMG 1-8 Left - Voltage,,,,,,,,Pylon Force - Voltage,EMG 9-16 Right - Voltage,,,,,,,,
Frame,Sub Frame,BP Load Cell,String Length,From Arduino Logic,A45,A135,A225,A315,S0,S90,S180,S270,ZSum,EMG 1 Glut Max,EMG 2 Glut Med,EMG 3 Biceps Femoris Long,EMG 4 Rectus Femoris,EMG 5 Vastus Medialis,EMG 6 Tib Ant,EMG 7 Med Gas,EMG 8 Soleus,Pylon volts,EMG 9 Glut Max,EMG 10 Glut Med,EMG 11 Biceps Femoris Long,EMG 12 Rectus Femoris,EMG 13 Vastus Medialis,EMG 14 Tib Ant,EMG 15 Med Gas,EMG 16 Soleus
,,V,V,V,V,V,V,V,V,V,V,V,V,V,V,V,V,V,V,V,V,V,V,V,V,V,V,V,V,V
1,0,10.0097,0.000915527,-0.0012207,-2.42745,0.0535448,-0.0747579,0.0532125,0.0694445,-0.0946723,0.145624,-0.126072,-0.0847066,0.00930786,0.0215912,0.0199127,0.0117874,0.0183487,-0.0247192,0.0172043,0.0224686,-9.97986,0.0261307,0.00694275,-0.0113678,-0.0174332,0.0192261,-0.0069046,0.0330734,0.0302124
1,1,10.0097,-0.000305176,0.000305176,-2.42714,0.0547655,-0.07842,0.0535176,0.0709703,-0.0934516,0.145013,-0.127598,-0.0840963,0.0107574,0.0263596,0.0204849,0.00801086,0.021019,-0.0292969,0.0177383,0.0182724,-9.97986,0.0163269,0.00434875,-0.00892639,-0.017662,0.0117493,-0.00766754,0.0320816,0.0267029
1,2,10.0097,0.000915527,0.000762939,-2.42592,0.0553758,-0.0753682,0.0538228,0.0694445,-0.0928413,0.146234,-0.124851,-0.0837911,0.00720978,0.0233841,0.0191498,0.0125122,0.021553,-0.0304031,0.0243378,0.0191116,-9.97986,0.0180435,-0.00125885,-0.0133514,-0.0234604,0.00953674,-0.0140381,0.0339127,0.0321579
1,3,10.0097,0.000610352,-0.000457764,-2.42562,0.055681,-0.0741475,0.0538228,0.0724962,-0.0919257,0.145929,-0.124851,-0.0822652,0.0143814,0.026207,0.0225067,0.0111008,0.0218201,-0.0309753,0.0267792,0.0160217,-9.97986,0.0217438,-0.000534058,-0.0112152,-0.0228882,0.0127029,-0.013504,0.0360107,0.0318146
1,4,10.0097,0.000305176,0.000610352,-2.42592,0.0565965,-0.073232,0.0547383,0.072191,-0.0910102,0.146844,-0.127598,-0.0810445,0.0101471,0.0230789,0.0165558,0.0133133,0.0204849,-0.0343323,0.0266266,0.0230026,-9.97986,0.0186157,-0.00400543,-0.00709534,-0.0274277,0.0094223,-0.0102997,0.0390244,0.033226
1,5,10.0097,-0.00183105,0.000305176,-2.4247,0.0559862,-0.0744527,0.0556539,0.0709703,-0.0913154,0.153558,-0.124546,-0.0810445,0.0112534,0.0237656,0.02491,0.0165939,0.0188065,-0.0325775,0.0344467,0.0196838,-9.97986,0.0169373,0.00328064,-0.00980377,-0.0305557,0.00911713,-0.00896454,0.0416565,0.038147
1,6,10.0097,0.000915527,-0.000305176,-2.42592,0.0565965,-0.0738423,0.0538228,0.0712755,-0.0922309,0.145318,-0.124546,-0.0813497,0.00785828,0.0228119,0.0190735,0.0140762,0.0149536,-0.0332642,0.0324631,0.0203705,-9.97986,0.0174332,0.00904083,-0.0106049,-0.0242233,0.0121689,-0.0117493,0.0398254,0.0374222
1,7,10.0097,0.00274658,0.000610352,-2.42562,0.0575121,-0.0771993,0.0547383,0.0715807,-0.0922309,0.146539,-0.121799,-0.0810445,0.00976563,0.0239563,0.0243759,0.0129318,0.0138092,-0.032959,0.0346756,0.0226593,-9.97986,0.0172806,0.00366211,-0.0125885,-0.0275421,0.00846863,-0.0138092,0.0410843,0.0392151
1,8,10.0097,0.000610352,-0.0012207,-2.42592,0.0562914,-0.0744527,0.0529073,0.04442,-0.0946723,0.148675,-0.126987,-0.0822652,0.0117493,0.0237656,0.0188446,0.0134659,0.0122833,-0.0362778,0.0401306,0.0202179,-9.97986,0.0165558,0.00427246,-0.0168228,-0.0276947,0.00846863,-0.0164413,0.0431824,0.0398254
1,9,8.88661,-0.000915527,-0.00137329,-2.42592,0.0559862,-0.0744527,0.0526021,0.0438097,-0.0937568,0.146844,-0.126377,-0.0816549,0.0063324,0.0270844,0.0219727,0.01194,0.0156784,-0.0347137,0.0343704,0.0231171,-9.97986,0.0165176,0.000419617,-0.016861,-0.0276947,0.00804901,-0.0162506,0.043869,0.0398254
2,0,7.75319,0.000915527,-0.000457764,-2.42592,0.055681,-0.0793355,0.0553487,0.0575426,-0.0910102,0.145318,-0.124241,-0.0822652,0.00839233,0.0237274,0.0189972,0.00595093,0.0159073,-0.0423431,0.0351715,0.0227356,-9.97986,0.0115967,-0.000953674,-0.0175095,-0.0284958,0.00934601,-0.0121689,0.0449753,0.0418091
2,1,7.60488,0.000305176,-0.000305176,-2.42714,0.0569017,-0.0744527,0.054128,0.0657823,-0.0916206,0.145013,-0.125766,-0.0828756,0.0147629,0.025444,0.0162888,-0.00621796,0.0125122,-0.0417709,0.0373077,0.0217819,-9.97986,0.0146103,0.00385284,-0.0166702,-0.0323868,0.00495911,-0.00911713,0.043869,0.0412369
2,2,7.89846,0.000610352,-0.000457764,-2.42684,0.0553758,-0.0756734,0.0535176,0.0734117,-0.0913154,0.145318,-0.124851,-0.0828756,0.00934601,0.0235748,0.0205612,-0.00904083,0.0154495,-0.0424957,0.0332642,0.0196457,-9.97986,0.0146103,0.00171661,-0.0222397,-0.0344467,0.00465393,-0.00514984,0.044899,0.0387192
2,3,9.92116,-0.000305176,0.00106812,-2.42592,0.0553758,-0.0726216,0.0550435,0.101793,-0.0897895,0.145318,-0.126987,-0.0840963,0.0102997,0.0232315,0.0184631,-0.0113678,0.0133133,-0.0460434,0.0287247,0.0184631,-9.97986,0.0180435,0.00263214,-0.0276566,-0.0278091,-0.000648499,-0.00476837,0.0434113,0.0371933
2,4,10.0097,0.00183105,0.00106812,-2.42898,0.0535448,-0.0756734,0.0519917,0.0886705,-0.094062,0.138299,-0.125766,-0.0862325,0.0094986,0.0230789,0.0212097,-0.0147629,0.0198364,-0.0474167,0.0246048,0.0226974,-9.97986,0.0128937,0.000152588,-0.0315475,-0.0341415,0.0037384,-0.0019455,0.0424957,0.0342178
2,5,10.0097,0.00213623,0.000457764,-2.42928,0.0544603,-0.0756734,0.0526021,0.0758531,-0.0946723,0.143792,-0.125766,-0.0859274,0.00514984,0.0235367,0.0216293,-0.0213242,0.0165176,-0.0401306,0.0296783,0.0181961,-9.97986,0.01297,0.00205994,-0.0353241,-0.0351334,-0.00450134,-0.00671387,0.0400162,0.0333023
2,6,10.0097,0.000610352,-0.000610352,-2.42989,0.0544603,-0.0781148,0.0519917,0.0737169,-0.0955879,0.143487,-0.128208,-0.0868429,0.0128937,0.0270462,0.0211334,-0.0201416,0.0167084,-0.0416946,0.0300598,0.0241852,-9.97986,0.0154495,0.00434875,-0.0338745,-0.0317764,0.000457764,-0.0118637,0.0404739,0.0312042
2,7,10.0097,0.0012207,-0.000305176,-2.42898,0.0547655,-0.0768941,0.0519917,0.0697496,-0.0965034,0.141656,-0.126072,-0.0871481,0.00980377,0.0243759,0.0198746,-0.0183105,0.0191498,-0.0476456,0.0302505,0.0183868,-9.97986,0.00862122,-0.000839233,-0.0357437,-0.0344849,-0.00392914,-0.0120163,0.0367737,0.0296783
2,8,10.0097,0,0.000305176,-2.42898,0.0529344,-0.0747579,0.0529073,0.0694445,-0.095893,0.144098,-0.127292,-0.0862325,0.0110626,0.0243759,0.0215149,-0.00675201,0.0192261,-0.043869,0.034256,0.0201035,-9.97986,0.0138092,0.00411987,-0.0344849,-0.0260544,-0.000267029,-0.0115585,0.0333405,0.0279617
2,9,10.0097,-0.000305176,-0.000305176,-2.42898,0.0544603,-0.0753682,0.0538228,0.0709703,-0.0934516,0.143792,-0.128818,-0.0871481,0.014801,0.0247955,0.0191498,0.0148773,0.0189972,-0.0413513,0.0350189,0.0160599,-9.97986,0.0117493,-0.00209808,-0.0312805,-0.0218582,0.000686646,-0.0159073,0.0366974,0.024147
3,0,10.0097,0.000610352,0.000152588,-2.42684,0.0550706,-0.0741475,0.0535176,0.0688341,-0.0928413,0.144708,-0.126682,-0.0844015,0.0104141,0.0268555,0.0233459,0.0379181,0.018158,-0.0425339,0.0414658,0.0149918,-9.97986,0.0127411,0.00354767,-0.0304794,-0.0244522,0.00404358,-0.0198746,0.0315857,0.022316
3,1,10.0097,0.000610352,0.000915527,-2.42776,0.0559862,-0.075063,0.0538228,0.0691393,-0.0931465,0.144403,-0.126072,-0.0850118,0.0151062,0.0226212,0.0205231,0.0403976,0.0170898,-0.0405502,0.030899,0.0168228,-9.97986,0.00988007,0.00125885,-0.0279999,-0.0272369,0.00743866,-0.0152206,0.030098,0.019722
3,2,10.0097,0.0012207,0.000610352,-2.42684,0.0569017,-0.0729268,0.0522969,0.0694445,-0.0931465,0.145929,-0.126377,-0.0834859,0.0094223,0.0218964,0.0227737,0.0465775,0.0193405,-0.0428391,0.0366974,0.0188828,-9.97986,0.0147629,-0.00183105,-0.0278091,-0.0196457,0.00473022,-0.0164795,0.029335,0.0180435
3,3,10.0097,0.000915527,0.000457764,-2.4247,0.0559862,-0.0747579,0.0535176,0.07036,-0.0916206,0.145318,-0.124241,-0.0816549,0.0123596,0.0259399,0.0236893,0.0569916,0.014801,-0.0448227,0.0284958,0.0207138,-9.97986,0.0166702,-0.00236511,-0.0278854,-0.0120544,0.0062561,-0.00869751,0.0301361,0.0221634
3,4,10.0097,0.000305176,0,-2.42531,0.0569017,-0.0744527,0.054128,0.0706652,-0.0913154,0.146234,-0.124546,-0.0816549,0.00846863,0.0265503,0.028801,0.0532913,0.0193405,-0.0489807,0.0225067,0.0166702,-9.97986,0.0156403,-0.000915527,-0.0223923,-0.0186539,0.00644684,-0.00354767,0.0295258,0.0212479
3,5,10.0097,0.000305176,-0.000915527,-2.42592,0.0569017,-0.0771993,0.0550435,0.0709703,-0.0913154,0.146539,-0.124241,-0.0810445,0.00930786,0.0237274,0.0253296,0.0370407,0.0210953,-0.0418854,0.0226212,0.0170898,-9.97986,0.0130463,-0.00274658,-0.0198364,-0.0213623,0.000839233,-0.0056839,0.0289154,0.0234985
3,6,10.0097,0.000305176,-0.000152588,-2.42409,0.0559862,-0.0741475,0.0556539,0.0712755,-0.0913154,0.14837,-0.124546,-0.0810445,0.00900269,0.0270844,0.0265884,0.0352097,0.0182724,-0.042038,0.0198746,0.0193405,-9.97986,0.0126648,-0.00492096,-0.0198364,-0.0222778,-0.0019455,-0.0019455,0.0286865,0.02491
3,7,10.0097,0.0012207,0.000152588,-2.42501,0.0565965,-0.0744527,0.0544332,0.0718859,-0.0910102,0.147455,-0.124546,-0.0819601,0.00968933,0.028038,0.0218964,0.0296021,0.0177383,-0.0450516,0.0201797,0.020752,-9.97986,0.0163269,0.00087738,-0.0119781,-0.0250244,0.00152588,-0.00339508,0.0284958,0.0198746
3,8,10.0097,0.000610352,-0.00137329,-2.42745,0.0569017,-0.0714009,0.054128,0.0422838,-0.0943672,0.146539,-0.124851,-0.0816549,0.0123596,0.0314713,0.0182343,0.027771,0.0173569,-0.0418091,0.0148773,0.0214386,-9.97986,0.0180817,0.000534058,-0.0102234,-0.0246048,0.000457764,-0.00740051,0.0296783,0.0196457
3,9,8.774,0.0012207,-0.000915527,-2.42592,0.055681,-0.0726216,0.0535176,0.04442,-0.0934516,0.147149,-0.126072,-0.0816549,0.013504,0.0289536,0.016861,0.0257492,0.0208282,-0.0397491,0.0197601,0.0202179,-9.97986,0.0144958,3.8147e-005,-0.0087738,-0.0261688,-0.00190735,-0.0118256,0.0282669,0.0169754
4,0,7.6653,-0.000305176,-0.00213623,-2.42562,0.055681,-0.075063,0.0553487,0.0572374,-0.0931465,0.145929,-0.125461,-0.0816549,0.00648499,0.0259399,0.0154495,0.022583,0.0136185,-0.0414658,0.0242615,0.0192642,-9.97986,0.0151443,-0.000495911,-0.00583649,-0.0286102,-0.00423431,-0.0186157,0.0244904,0.0123215
4,1,7.55788,0.000305176,-0.000915527,-2.42562,0.0550706,-0.0747579,0.054128,0.0630358,-0.0922309,0.146234,-0.126987,-0.0825704,0.00610352,0.0287247,0.0133133,0.0231934,0.0165939,-0.0379181,0.0299072,0.0189972,-9.97986,0.0159073,0.00148773,-0.00255585,-0.0220108,-0.00270844,-0.0157166,0.0255203,0.00923157
4,2,7.85085,0,0.000305176,-2.42623,0.0550706,-0.0744527,0.0535176,0.0743273,-0.0922309,0.148065,-0.126682,-0.0834859,0.00919342,0.0288391,0.0113678,0.0169373,0.0181961,-0.0354767,0.0359726,0.0201416,-9.97986,0.0128555,0.00453949,0.00160217,-0.0291824,0.00434875,-0.0167847,0.0276184,0.00743866
4,3,9.84792,0.000610352,0.000915527,-2.42714,0.0550706,-0.0747579,0.0565694,0.102098,-0.0897895,0.144403,-0.124546,-0.0840963,0.00965118,0.0240707,0.00923157,0.0183868,0.0186157,-0.0399399,0.0345612,0.0202179,-9.97986,0.0116348,0.00549316,0.000686646,-0.0241852,0.00408173,-0.0201035,0.0233841,0.000190735
4,4,10.0097,-0.000915527,0.0012207,-2.42989,0.0550706,-0.0765889,0.0519917,0.0901964,-0.094062,0.143182,-0.125156,-0.0868429,0.0139618,0.020256,0.0164032,0.0170517,0.0207138,-0.0354767,0.0330734,0.015831,-9.97986,0.0128555,0.00732422,0.0062561,-0.0213242,0.00293732,-0.0259781,0.0225067,0.000228882
4,5,10.0097,-0.00152588,0.000915527,-2.42928,0.0550706,-0.0765889,0.0529073,0.0758531,-0.0943672,0.143487,-0.126987,-0.0856222,0.00926971,0.0256348,0.0128555,0.0157166,0.0178146,-0.0364685,0.0282669,0.019455,-9.97986,0.0150681,0.00476837,0.00556946,-0.0191116,-0.000801086,-0.0197601,0.0210953,-0.000915527
4,6,10.0097,0.00244141,-0.000457764,-2.42989,0.0529344,-0.0762837,0.0519917,0.0715807,-0.094062,0.143487,-0.126682,-0.0877584,0.0134659,0.026207,0.0112915,0.0139236,0.0232315,-0.0322342,0.0163651,0.0153351,-9.97986,0.0156021,-0.000152588,0.01091,-0.0168228,0.00347137,-0.0222778,0.0229263,-0.0018692
4,7,10.0097,0.000915527,-0.000305176,-2.42959,0.0532396,-0.0771993,0.0516866,0.0697496,-0.0955879,0.144098,-0.127903,-0.0865377,0.0123978,0.0174332,0.0165176,0.0169373,0.0183105,-0.0335312,0.018959,0.0151443,-9.97986,0.0127029,0.00328064,0.00629425,-0.0212097,0.000114441,-0.0154114,0.0228882,-0.0031662
4,8,10.0097,0.00244141,0.000152588,-2.42928,0.0535448,-0.0765889,0.0532125,0.0688341,-0.0952827,0.144403,-0.127292,-0.0874532,0.0104904,0.0230408,0.0104523,0.0173569,0.0180435,-0.0303268,0.0235748,0.0154877,-9.97986,0.00926971,0.00415802,0.0128555,-0.0151443,0.00232697,-0.0157928,0.019455,-0.00236511
4,9,10.0097,0.0012207,-0.000152588,-2.42745,0.0538499,-0.0756734,0.0532125,0.0697496,-0.0952827,0.145013,-0.126987,-0.0859274,0.00961304,0.0206375,0.018692,0.0183868,0.0212479,-0.0278091,0.0214386,0.0191879,-9.97986,0.0138092,0.000343323,0.00904083,-0.0126648,0,-0.0107193,0.0178528,-0.00366211
5,0,10.0097,0.00152588,-0.000457764,-2.42837,0.0547655,-0.0753682,0.0529073,0.0691393,-0.0931465,0.143182,-0.127292,-0.0844015,0.0104523,0.0202942,0.0170517,0.0193024,0.0217819,-0.0312424,0.0271988,0.0169754,-9.97986,0.0139236,0.000305176,0.0117874,-0.0125504,0.00305176,-0.0044632,0.0168991,-0.00652313
5,1,10.0097,0.000610352,-0.000152588,-2.42684,0.0550706,-0.0753682,0.0535176,0.0694445,-0.0931465,0.145318,-0.125156,-0.0844015,0.00919342,0.0208664,0.0153351,0.0168991,0.022049,-0.0325012,0.0263214,0.0189209,-9.97986,0.0144958,0.00545502,0.0142288,-0.0111771,0.0110245,-0.00389099,0.0174713,-0.00576019
5,2,10.0097,0,0.000762939,-2.42745,0.0559862,-0.0744527,0.0535176,0.0700548,-0.0925361,0.145318,-0.125156,-0.0834859,0.00892639,0.0195694,0.014534,0.00751495,0.018425,-0.0299072,0.0224304,0.0150299,-9.97986,0.0147247,0.00156403,0.0172424,-0.00923157,0.0075531,-0.00511169,0.0164795,-0.00793457
5,3,10.0097,0.00152588,0.000610352,-2.4244,0.0569017,-0.0729268,0.0547383,0.0709703,-0.0919257,0.146234,-0.124851,-0.0816549,0.0147247,0.0234604,0.0162506,0.00141144,0.0205612,-0.0246811,0.02388,0.0167084,-9.97986,0.0159073,0.00431061,0.0163269,-0.00980377,0.0124741,-0.00495911,0.0143433,-0.0111771
5,4,10.0097,0.000610352,-0.000305176,-2.42409,0.0562914,-0.0744527,0.0556539,0.0706652,-0.0922309,0.145929,-0.124851,-0.0813497,0.0127029,0.0226212,0.0108337,-0.0062561,0.0223541,-0.0255585,0.0182343,0.0160599,-9.97986,0.0133133,0.00492096,0.0186539,-0.0143051,0.0101089,-0.00579834,0.0132751,-0.0129318
5,5,10.0097,0,0.000152588,-2.42531,0.0559862,-0.0738423,0.0547383,0.0706652,-0.0919257,0.146234,-0.123935,-0.0810445,0.00926971,0.0188446,0.0130081,-0.0206375,0.0182343,-0.0250626,0.0165558,0.0198364,-9.97986,0.0122833,-0.00179291,0.0172043,-0.00972748,0.0122833,0.00110626,0.0130844,-0.0140381
5,6,10.0097,0.000610352,0.000305176,-2.42501,0.0562914,-0.0735371,0.0550435,0.0715807,-0.0922309,0.146539,-0.12363,-0.0810445,0.0127029,0.0252533,0.014534,-0.0243759,0.0230026,-0.0235748,0.0168991,0.019455,-9.97986,0.0152588,-0.00255585,0.0185013,-0.0075531,0.0112534,0.00434875,0.00988007,-0.00862122
5,7,10.0097,0.000610352,0.000915527,-2.42501,0.0559862,-0.0738423,0.0550435,0.0709703,-0.0903999,0.145624,-0.124241,-0.0810445,0.01297,0.0208664,0.0143433,-0.0286102,0.0244522,-0.0200653,0.0200272,0.0166702,-9.97986,0.0107574,0.00190735,0.0203705,-0.000305176,0.0136566,0.00331879,0.00991821,-0.00991821
5,8,10.0097,-0.00152588,-0.00106812,-2.42531,0.0565965,-0.0738423,0.0538228,0.042589,-0.0952827,0.146844,-0.126377,-0.0813497,0.0122452,0.0244904,0.0151825,-0.0395966,0.0223923,-0.0205612,0.018692,0.0196457,-9.97986,0.0143814,0.00164032,0.0228119,0.00782013,0.0158691,0.00244141,0.010376,-0.00759125
5,9,8.87776,0.000610352,-0.000610352,-2.42623,0.0559862,-0.0744527,0.0544332,0.0456407,-0.0928413,0.146234,-0.126377,-0.0822652,0.0100708,0.0227356,0.0161362,-0.0345993,0.0233078,-0.0148392,0.0219727,0.017395,-9.97986,0.0134277,-0.00198364,0.0206375,0.0107574,0.0104141,0.00213623,0.00915527,-0.00537872
6,0,7.81911,0.000305176,-0.000152588,-2.42653,0.0553758,-0.0744527,0.054128,0.0566271,-0.0931465,0.14776,-0.126682,-0.0822652,0.0107574,0.0249863,0.0157547,-0.0210571,0.0251007,-0.017128,0.0215912,0.0151825,-9.97986,0.00740051,-0.00320435,0.0163269,0.0110245,0.00801086,-0.00522614,0.00461578,-0.00823975
6,1,7.71382,0.000915527,-0.000457764,-2.42562,0.0559862,-0.0747579,0.0544332,0.0648668,-0.0928413,0.145013,-0.125156,-0.0828756,0.0151062,0.0247955,0.0210953,-0.017662,0.0247955,-0.0141525,0.023613,0.019722,-9.97986,0.0133514,0.00267029,0.0257111,0.0142288,0.01297,-0.00125885,0.00652313,-0.00972748
6,2,7.99428,0.0012207,0.000915527,-2.42592,0.0553758,-0.0729268,0.0550435,0.0746324,-0.0910102,0.145318,-0.125461,-0.0828756,0.0104523,0.0236893,0.0170898,-0.036087,0.0247955,-0.0133133,0.0171661,0.0169754,-9.97986,0.0127411,0.000190735,0.0202942,0.0187302,0.0114822,-0.00205994,0.00705719,-0.0105667
6,3,10.0097,0,0.00183105,-2.42776,0.0544603,-0.0756734,0.0535176,0.101793,-0.0894843,0.145318,-0.12302,-0.0834859,0.0130844,0.0273132,0.0269318,0.00724792,0.0239944,-0.0123215,0.0123215,0.0201797,-9.97986,0.01297,0.00450134,0.0209045,0.0223923,0.0172806,-0.00225067,0.00709534,-0.0125504
6,4,10.0097,0.000305176,0.000915527,-2.43081,0.0526292,-0.0753682,0.0522969,0.087755,-0.0934516,0.143487,-0.126987,-0.0871481,0.0131226,0.0224304,0.026474,0.0782013,0.0208282,-0.0103378,0.020752,0.0185013,-9.97986,0.0120926,0.00209808,0.0239182,0.0218582,0.0164032,-0.000572205,0.00617981,-0.013504
6,5,10.0097,0.000305176,0.000305176,-2.42745,0.0535448,-0.0753682,0.0516866,0.0761583,-0.0946723,0.143182,-0.126072,-0.0868429,0.00968933,0.0270462,0.0311661,0.0778961,0.0229645,-0.00846863,0.0247192,0.0199127,-9.97986,0.0167084,0.00423431,0.022316,0.0251007,0.0163651,-0.00164032,0.00247955,-0.0141907
6,6,10.0097,0.000610352,-0.000152588,-2.42959,0.0544603,-0.0756734,0.0526021,0.0712755,-0.0931465,0.144708,-0.127598,-0.0871481,0.0110626,0.0240326,0.0367737,0.0645447,0.0256348,-0.00782013,0.0270462,0.0181961,-9.97986,0.0129318,0.00988007,0.0255203,0.0287247,0.017662,0.00118256,0.00175476,-0.0141525
6,7,10.0097,0,0,-2.42928,0.0535448,-0.0759786,0.0526021,0.0697496,-0.0931465,0.143792,-0.127903,-0.0871481,0.00850677,0.0260162,0.0384521,0.0571442,0.0222015,-0.0044632,0.0299835,0.0171661,-9.97986,0.012207,0.00396729,0.0259018,0.0281906,0.0153351,0.00530243,0.000152588,-0.0156021
6,8,10.0097,0.000305176,-0.000610352,-2.42867,0.0547655,-0.0759786,0.0516866,0.0694445,-0.0946723,0.143792,-0.126987,-0.0868429,0.0134277,0.0336456,0.0433731,0.0422287,0.0220108,-0.00392914,0.0254822,0.0169754,-9.97986,0.0149155,0.00320435,0.0328445,0.0304031,0.0193787,0.00442505,-0.000915527,-0.0120926
6,9,10.0097,-0.0012207,-0.000915527,-2.42867,0.0547655,-0.0744527,0.0529073,0.0697496,-0.0943672,0.143182,-0.127598,-0.0859274,0.0056839,0.0211334,0.043602,0.0355911,0.0208282,0.00202179,0.0255203,0.0199509,-9.97986,0.014534,0.00171661,0.0263214,0.0305557,0.0199509,0.00480652,0.00305176,-0.0134277
7,0,10.0097,0.000610352,-0.000610352,-2.42837,0.0547655,-0.0747579,0.0526021,0.0700548,-0.0946723,0.144098,-0.126377,-0.085317,0.0128174,0.00732422,0.0411987,0.032692,0.0177765,0.00312805,0.0196075,0.0203323,-9.97986,0.0211716,0.00236511,0.0281906,0.027504,0.0188828,0.0037384,0.000495911,-0.0152206
7,1,10.0097,0.000610352,-0.000152588,-2.42623,0.055681,-0.0738423,0.0532125,0.0697496,-0.0952827,0.145624,-0.125156,-0.0847066,0.0137711,0.015564,0.0366592,0.030365,0.0209045,0.00167847,0.0105667,0.0172806,-9.97986,0.017128,-0.00228882,0.0307083,0.0299835,0.0227356,0.00461578,0.00144958,-0.0161362
7,2,10.0097,0.00152588,-0.000305176,-2.42684,0.0550706,-0.0759786,0.0532125,0.0700548,-0.0925361,0.144403,-0.126377,-0.0831808,0.0142288,0.0167847,0.0260925,0.0278854,0.0157547,0.00572205,0.0112534,0.0242996,-9.97986,0.0189209,-0.000228882,0.0372696,0.0254059,0.0265121,0.00488281,0.00278473,-0.0151825
7,3,10.0097,0.000305176,0.000152588,-2.42531,0.055681,-0.0741475,0.0544332,0.0706652,-0.0922309,0.146539,-0.124546,-0.0825704,0.0107956,0.0182343,0.0247192,0.0234222,0.0182343,0.00232697,0.00362396,0.0205231,-9.97986,0.016098,-0.00114441,0.0289154,0.0217819,0.0231934,0.00862122,0.00450134,-0.0167847
7,4,10.0097,0.000305176,-0.000305176,-2.42379,0.055681,-0.0735371,0.0556539,0.0709703,-0.0913154,0.147455,-0.125156,-0.0819601,0.0104904,0.0179672,0.018959,0.0157547,0.0200653,0.00453949,0.00114441,0.0170135,-9.97986,0.0131226,0.00167847,0.0309753,0.0236511,0.0271606,0.00629425,0.00408173,-0.0136185
7,5,10.0097,-0.000305176,0.000152588,-2.42592,0.0562914,-0.0744527,0.055959,0.0718859,-0.0925361,0.147455,-0.124546,-0.0819601,0.0128937,0.0189972,0.0124741,0.0194931,0.0236893,0.00938416,0.00736237,0.0197983,-9.97986,0.016098,-0.00167847,0.0300598,0.0201797,0.0222015,0.00202179,0.00282288,-0.0164032
7,6,10.0097,0.000305176,0.000610352,-2.42531,0.055681,-0.0735371,0.0550435,0.07036,-0.0928413,0.147149,-0.12363,-0.0804342,0.0149918,0.026741,0.0122452,0.0187302,0.0208282,0.0149536,0.0168991,0.0246811,-9.97986,0.0253296,0.0037384,0.0362778,0.0275803,0.0302505,0.0031662,0.00671387,-0.0117874
7,7,10.0097,-0.00305176,0.000305176,-2.42379,0.0565965,-0.0744527,0.0544332,0.0700548,-0.0910102,0.146539,-0.124546,-0.0807394,0.00473022,0.0148773,-0.00137329,0.00938416,0.020256,0.00831604,0.000686646,0.0201416,-9.97986,0.0105667,-0.00328064,0.0279999,0.0136185,0.0197601,-0.00320435,-0.00331879,-0.0148773
7,8,10.0097,0,-0.000915527,-2.42623,0.0575121,-0.0744527,0.0529073,0.0419786,-0.0949775,0.146844,-0.126377,-0.0822652,0.0150299,0.018959,0.0019455,0.0144958,0.0217056,0.0119019,0.0139236,0.026474,-9.97986,0.0164413,-0.000991821,0.0322342,0.0242615,0.0231934,0.000991821,0.00564575,-0.0109863
7,9,8.65163,0.00183105,-0.00152588,-2.42623,0.0569017,-0.0744527,0.0544332,0.0431993,-0.0925361,0.147455,-0.125766,-0.0822652,0.00675201,0.0162506,-0.00450134,0.00991821,0.0204849,0.0133514,0.0188828,0.0163269,-9.97986,0.0192642,-0.00293732,0.0333405,0.018692,0.0242996,0.00205994,0.00343323,-0.00991821
8,0,7.58901,0.000915527,-0.000915527,-2.42623,0.0553758,-0.073232,0.0544332,0.0569322,-0.0916206,0.146234,-0.126377,-0.0825704,0.00980377,0.0173569,-0.0019455,0.0127792,0.019455,0.013237,0.0177765,0.0217819,-9.97986,0.0173187,-0.00450134,0.0362396,0.0172806,0.0224304,0.0050354,0.00488281,-0.0101471
8,1,7.47823,0.000915527,0.000457764,-2.42623,0.0559862,-0.0741475,0.0550435,0.0657823,-0.0922309,0.146234,-0.126072,-0.0828756,0.0102234,0.0206757,-0.0037384,0.011673,0.0215149,0.0149918,0.0124741,0.0198364,-9.97986,0.0161362,0.000953674,0.0360107,0.015564,0.02491,0.00915527,0.00473022,-0.01091
8,2,7.84139,0.000610352,0.000915527,-2.42684,0.0550706,-0.0756734,0.0550435,0.077379,-0.090705,0.145013,-0.126987,-0.0834859,0.00598907,0.0171661,0.00335693,0.00797272,0.019722,0.0162506,0.0122833,0.0225449,-9.97986,0.0190735,0.00156403,0.0395966,0.0164032,0.0242615,0.00988007,0.00850677,-0.0104141
8,3,10.0042,0.000305176,0.000762939,-2.42653,0.055681,-0.0738423,0.0547383,0.102709,-0.088874,0.145013,-0.123935,-0.0834859,0.00404358,0.0164413,0.0062561,0.00965118,0.0238037,0.0239182,0.0156784,0.0224304,-9.97986,0.0225067,-0.000267029,0.0352097,0.00934601,0.0251389,0.00984192,0.00682831,-0.0117874
8,4,10.0097,0.000610352,0.000610352,-2.42959,0.0520189,-0.0759786,0.0513814,0.0901964,-0.094062,0.144403,-0.126072,-0.0862325,0.00190735,0.0178909,0.0108719,0.0056076,0.0208282,0.0244141,0.0165558,0.0218582,-9.97986,0.018959,-0.000686646,0.0348282,0.0094223,0.0246429,0.00480652,0.00495911,-0.00823975
8,5,10.0097,0.000915527,0.000152588,-2.42928,0.0535448,-0.0756734,0.0516866,0.0798204,-0.094062,0.143487,-0.126987,-0.0865377,0.0082016,0.0177383,0.0107956,0.00549316,0.0178909,0.0239944,0.0143433,0.0223923,-9.97986,0.0167465,0.00217438,0.0361252,0.00648499,0.0162506,0.00385284,0.00610352,-0.0106812
8,6,10.0097,0.00183105,-0.000152588,-2.4302,0.0544603,-0.0775044,0.0522969,0.0718859,-0.0949775,0.144098,-0.126377,-0.0862325,0.00961304,0.019989,0.011673,0.00663757,0.0208282,0.0283432,0.0234222,0.0206757,-9.97986,0.0153732,0.00389099,0.0342941,0.0094223,0.0227737,0.00610352,0.00953674,-0.00946045
8,7,10.0097,0.000305176,-0.000152588,-2.42867,0.0538499,-0.0762837,0.0522969,0.0709703,-0.0934516,0.142572,-0.127292,-0.0868429,0.0142288,0.0201797,0.016098,0.00541687,0.0231934,0.0236511,0.0287628,0.0185776,-9.97986,0.0157928,0,0.0345993,0.00957489,0.0222397,0.00522614,0.00862122,-0.0114822
8,8,10.0097,0.00244141,-0.000305176,-2.42928,0.0538499,-0.0756734,0.0516866,0.0700548,-0.095893,0.144403,-0.127903,-0.0877584,0.0160599,0.0193024,0.0135803,0.0104523,0.0197983,0.0269318,0.0283051,0.0214386,-9.97986,0.0165939,0.00148773,0.0382233,0.0111008,0.020752,0.00846863,0.0113678,-0.00713348
8,9,10.0097,0.00152588,0.000152588,-2.42898,0.0535448,-0.0756734,0.0522969,0.0694445,-0.0937568,0.144403,-0.126377,-0.0834859,0.0183868,0.0197601,0.0146866,0.0044632,0.014267,0.0317001,0.0238419,0.0118256,-9.97986,0.0137711,-0.00305176,0.0345993,0.0069046,0.0205994,0.0173569,0.00980377,-0.00770569
9,0,10.0097,0,0.000457764,-2.42409,0.0550706,-0.0753682,0.054128,0.0700548,-0.0928413,0.143792,-0.127598,-0.0850118,0.0177765,0.0259399,0.0164795,0.00038147,0.017662,0.0326538,0.02491,0.0178528,-9.97986,0.0167084,-0.00457764,0.0346756,0.00862122,0.0243378,0.0167465,0.0140762,-0.0101852
9,1,10.0097,-0.0012207,0.000152588,-2.42806,0.0565965,-0.0747579,0.0532125,0.0694445,-0.0952827,0.145318,-0.126072,-0.0840963,0.0159073,0.026207,0.0157166,0.0038147,0.0170135,0.0295258,0.019989,0.0116348,-9.97986,0.0147247,-0.00198364,0.0340652,0.0094223,0.0236893,0.0279236,0.0143433,-0.0056076
9,2,10.0097,-0.00152588,0.000457764,-2.42653,0.0547655,-0.0744527,0.0550435,0.0706652,-0.0928413,0.145624,-0.125766,-0.0859274,0.0157166,0.0221252,0.0157166,0.00507355,0.0155258,0.0309753,0.0241852,0.0115585,-9.97986,0.0147247,-0.00358582,0.0342178,0.00553131,0.0208664,0.0341797,0.0114059,-0.00694275
9,3,10.0097,0.000305176,-0.000152588,-2.42196,0.0565965,-0.0738423,0.0538228,0.0688341,-0.0922309,0.146539,-0.124546,-0.0822652,0.0111389,0.0229263,0.0206375,0.00595093,0.0193787,0.0368881,0.0158691,0.0127029,-9.97986,0.019455,-0.00267029,0.0312042,0.00610352,0.0234222,0.0300598,0.01194,-0.00598907
9,4,10.0097,-0.000915527,0.000152588,-2.42501,0.0569017,-0.0756734,0.054128,0.0712755,-0.0919257,0.147149,-0.124241,-0.0813497,0.00999451,0.025444,0.0159454,0.00511169,0.020752,0.0341415,0.0162506,0.0164032,-9.97986,0.0169373,0.00087738,0.0258636,0.00556946,0.021286,0.0217819,0.0107574,-0.00232697
9,5,10.0097,0.0012207,-0.000305176,-2.42562,0.0559862,-0.0738423,0.0544332,0.0706652,-0.0919257,0.146539,-0.123935,-0.0837911,0.0110245,0.0214386,0.0151062,0.00709534,0.0190353,0.0326538,0.0163269,0.025177,-9.97986,0.0163651,0.00370026,0.0273895,0.00255585,0.0230408,0.0181961,0.00919342,-0.00293732
9,6,10.0097,0.000915527,-0.000152588,-2.42531,0.0562914,-0.0741475,0.054128,0.0718859,-0.090705,0.146539,-0.124851,-0.0816549,0.0119781,0.0183487,0.0196075,0.0056076,0.0177765,0.0395203,0.0114822,0.0171661,-9.97986,0.0140381,0.00488281,0.0238037,0.00617981,0.0253677,0.0220871,0.0127792,-0.000419617
9,7,10.0097,0,0.000152588,-2.42501,0.0559862,-0.0735371,0.0553487,0.0697496,-0.0900947,0.147149,-0.125461,-0.0807394,0.0101471,0.0193787,0.0203705,0.00522614,0.0170898,0.040741,0.0115585,0.0234222,-9.97986,0.0165939,0.00297546,0.0253296,-0.000572205,0.0207138,0.0120163,0.0123215,0.00549316
9,8,10.0097,-0.000305176,-0.0012207,-2.42684,0.0559862,-0.0744527,0.0532125,0.0419786,-0.094062,0.145929,-0.126987,-0.0834859,0.0128555,0.0240326,0.0201035,0.00610352,0.0157166,0.0411224,0.00221252,0.0188065,-9.97986,0.0110626,0.00495911,0.0229645,0.00038147,0.0236893,0.0128937,0.0136185,0.00370026
9,9,8.75966,0.000610352,-0.00106812,-2.42714,0.0559862,-0.0747579,0.0544332,0.04442,-0.0937568,0.145318,-0.126377,-0.0825704,0.0100327,0.0282669,0.0187683,0.00602722,0.0149918,0.0402069,-0.00244141,0.0179672,-9.97986,0.0157547,0.0030899,0.0177002,-0.00125885,0.0214386,0.00995636,0.013504,0.00675201
10,0,7.67446,-0.000915527,-0.000610352,-2.42592,0.0562914,-0.0738423,0.0547383,0.0560167,-0.0910102,0.145929,-0.126072,-0.0819601,0.00919342,0.025177,0.0188446,0.00156403,0.0149918,0.0385666,-0.00152588,0.0178146,-9.97986,0.00934601,0.00190735,0.0205994,-0.000572205,0.0223541,0.00453949,0.0107193,0.00469208
10,1,7.55422,-0.000305176,0.000152588,-2.42562,0.055681,-0.075063,0.055959,0.0660875,-0.0922309,0.145624,-0.125156,-0.080129,0.0126266,0.0231934,0.0201035,0.00545502,0.0138474,0.0377274,0.00404358,0.0192642,-9.97986,0.012207,-0.00221252,0.0209045,-0.00480652,0.0231552,0.00247955,0.00972748,0.00869751
10,2,7.89815,0.000915527,0.000457764,-2.42379,0.055681,-0.0756734,0.054128,0.0752428,-0.0922309,0.145929,-0.125156,-0.0834859,0.0119781,0.0275421,0.0166702,0.0075531,0.01297,0.0415421,0.0200653,0.0231171,-9.97986,0.0143433,0.000152588,0.0175095,-0.00362396,0.0226212,-0.00350952,0.0120544,0.0130463
10,3,9.99043,0.000610352,0.000915527,-2.42653,0.0550706,-0.0753682,0.055959,0.104845,-0.0894843,0.145318,-0.12302,-0.0834859,0.00984192,0.0230026,0.0197601,0.00617981,0.0114822,0.0431824,0.0349045,0.0208282,-9.97986,0.0138092,0.00102997,0.0193787,-0.000267029,0.0252151,0.00125885,0.0101471,0.0149155
10,4,10.0097,0.000915527,0.00152588,-2.42837,0.0544603,-0.0775044,0.0510762,0.0883654,-0.0946723,0.144403,-0.126072,-0.0883688,0.00904083,0.0242233,0.0193787,0.000915527,0.0134659,0.0440216,0.0350952,0.0221252,-9.97986,0.0165176,-0.0031662,0.0177765,0.00423431,0.022316,0.00183105,0.00839233,0.0167084
10,5,10.0097,0.000915527,0.00106812,-2.4302,0.0538499,-0.0759786,0.0532125,0.075548,-0.0949775,0.144098,-0.126987,-0.0871481,0.00926971,0.0246811,0.0173569,0.00976563,0.00827789,0.0422287,0.038147,0.0205231,-9.97986,0.0116348,-0.00263214,0.0184631,0.00335693,0.0217438,0.00492096,0.0105286,0.0172806
10,6,10.0097,0.000915527,-0.000762939,-2.42867,0.0544603,-0.0756734,0.0522969,0.0715807,-0.0961982,0.143487,-0.126987,-0.0868429,0.0160217,0.0218964,0.0229263,0.00621796,0.00907898,0.0407791,0.0268936,0.0222397,-9.97986,0.0151062,-0.00244141,0.0230789,0.00347137,0.0219345,0.00743866,0.0100327,0.0217056
10,7,10.0097,0.000610352,-0.000457764,-2.42837,0.0535448,-0.075063,0.0513814,0.07036,-0.0946723,0.143487,-0.127292,-0.0874532,0.0135422,0.0257111,0.0206757,0.00556946,0.0087738,0.0400543,0.0222778,0.0159836,-9.97986,0.0152206,0.00106812,0.0248337,0.001297,0.02491,0.0075531,0.00782013,0.0204849
10,8,10.0097,0,-0.000305176,-2.42837,0.0535448,-0.0759786,0.0516866,0.0694445,-0.0946723,0.143182,-0.127903,-0.0874532,0.0123596,0.0272369,0.0207138,0.0105667,0.0094986,0.0429916,0.0177383,0.0208282,-9.97986,0.0139999,-0.00350952,0.0206757,-0.00278473,0.0249863,0.00740051,0.00843048,0.0221634
10,9,10.0097,0.000915527,-0.000915527,-2.42684,0.0541551,-0.0759786,0.0544332,0.0688341,-0.0952827,0.143182,-0.126682,-0.0862325,0.0075531,0.0268173,0.0206375,0.0056839,0.0069809,0.0435257,0.0211716,0.0161362,-9.97986,0.0114441,-0.00038147,0.0228119,-0.00453949,0.023613,0.00419617,0.00621796,0.0222397
11,0,10.0097,-0.000610352,-0.000457764,-2.42714,0.0565965,-0.0753682,0.0535176,0.0697496,-0.0925361,0.145318,-0.126682,-0.0840963,0.0107574,0.0305176,0.021553,0.00518799,0.0110626,0.0418472,0.022316,0.0175858,-9.97986,0.0130844,0.000839233,0.0224686,-0.00358582,0.0246811,0.000534058,0.00492096,0.0251389
11,1,10.0097,-0.0012207,0.000152588,-2.42592,0.0523241,-0.0756734,0.0547383,0.0691393,-0.0937568,0.143792,-0.126072,-0.0850118,0.014534,0.0307465,0.022583,0.00984192,0.00968933,0.043335,0.03479,0.0179672,-9.97986,0.0154877,0.000648499,0.022316,-0.00354767,0.0227356,-0.00114441,0.00846863,0.0247574
11,2,10.0097,0,0.000915527,-2.42623,0.0550706,-0.0753682,0.0544332,0.0685289,-0.094062,0.144403,-0.126072,-0.0844015,0.00583649,0.0241089,0.016861,0.00541687,0.00782013,0.0400543,0.0375748,0.0143051,-9.97986,0.0127029,-0.000343323,0.0227356,-0.00164032,0.0201797,0.001297,0.00427246,0.0248718
11,3,10.0097,0.000915527,0,-2.4244,0.0559862,-0.0747579,0.054128,0.0697496,-0.0925361,0.145929,-0.124546,-0.0834859,0.00434875,0.027771,0.0185013,0.00980377,0.0122833,0.0391006,0.0318146,0.0180817,-9.97986,0.0149918,-0.000114441,0.0232315,-0.00377655,0.0228119,-0.00141144,0.0050354,0.026207
11,4,10.0097,0.000610352,-0.000305176,-2.42745,0.0575121,-0.0738423,0.0544332,0.0706652,-0.0916206,0.146539,-0.124241,-0.0804342,0.00919342,0.02491,0.0180054,0.0127411,0.00991821,0.045929,0.0238037,0.0176239,-9.97986,0.0158691,-0.000343323,0.0275803,-0.00621796,0.0217438,-0.0025177,0.00164032,0.0291824
11,5,10.0097,0.000305176,0.000305176,-2.42562,0.0553758,-0.0738423,0.0553487,0.0706652,-0.0919257,0.14776,-0.124546,-0.0813497,0.00614166,0.022316,0.0201797,0.0087738,0.0116348,0.0421906,0.0176239,0.0175858,-9.97986,0.00900269,-0.00747681,0.0276566,-0.0138855,0.0173187,-0.00675201,0.00167847,0.0287247
11,6,10.0097,0.000610352,0,-2.42531,0.0562914,-0.0744527,0.0544332,0.07036,-0.0922309,0.146844,-0.124241,-0.0810445,0.00827789,0.0294495,0.0173569,0.0150299,0.0181961,0.0419235,0.0153351,0.0181961,-9.97986,0.0112915,-0.00312805,0.0272369,-0.0100708,0.0190735,0.00144958,0.00411987,0.0291443
11,7,10.0097,0.000915527,0.000305176,-2.4244,0.0575121,-0.0744527,0.0544332,0.0715807,-0.0919257,0.146844,-0.124241,-0.0819601,0.00587463,0.0263214,0.0198746,0.0100327,0.0102615,0.0465393,0.0217438,0.0198364,-9.97986,0.00442505,-0.00499725,0.0270844,-0.0134277,0.0172806,0.00839233,0.00396729,0.0289917
11,8,10.0097,-0.000610352,-0.00137329,-2.42562,0.0559862,-0.073232,0.0535176,0.0413683,-0.0952827,0.145624,-0.126072,-0.0822652,0.00854492,0.0238419,0.0219345,0.0104904,0.0115967,0.0434875,0.0205231,0.0161362,-9.97986,0.00270844,-0.00480652,0.0232315,-0.00999451,0.019989,0.00980377,0.00247955,0.0297928
11,9,8.78102,-0.000305176,-0.00137329,-2.42501,0.055681,-0.0747579,0.0547383,0.0459459,-0.0934516,0.146539,-0.126377,-0.0810445,0.0108337,0.0261688,0.0200272,0.00740051,0.0135803,0.041275,0.0200272,0.0200653,-9.97986,-0.00404358,-0.00812531,0.0311279,-0.00740051,0.0179291,0.0138474,0.000686646,0.0284576
12,0,7.72054,0.000610352,-0.000305176,-2.42623,0.0559862,-0.0744527,0.0550435,0.0563219,-0.0900947,0.146844,-0.126377,-0.0822652,0.0130081,0.0263596,0.0208282,0.0112915,0.0151062,0.0413895,0.0242996,0.0202179,-9.97986,0.0056839,-0.00808716,0.0353622,-0.00469208,0.0189972,0.0174332,0.00179291,0.0289154
12,1,7.60304,0,-0.000457764,-2.42623,0.0565965,-0.0744527,0.054128,0.0645616,-0.0903999,0.145318,-0.125461,-0.0834859,0.017128,0.0231934,0.0233459,0.00812531,0.0130463,0.0389481,0.0223541,0.0155258,-9.97986,0.00831604,-0.00484467,0.0351715,-0.00881195,0.0169373,0.019989,-0.00217438,0.0271225
12,2,7.9424,0.000305176,0.000762939,-2.42684,0.0541551,-0.0744527,0.054128,0.0743273,-0.0928413,0.145929,-0.125766,-0.0837911,0.0167084,0.0239563,0.0221252,0.00896454,0.0134659,0.0374985,0.0176239,0.0153351,-9.97986,0.0116348,-0.000114441,0.0340271,-0.0156784,0.0139618,0.0156021,0.000152588,0.0247955
12,3,10.0097,0.000610352,0.00137329,-2.42745,0.0550706,-0.0744527,0.0547383,0.104234,-0.0897895,0.145013,-0.123935,-0.0834859,0.0140381,0.025177,0.0215149,0.0105667,0.0143433,0.0376511,0.0133133,0.0149536,-9.97986,0.017128,0.00328064,0.0336838,-0.01194,0.0160217,0.00915527,-0.00183105,0.0296402
12,4,10.0097,-0.000915527,0.000305176,-2.42989,0.0538499,-0.0753682,0.0519917,0.0883654,-0.0952827,0.143182,-0.126072,-0.0868429,0.0133896,0.0239944,0.0202179,0.00957489,0.0178146,0.0361633,0.0140762,0.0170898,-9.97986,0.0179291,0.00682831,0.037384,-0.0163651,0.0148773,0.00659943,-0.00389099,0.0328445
12,5,10.0097,0.000305176,0.000610352,-2.42928,0.0547655,-0.0762837,0.0519917,0.0758531,-0.095893,0.143487,-0.127903,-0.0874532,0.0130081,0.0230026,0.0216293,0.0107193,0.0130463,0.0375748,0.0205231,0.01297,-9.97986,0.0244904,0.00976563,0.0391769,-0.014534,0.011673,0.0050354,0.000686646,0.0317001
12,6,10.0097,0.000915527,-0.000305176,-2.42959,0.0535448,-0.0762837,0.0513814,0.0718859,-0.0952827,0.143182,-0.126682,-0.0868429,0.0105286,0.0236893,0.0184631,0.00926971,0.0162506,0.0362778,0.019722,0.017662,-9.97986,0.0230789,0.00930786,0.0336456,-0.013237,0.0113678,-0.00247955,-0.00160217,0.0278091
12,7,10.0097,0.00183105,0,-2.42928,0.0544603,-0.075063,0.0519917,0.0697496,-0.0943672,0.143182,-0.127903,-0.0880636,0.00835419,0.0213242,0.0174332,0.0094223,0.0156784,0.0372314,0.0214386,0.0172043,-9.97986,0.0191879,0.00228882,0.032692,-0.0142288,0.00953674,-0.00537872,0.00213623,0.0260544
12,8,10.0097,0.000610352,0.000152588,-2.42837,0.0541551,-0.075063,0.0522969,0.0688341,-0.0934516,0.143182,-0.128513,-0.0871481,0.0123978,0.0215912,0.0210571,0.00751495,0.0168228,0.0365067,0.0163269,0.0178909,-9.97986,0.0191116,-3.8147e-005,0.0349808,-0.016098,0.00972748,-0.00305176,0.00038147,0.0297165
12,9,10.0097,-0.000610352,-0.000152588,-2.42837,0.0541551,-0.0759786,0.0513814,0.0679186,-0.094062,0.144708,-0.128208,-0.0856222,0.0138474,0.0188828,0.0201035,0.0111771,0.0151062,0.0306702,0.0183868,0.0196075,-9.97986,0.02491,0.0025177,0.0330353,-0.0141525,0.0123978,-0.00507355,-0.00171661,0.0275803
13,0,10.0097,0.00152588,0,-2.42776,0.0541551,-0.0753682,0.0519917,0.0691393,-0.0943672,0.144403,-0.126377,-0.085317,0.0134659,0.0267792,0.0202179,0.0119781,0.0138474,0.0346756,0.0134659,0.0180435,-9.97986,0.026474,-0.000228882,0.0275803,-0.0147247,0.0130844,-0.00549316,-0.00205994,0.026207
13,1,10.0097,0.0012207,0.000457764,-2.42776,0.0544603,-0.0756734,0.0532125,0.0694445,-0.0925361,0.144403,-0.126377,-0.0850118,0.0140381,0.0255203,0.0233078,0.0107193,0.0152969,0.0330353,0.014801,0.0190735,-9.97986,0.0336838,-0.00156403,0.0344467,-0.0121307,0.0142288,-0.00171661,-0.00225067,0.0265884
13,2,10.0097,0.00152588,0,-2.42684,0.0547655,-0.075063,0.054128,0.0694445,-0.0931465,0.145318,-0.127292,-0.0834859,0.00934601,0.02491,0.0233078,0.0106812,0.0129318,0.0325775,0.0151062,0.0216675,-9.97986,0.0326538,0.0030899,0.0270844,-0.0167847,0.00968933,-0.00431061,0.00339508,0.0277328
13,3,10.0097,0.000305176,0,-2.42623,0.0559862,-0.0738423,0.0532125,0.07036,-0.0916206,0.146234,-0.124241,-0.0822652,0.0111389,0.0200272,0.0194168,0.0139236,0.0146103,0.0331497,0.0196075,0.0157547,-9.97986,0.0204849,0.00102997,0.0276947,-0.0198746,0.0121307,0.000495911,0.000801086,0.0246811
13,4,10.0097,-0.000610352,0.000152588,-2.42562,0.0565965,-0.073232,0.054128,0.0718859,-0.090705,0.147149,-0.124546,-0.0822652,0.0100708,0.0256729,0.0213623,0.00740051,0.0153351,0.031929,0.0130844,0.0169754,-9.97986,0.0193405,0.00225067,0.0251389,-0.0182343,0.0100708,0.00663757,0.00663757,0.0220871
13,5,10.0097,0.00183105,-0.000305176,-2.42562,0.0559862,-0.0735371,0.0556539,0.072191,-0.0916206,0.146844,-0.124546,-0.0804342,0.010643,0.0238037,0.0194168,0.0109863,0.0163269,0.0317764,0.0178146,0.0219727,-9.97986,0.0184631,0.00236511,0.0241089,-0.0123596,0.0109863,0.00637054,0.00350952,0.0237274
13,6,10.0097,-0.00152588,0,-2.42501,0.055681,-0.0735371,0.055959,0.0712755,-0.0910102,0.146844,-0.124546,-0.0813497,0.0172806,0.026741,0.0147247,0.0102234,0.0160599,0.0284576,0.0169754,0.0197601,-9.97986,0.0141907,-0.00274658,0.0202942,-0.0156784,0.013237,0.00263214,0.0025177,0.0200272
13,7,10.0097,0.000305176,0.000305176,-2.42562,0.0559862,-0.0735371,0.0529073,0.0706652,-0.0913154,0.145624,-0.12363,-0.0810445,0.0141907,0.0256729,0.0208282,0.0128937,0.0136566,0.0334167,0.0145721,0.0234222,-9.97986,0.0172806,0.000839233,0.0225067,-0.0204086,0.00968933,-0.0106812,0.00461578,0.0203323
13,8,10.0097,-0.0012207,-0.000610352,-2.42592,0.055681,-0.0747579,0.0535176,0.0422838,-0.0952827,0.145929,-0.125766,-0.0816549,0.0141144,0.0217056,0.0179291,0.0142288,0.0144958,0.0287247,0.0196075,0.0215912,-9.97986,0.0172806,-0.000457764,0.018425,-0.0162506,0.00946045,-0.0162506,0.00667572,0.0198746
13,9,8.74318,0,-0.0012207,-2.42592,0.0565965,-0.073232,0.0544332,0.0465563,-0.0943672,0.145624,-0.124851,-0.0810445,0.0110245,0.0253677,0.0198364,0.00938416,0.0139618,0.028038,0.0130463,0.0187683,-9.97986,0.0149918,-0.000762939,0.0179672,-0.0176239,0.00892639,-0.0170135,0.00392914,0.0133896
14,0,7.70314,0.00152588,-0.000610352,-2.42562,0.0559862,-0.0747579,0.0547383,0.058153,-0.0925361,0.146844,-0.125766,-0.0816549,0.0160599,0.024147,0.0182343,0.0146866,0.0133133,0.0296783,0.0163651,0.0187683,-9.97986,0.0157166,-0.00255585,0.0230408,-0.0170135,0.00816345,-0.00816345,0.0114441,0.0140381
14,1,7.62258,0.000305176,0.000152588,-2.42592,0.0559862,-0.0753682,0.0544332,0.0663927,-0.0925361,0.144708,-0.125461,-0.0831808,0.0130081,0.0292969,0.0184631,0.00843048,0.0149536,0.02491,0.0146103,0.0184631,-9.97986,0.0218201,-0.00389099,0.0166702,-0.0190735,0.00900269,-0.010376,0.00579834,0.012207
14,2,8.00038,0,0.000915527,-2.42684,0.0544603,-0.0747579,0.0547383,0.0761583,-0.0922309,0.144708,-0.124851,-0.0828756,0.00694275,0.0287628,0.0185013,0.0105286,0.0204086,0.0278473,0.0144196,0.0161362,-9.97986,0.0160217,-0.0043869,0.0214386,-0.0211334,0.00862122,-0.00202179,0.00564575,0.00953674
14,3,10.0097,0.000305176,0.00106812,-2.42714,0.0550706,-0.0759786,0.0553487,0.104234,-0.0900947,0.145318,-0.12363,-0.0844015,0.00694275,0.021019,0.0181961,0.00968933,0.0133133,0.0260925,0.0183868,0.0167847,-9.97986,0.0177002,-0.00553131,0.0183105,-0.0146103,0.00656128,-0.00144958,0.0120163,0.00682831
14,4,10.0097,0.0012207,0.00137329,-2.42959,0.0538499,-0.0768941,0.0526021,0.0868395,-0.0955879,0.144098,-0.126987,-0.0859274,0.0123596,0.0256729,0.0209808,0.0146866,0.014534,0.0243378,0.018158,0.0176239,-9.97986,0.0113678,-0.0037384,0.0151443,-0.0162506,0.00785828,0,0.0124359,0.0108337
14,5,10.0097,0.0012207,0.000305176,-2.42989,0.0544603,-0.0765889,0.0522969,0.0752428,-0.0949775,0.143487,-0.126072,-0.0871481,0.0119781,0.0253296,0.0188828,0.0156403,0.0122833,0.0198746,0.0151443,0.0177765,-9.97986,0.0183105,-0.00469208,0.0199127,-0.0143814,0.00823975,-0.0019455,0.00846863,0.00804901
14,6,10.0097,0.000305176,-0.000305176,-2.42898,0.0535448,-0.0756734,0.0519917,0.07036,-0.0946723,0.144403,-0.127292,-0.0871481,0.00801086,0.0208282,0.0207138,0.0166321,0.0113678,0.0213242,0.0183487,0.0164032,-9.97986,0.0151443,-0.000534058,0.0191498,-0.013237,0.00900269,-0.00347137,0.0105286,0.0069046
14,7,10.0097,0.000915527,-0.000152588,-2.42989,0.0547655,-0.0753682,0.0513814,0.0697496,-0.0949775,0.142267,-0.127292,-0.0865377,0.00736237,0.0245285,0.0177765,0.0122833,0.0160599,0.022316,0.0154495,0.0194168,-9.97986,0.0170517,0.0018692,0.0165558,-0.00843048,0.00663757,0.000953674,0.0101852,0.00995636
14,8,10.0097,0.00152588,0,-2.42867,0.0529344,-0.0765889,0.0519917,0.0685289,-0.0946723,0.142877,-0.126377,-0.0856222,0.00457764,0.0224304,0.017395,0.00919342,0.0137329,0.0194931,0.0141907,0.0162125,-9.97986,0.0154495,-0.00175476,0.0139236,-0.0105286,0.00587463,-0.00301361,0.0125885,0.00610352
14,9,10.0097,0.000610352,-0.000610352,-2.42806,0.0544603,-0.0759786,0.0522969,0.0691393,-0.0931465,0.145318,-0.127292,-0.0862325,0.00293732,0.0244904,0.017395,0.0125504,0.0135803,0.0224686,0.0134659,0.0146484,-9.97986,0.0128937,-0.00442505,0.0196457,-0.00831604,0.00709534,-0.00205994,0.00900269,0.00816345
15,0,10.0097,0.000915527,-0.000152588,-2.42776,0.0550706,-0.075063,0.0526021,0.0697496,-0.0934516,0.144098,-0.127292,-0.0850118,0.0075531,0.0209427,0.020256,0.0127029,0.012207,0.0200272,0.0157547,0.0178909,-9.97986,0.0144196,-0.00190735,0.0157547,-0.0144196,0.00495911,-0.0131607,0.0150299,0.00656128
15,1,10.0097,0.000305176,0.000610352,-2.42684,0.0553758,-0.0747579,0.0529073,0.0682238,-0.0943672,0.145318,-0.126682,-0.0844015,0.00648499,0.0245667,0.0174713,0.0108719,0.0167847,0.0194931,0.0167084,0.0169373,-9.97986,0.0115585,-0.00549316,0.0189209,-0.0149918,0.00221252,-0.00450134,0.0153351,0.00907898
15,2,10.0097,-0.000305176,0.000762939,-2.42745,0.0544603,-0.0738423,0.0535176,0.0694445,-0.0934516,0.144403,-0.125461,-0.0837911,0.00999451,0.0222015,0.019455,0.0119019,0.0134659,0.0170517,0.0133133,0.0153732,-9.97986,0.0140381,-0.00682831,0.0209808,-0.00934601,0.00663757,-0.00694275,0.0165558,0.00473022
15,3,10.0097,0.000610352,0.00137329,-2.4247,0.0572069,-0.0744527,0.054128,0.07036,-0.0916206,0.146234,-0.124546,-0.0822652,0.0118256,0.0191116,0.017662,0.0135803,0.0138092,0.0177765,0.0172424,0.019455,-9.97986,0.0149918,-0.00537872,0.0170898,-0.010376,0.00617981,-0.0025177,0.0149155,0.00492096
15,4,10.0097,0,0.000762939,-2.4244,0.0553758,-0.0744527,0.0547383,0.0709703,-0.090705,0.146539,-0.124546,-0.0810445,0.0062561,0.0239944,0.0214767,0.014801,0.0107193,0.0193024,0.017662,0.0208282,-9.97986,0.013504,-0.001297,0.0234985,-0.00762939,0.00728607,0.0114822,0.0173187,0.01091
15,5,10.0097,0,-0.000305176,-2.42623,0.0562914,-0.0741475,0.054128,0.0718859,-0.0916206,0.147149,-0.124546,-0.0810445,0.0101089,0.0231552,0.0213623,0.0154114,0.0143433,0.0164413,0.0186157,0.0148392,-9.97986,0.012207,-0.00492096,0.0231171,-0.0112152,0.00541687,0.017395,0.0180817,0.00858307
15,6,10.0097,0,0.000152588,-2.42501,0.0569017,-0.0738423,0.0556539,0.0715807,-0.0913154,0.146844,-0.124241,-0.0816549,0.00812531,0.0180817,0.0152206,0.0114822,0.00972748,0.0175858,0.0175858,0.0167465,-9.97986,0.0162888,-0.000991821,0.0236893,-0.00526428,0.00831604,0.0252914,0.0181198,0.0102615
15,7,10.0097,0.00183105,0.000305176,-2.42531,0.0559862,-0.0741475,0.0550435,0.0718859,-0.0913154,0.148065,-0.123325,-0.0810445,0.0088501,0.0204849,0.018692,0.0147629,0.0135803,0.0181198,0.019989,0.0168228,-9.97986,0.0143433,0.000915527,0.0222397,-0.0031662,0.00907898,0.0252151,0.0219345,0.0115585
15,8,10.0097,0.0012207,-0.0012207,-2.42653,0.0569017,-0.0738423,0.0529073,0.0422838,-0.095893,0.146234,-0.125766,-0.0825704,0.00926971,0.0216293,0.0193787,0.0171661,0.0144196,0.0144196,0.017395,0.0192261,-9.97986,0.0110626,0.00198364,0.0201416,-0.000801086,0.0125122,0.0167465,0.0198364,0.00965118
15,9,8.67238,0,-0.000610352,-2.42379,0.0565965,-0.0738423,0.0538228,0.0462511,-0.0919257,0.147455,-0.126072,-0.0819601,0.00980377,0.0174713,0.0204849,0.0138092,0.0126266,0.0142288,0.0208282,0.0195313,-9.97986,0.0131607,0.00419617,0.0246048,-0.00217438,0.0135803,0.0108719,0.0222015,0.0142288
16,0,7.61251,0,-0.000762939,-2.42562,0.0569017,-0.0735371,0.0550435,0.0572374,-0.0925361,0.145318,-0.126072,-0.0822652,0.0100708,0.0244141,0.0184631,0.015564,0.0149536,0.0173569,0.0217819,0.0202942,-9.97986,0.0150681,-0.00404358,0.0242233,-0.00827789,0.0101471,0.000648499,0.0247192,0.0127029
16,1,7.50905,0.00183105,0.000152588,-2.42776,0.0562914,-0.0738423,0.0550435,0.0645616,-0.0925361,0.146234,-0.126072,-0.0834859,0.0056076,0.0242996,0.0180817,0.0180435,0.0163269,0.0136948,0.0184631,0.0193405,-9.97986,0.0147247,-0.00335693,0.0278473,-0.00343323,0.00686646,-0.00419617,0.0233459,0.00789642
16,2,7.84383,-0.000305176,0.000152588,-2.42745,0.0544603,-0.0735371,0.0535176,0.0752428,-0.0913154,0.145624,-0.124851,-0.0834859,0.0123978,0.0198364,0.019722,0.0185394,0.0138474,0.013504,0.0201416,0.0226593,-9.97986,0.0153732,0.000724792,0.0275421,-0.00434875,0.00801086,-0.00610352,0.0252533,0.0120926
16,3,10.0097,0.0012207,0.00137329,-2.42684,0.0544603,-0.0747579,0.0535176,0.103014,-0.0913154,0.145624,-0.124851,-0.0837911,0.00808716,0.0211334,0.0189209,0.0164413,0.0127411,0.00915527,0.0178146,0.017662,-9.97986,0.0117874,-0.00156403,0.0278854,-0.00328064,0.00526428,-0.00213623,0.0256348,0.00972748
16,4,10.0097,-0.000305176,0.00152588,-2.42928,0.0526292,-0.0765889,0.0522969,0.0868395,-0.094062,0.143792,-0.125461,-0.0859274,0.0125122,0.0244522,0.0186539,0.0191879,0.0133896,0.0104523,0.0214386,0.0179291,-9.97986,0.014801,-0.00270844,0.026207,-0.00347137,0.0104141,-0.00205994,0.0271225,0.0124741
16,5,10.0097,0.000610352,0.000762939,-2.42959,0.0541551,-0.0762837,0.0519917,0.0758531,-0.0949775,0.143792,-0.127292,-0.0865377,0.00991821,0.020752,0.0202942,0.0177002,0.0138855,0.013237,0.0197601,0.0202942,-9.97986,0.0109863,-0.00171661,0.0295258,0.00896454,0.0165939,0.00156403,0.0273895,0.0119019
16,6,10.0097,0,0.000457764,-2.42959,0.0541551,-0.0765889,0.0519917,0.0715807,-0.0965034,0.142267,-0.127903,-0.0865377,0.0087738,0.0203323,0.0181198,0.0111008,0.0110626,0.00839233,0.0198746,0.0165939,-9.97986,0.0108337,-0.00259399,0.0265503,0.00473022,0.00995636,-0.00434875,0.0254822,0.00919342
16,7,10.0097,0.0012207,-0.000457764,-2.42898,0.0529344,-0.0759786,0.0513814,0.0697496,-0.094062,0.142877,-0.127292,-0.0868429,0.0120926,0.0198364,0.0196457,0.0146103,0.00926971,0.0141907,0.0195313,0.019455,-9.97986,0.0163269,-0.000915527,0.0337982,0.00667572,0.0153351,-0.00564575,0.0285721,0.0107956
16,8,10.0097,0.000610352,-0.000305176,-2.42867,0.0547655,-0.0762837,0.0522969,0.0697496,-0.0946723,0.143182,-0.126682,-0.0871481,0.0106049,0.0191879,0.0202179,0.0118637,0.0138855,0.00831604,0.0183105,0.0157547,-9.97986,0.0146484,0.000915527,0.0299072,-0.000534058,0.00991821,-0.00530243,0.0253296,0.0136948
16,9,10.0097,0.000305176,-0.000915527,-2.42867,0.0535448,-0.0753682,0.0516866,0.0685289,-0.0955879,0.144098,-0.126987,-0.0862325,0.0108337,0.0207901,0.0214386,0.0109863,0.010376,0.0102615,0.019989,0.0196838,-9.97986,0.0147629,0.000572205,0.0290298,-0.0082016,0.0110245,-0.00419617,0.0271988,0.0100327
17,0,10.0097,0.000610352,-0.000915527,-2.42776,0.0544603,-0.0753682,0.0529073,0.0700548,-0.0937568,0.143792,-0.126682,-0.0859274,0.00888824,0.0225449,0.0154495,0.00789642,0.0133133,0.010643,0.019722,0.0194931,-9.97986,0.0127029,0.0037384,0.0367737,-0.00915527,0.0143433,-0.00534058,0.0279999,0.0104141
17,1,10.0097,0.00244141,0.000457764,-2.42776,0.0520189,-0.0759786,0.0526021,0.0682238,-0.094062,0.145929,-0.126987,-0.0847066,0.00835419,0.0217438,0.0159836,0.00679016,0.0146484,0.0105667,0.0229645,0.021019,-9.97986,0.0126648,-0.00492096,0.0336075,-0.00961304,0.0124359,-0.00495911,0.0289154,0.00827789
17,2,10.0097,0.000915527,0.000762939,-2.42623,0.0541551,-0.0753682,0.0532125,0.0694445,-0.0946723,0.145318,-0.125156,-0.0837911,0.0120544,0.0218964,0.0144577,0.00785828,0.0156784,0.00270844,0.0236511,0.0205612,-9.97986,0.0117493,-0.00667572,0.0353622,0.000648499,0.0141144,-0.00495911,0.0274277,0.00919342
17,3,10.0097,0.000610352,0.00167847,-2.42501,0.0569017,-0.0747579,0.0547383,0.07036,-0.0913154,0.146844,-0.124851,-0.0819601,0.0104141,0.017662,0.00751495,0.00923157,0.0143433,0.00595093,0.0218582,0.0181961,-9.97986,0.0150299,-0.000534058,0.03685,0.0112534,0.0171661,-0.00366211,0.0261307,0.00999451
17,4,10.0097,0,0.000305176,-2.42653,0.0523241,-0.0735371,0.0550435,0.0712755,-0.0916206,0.14776,-0.124546,-0.0816549,0.01194,0.0238419,0.0069046,0.0111008,0.0120926,0.0069046,0.0234604,0.0183487,-9.97986,0.0134277,-0.0019455,0.0384903,0.0101471,0.0170898,-0.00473022,0.0288773,0.00968933
17,5,10.0097,0.000305176,0,-2.42531,0.0553758,-0.0738423,0.0547383,0.0694445,-0.0934516,0.146844,-0.12363,-0.0816549,0.0069809,0.0206757,0.0128174,0.0112152,0.0125504,0.00709534,0.0222397,0.016098,-9.97986,0.0149536,-0.00461578,0.0402832,0.017395,0.0179672,-0.00328064,0.0315857,0.0107193
17,6,10.0097,0.000915527,0.000305176,-2.42653,0.0572069,-0.073232,0.0550435,0.0718859,-0.0910102,0.147149,-0.124546,-0.0810445,0.00915527,0.0263977,0.0145721,0.0114441,0.0129318,0.00793457,0.0256348,0.0163651,-9.97986,0.0143051,0.00392914,0.0407028,0.0107193,0.0180054,-0.00366211,0.0297546,0.0119781
17,7,10.0097,0,0.000305176,-2.42379,0.0605638,-0.0735371,0.054128,0.0709703,-0.0916206,0.147149,-0.123935,-0.0804342,0.0103378,0.0219345,0.0154114,0.00816345,0.0147247,0.00659943,0.0239944,0.0166702,-9.97986,0.0133896,0.00385284,0.0405502,0.0102234,0.0159073,-0.00240326,0.0279999,0.0139999
17,8,10.0097,0.0012207,-0.00137329,-2.42623,0.0559862,-0.0744527,0.0535176,0.0416735,-0.0965034,0.146539,-0.126072,-0.0816549,0.00991821,0.0212479,0.0139618,0.00881195,0.0120926,0.00648499,0.0261307,0.0130844,-9.97986,0.0140381,0.000534058,0.0381851,0.0151825,0.0156021,-0.00663757,0.0286865,0.00976563
17,9,8.48744,-0.000610352,-0.000610352,-2.42562,0.0572069,-0.0741475,0.0532125,0.0462511,-0.0931465,0.145624,-0.126377,-0.0822652,0.0117111,0.0233078,0.0183487,0.0110626,0.0123978,0.0105667,0.0272751,0.0176239,-9.97986,0.014534,-0.00671387,0.0392532,0.019722,0.0195313,-0.0069809,0.0309372,0.0118256
18,0,7.49044,0.00183105,-0.000610352,-2.42501,0.0550706,-0.0738423,0.0544332,0.0575426,-0.0922309,0.145318,-0.126682,-0.0825704,0.012207,0.0180054,0.0186157,0.01091,0.0171661,0.00873566,0.0248718,0.0194168,-9.97986,0.016861,-0.00679016,0.040741,0.0215149,0.0197601,-0.0122452,0.0291824,0.0118256
18,1,7.40315,-0.0012207,0.000152588,-2.42684,0.0553758,-0.0747579,0.0529073,0.0657823,-0.0931465,0.145624,-0.126072,-0.0834859,0.0104523,0.0202942,0.018959,0.0117493,0.0125885,0.00392914,0.0260544,0.0149918,-9.97986,0.0139236,-0.00362396,0.03582,0.0239944,0.0170898,-0.0164795,0.0285721,0.0104904
18,2,7.74159,-0.000610352,0.000762939,-2.42562,0.0553758,-0.0747579,0.0538228,0.0752428,-0.0919257,0.146539,-0.124851,-0.0825704,0.0103378,0.0206375,0.0185013,0.0128555,0.0188828,0.00556946,0.0207901,0.0149155,-9.97986,0.0159073,0.00102997,0.0336075,0.0266647,0.0179672,-0.0122833,0.0296021,0.01194
18,3,10.0097,0.000610352,0.00152588,-2.42653,0.0529344,-0.075063,0.0544332,0.104845,-0.090705,0.143792,-0.125766,-0.0837911,0.00892639,0.0255203,0.0164795,0.00602722,0.0180817,0.00843048,0.0156021,0.0163651,-9.97986,0.0136185,0.000839233,0.0360489,0.026741,0.0214386,-0.00621796,0.0287247,0.00843048
18,4,10.0097,0.000915527,0.00167847,-2.42867,0.0529344,-0.0768941,0.0522969,0.0880602,-0.0952827,0.144403,-0.125461,-0.0856222,0.0117874,0.0224304,0.0133514,0.0128555,0.0194168,0.00736237,0.0194168,0.0183105,-9.97986,0.0152588,0.00190735,0.0336456,0.0333405,0.0203705,-0.00148773,0.0294113,0.00938416
18,5,10.0097,0.00152588,0.000610352,-2.42837,0.0541551,-0.0759786,0.0522969,0.0770738,-0.0946723,0.143182,-0.126072,-0.0877584,0.0110626,0.0213623,0.0151443,0.00965118,0.0212097,0.00743866,0.0153351,0.0192261,-9.97986,0.0133133,0.000190735,0.0286102,0.0258255,0.0156403,-0.0043869,0.0270844,0.00892639
18,6,10.0097,0.000610352,0.000457764,-2.42989,0.0550706,-0.0759786,0.0516866,0.0734117,-0.0949775,0.143182,-0.127292,-0.0874532,0.0143433,0.0235367,0.0175858,0.0112915,0.0253296,0.00282288,0.0139618,0.0154877,-9.97986,0.013504,-0.00564575,0.0252533,0.0285339,0.0139236,-0.00213623,0.0281143,0.00858307
18,7,10.0097,0.0012207,0.000152588,-2.42989,0.0538499,-0.0762837,0.0510762,0.07036,-0.094062,0.143182,-0.126377,-0.0856222,0.00926971,0.0241089,0.0128174,0.0109863,0.02285,0.0082016,0.00801086,0.0187683,-9.97986,0.0112915,-0.00205994,0.0246429,0.0322723,0.0159454,-0.00900269,0.0273895,0.00469208
18,8,10.0097,0.000305176,-0.000457764,-2.42898,0.0541551,-0.0762837,0.0519917,0.0688341,-0.094062,0.142572,-0.126072,-0.0868429,0.0151825,0.0231934,0.0199509,0.0127792,0.0252914,0.00595093,0.0131607,0.0162125,-9.97986,0.0104523,0.00137329,0.015831,0.0298309,0.0183105,-0.0106049,0.0252151,0.00740051
18,9,10.0097,-0.000305176,0,-2.42806,0.0553758,-0.0753682,0.0526021,0.0691393,-0.094062,0.144708,-0.129429,-0.0859274,0.0105667,0.0227737,0.0180817,0.00881195,0.0251007,0.00629425,0.00553131,0.0177002,-9.97986,0.0155258,0.00480652,0.0185013,0.0294495,0.0130081,-0.00980377,0.0230026,0.00667572
19,0,10.0097,0.0012207,-0.000305176,-2.42806,0.0544603,-0.075063,0.0532125,0.0697496,-0.0937568,0.144098,-0.126682,-0.0850118,0.0116348,0.0213242,0.0180817,0.0121307,0.0250244,0.00492096,0.00396729,0.015564,-9.97986,0.0104904,0.00404358,0.0160599,0.0315857,0.0126266,-0.00682831,0.0261307,0.00480652
19,1,10.0097,0.000915527,0.000610352,-2.42684,0.0541551,-0.0747579,0.054128,0.0700548,-0.0931465,0.145013,-0.126377,-0.0847066,0.0124741,0.0222778,0.0170135,0.0119019,0.0254059,0.00915527,0.00957489,0.0179672,-9.97986,0.0178146,0.00175476,0.0162125,0.0305939,0.017662,-0.00270844,0.0246048,0.00427246
19,2,10.0097,0.000610352,0.000457764,-2.42684,0.0550706,-0.0747579,0.0532125,0.0694445,-0.0922309,0.145013,-0.125766,-0.0834859,0.01194,0.0258636,0.0154495,0.0121689,0.0222397,0.00675201,0.0224686,0.0152969,-9.97986,0.0129318,-0.000686646,0.0133514,0.0354767,0.0136185,-0.00278473,0.0217438,0.00236511
19,3,10.0097,0.0012207,0.000610352,-2.42562,0.0565965,-0.0738423,0.0532125,0.0715807,-0.0916206,0.145624,-0.124241,-0.0819601,0.00747681,0.0212097,0.0162888,0.0122833,0.0188446,0.00587463,0.0298309,0.0162506,-9.97986,0.0138855,-0.00160217,0.0119781,0.0356293,0.0230789,0.0012207,0.019455,0.000305176
19,4,10.0097,-0.000305176,0.000915527,-2.42592,0.0565965,-0.0735371,0.0522969,0.0718859,-0.0934516,0.147149,-0.12363,-0.0810445,0.00858307,0.0255966,0.0143433,0.0101471,0.0149918,0.00511169,0.0464249,0.0162125,-9.97986,0.0126266,0.000343323,0.00858307,0.0448227,0.0177002,0.0025177,0.0191879,0.00320435
19,5,10.0097,0.000915527,0.0012207,-2.42379,0.0572069,-0.073232,0.0556539,0.0718859,-0.0910102,0.146844,-0.12363,-0.0807394,0.0111771,0.0263214,0.017128,0.0113678,0.0141144,0.00358582,0.0528717,0.0153351,-9.97986,0.0113297,-0.000495911,0.0108719,0.0475311,0.0205612,0.00946045,0.0238037,-0.00282288
19,6,10.0097,0.000915527,0.000152588,-2.4244,0.0562914,-0.0735371,0.0556539,0.07036,-0.0916206,0.146844,-0.123935,-0.0813497,0.00854492,0.0241089,0.0230789,0.00778198,0.0125122,0.00587463,0.0531769,0.0207138,-9.97986,0.0155258,-0.00106812,0.00221252,0.0568771,0.0203705,0.0170517,0.0218201,-0.000457764
19,7,10.0097,0.0012207,0.000762939,-2.42562,0.0565965,-0.0735371,0.0547383,0.0712755,-0.0922309,0.146539,-0.124546,-0.0804342,0.0116348,0.0260925,0.014534,0.00110626,0.0111771,0.001297,0.0468063,0.0190353,-9.97986,0.0168991,0.0031662,0.00724792,0.0546646,0.0245285,0.0136948,0.0199509,0.00247955
19,8,10.0097,-0.000610352,-0.00137329,-2.42623,0.0553758,-0.0741475,0.0535176,0.042589,-0.0952827,0.145624,-0.12302,-0.0822652,0.00915527,0.0216293,0.021019,-0.00347137,0.0144958,0.00167847,0.0354004,0.0186539,-9.97986,0.0144196,-0.000534058,0.000686646,0.055809,0.027771,0.00843048,0.0211716,0.000457764
19,9,8.79292,0.000915527,-0.000762939,-2.42531,0.0559862,-0.0738423,0.0538228,0.0438097,-0.0934516,0.146539,-0.126072,-0.0816549,0.00907898,0.0297165,0.0202179,-0.00350952,0.0103378,0.00244141,0.0234985,0.0162506,-9.97986,0.0110245,-0.00480652,-0.000267029,0.0494766,0.0301743,-0.000114441,0.0216293,0.000190735
20,0,7.73,0,0.000762939,-2.42653,0.0565965,-0.0741475,0.0513814,0.0578478,-0.0925361,0.14776,-0.126987,-0.0822652,0.0164413,0.0265884,0.0230789,-0.00324249,0.0216293,0.00839233,0.0222397,0.0194931,-9.97986,0.0197601,0.00556946,0.00461578,0.0628281,0.0358582,0.00476837,0.0265503,0.00305176
20,1,7.60823,0.000305176,0.000305176,-2.42653,0.0544603,-0.075063,0.0535176,0.065172,-0.0934516,0.144403,-0.12363,-0.0828756,0.00492096,0.0170135,0.018425,-0.030098,0.0111771,0.000267029,0.00556946,0.0131226,-9.97986,0.00984192,-0.00823975,-0.00759125,0.0514603,0.0209045,-0.00881195,0.0140381,-0.0056839
20,2,7.97444,0.000610352,0,-2.42653,0.055681,-0.0759786,0.0532125,0.075548,-0.0925361,0.146234,-0.124851,-0.0831808,0.0165176,0.026741,0.0217438,-0.0307846,0.0208282,0.00614166,0.0233459,0.0217056,-9.97986,0.0127792,0.00495911,-0.00286102,0.0627136,0.0289154,-0.00511169,0.0194168,-0.000991821
20,3,10.0097,-0.000610352,0.00183105,-2.42592,0.0544603,-0.0744527,0.0550435,0.10576,-0.0891792,0.144098,-0.12363,-0.0840963,0.00873566,0.0234604,0.0165558,-0.00957489,0.0169754,0.00659943,0.0188446,0.0158691,-9.97986,0.0151062,0.00728607,-0.00469208,0.0606918,0.0276947,-0.00904083,0.0182343,-0.000610352
20,4,10.0097,-0.000610352,0.00137329,-2.42928,0.0544603,-0.075063,0.0522969,0.087755,-0.0946723,0.143792,-0.126682,-0.0874532,0.01194,0.0228119,0.0170517,0.0197601,0.0202942,0.00797272,0.0204468,0.0171661,-9.97986,0.0123978,0.00537872,-0.0044632,0.0618362,0.0252533,-0.00713348,0.0187302,3.8147e-005
20,5,10.0097,0.00183105,-0.000305176,-2.42898,0.0535448,-0.0756734,0.0526021,0.0761583,-0.095893,0.143487,-0.126377,-0.0868429,0.01297,0.0254822,0.0154114,0.0209045,0.0188446,0.00602722,0.0157166,0.0156403,-9.97986,0.0159454,0.001297,-0.00617981,0.0511932,0.02491,-0.010376,0.0227737,-0.00244141
20,6,10.0097,-0.000305176,0.000305176,-2.42959,0.0535448,-0.0768941,0.0544332,0.072191,-0.0965034,0.142877,-0.127903,-0.0871481,0.0105286,0.0218582,0.020256,0.0269699,0.0224304,0.00713348,0.00823975,0.018425,-9.97986,0.0151825,-0.00205994,-0.00953674,0.0521851,0.0240707,-0.0120544,0.0173569,0.000801086
20,7,10.0097,0.000610352,0,-2.42928,0.0541551,-0.0762837,0.0526021,0.0694445,-0.0943672,0.142877,-0.125461,-0.0862325,0.0123596,0.0263596,0.0226212,0.031662,0.0191116,0.00511169,0.0157547,0.0165558,-9.97986,0.0134277,-0.00114441,-0.00892639,0.0562668,0.0246811,-0.0170517,0.0148773,-0.0038147
20,8,10.0097,0,-0.000610352,-2.42989,0.0535448,-0.0762837,0.0522969,0.0688341,-0.094062,0.144708,-0.127292,-0.0871481,0.0133133,0.0235367,0.020752,0.0315475,0.0193787,0.000648499,0.0238419,0.0141144,-9.97986,0.0174332,-0.000114441,-0.00709534,0.0474167,0.0254822,-0.0180054,0.0149155,-0.00354767
20,9,10.0097,-0.000305176,-0.000457764,-2.42806,0.0550706,-0.0747579,0.0538228,0.0694445,-0.0943672,0.144708,-0.127598,-0.0859274,0.0110626,0.0251007,0.0218201,0.0234604,0.0183868,0.00411987,0.0216675,0.0134277,-9.97986,0.0121307,-0.0030899,-0.0106049,0.0477982,0.0229645,-0.0211716,0.0146484,-0.00667572
21,0,10.0097,0.00152588,-0.000152588,-2.42776,0.0550706,-0.0744527,0.0519917,0.0700548,-0.0931465,0.145318,-0.130649,-0.0847066,0.0136566,0.0199127,0.0257111,0.0255203,0.0186539,0.00507355,0.0214767,0.0142288,-9.97986,0.0165558,-0.00469208,-0.00839233,0.0484848,0.0235748,-0.0127411,0.0138092,-0.00663757
21,1,10.0097,0.0012207,0.000152588,-2.42745,0.0544603,-0.0753682,0.0532125,0.0700548,-0.0934516,0.145013,-0.125461,-0.0856222,0.0104141,0.0235748,0.02491,0.026741,0.0210953,0.00362396,0.0262833,0.0134277,-9.97986,0.0173187,-0.00694275,-0.00659943,0.044632,0.0191879,-0.00621796,0.0162888,-0.00785828
21,2,10.0097,0.0012207,-0.000762939,-2.42714,0.0544603,-0.0753682,0.055959,0.0700548,-0.0931465,0.145624,-0.125461,-0.0834859,0.0112152,0.0244141,0.0281906,0.0232315,0.0173569,0.00587463,0.0193024,0.0162506,-9.97986,0.0143433,-0.00823975,-0.0112152,0.0349045,0.0180054,0.000839233,0.0128937,-0.00736237
21,3,10.0097,-0.000610352,0.000152588,-2.4244,0.0562914,-0.0735371,0.0553487,0.0706652,-0.0916206,0.147149,-0.124241,-0.0816549,0.0125504,0.0240707,0.0352859,0.0222778,0.0217819,0.00679016,0.0238419,0.0144196,-9.97986,0.0159073,-0.00564575,-0.00827789,0.033226,0.0219727,0.00339508,0.0142288,-0.0108337
21,4,10.0097,0.000915527,-0.000152588,-2.42714,0.0553758,-0.0738423,0.0553487,0.0712755,-0.0916206,0.146539,-0.124546,-0.0819601,0.00865936,0.0249481,0.0352859,0.0206757,0.0236511,0.0101852,0.0229263,0.0153732,-9.97986,0.015831,-0.00392914,-0.00785828,0.0281906,0.0211334,0.00732422,0.0120544,-0.0126648
21,5,10.0097,0.00213623,0,-2.42501,0.0569017,-0.0738423,0.0526021,0.072191,-0.0916206,0.14776,-0.123935,-0.0816549,0.0111008,0.0231934,0.033226,0.0312424,0.0233459,0.0116348,0.031929,0.017662,-9.97986,0.0163651,-0.00106812,-0.00675201,0.0291443,0.0216675,0.00637054,0.0136948,-0.0114822
21,6,10.0097,0.000610352,0.000305176,-2.4247,0.055681,-0.0747579,0.0550435,0.072191,-0.0928413,0.146234,-0.120884,-0.0810445,0.0123596,0.0240707,0.0268173,0.0166702,0.0237274,0.00686646,0.0238037,0.0136566,-9.97986,0.0173187,-0.00564575,-0.0110626,0.0249863,0.0195313,0.000724792,0.0113297,-0.0156403
21,7,10.0097,0,0.000152588,-2.42562,0.0559862,-0.0741475,0.054128,0.0718859,-0.0913154,0.147149,-0.123935,-0.0804342,0.0133896,0.0225449,0.0240326,0.015831,0.0231552,0.00896454,0.027771,0.0120926,-9.97986,0.0166702,0.000572205,-0.00713348,0.0231934,0.0182343,0.00507355,0.0120544,-0.0106812
21,8,10.0097,0,-0.0012207,-2.42592,0.0559862,-0.0741475,0.0474141,0.0401476,-0.0965034,0.145929,-0.125766,-0.0819601,0.0123596,0.0269318,0.016861,0.0334549,0.0244141,0.00530243,0.0245285,0.0128555,-9.97986,0.0143433,-7.62939e-005,-0.00465393,0.0250244,0.0229645,-0.000686646,0.0140381,-0.0106049
21,9,8.47157,-0.00183105,-0.000610352,-2.42501,0.0562914,-0.075063,0.0550435,0.0465563,-0.0919257,0.146539,-0.125461,-0.0816549,0.00976563,0.0256348,0.0141525,0.0485229,0.020752,0.0112152,0.0279236,0.0160599,-9.97986,0.0136185,-0.00247955,-0.0031662,0.0235367,0.0156403,-0.00785828,0.0133514,-0.0150299
22,0,7.46877,0.0012207,-0.000610352,-2.42592,0.0562914,-0.0738423,0.0547383,0.0578478,-0.0925361,0.145013,-0.125766,-0.0825704,0.0101471,0.0252533,0.0109482,0.0389099,0.0225067,0.00667572,0.0302505,0.0171661,-9.97986,0.0174332,0.000686646,-0.00961304,0.0139236,0.0192642,-0.00793457,0.0102234,-0.0103378
22,1,7.35921,-0.000305176,0.000152588,-2.42623,0.0550706,-0.0747579,0.0492452,0.0654772,-0.0934516,0.145624,-0.126072,-0.0834859,0.00774384,0.0214386,0.00507355,0.0273895,0.0249863,0.0107956,0.0310516,0.0167084,-9.97986,0.0136948,-0.00385284,-0.00480652,0.00873566,0.0218201,-0.0107956,0.013504,-0.0128174
22,2,7.7889,-0.000915527,0,-2.42684,0.0547655,-0.0756734,0.0547383,0.0758531,-0.0916206,0.145929,-0.124241,-0.0844015,0.00732422,0.0244522,0.00259399,0.0190353,0.0291824,0.0149155,0.0281525,0.0146866,-9.97986,0.0157928,-0.0044632,0.000648499,0.00495911,0.0214767,-0.0087738,0.00797272,-0.0139618
22,3,10.0097,0.00183105,0.00137329,-2.42776,0.0547655,-0.0759786,0.0544332,0.104234,-0.0891792,0.144098,-0.124241,-0.0840963,0.0101089,0.0213623,-0.000801086,0.0140762,0.0246048,0.00621796,0.0269699,0.0164795,-9.97986,0.0142288,-0.00389099,0.000457764,0.000572205,0.0205994,-0.00564575,0.00953674,-0.0148773
22,4,10.0097,0.00152588,0.000152588,-2.42928,0.0535448,-0.0765889,0.055959,0.087755,-0.0937568,0.143182,-0.126072,-0.0871481,0.00705719,0.0226593,-0.000724792,0.01194,0.0258636,0.00858307,0.0223923,0.0151825,-9.97986,0.0140381,-0.00404358,7.62939e-005,-0.000190735,0.0165558,-0.00648499,0.00999451,-0.0150299
22,5,10.0097,0.000610352,-0.000457764,-2.42959,0.0535448,-0.0759786,0.0519917,0.0764635,-0.0971137,0.144403,-0.129429,-0.0871481,0.00732422,0.0197601,0.00278473,0.00244141,0.0239944,0.00442505,0.0236893,0.0115585,-9.97986,0.0167084,0.000991821,0.00366211,-0.00545502,0.0194931,-0.00419617,0.0101089,-0.0153732
22,6,10.0097,0,0,-2.42928,0.0535448,-0.0768941,0.0519917,0.0697496,-0.0952827,0.141656,-0.127598,-0.0877584,0.0108719,0.02388,-0.000724792,-0.0138474,0.025177,0.00938416,0.0197983,0.0150299,-9.97986,0.013504,-0.00144958,0.00297546,-0.0120926,0.0189972,-0.000495911,0.0111389,-0.0166702
22,7,10.0097,0.000610352,-0.000915527,-2.42959,0.0547655,-0.0759786,0.0495503,0.07036,-0.0955879,0.142572,-0.127292,-0.0868429,0.0122833,0.0224686,0.00289917,-0.0217056,0.020256,0.0127792,0.0283051,0.0166321,-9.97986,0.00999451,-0.00228882,0.00713348,-0.0119781,0.0178146,0.00217438,0.0133133,-0.0148773
22,8,10.0097,0.000915527,0,-2.42928,0.0541551,-0.0759786,0.0522969,0.0694445,-0.0961982,0.142572,-0.126987,-0.0871481,0.0157928,0.0234604,0.00843048,-0.0356674,0.0216293,0.00896454,0.0276947,0.0140762,-9.97986,0.0148392,-0.00301361,0.00637054,-0.00759125,0.0187302,-0.00183105,0.0108337,-0.0169373
22,9,10.0097,0,-0.000762939,-2.42745,0.0544603,-0.0756734,0.0532125,0.0700548,-0.0946723,0.144708,-0.126072,-0.0850118,0.01194,0.0204086,0.0113297,-0.0492096,0.0226212,0.0102234,0.0200272,0.0152588,-9.97986,0.0088501,-0.00392914,0.00297546,-0.0100708,0.0155258,-0.00675201,0.00999451,-0.0155258
23,0,10.0097,-0.000610352,-0.000457764,-2.42806,0.0547655,-0.0759786,0.0562642,0.0697496,-0.0931465,0.145013,-0.126072,-0.0847066,0.0125885,0.0216675,0.0150681,-0.0431824,0.0175476,0.00976563,0.0276566,0.0109482,-9.97986,0.0127029,-0.00038147,0.00705719,-0.0118637,0.0202942,-0.00797272,0.0125885,-0.0116348
23,1,10.0097,0,0.000762939,-2.42562,0.0553758,-0.075063,0.0538228,0.0697496,-0.0937568,0.145624,-0.125156,-0.0847066,0.0122833,0.0191116,0.0133133,-0.0337219,0.0188065,0.00946045,0.0218201,0.0165939,-9.97986,0.0139618,0.00476837,0.00816345,-0.0087738,0.0197601,-0.0173569,0.00869751,-0.0123978
23,2,10.0097,0.00183105,0.000305176,-2.42623,0.0559862,-0.0747579,0.054128,0.07036,-0.0934516,0.145318,-0.126377,-0.0840963,0.0152588,0.0190735,0.0179672,-0.0313187,0.0229645,0.0104904,0.0259018,0.0115204,-9.97986,0.0118637,0.00366211,0.0100327,-0.0115967,0.0224686,-0.0119019,0.00843048,-0.0160599
23,3,10.0097,-0.000610352,0.000305176,-2.42501,0.0565965,-0.0735371,0.0565694,0.0712755,-0.0919257,0.147149,-0.124241,-0.0822652,0.0132751,0.020256,0.0221634,-0.0440216,0.0180054,0.0131989,0.0255585,0.0123215,-9.97986,0.0101852,0.00278473,0.0111771,-0.0118637,0.0257111,-0.00846863,0.00984192,-0.0111771
23,4,10.0097,0.000915527,-0.000305176,-2.42501,0.0569017,-0.0747579,0.0556539,0.0691393,-0.0919257,0.146234,-0.127292,-0.0819601,0.0127029,0.0197601,0.0301743,-0.0539017,0.0216675,0.0139236,0.0234985,0.0124741,-9.97986,0.0106812,0.0112152,0.0114441,-0.0133896,0.0183487,-0.00530243,0.00911713,-0.0143433
23,5,10.0097,0.00396729,-0.00106812,-2.42562,0.055681,-0.073232,0.0535176,0.0706652,-0.0919257,0.145624,-0.124851,-0.0807394,0.0102234,0.0180817,0.0378418,-0.0466156,0.0217819,0.0149155,0.0226593,0.010376,-9.97986,0.0116348,0.00648499,0.0163269,-0.0138474,0.0196457,-0.00137329,0.00747681,-0.00827789
23,6,10.0097,0.000305176,0,-2.4247,0.0553758,-0.0747579,0.0526021,0.0712755,-0.0916206,0.14776,-0.124241,-0.080129,0.0138092,0.0157928,0.0440216,-0.0323105,0.022316,0.0115967,0.0214005,0.0123596,-9.97986,0.013504,-0.00415802,0.00984192,-0.0127792,0.0221252,-0.00118256,0.00930786,-0.00717163
23,7,10.0097,0.00183105,0.000762939,-2.42531,0.0559862,-0.075063,0.0550435,0.0715807,-0.0922309,0.146539,-0.125766,-0.0813497,0.0102234,0.0177002,0.0501633,0.00663757,0.0211334,0.0162506,0.0259781,0.0131226,-9.97986,0.0131226,-0.00778198,0.012207,-0.0177002,0.0172043,-0.00411987,0.00797272,-0.00923157
23,8,10.0097,0.000610352,-0.00106812,-2.42684,0.0575121,-0.073232,0.0535176,0.0407579,-0.0949775,0.148675,-0.126072,-0.0813497,0.0115967,0.0161743,0.0538635,0.0268555,0.0217056,0.0156021,0.025444,0.0164032,-9.97986,0.0191116,-0.0122452,0.0188065,-0.0180817,0.0193405,-0.00453949,0.0102615,-0.00526428
23,9,8.55824,-0.00152588,-0.000762939,-2.42562,0.0565965,-0.0741475,0.0538228,0.0462511,-0.0919257,0.146234,-0.126072,-0.0819601,0.00709534,0.0202179,0.0623322,0.0400162,0.0214767,0.0165939,0.0299072,0.0197983,-9.97986,0.0178909,-0.00156403,0.0148392,-0.0187302,0.0191116,-0.00209808,0.00923157,-0.00492096
24,0,7.59023,0,-0.00106812,-2.42623,0.0553758,-0.0738423,0.0550435,0.0587633,-0.0922309,0.146539,-0.126682,-0.0819601,0.011673,0.0120163,0.064888,0.0891495,0.0222778,0.00946045,0.0275803,0.0135422,-9.97986,0.0133133,0.00244141,0.0133514,-0.0277328,0.0143433,-0.00858307,0.00808716,-0.00564575
24,1,7.52126,-0.000915527,0.000305176,-2.42745,0.0553758,-0.0759786,0.0544332,0.067003,-0.0922309,0.148065,-0.126072,-0.0834859,0.0134277,0.0200653,0.0592804,0.106735,0.0214386,0.0148773,0.0249481,0.0175858,-9.97986,0.0205231,0.00881195,0.0144577,-0.0230408,0.0154877,-0.00648499,0.01194,-0.000915527
24,2,7.93508,0.000305176,-0.000305176,-2.42623,0.0547655,-0.0741475,0.0529073,0.0770738,-0.090705,0.145013,-0.124851,-0.0831808,0.00892639,0.0256348,0.0413513,0.102844,0.0214386,0.0146484,0.0235367,0.0150299,-9.97986,0.0175476,0.00404358,0.0145721,-0.0191116,0.0180054,-0.00938416,0.0104523,-7.62939e-005
24,3,10.0097,0,0.00152588,-2.42684,0.0532396,-0.0768941,0.0547383,0.10515,-0.0897895,0.145624,-0.123935,-0.0834859,0.00717163,0.0344849,0.0333786,0.100899,0.0226974,0.00679016,0.0228882,0.0197983,-9.97986,0.0194931,0.00404358,0.0181961,-0.0164032,0.0197601,-0.00988007,0.00930786,-0.00537872
24,4,10.0097,0,0.00137329,-2.42837,0.0538499,-0.0756734,0.0522969,0.0871447,-0.0946723,0.143487,-0.126072,-0.0868429,0.00724792,0.0353241,0.0319672,0.101776,0.0210571,0.0132751,0.0214386,0.0229263,-9.97986,0.0189972,0.0094223,0.0166321,-0.0105286,0.0178909,-0.00854492,0.00846863,-0.00339508
24,5,10.0097,0.000305176,0.000152588,-2.42959,0.0547655,-0.075063,0.0544332,0.0767687,-0.0952827,0.144708,-0.126682,-0.0877584,0.00770569,0.0402832,0.0255203,0.0972748,0.0154877,0.0144958,0.0228119,0.0281906,-9.97986,0.0229645,0.0111389,0.0169754,-0.00812531,0.0205231,-0.0113297,0.00679016,-0.00286102
24,6,10.0097,0.00183105,0.000305176,-2.42867,0.0532396,-0.0787251,0.0510762,0.0706652,-0.0961982,0.142877,-0.125766,-0.0880636,0.0050354,0.043869,0.00923157,0.085907,0.0196457,0.018425,0.0232315,0.031395,-9.97986,0.0233078,0.00385284,0.019455,-0.0130844,0.0198746,-0.0122452,0.00652313,-0.00293732
24,7,10.0097,0.000305176,-0.000610352,-2.42837,0.0544603,-0.0765889,0.0516866,0.0688341,-0.0949775,0.144098,-0.127598,-0.0865377,0.0075531,0.0378418,-0.00648499,0.0757599,0.0179291,0.0179672,0.0217056,0.035553,-9.97986,0.0217056,-0.000839233,0.0166702,-0.021286,0.0207138,-0.00785828,0.010376,7.62939e-005
24,8,10.0097,0.000305176,-0.000152588,-2.42959,0.0523241,-0.0778096,0.0516866,0.0685289,-0.0946723,0.144403,-0.128208,-0.0868429,0.00972748,0.03582,-0.00789642,0.0592422,0.0205231,0.0186539,0.0225067,0.0349808,-9.97986,0.0183487,-0.0119781,0.0194168,-0.0230408,0.0167847,-0.0117874,0.00743866,-0.000762939
24,9,10.0097,0.00152588,0.000152588,-2.42776,0.0550706,-0.073232,0.0526021,0.07036,-0.0946723,0.143487,-0.126377,-0.0862325,0.0115204,0.0333786,-0.0104141,0.0559616,0.0178146,0.0212097,0.0200653,0.0311661,-9.97986,0.0227356,-0.00667572,0.0177765,-0.0211716,0.0213623,-0.0105286,0.0110626,0.00213623
25,0,10.0097,-0.000305176,-0.000152588,-2.42776,0.0544603,-0.0759786,0.0532125,0.0691393,-0.0937568,0.145013,-0.126682,-0.0844015,0.0119781,0.0292206,-0.00720978,0.0489426,0.0190353,0.0172424,0.0154114,0.0259781,-9.97986,0.0151825,-0.00713348,0.0174713,-0.0172043,0.0177002,-0.00785828,0.00587463,0.00644684
25,1,10.0097,0.00213623,0.000152588,-2.42714,0.0547655,-0.075063,0.0556539,0.0700548,-0.0928413,0.144403,-0.125461,-0.0834859,0.00770569,0.0333786,-0.00644684,0.0422287,0.0205231,0.0168228,0.0106812,0.0265884,-9.97986,0.013504,0.00484467,0.0159073,-0.0198364,0.0165939,-0.0104904,0.00629425,0.00377655
25,2,10.0097,0.0012207,0,-2.42714,0.055681,-0.0778096,0.0532125,0.0685289,-0.0928413,0.145318,-0.124546,-0.0834859,0.00759125,0.0326157,0.00202179,0.0372314,0.0160599,0.0174332,0.0094223,0.0199127,-9.97986,0.00888824,0.00350952,0.0151443,-0.0264359,0.0155258,-0.0117874,0.00499725,0.00583649
25,3,10.0097,0.000305176,0.000152588,-2.42501,0.0565965,-0.0744527,0.0550435,0.0718859,-0.0922309,0.146844,-0.124546,-0.0822652,0.0121307,0.0284195,0.010376,0.028801,0.0165176,0.0219345,0.0111008,0.0153732,-9.97986,0.00907898,0.00461578,0.0122833,-0.0236511,0.0151443,-0.00972748,0.00717163,0.00900269
25,4,10.0097,-0.000305176,0.00152588,-2.4244,0.0559862,-0.0735371,0.0553487,0.0697496,-0.0891792,0.146844,-0.125156,-0.0816549,0.0110626,0.0295258,0.0228882,0.0175095,0.0153732,0.0190735,0.0185013,0.0124741,-9.97986,0.00862122,0.00244141,0.0209808,-0.024147,0.0180054,-0.0094986,0.0062561,0.00801086
25,5,10.0097,0,0,-2.42562,0.055681,-0.0723164,0.0550435,0.0718859,-0.0913154,0.147455,-0.124851,-0.0816549,0.0126266,0.0363541,0.026474,0.0156784,0.0174713,0.0203323,0.0196838,0.0111389,-9.97986,0.0113297,-0.00701904,0.0150299,-0.021553,0.0148392,-0.0043869,0.00492096,0.0108719
25,6,10.0097,0.0012207,0.000152588,-2.42562,0.055681,-0.0744527,0.0535176,0.0718859,-0.0922309,0.14776,-0.124241,-0.0813497,0.0153732,0.046196,0.0366974,0.00961304,0.0153351,0.0185776,0.0215149,0.0130463,-9.97986,0.0125885,-0.00621796,0.0159454,-0.0211716,0.0174713,0.000343323,0.00461578,0.00808716
25,7,10.0097,0.00152588,0.000762939,-2.42501,0.0559862,-0.0735371,0.0535176,0.0709703,-0.0919257,0.148065,-0.124546,-0.0810445,0.0110626,0.0623322,0.0434113,0.0117493,0.0151062,0.0195694,0.0263596,0.0149155,-9.97986,0.00907898,-0.00816345,0.0163651,-0.0178909,0.0107193,-0.00228882,0.00694275,0.00900269
25,8,10.0097,0.00152588,-0.00152588,-2.42531,0.0559862,-0.0762837,0.0529073,0.0413683,-0.0952827,0.146539,-0.126377,-0.0810445,0.0123596,0.0751114,0.0494766,0.00968933,0.0145721,0.0200272,0.028801,0.017128,-9.97986,0.00679016,-0.0192642,0.0180054,-0.0130844,0.0177383,-0.00396729,0.00667572,0.0088501
25,9,8.50636,-0.0012207,-0.000610352,-2.42653,0.0569017,-0.0738423,0.054128,0.0471666,-0.0931465,0.146844,-0.127292,-0.0822652,0.0147247,0.088501,0.0541306,0.00724792,0.0141144,0.0251007,0.0376892,0.00926971,-9.97986,0.00789642,-0.0114059,0.0156784,-0.0123215,0.0151825,-0.0111008,0.00801086,0.0087738
26,0,7.54842,0,-0.000305176,-2.42531,0.0559862,-0.0744527,0.0544332,0.058153,-0.0928413,0.145929,-0.125766,-0.0828756,0.0139236,0.0669098,0.0359726,0.00427246,0.0109863,0.0248337,0.042305,0.0133514,-9.97986,0.00724792,-0.00720978,0.0116348,-0.0117493,0.0217438,-0.0165939,0.0107574,0.00358582
26,1,7.44374,-0.000915527,-0.000762939,-2.42684,0.0547655,-0.0720113,0.054128,0.067003,-0.0928413,0.145013,-0.125766,-0.0834859,0.00804901,0.030632,0.0271606,0.00038147,0.0149918,0.0210953,0.0435257,0.0151062,-9.97986,0.0105286,-0.00858307,0.0172806,-0.0164413,0.0239944,-0.0166321,0.0119019,0.00293732
26,2,7.87831,0.000610352,0.000457764,-2.42745,0.0544603,-0.0735371,0.0538228,0.0767687,-0.090705,0.144708,-0.125766,-0.0837911,0.00972748,0.0174713,0.0163651,-0.00404358,0.0127411,0.0224686,0.0419998,0.0137329,-9.97986,0.013237,-0.00637054,0.0115967,-0.0220871,0.0275421,-0.0216675,0.0120926,0.00335693
26,3,10.0097,0.00152588,0.00106812,-2.42684,0.0541551,-0.0759786,0.054128,0.105455,-0.0903999,0.143792,-0.123325,-0.0844015,0.0127792,0.0200272,0.00843048,-0.00686646,0.0107956,0.019455,0.0404739,0.0101852,-9.97986,0.0172043,-0.00419617,0.011673,-0.027504,0.0272751,-0.0118256,0.0152588,0.00358582
26,4,10.0097,0.00274658,0.00137329,-2.4302,0.0535448,-0.075063,0.0519917,0.0868395,-0.094062,0.144098,-0.127292,-0.0859274,0.00919342,0.00114441,0.00431061,-0.00843048,0.00762939,0.0243378,0.0445175,0.00556946,-9.97986,0.0206375,-0.00339508,0.0147247,-0.0259781,0.0214767,-0.00110626,0.0168228,0.00476837
26,5,10.0097,-0.00183105,0.000762939,-2.42928,0.0520189,-0.0771993,0.0516866,0.075548,-0.0943672,0.143182,-0.126377,-0.0871481,0.0112534,0.0082016,-0.00392914,-0.0056076,0.0125122,0.0200272,0.038147,0.00530243,-9.97986,0.0156403,-0.00598907,0.0146484,-0.0126648,0.0230408,-0.00389099,0.0122452,0.00427246
26,6,10.0097,0.00152588,-0.000305176,-2.42867,0.0535448,-0.0759786,0.0522969,0.0709703,-0.0952827,0.145013,-0.126377,-0.0868429,0.00804901,0.0188828,-0.0113297,-0.00556946,0.0114441,0.0190353,0.03685,0.00606537,-9.97986,0.0226212,-0.00427246,0.0132751,-0.00595093,0.0219345,-0.00835419,0.01091,0.00762939
26,7,10.0097,0,0,-2.42898,0.0544603,-0.0744527,0.0538228,0.0706652,-0.094062,0.143792,-0.126987,-0.0865377,0.0112152,0.0108337,-0.0177002,-0.00389099,0.0151825,0.0201035,0.0324249,0.0145721,-9.97986,0.0216675,-0.00106812,0.014267,-0.00484467,0.0219727,-0.00808716,0.010376,0.0069809
26,8,10.0097,0.000305176,-0.000457764,-2.42928,0.0535448,-0.0759786,0.0519917,0.0694445,-0.0949775,0.141351,-0.127292,-0.0874532,0.0108719,-0.0391769,-0.0190735,-0.00278473,0.0108337,0.020752,0.0278473,0.0278854,-9.97986,0.0277328,-0.00511169,0.0154495,0.000152588,0.0209427,-0.00526428,0.0110245,0.0104141
26,9,10.0097,0.000915527,-0.000152588,-2.42806,0.0550706,-0.0756734,0.0504659,0.0688341,-0.0946723,0.144098,-0.126682,-0.0850118,0.00984192,-0.0797272,-0.0189209,-0.000991821,0.0134659,0.0148773,0.0310516,0.0365829,-9.97986,0.0230026,-0.00102997,0.0146103,-0.00141144,0.0170517,0.00213623,0.0112534,0.0126266
27,0,10.0097,-0.0012207,-0.000152588,-2.42806,0.0541551,-0.0741475,0.0522969,0.0685289,-0.0928413,0.145013,-0.125766,-0.0856222,0.0106049,-0.0535202,-0.010376,0.000572205,0.0127792,0.0194931,0.0274658,0.0305557,-9.97986,0.0214005,-0.000801086,0.00995636,-0.00358582,0.0199127,0.00312805,0.0140381,0.0105286
27,1,10.0097,-0.000305176,0,-2.42653,0.055681,-0.0747579,0.054128,0.0691393,-0.0928413,0.145624,-0.126377,-0.0844015,0.0137329,-0.0188828,-0.0031662,0.00343323,0.0134659,0.0194168,0.0282288,0.0257874,-9.97986,0.0202179,-0.00419617,0.0108719,-0.00392914,0.0162125,0.00431061,0.0121689,0.0126648
27,2,10.0097,0.000610352,-0.000457764,-2.42806,0.0547655,-0.0744527,0.0547383,0.0694445,-0.0937568,0.145624,-0.125766,-0.0837911,0.0136185,0.00457764,0.00427246,0.00350952,0.0126266,0.0193405,0.0276947,0.0178528,-9.97986,0.0209427,-0.00152588,0.0138855,-0.00408173,0.017128,0.0102234,0.0148773,0.0139236
27,3,10.0097,0,0.000305176,-2.42714,0.0553758,-0.0723164,0.054128,0.0718859,-0.0916206,0.145624,-0.124851,-0.0819601,0.0102615,0.00671387,0.00896454,0.000648499,0.0164032,0.0170135,0.0229645,0.0125504,-9.97986,0.0177002,-0.00137329,0.00835419,-0.000686646,0.0175858,0.013237,0.0135422,0.0136948
27,4,10.0097,0.0012207,0.000610352,-2.42592,0.0565965,-0.0741475,0.0565694,0.07036,-0.0928413,0.14776,-0.124241,-0.0810445,0.0103378,0.00720978,0.0167084,-0.00118256,0.0190735,0.0183487,0.0211716,0.00385284,-9.97986,0.0168228,0.00244141,0.0114822,-0.0018692,0.0173569,0.0102234,0.0156021,0.0144577
27,5,10.0097,0.000610352,0,-2.42562,0.0559862,-0.0729268,0.0529073,0.0700548,-0.0910102,0.145318,-0.124546,-0.0810445,0.0116348,0.0156021,0.0189209,-0.00240326,0.0164795,0.02388,0.0221252,0.00160217,-9.97986,0.0129318,-0.00244141,0.0127029,0.000572205,0.0159454,0.00484467,0.0137329,0.0127411
27,6,10.0097,0,0.000152588,-2.4247,0.0565965,-0.0756734,0.0544332,0.0709703,-0.0919257,0.146844,-0.124546,-0.0807394,0.00823975,0.0262451,0.0214005,-0.000991821,0.0139999,0.0204849,0.0208664,0.0107956,-9.97986,0.0111008,-0.00114441,0.00778198,7.62939e-005,0.0175095,0.00419617,0.0117111,0.0115585
27,7,10.0097,0.0012207,0.000762939,-2.42562,0.0565965,-0.0741475,0.0538228,0.07036,-0.0913154,0.147455,-0.123325,-0.0804342,0.0115967,0.0423813,0.0348282,-0.000495911,0.0136185,0.0144196,0.0232315,0.0145721,-9.97986,0.0141525,0.00442505,0.0130463,0.00862122,0.0169754,-0.00282288,0.0150299,0.0100327
27,8,10.0097,0.000610352,-0.000610352,-2.42562,0.0565965,-0.0741475,0.0529073,0.0419786,-0.0946723,0.14776,-0.125766,-0.0825704,0.0114059,0.0555038,0.045166,-0.00900269,0.0161743,0.0214386,0.0239182,0.00988007,-9.97986,0.00812531,-0.00156403,0.010643,0.00915527,0.0165176,-0.0038147,0.0164032,0.0153732
27,9,8.71785,0,-0.000610352,-2.42501,0.0562914,-0.0759786,0.0535176,0.047777,-0.0937568,0.14776,-0.125156,-0.0813497,0.01194,0.0664902,0.0522614,-0.01297,0.0123978,0.0166321,0.0197983,0.00724792,-9.97986,0.00778198,-0.0031662,0.00850677,0.00915527,0.0159836,-0.00457764,0.0135422,0.0130463
28,0,7.83345,0.00152588,-0.000610352,-2.42653,0.0553758,-0.0741475,0.0538228,0.058153,-0.0919257,0.146539,-0.125461,-0.0828756,0.01194,0.0814056,0.0549316,-0.0118256,0.0144196,0.0180817,0.0194931,0.00717163,-9.97986,0.00190735,-0.00324249,0.00720978,0.00900269,0.0181198,-0.00366211,0.0147247,0.0151062
28,1,7.78005,0.000915527,0.000610352,-2.42714,0.0553758,-0.0747579,0.0547383,0.0663927,-0.0913154,0.147149,-0.125766,-0.0837911,0.00946045,0.102959,0.0679398,-0.00843048,0.0156403,0.0123596,0.0224686,-0.00144958,-9.97986,0.00221252,-0.000991821,0.0111008,0.0129318,0.0151062,0.00236511,0.0154114,0.0159454
28,2,8.21553,0.000305176,0.000457764,-2.42592,0.0553758,-0.075063,0.0550435,0.0761583,-0.0900947,0.145929,-0.125156,-0.0828756,0.0166702,0.123978,0.0580978,-0.00621796,0.014801,0.0137329,0.0198746,-0.00236511,-9.97986,0.00244141,0.00324249,0.0113297,0.0124359,0.0185013,0.000534058,0.0141907,0.013504
28,3,10.0097,0.000305176,0.00152588,-2.42714,0.0541551,-0.075063,0.0547383,0.106066,-0.0897895,0.144403,-0.123325,-0.0847066,0.0113678,0.131721,0.0315094,-0.00457764,0.0112534,0.0125504,0.0222397,-0.00343323,-9.97986,0.00499725,0.00530243,0.0114059,0.00934601,0.0128555,0.00148773,0.015564,0.0121307
28,4,10.0097,-0.000610352,0.00137329,-2.42959,0.0535448,-0.0765889,0.0501607,0.0850084,-0.095893,0.14013,-0.127292,-0.0868429,0.016861,0.0586319,-0.0119781,0.00038147,0.0144958,0.00968933,0.0217438,-0.00267029,-9.97986,0.021019,0.0031662,0.0138474,0.00835419,0.0162506,0.00278473,0.0122833,0.0164413
28,5,10.0097,-0.0012207,0.000762939,-2.42928,0.0532396,-0.075063,0.0522969,0.0752428,-0.0955879,0.140741,-0.126682,-0.0868429,0.0110245,-0.0756073,-0.0508881,-0.00335693,0.0156403,0.00946045,0.0209427,0.0037384,-9.97986,0.0317764,0.0025177,0.0094223,0.00938416,0.0162125,-0.0037384,0.0145721,0.0147247
28,6,10.0097,0.000610352,0,-2.4305,0.0529344,-0.0759786,0.0513814,0.0715807,-0.094062,0.141351,-0.126377,-0.0868429,0.0101089,-0.152702,-0.0698471,-0.00312805,0.0133896,0.00976563,0.0140381,0.00522614,-9.97986,0.0370789,0.0056076,0.00770569,0.0147247,0.0143814,-0.0122452,0.0140762,0.0127029
28,7,10.0097,0.0012207,0.000305176,-2.42898,0.0538499,-0.0762837,0.050771,0.0718859,-0.0937568,0.144098,-0.127903,-0.0865377,0.0120926,-0.133553,-0.0704956,-0.000267029,0.018425,0.0120544,0.0216675,0.0136948,-9.97986,0.043602,0.0030899,0.00682831,0.0154495,0.0126648,-0.00934601,0.0163269,0.0139999
28,8,10.0097,0.0012207,-0.000610352,-2.42898,0.0544603,-0.0753682,0.0513814,0.0697496,-0.0965034,0.144098,-0.127292,-0.0865377,0.0119781,-0.0968552,-0.0593185,0.00240326,0.0141907,0.00671387,0.0187683,0.0153351,-9.97986,0.0354767,0.000953674,0.00801086,0.0155258,0.0144196,0.00228882,0.0131607,0.0130463
28,9,10.0097,0.000305176,-0.000457764,-2.42745,0.0541551,-0.0753682,0.0532125,0.07036,-0.0937568,0.145624,-0.126987,-0.0856222,0.0102615,-0.0615311,-0.0359726,-0.00278473,0.0113297,0.00793457,0.0193024,0.0128555,-9.97986,0.0352859,-0.00339508,0.0117111,0.0188446,0.0133896,0.0102997,0.0139618,0.0126648
29,0,10.0097,-0.000305176,0.000305176,-2.42714,0.0541551,-0.075063,0.0532125,0.0682238,-0.0946723,0.145929,-0.126072,-0.0847066,0.0148773,-0.0373077,-0.020256,0.00495911,0.0177383,0.00511169,0.0197601,0.0170898,-9.97986,0.0276566,0.00289917,0.00789642,0.0194931,0.0130081,0.016098,0.0120926,0.0166321
29,1,10.0097,0.000305176,-0.000152588,-2.42684,0.055681,-0.0756734,0.054128,0.0691393,-0.0931465,0.145013,-0.125766,-0.085317,0.0123978,-0.0228119,-0.00892639,-0.000610352,0.0180817,0.00144958,0.0168991,0.0146484,-9.97986,0.0233078,0.00267029,0.0115204,0.0185394,0.00907898,0.0178909,0.0108337,0.0122452
29,2,10.0097,0,-0.000305176,-2.42684,0.0544603,-0.0744527,0.0544332,0.0697496,-0.0931465,0.145013,-0.126072,-0.0840963,0.0143814,-0.0131226,0.00328064,0.00289917,0.0162888,0.0050354,0.0206757,0.0141907,-9.97986,0.0231934,0.0044632,0.0103378,0.0181198,0.0104523,0.0170898,0.0163651,0.0125504
29,3,10.0097,0.00183105,0.000610352,-2.4244,0.0559862,-0.0738423,0.0535176,0.0709703,-0.0916206,0.147149,-0.124241,-0.0816549,0.0101471,-0.00656128,-0.000419617,0.000991821,0.0156784,-0.000915527,0.0151825,0.0234222,-9.97986,0.0197601,0.00156403,0.0159073,0.022316,0.0125885,0.0215912,0.0113678,0.0156021
29,4,10.0097,0.000305176,0.000305176,-2.42531,0.0559862,-0.0735371,0.0532125,0.0706652,-0.0913154,0.147149,-0.124241,-0.0816549,0.0123978,-0.000991821,0.0103378,0.00488281,0.0136566,0.00286102,0.0135422,0.0197601,-9.97986,0.0200272,0.00549316,0.0117111,0.0160217,0.0087738,0.0199509,0.0106812,0.016098
29,5,10.0097,0,-0.000457764,-2.42531,0.0562914,-0.0741475,0.0550435,0.0706652,-0.0910102,0.147149,-0.12302,-0.0807394,0.00988007,0.00629425,0.01297,0.00499725,0.0151825,7.62939e-005,0.017662,0.0208282,-9.97986,0.0174332,0.00637054,0.0148392,0.0101471,0.00999451,0.0119781,0.0101089,0.0177383
29,6,10.0097,0.00152588,-0.000152588,-2.4247,0.0559862,-0.0735371,0.0550435,0.0724962,-0.090705,0.147149,-0.123935,-0.0810445,0.00934601,0.00816345,0.0141907,0.0031662,0.0132751,0.000534058,0.0177002,0.0215912,-9.97986,0.0183105,-0.000572205,0.0154877,0.0193787,0.0121307,0.0123596,0.0115204,0.0166321
29,7,10.0097,0.00244141,0.000152588,-2.4247,0.0569017,-0.0738423,0.0550435,0.0697496,-0.0919257,0.146234,-0.124241,-0.0813497,0.01091,0.0162888,0.0198746,0.00389099,0.0167847,7.62939e-005,0.0211716,0.0261688,-9.97986,0.0161362,0.00514984,0.00766754,0.0162506,0.00961304,0.0112915,0.0138092,0.0106049
29,8,10.0097,0.00152588,-0.00106812,-2.42592,0.0569017,-0.0738423,0.0538228,0.0416735,-0.0961982,0.145318,-0.126987,-0.0816549,0.00900269,0.0169754,0.0196838,0.00831604,0.01297,-0.00198364,0.0192642,0.0240707,-9.97986,0.0128555,0.0030899,0.00865936,0.00808716,0.0118256,0.0139236,0.00789642,0.0143051
29,9,8.73647,0.000610352,-0.00106812,-2.42531,0.0559862,-0.0744527,0.054128,0.0480822,-0.094062,0.145929,-0.126072,-0.0825704,0.0104141,0.0177383,0.0205231,0.00614166,0.0171661,-0.00255585,0.019722,0.0221634,-9.97986,0.0131989,0.00156403,0.00682831,0.0153351,0.010643,0.0146866,0.0103378,0.0146484
30,0,7.82125,-0.000915527,0.000305176,-2.42501,0.0559862,-0.0744527,0.0553487,0.0584581,-0.0916206,0.145929,-0.126072,-0.0831808,0.0100327,0.0208282,0.0257874,0.00606537,0.0149918,0.00156403,0.0215912,0.0211334,-9.97986,0.0144958,0.00232697,0.00679016,0.027771,0.0132751,0.0121307,0.00801086,0.0136185
30,1,7.76052,0,0.000457764,-2.42592,0.0559862,-0.0738423,0.0535176,0.0654772,-0.0925361,0.145013,-0.125461,-0.0828756,0.0128174,0.0257111,0.0287247,0.00484467,0.0108337,-0.00164032,0.0222778,0.0273132,-9.97986,0.0120544,-3.8147e-005,0.00747681,0.0293732,0.00892639,0.00827789,0.01091,0.0131607
30,2,8.20912,0.00152588,0.000457764,-2.42623,0.0550706,-0.0753682,0.0544332,0.0776842,-0.0919257,0.145013,-0.124851,-0.0837911,0.0111389,0.0258255,0.0233841,0.00881195,0.0114059,-0.00183105,0.0233841,0.0288773,-9.97986,0.0125885,0,0.00354767,0.0251007,0.0106049,0.00648499,0.00293732,0.0133514
30,3,10.0097,-0.000305176,0.0012207,-2.42806,0.0541551,-0.0753682,0.054128,0.10576,-0.0891792,0.145318,-0.12363,-0.0847066,0.0141907,0.0301743,0.0254059,0.00587463,0.0069809,0.00183105,0.0244522,0.0378036,-9.97986,0.0136185,-0.00347137,0.00782013,0.0268173,0.0155258,0.00549316,0.00827789,0.0100708
30,4,10.0097,0,0.000762939,-2.43081,0.0535448,-0.0753682,0.0516866,0.0850084,-0.0949775,0.143182,-0.126987,-0.0865377,0.0143051,0.0281525,0.0293732,0.00431061,0.00839233,-0.00415802,0.0241089,0.0389481,-9.97986,0.00869751,-0.00392914,0.00720978,0.0235748,0.0131989,0.00038147,0.00686646,0.00881195
30,5,10.0097,-0.0012207,-0.000152588,-2.42867,0.0541551,-0.0765889,0.0513814,0.0746324,-0.0952827,0.143487,-0.127598,-0.0871481,0.0143051,0.0284576,0.0265884,0.00835419,0.0115967,7.62939e-005,0.0284195,0.0474167,-9.97986,0.0111389,-0.00358582,0.00530243,0.0185013,0.0148392,-0.0018692,0.00286102,0.00961304
30,6,10.0097,0,-0.000610352,-2.42928,0.0541551,-0.075063,0.0526021,0.0709703,-0.0946723,0.143182,-0.127598,-0.0877584,0.0112152,0.0304031,0.0297928,0.00896454,0.00583649,-7.62939e-005,0.0238037,0.0392151,-9.97986,0.00808716,-0.00385284,0.00301361,0.0169754,0.0112915,-0.00835419,0.00255585,0.0103378
30,7,10.0097,0.000610352,-0.0012207,-2.42837,0.0541551,-0.0753682,0.0513814,0.07036,-0.0952827,0.144708,-0.127292,-0.0871481,0.0147629,0.0355148,0.0297165,0.00747681,0.00659943,-0.0037384,0.0198364,0.0258636,-9.97986,0.0116348,-0.00507355,0.00713348,0.00461578,0.00995636,-0.00648499,0.00354767,0.00915527
30,8,10.0097,0.000610352,-0.0012207,-2.42959,0.0553758,-0.0756734,0.0526021,0.0694445,-0.0937568,0.142877,-0.127903,-0.0865377,0.0109482,0.0370789,0.0315094,0.0117111,0.00778198,-0.0037384,0.0273895,0.0237274,-9.97986,0.0117111,-0.00164032,0.00164032,-0.00274658,0.00843048,-0.00667572,0.000915527,0.0123978
30,9,10.0097,-0.000305176,-0.000152588,-2.42806,0.0547655,-0.0744527,0.0532125,0.0694445,-0.0943672,0.143487,-0.126682,-0.0856222,0.0136566,0.0385284,0.0331879,0.00545502,0.012207,0.00125885,0.0248718,0.0284576,-9.97986,0.0103378,-0.000114441,0.00167847,-3.8147e-005,0.0116348,-0.00118256,0.00473022,0.0121307
31,0,10.0097,0.000610352,0.000152588,-2.42776,0.0547655,-0.0744527,0.0529073,0.0700548,-0.0931465,0.144403,-0.126072,-0.085317,0.0106049,0.0359344,0.0302505,0.0116348,0.00892639,-0.0018692,0.0228119,0.0136185,-9.97986,0.0118637,0.000648499,0.00106812,0.00350952,0.0109863,-0.0050354,0.00782013,0.00865936
31,1,10.0097,-0.000915527,0.000610352,-2.42806,0.0547655,-0.075063,0.0532125,0.0691393,-0.0931465,0.145318,-0.126072,-0.0844015,0.0114822,0.0406647,0.0295258,0.00743866,0.0144577,-0.00232697,0.022583,-0.00370026,-9.97986,0.0123215,-0.00286102,0.0031662,0.00392914,0.0127029,0.000228882,0.00934601,0.0104523
31,2,10.0097,0,0.000305176,-2.42745,0.055681,-0.0735371,0.0535176,0.0697496,-0.0934516,0.146234,-0.124851,-0.0847066,0.00572205,0.0394058,0.0323868,0.0117493,0.00995636,-0.00350952,0.024147,-0.00965118,-9.97986,0.0123978,-0.00335693,0.00156403,0.000991821,0.0094223,-0.00305176,0.00846863,0.0100708
31,3,10.0097,0.000305176,0.000152588,-2.4244,0.0562914,-0.0738423,0.0556539,0.0709703,-0.0916206,0.146539,-0.126072,-0.0825704,0.00728607,0.044136,0.0348663,0.0113297,0.0120163,3.8147e-005,0.0204468,0.00354767,-9.97986,0.0075531,-0.00518799,0,-0.00461578,0.0132751,-0.0075531,0.0109863,0.00995636
31,4,10.0097,0.00244141,0,-2.4244,0.0559862,-0.0747579,0.0550435,0.0718859,-0.0913154,0.147149,-0.12363,-0.0819601,0.0108719,0.0387955,0.0322342,0.0121689,0.010643,0.000190735,0.0181198,0.00743866,-9.97986,0.0111389,-0.00190735,0.00411987,0.00389099,0.0158691,-0.00442505,0.0126648,0.00923157
31,5,10.0097,0.00183105,0.000610352,-2.42531,0.0572069,-0.0738423,0.0550435,0.07036,-0.0928413,0.146234,-0.124546,-0.0813497,0.00782013,0.0400925,0.0295258,0.00873566,0.0189209,0.00339508,0.0226974,0.0117874,-9.97986,0.00988007,-0.00667572,0.00232697,0.00797272,0.017662,-0.0133514,0.0127411,0.00896454
31,6,10.0097,-0.000915527,-0.000152588,-2.4247,0.0550706,-0.0744527,0.0562642,0.0712755,-0.0916206,0.147149,-0.12363,-0.0807394,0.00892639,0.044632,0.030899,0.0149918,0.0157166,0.0030899,0.0253296,0.013237,-9.97986,0.00801086,-0.00339508,0.00183105,0.00431061,0.0175095,-0.0155258,0.0152206,0.0106049
31,7,10.0097,0.000305176,0.000305176,-2.42623,0.0569017,-0.0738423,0.0547383,0.0712755,-0.0913154,0.145624,-0.123935,-0.0810445,0.00743866,0.0399399,0.0317764,0.0143433,0.0124741,-0.00213623,0.0210953,0.0167084,-9.97986,0.00667572,-0.00179291,0.000686646,0.00801086,0.0136566,-0.0137711,0.0158691,0.00549316
31,8,10.0097,-0.000610352,-0.00106812,-2.42684,0.0562914,-0.075063,0.0526021,0.0413683,-0.0949775,0.146844,-0.126377,-0.0819601,0.0113678,0.0415802,0.0309372,0.0141907,0.0138855,0.000801086,0.0161362,0.0167084,-9.97986,0.0094986,0.00453949,-0.000228882,0.0156784,0.0130081,-0.00713348,0.0170135,0.00595093
31,9,8.55886,0.000915527,-0.000457764,-2.42501,0.0562914,-0.0747579,0.0544332,0.0474718,-0.0934516,0.145318,-0.129429,-0.0813497,0.0118256,0.0423813,0.0280762,0.0146103,0.0150299,-0.000839233,0.011673,0.0139618,-9.97986,0.0100327,-0.00377655,0.00247955,0.0192261,0.0174332,-0.00629425,0.0196838,0.00492096
32,0,7.6006,0.000915527,-0.000457764,-2.42684,0.055681,-0.0747579,0.054128,0.0590685,-0.0931465,0.146844,-0.126377,-0.0822652,0.00972748,0.0384903,0.030365,0.0136948,0.0141525,0.00190735,0.0124741,0.0199127,-9.97986,0.0125122,-0.00511169,0,0.0191498,0.0151443,-0.0101852,0.0212479,0.00541687
32,1,7.54079,0.000610352,-0.000610352,-2.42562,0.0553758,-0.0744527,0.0547383,0.0663927,-0.0916206,0.145624,-0.126072,-0.0822652,0.0102615,0.0395584,0.0263596,0.0119019,0.0136948,-0.000267029,0.0114822,0.0187683,-9.97986,0.01194,-0.00450134,0.00179291,0.0203323,0.0140381,-0.00896454,0.0205231,0.00480652
32,2,7.98879,-0.0012207,0.000762939,-2.42623,0.0547655,-0.0747579,0.0538228,0.0776842,-0.0913154,0.144098,-0.125461,-0.0837911,0.0135422,0.0444794,0.0324631,0.0182343,0.0180054,0.00164032,0.0133133,0.0250626,-9.97986,0.014801,0.000572205,0.00164032,0.0293732,0.0198746,-0.00385284,0.028038,0.00198364
32,3,10.0097,0.00305176,0.00228882,-2.42653,0.0550706,-0.0753682,0.0538228,0.106981,-0.0885688,0.145318,-0.123935,-0.0825704,0.00514984,0.0384521,0.0282288,0.00629425,0.0183487,-0.00118256,0.00988007,0.0146484,-9.97986,0.0094986,-0.00999451,-3.8147e-005,0.0289917,0.0120544,-0.00488281,0.0293732,0.00408173
32,4,10.0097,0.000915527,0.00167847,-2.42989,0.0523241,-0.0765889,0.0501607,0.0859239,-0.0943672,0.143487,-0.125766,-0.0862325,0.0128555,0.0441742,0.0324249,0.0174332,0.020256,0.00411987,0.0162506,0.0226212,-9.97986,0.0127792,-0.0126266,0.00389099,0.0376892,0.0160217,-0.00976563,0.0289917,0.00511169
32,5,10.0097,0.0201416,0.000305176,-2.42989,0.0523241,-0.0762837,0.0513814,0.0749376,-0.0943672,0.155389,-0.126377,-0.0871481,0.0130463,0.0412369,0.0282669,0.0157166,0.0147629,-0.000953674,0.0165176,0.0225067,-9.97986,0.0102997,-0.0136185,0.00324249,0.0414276,0.0185776,-0.0152588,0.0292587,0.00274658
32,6,10.0097,0.00244141,0.000305176,-2.42928,0.0538499,-0.0762837,0.0513814,0.0718859,-0.0946723,0.14837,-0.127292,-0.0862325,0.0138474,0.043869,0.0279617,0.0153732,0.0152588,0.00576019,0.0276566,0.0223923,-9.97986,0.015564,-0.0043869,0.0043869,0.0426483,0.0190353,-0.0119781,0.029068,0.00778198
32,7,10.0097,0.000305176,-0.000610352,-2.42867,0.0538499,-0.0759786,0.0553487,0.0697496,-0.0949775,0.146844,-0.127292,-0.0874532,0.0133133,0.0403976,0.0279236,0.0157166,0.0150681,0.00522614,0.0251007,0.0244522,-9.97986,0.0114441,-0.00320435,0.0043869,0.041008,0.0208282,-0.00850677,0.0300217,0.00156403
32,8,10.0097,0.000915527,0,-2.42959,0.0535448,-0.0756734,0.0510762,0.0697496,-0.095893,0.143792,-0.126072,-0.0865377,0.00946045,0.0410843,0.0285339,0.0167465,0.0159073,0.00297546,0.0253677,0.0229645,-9.97986,0.0120926,-0.00408173,0.0075531,0.0484848,0.0226974,-0.00259399,0.0333023,0.00282288
32,9,10.0097,0.0012207,-0.000305176,-2.42837,0.0541551,-0.0756734,0.0526021,0.0706652,-0.0937568,0.144098,-0.126987,-0.0862325,0.0129318,0.0413895,0.0213242,0.0131989,0.0191116,0.00514984,0.0226974,0.016098,-9.97986,0.010643,0.00228882,0.00900269,0.0504303,0.0234604,0.00289917,0.0366974,0.00289917
33,0,10.0097,0.00152588,0,-2.42837,0.0541551,-0.075063,0.0553487,0.0688341,-0.0937568,0.145929,-0.125766,-0.085317,0.0118256,0.0407028,0.0275421,0.0167084,0.0157547,0.00968933,0.0148392,0.0242615,-9.97986,0.0111008,0.00545502,0.00461578,0.0409698,0.0175095,0.0025177,0.0335312,0.000457764
33,1,10.0097,0,0.000915527,-2.42837,0.0541551,-0.0753682,0.0532125,0.0697496,-0.0934516,0.144403,-0.125766,-0.0837911,0.00854492,0.0341034,0.0309753,0.0167465,0.0134659,0.00427246,0.0173187,0.017662,-9.97986,0.0127411,0.00587463,0.00450134,0.0447464,0.0201797,0.00408173,0.0364304,0.00362396
33,2,10.0097,-0.000305176,0.000152588,-2.42623,0.055681,-0.0738423,0.0538228,0.07036,-0.0922309,0.145013,-0.125461,-0.0837911,0.0107193,0.0325775,0.0275421,0.0157928,0.0157547,0.00736237,0.0156784,0.0183487,-9.97986,0.00705719,0.00831604,0.00679016,0.0415421,0.0195313,0.00247955,0.0377274,-0.000648499
33,3,10.0097,0.00152588,0.000305176,-2.42531,0.0559862,-0.0741475,0.0584004,0.0700548,-0.0925361,0.146539,-0.125766,-0.0822652,0.00637054,0.0320435,0.0246048,0.0143051,0.0210953,0.0037384,0.0196838,0.0224304,-9.97986,0.0125504,0.00167847,0.0131607,0.0391388,0.0218201,-0.000152588,0.0391388,0.00202179
33,4,10.0097,0.00152588,-0.000457764,-2.42379,0.0565965,-0.0741475,0.0547383,0.07036,-0.0916206,0.147455,-0.123325,-0.0816549,0.00846863,0.0321579,0.0259018,0.0143433,0.0166702,0.00404358,0.020256,0.0159836,-9.97986,0.0103378,0.00797272,0.0107193,0.0358963,0.017395,-0.00602722,0.0405502,-0.000648499
33,5,10.0097,0.0012207,-0.000457764,-2.42592,0.0562914,-0.0744527,0.054128,0.0724962,-0.0910102,0.146844,-0.124241,-0.0819601,0.0142288,0.0337219,0.0302887,0.016098,0.0202942,0.00595093,0.0183868,0.022316,-9.97986,0.00869751,0.0087738,0.00743866,0.0226593,0.0165939,-0.00617981,0.0424957,-0.00244141
33,6,10.0097,-0.000305176,-0.000152588,-2.42501,0.0569017,-0.0738423,0.054128,0.0697496,-0.0919257,0.147455,-0.124546,-0.0804342,0.0151062,0.0373077,0.0285339,0.0149918,0.017662,0.00343323,0.0228882,0.0177765,-9.97986,0.00881195,0.00900269,0.00793457,0.0224686,0.017395,-0.00759125,0.0458908,-0.00263214
33,7,10.0097,-0.000305176,0.000152588,-2.4247,0.0562914,-0.0747579,0.0553487,0.0706652,-0.0922309,0.14837,-0.123935,-0.0810445,0.0118256,0.0307465,0.0251389,0.0164795,0.0196075,0.00450134,0.0199509,0.0249863,-9.97986,0.00114441,0.00202179,0.00911713,0.0194931,0.019989,-0.00724792,0.0416946,-0.00217438
33,8,10.0097,0.00152588,-0.00137329,-2.42562,0.0562914,-0.0744527,0.0535176,0.0401476,-0.0952827,0.14776,-0.125766,-0.0822652,0.0109482,0.0337219,0.0291061,0.0164795,0.0246811,0.00453949,0.0196838,0.0174713,-9.97986,0.00453949,0.00171661,0.00782013,0.0262451,0.0170517,-0.0128555,0.0476074,-0.00217438
33,9,8.50484,-0.000915527,-0.000610352,-2.42531,0.055681,-0.0735371,0.0535176,0.0486925,-0.0925361,0.146234,-0.126377,-0.0816549,0.0119019,0.0289917,0.0237656,0.017662,0.0175476,0.0018692,0.0250244,0.0215149,-9.97986,0.00572205,0.00164032,0.00926971,0.0308228,0.01297,-0.0195313,0.0487518,-0.00213623
34,0,7.61464,0.000610352,-0.000457764,-2.42623,0.0553758,-0.0744527,0.0538228,0.0584581,-0.0922309,0.145318,-0.127292,-0.0828756,0.00789642,0.0268936,0.0212097,0.0138092,0.0203705,0.00457764,0.0270081,0.0235748,-9.97986,0.00617981,7.62939e-005,0.0141144,0.0267792,0.0165558,-0.0166321,0.0445557,-0.00335693
34,1,7.59175,0.000610352,0,-2.42714,0.055681,-0.0738423,0.0535176,0.0657823,-0.0934516,0.145929,-0.125461,-0.0831808,0.0122833,0.0281525,0.0286484,0.0152206,0.0227356,0.00282288,0.0344467,0.0168991,-9.97986,0.00705719,0.000991821,0.00892639,0.033493,0.0158691,-0.0152206,0.0515366,-0.00255585
34,2,8.084,0,0.000762939,-2.42684,0.0550706,-0.0753682,0.0544332,0.0776842,-0.090705,0.145013,-0.124851,-0.0828756,0.00965118,0.027504,0.0239563,0.0139236,0.0256348,0.00659943,0.0387192,0.0216293,-9.97986,0.0121307,-0.000648499,0.0136566,0.0353241,0.0139618,-0.0157928,0.0488663,-0.00526428
34,3,10.0097,-0.000610352,0.00137329,-2.42714,0.0541551,-0.075063,0.0550435,0.107897,-0.0897895,0.143487,-0.12363,-0.0844015,0.0115204,0.0284195,0.0223541,0.014534,0.0232697,0.00110626,0.0257111,0.0214386,-9.97986,0.0139999,-0.00556946,0.013237,0.0262451,0.0151443,-0.0136566,0.0473785,-0.00484467
34,4,10.0097,0.000610352,-0.000152588,-2.42898,0.0541551,-0.0756734,0.0519917,0.0850084,-0.0946723,0.142267,-0.125766,-0.0868429,0.0101089,0.0308609,0.0222778,0.013237,0.0221252,0.00274658,0.0152206,0.0139999,-9.97986,0.0126648,-0.00240326,0.0159454,0.0204468,0.0075531,-0.0134659,0.0508499,-0.00541687
34,5,10.0097,0.000305176,0,-2.42928,0.0547655,-0.0762837,0.0516866,0.0761583,-0.0946723,0.143182,-0.126682,-0.0874532,0.0152969,0.0243378,0.0193024,0.0137329,0.0246429,0.00217438,0.000190735,0.0186157,-9.97986,0.0193405,-0.00801086,0.0139236,0.0177765,0.00713348,-0.0128555,0.051918,-0.00804901
34,6,10.0097,0.0012207,-0.000457764,-2.42837,0.0529344,-0.0762837,0.0504659,0.0715807,-0.095893,0.144708,-0.126682,-0.0865377,0.0118637,0.0301361,0.0218964,0.0170135,0.0254059,0.00247955,-0.00480652,0.0172424,-9.97986,0.020752,-0.00701904,0.0167465,0.00782013,0.00968933,-0.0163651,0.055542,-0.0126266
34,7,10.0097,0,-0.000305176,-2.42867,0.0538499,-0.0756734,0.0526021,0.0694445,-0.0946723,0.142877,-0.126682,-0.0868429,0.00995636,0.0261688,0.0185394,0.0135422,0.0272369,0.00144958,-0.00431061,0.0179672,-9.97986,0.0199509,-0.00854492,0.018692,0.0103378,0.0147247,-0.0133133,0.0560379,-0.0113297
34,8,10.0097,0.000305176,-0.000457764,-2.42928,0.0532396,-0.0762837,0.0516866,0.0688341,-0.0943672,0.144098,-0.127598,-0.0874532,0.0127411,0.0271606,0.0156403,0.0120544,0.0270844,-0.000305176,-0.00419617,0.0206757,-9.97986,0.0248337,-0.0131989,0.0162506,0.00869751,0.0153351,-0.00843048,0.0548553,-0.0133133
34,9,10.0097,-0.000305176,0.000457764,-2.42806,0.0538499,-0.0756734,0.0544332,0.0694445,-0.0943672,0.144403,-0.126987,-0.085317,0.0109482,0.0265121,0.0174713,0.0101471,0.0208664,0.00293732,-0.00335693,0.0186157,-9.97986,0.0179672,-0.00148773,0.0188065,0.0195694,0.0162506,-0.00980377,0.0540924,-0.0170135
35,0,10.0097,-0.000610352,0.000762939,-2.42714,0.0550706,-0.075063,0.0538228,0.0700548,-0.094062,0.144403,-0.126987,-0.0847066,0.0118637,0.0315857,0.0190735,0.0128555,0.0205994,0.00717163,0.00740051,0.0213623,-9.97986,0.0131989,-0.0037384,0.0170517,0.0297546,0.0162506,-0.00774384,0.0531387,-0.0148773
35,1,10.0097,0.00183105,0.000762939,-2.42806,0.0547655,-0.0747579,0.0519917,0.0700548,-0.0943672,0.144403,-0.125461,-0.0834859,0.00995636,0.0284576,0.0154877,0.0136948,0.0217056,0.00610352,0.0156403,0.0178528,-9.97986,0.0185394,-0.0012207,0.0205231,0.0415421,0.0197983,-0.00480652,0.0520325,-0.0100708
35,2,10.0097,0.000305176,0.000915527,-2.42592,0.0553758,-0.075063,0.0535176,0.07036,-0.0928413,0.146539,-0.126987,-0.0847066,0.00732422,0.0247955,0.022316,0.01091,0.020256,0.00377655,0.029068,0.0199509,-9.97986,0.0176239,-0.0025177,0.0244904,0.0465012,0.0227356,-0.0043869,0.057869,-0.011673
35,3,10.0097,-0.00183105,0.000305176,-2.42562,0.0572069,-0.0741475,0.0535176,0.0706652,-0.0922309,0.145929,-0.124851,-0.0828756,0.00442505,0.0231171,0.0182724,0.0119781,0.0214386,0.00522614,0.0366592,0.0304794,-9.97986,0.0140762,-0.00579834,0.0296783,0.044136,0.0219345,-0.00160217,0.0574875,-0.010643
35,4,10.0097,-0.000610352,0,-2.42531,0.0550706,-0.0738423,0.0553487,0.0697496,-0.0922309,0.145929,-0.124851,-0.0810445,0.00144958,0.0273514,0.017128,0.00850677,0.0236511,0.00461578,0.0340271,0.0267029,-9.97986,0.0152206,-0.00663757,0.030098,0.0396347,0.0223923,-0.00278473,0.0553513,-0.0122833
35,5,10.0097,0.000610352,-0.000762939,-2.42501,0.0565965,-0.073232,0.0556539,0.0718859,-0.0925361,0.146844,-0.125156,-0.0810445,-0.00835419,0.0236893,0.0188446,0.00278473,0.0179291,0.00297546,0.021019,0.0222015,-9.97986,0.0165558,-0.001297,0.0275421,0.0372314,0.0220108,0.000991821,0.0565338,-0.00930786
35,6,10.0097,0.0012207,-0.000610352,-2.42501,0.0562914,-0.0747579,0.054128,0.0712755,-0.0913154,0.146234,-0.123935,-0.0810445,-0.016861,0.0270081,0.0173569,0.00259399,0.0193024,0.00713348,0.00659943,0.0255966,-9.97986,0.0197983,-0.000534058,0.0257874,0.0403214,0.0191498,-0.00366211,0.0543594,-0.00736237
35,7,10.0097,-0.0012207,0.00106812,-2.42623,0.0562914,-0.0741475,0.0556539,0.0706652,-0.0913154,0.147149,-0.12363,-0.0810445,-0.00900269,0.0273132,0.0182724,-0.00389099,0.0184631,0.0030899,-0.00217438,0.0263596,-9.97986,0.0156784,0.000152588,0.0281906,0.0374603,0.0184631,-0.0102234,0.0550079,-0.00629425
35,8,10.0097,0.00152588,-0.00228882,-2.42592,0.0565965,-0.0744527,0.0529073,0.0398424,-0.0952827,0.146234,-0.126072,-0.0825704,-0.000915527,0.0282669,0.0228882,-0.010643,0.0193787,0.00179291,0,0.0242996,-9.97986,0.0124359,-0.00164032,0.026474,0.0312042,0.0218582,-0.00953674,0.0583649,-0.00335693
35,9,8.43984,0.0012207,-0.00167847,-2.42592,0.0553758,-0.0744527,0.0550435,0.0465563,-0.0925361,0.146234,-0.126682,-0.0819601,0.00144958,0.0239944,0.0239944,-0.00797272,0.0175858,0.000114441,0.00339508,0.0177765,-9.97986,0.0164795,-0.000762939,0.0282669,0.0268555,0.021553,-0.0127029,0.0580215,-0.00221252
36,0,7.51699,-0.000305176,-0.00137329,-2.42592,0.0569017,-0.0753682,0.0535176,0.0587633,-0.0925361,0.145929,-0.124241,-0.0822652,-0.00850677,0.0269699,0.0257111,-0.0168991,0.0168228,0.000686646,0.00156403,0.0132751,-9.97986,0.0114441,-0.00087738,0.0262451,0.0185394,0.0226974,-0.0174713,0.0584793,0.000953674
36,1,7.48891,0.00213623,-0.000762939,-2.42776,0.0550706,-0.0735371,0.0547383,0.0663927,-0.0922309,0.146844,-0.126377,-0.0834859,-0.0132751,0.028038,0.0264359,-0.0248718,0.0187683,0.00480652,0.00232697,0.0112915,-9.97986,0.0124741,0.000114441,0.0268173,0.0136566,0.0198364,-0.0149155,0.0597382,0.00301361
36,2,7.95125,0.00274658,0.000152588,-2.42684,0.0550706,-0.0747579,0.0544332,0.0789049,-0.0910102,0.144403,-0.125461,-0.0828756,0.00591278,0.0274658,0.0270462,-0.00377655,0.0143051,0.0012207,0.00469208,0.00507355,-9.97986,0.0110245,-0.00137329,0.026207,0.00843048,0.0187683,-0.0195313,0.0547791,-0.00125885
36,3,10.0097,-0.000305176,0.000610352,-2.42653,0.0553758,-0.075063,0.055959,0.107286,-0.0882636,0.145013,-0.12363,-0.0840963,0.0362015,0.0253296,0.0287628,0.0309753,0.0183105,0.00232697,0.0147629,0.0088501,-9.97986,0.00598907,-0.00179291,0.0277328,0.00205994,0.0222015,-0.0182343,0.0547028,0.00511169
36,4,10.0097,0.000915527,0.000915527,-2.42928,0.0532396,-0.0759786,0.0519917,0.0865343,-0.094062,0.143792,-0.126987,-0.0871481,0.0629425,0.0258255,0.0267792,0.0242233,0.0183868,0.00354767,0.0252533,0.00995636,-9.97986,0.00415802,-0.00175476,0.0241852,-0.00366211,0.021286,-0.0186539,0.0523758,0.00759125
36,5,10.0097,0.000610352,-0.000305176,-2.42806,0.0541551,-0.0765889,0.0529073,0.0749376,-0.0961982,0.143792,-0.126987,-0.0877584,0.0671768,0.0240326,0.0292206,0.0106049,0.0188065,0.00461578,0.0428772,0.0123215,-9.97986,0.00488281,0.00125885,0.0220871,-0.0114822,0.0254822,-0.0127029,0.0504684,0.00778198
36,6,10.0097,-0.000610352,-0.000457764,-2.4302,0.0529344,-0.0762837,0.050771,0.0712755,-0.0971137,0.142877,-0.127292,-0.0865377,0.0473785,0.0237656,0.0287628,0.0149918,0.0159073,0.00198364,0.0381851,0.0179291,-9.97986,0.00244141,-0.00087738,0.0219345,-0.01091,0.0231552,-0.0106049,0.0503922,0.00606537
36,7,10.0097,0.0012207,-0.000610352,-2.42898,0.0538499,-0.0768941,0.0526021,0.0694445,-0.0946723,0.143792,-0.126682,-0.0871481,0.0241089,0.0224304,0.0286484,0.0133514,0.0136185,0.00263214,0.030899,0.0146103,-9.97986,0.00499725,-0.0025177,0.0223541,-0.01297,0.0237274,-0.0103378,0.0492859,0.00728607
36,8,10.0097,-0.000305176,-0.000305176,-2.42959,0.0538499,-0.0756734,0.0538228,0.0691393,-0.0949775,0.144403,-0.127292,-0.0871481,0.0180435,0.0243759,0.0281906,0.0187683,0.0160599,0.0025177,0.0244141,0.0146103,-9.97986,0.0050354,-0.00530243,0.0168991,-0.0180817,0.0254822,-0.0114822,0.0495148,0.0106049
36,9,10.0097,0.000915527,-0.000152588,-2.42776,0.0550706,-0.0756734,0.0532125,0.0697496,-0.0949775,0.143792,-0.126072,-0.0859274,0.0192261,0.0227737,0.0266647,0.0510406,0.0185394,0.00606537,0.015564,0.0167465,-9.97986,0.0125122,-0.00587463,0.0206375,-0.0127792,0.0275421,-0.0107574,0.04776,0.0125504
37,0,10.0097,-0.000305176,-0.000152588,-2.42684,0.0550706,-0.0738423,0.0529073,0.0691393,-0.0931465,0.144403,-0.126377,-0.0847066,0.0115967,0.0188065,0.0166702,0.0618744,0.0137711,0.00152588,0.01194,0.0149536,-9.97986,0.013504,-0.0056076,0.0167084,-0.0151825,0.0248337,-0.00968933,0.0381851,0.0141907
37,1,10.0097,-0.000610352,-0.000305176,-2.42806,0.0550706,-0.0747579,0.0516866,0.0682238,-0.0928413,0.145013,-0.126377,-0.0850118,0.00736237,0.0175858,0.0128174,0.0719452,0.0157928,0.00198364,0.0165176,0.0157166,-9.97986,0.00957489,-0.00717163,0.018158,-0.0130844,0.019722,-0.00648499,0.038681,0.0144196
37,2,10.0097,0,-0.000457764,-2.42562,0.0547655,-0.075063,0.0535176,0.0700548,-0.0937568,0.145318,-0.125766,-0.0831808,0.00961304,0.0192261,0.00644684,0.0504684,0.0167847,0.00240326,0.0257492,0.0127029,-9.97986,0.00789642,-0.00366211,0.0152969,-0.0150299,0.0201035,-0.00831604,0.0374222,0.0123215
37,3,10.0097,-0.00152588,0.000305176,-2.4244,0.0572069,-0.0744527,0.054128,0.0706652,-0.0919257,0.146234,-0.124546,-0.0819601,0.00854492,0.0164795,-0.000457764,0.0245285,0.0219345,0.00408173,0.0280762,0.0160599,-9.97986,0.0112915,-0.0030899,0.013237,-0.0130844,0.0223541,-0.00183105,0.0349426,0.0135422
37,4,10.0097,0.000305176,0.000457764,-2.42501,0.0569017,-0.0735371,0.0535176,0.0709703,-0.0910102,0.146539,-0.123935,-0.0810445,0.0135422,0.0203323,-0.0012207,0.0191498,0.0194168,-0.000686646,0.0286484,0.0189209,-9.97986,0.0258255,-0.00190735,0.010643,-0.0149918,0.0187302,0.00389099,0.0333405,0.0118256
37,5,10.0097,0.000915527,0.000610352,-2.42531,0.0559862,-0.0747579,0.0538228,0.0718859,-0.0910102,0.146844,-0.124241,-0.0816549,0.0108337,0.0173569,-0.0038147,0.00621796,0.0206757,0.00434875,0.0309372,0.0161743,-9.97986,0.0340652,-0.00579834,0.0128174,-0.00968933,0.0203323,0.00591278,0.0342178,0.0115585
37,6,10.0097,0,0.000305176,-2.4247,0.0575121,-0.0741475,0.0547383,0.07036,-0.0913154,0.147455,-0.124851,-0.0813497,0.0100708,0.0201416,-0.0056076,-0.0241089,0.020752,0.00953674,0.0275421,0.017662,-9.97986,0.0339508,-0.00114441,0.00576019,-0.0106049,0.0240707,0.00995636,0.0352478,0.0158691
37,7,10.0097,0.000915527,0.000305176,-2.42501,0.0575121,-0.0726216,0.0547383,0.0712755,-0.0922309,0.145929,-0.124851,-0.080129,0.0100327,0.0196075,-0.00278473,-0.0421524,0.0213242,0.00480652,0.0265503,0.0185394,-9.97986,0.0312042,-0.00213623,0.00717163,-0.0138474,0.0234222,0.00747681,0.0373459,0.0087738
37,8,10.0097,-0.000305176,-0.0012207,-2.42562,0.0565965,-0.0741475,0.0535176,0.0392321,-0.095893,0.145929,-0.126682,-0.0816549,0.00988007,0.0209808,-0.00087738,-0.0429153,0.0219345,0.00614166,0.0282288,0.0190735,-9.97986,0.0191116,-0.00656128,0.0025177,-0.00904083,0.0207138,0.00400543,0.0368118,0.0111771
37,9,8.24819,0.000915527,-0.00106812,-2.42714,0.0569017,-0.0738423,0.0522969,0.0474718,-0.0925361,0.14776,-0.126377,-0.0822652,0.0136566,0.0174713,0.00221252,-0.0515747,0.0242233,0.00183105,0.0292206,0.0137329,-9.97986,0.00988007,-0.00511169,0.0018692,-0.00205994,0.018425,-0.00705719,0.037384,0.0114822
38,0,7.36867,0,-0.000457764,-2.4244,0.0562914,-0.075063,0.0553487,0.0572374,-0.0922309,0.144708,-0.126377,-0.0822652,0.0136948,0.0148773,0.0094986,-0.0734329,0.0291443,0.00583649,0.0287628,0.0187683,-9.97986,0.0075531,-0.00495911,0.0100708,-0.0111008,0.0174713,-0.00988007,0.032959,0.00831604
38,1,7.29421,0,0.000457764,-2.42684,0.0547655,-0.075063,0.0550435,0.0663927,-0.0922309,0.145624,-0.125766,-0.0819601,0.0149918,0.0114822,0.0197983,-0.0637054,0.0246429,0.00244141,0.0230026,0.0149918,-9.97986,0.00915527,-0.00434875,-0.000534058,-0.00278473,0.0172043,-0.00713348,0.033226,0.00675201
38,2,7.79927,0.000610352,0.000762939,-2.42776,0.0559862,-0.0729268,0.054128,0.0785997,-0.0919257,0.145013,-0.125461,-0.0840963,0.0177002,0.00938416,0.0291824,-0.0380325,0.0215149,0.00919342,0.0158691,0.0155258,-9.97986,0.0056076,-0.00209808,0.00385284,-0.000801086,0.0124359,-0.000648499,0.0309753,0.00629425
38,3,10.0097,0.000915527,0.00198364,-2.42562,0.0538499,-0.0753682,0.054128,0.107897,-0.0894843,0.145318,-0.124546,-0.0840963,0.0141907,0.0050354,0.0379181,-0.0500107,0.0228882,0.00579834,0.0130081,0.0162888,-9.97986,0.00961304,-0.00110626,-0.001297,0.00232697,0.012207,0.00812531,0.0268936,0.00556946
38,4,10.0097,0.000305176,0.00183105,-2.42959,0.0547655,-0.0765889,0.0519917,0.0865343,-0.095893,0.143182,-0.126987,-0.0880636,0.0147629,0.010643,0.0496292,-0.108528,0.02388,0.00785828,0.0168228,0.0131989,-9.97986,0.0151443,0.000724792,-0.0031662,0.00843048,0.00900269,0.0162888,0.0227737,0.00865936
38,5,10.0097,0.000610352,0.000152588,-2.43172,0.0547655,-0.0768941,0.0516866,0.075548,-0.0961982,0.143792,-0.126682,-0.0865377,0.00907898,0.00152588,0.0563812,-0.12722,0.0200653,0.0094986,0.0228119,0.0156021,-9.97986,0.0131989,-0.000686646,-0.00190735,0.0172043,0.0105286,0.0141525,0.0243378,0.00461578
38,6,10.0097,0.0012207,0.000152588,-2.42959,0.0538499,-0.0762837,0.0519917,0.0724962,-0.095893,0.143487,-0.127292,-0.0868429,0.00953674,0.00587463,0.0626373,-0.0934601,0.0220108,0.0115204,0.0247955,0.0163269,-9.97986,0.0122833,-0.00434875,-0.00537872,0.0177002,0.0102615,0.0176239,0.0237274,0.00762939
38,7,10.0097,0.00213623,0,-2.42867,0.055681,-0.0759786,0.0522969,0.0706652,-0.0965034,0.144708,-0.126682,-0.0859274,0.0069809,0.00244141,0.0724792,-0.130768,0.0195694,0.00980377,0.020752,0.0132751,-9.97986,0.0140762,-0.00713348,-0.0087738,0.0205994,0.0101852,0.018692,0.0239944,0.00404358
38,8,10.0097,0.000305176,0.000305176,-2.42806,0.0544603,-0.0759786,0.0532125,0.0697496,-0.0949775,0.143792,-0.126682,-0.0871481,0.0127029,0.0063324,0.0735855,-0.146713,0.0214005,0.0114441,0.0224686,0.0206757,-9.97986,0.0121689,-0.000495911,-0.00396729,0.0246429,0.0120544,0.0153351,0.0242996,0.00411987
38,9,10.0097,0,0.00106812,-2.42867,0.0532396,-0.0762837,0.0513814,0.0697496,-0.0937568,0.143792,-0.127292,-0.0859274,0.0139236,0.0043869,0.0597763,-0.126572,0.0179291,0.0218964,0.0181198,0.0160599,-9.97986,0.0102234,0.000686646,-0.00110626,0.0275803,0.0119781,0.012207,0.0234604,0.00881195
39,0,10.0097,0.00244141,-0.000152588,-2.42806,0.0535448,-0.0756734,0.0538228,0.0706652,-0.0946723,0.145624,-0.126377,-0.0874532,0.0132751,0.00995636,0.0524139,-0.113373,0.0183105,0.0230408,0.0111389,0.0159836,-9.97986,0.0116348,-0.00232697,-0.000610352,0.0225067,0.0112915,0.0063324,0.0251389,0.0109863
39,1,10.0097,0.00152588,0.000610352,-2.4247,0.0547655,-0.0753682,0.0529073,0.0688341,-0.0931465,0.145318,-0.127292,-0.0834859,0.00511169,0.0127411,0.0458527,-0.0629425,0.019455,0.0191498,0.0131989,0.0166702,-9.97986,0.0062561,-0.00499725,-0.0018692,0.0210953,0.00854492,0.00785828,0.0179291,0.00923157
39,2,10.0097,-0.000610352,0.0012207,-2.42867,0.0559862,-0.075063,0.0544332,0.0700548,-0.0931465,0.145624,-0.125461,-0.0834859,0.00930786,0.0285339,0.0396347,0.0126266,0.0180435,0.0221634,0.0181961,0.0214386,-9.97986,0.0150299,-0.000534058,-0.0018692,0.0326538,0.00442505,0.0103378,0.0172806,0.0105286
39,3,10.0097,0,0.00137329,-2.42531,0.0559862,-0.0738423,0.0556539,0.0706652,-0.090705,0.147149,-0.124241,-0.0816549,0.010643,0.0380325,0.026207,0.0627518,0.0198746,0.0221634,0.0171661,0.0206757,-9.97986,0.0144958,-0.00656128,0.000648499,0.0322342,0.0101089,0.00656128,0.016098,0.0119781
39,4,10.0097,0.00213623,0.000610352,-2.42074,0.0559862,-0.0744527,0.0544332,0.072191,-0.0922309,0.146844,-0.12241,-0.0795187,0.00652313,0.047493,0.0208664,0.0774002,0.0237274,0.0232697,0.0157166,0.0182343,-9.97986,0.0165558,7.62939e-005,0.00286102,0.0445175,0.00869751,0.00595093,0.0144577,0.01194
39,5,10.0097,0.00213623,0.000305176,-2.42135,0.0559862,-0.075063,0.054128,0.0694445,-0.0913154,0.147149,-0.124241,-0.0807394,0.00957489,0.0517273,0.0223541,0.117226,0.022583,0.0275421,0.0190353,0.0212479,-9.97986,0.0182724,0.00431061,0.0038147,0.0439072,0.00827789,0.00480652,0.0128174,0.0165939
39,6,10.0097,-0.000610352,0.000305176,-2.4244,0.0562914,-0.0735371,0.0556539,0.07036,-0.0910102,0.147149,-0.124851,-0.0792135,0.0107193,0.0561905,0.0220108,0.144768,0.0207901,0.0284576,0.0219727,0.0203705,-9.97986,0.0184631,0.00461578,0.00221252,0.0444412,0.00988007,0.00171661,0.00999451,0.0157166
39,7,10.0097,-0.000305176,0.000762939,-2.42531,0.0565965,-0.073232,0.0550435,0.0712755,-0.0922309,0.146234,-0.124241,-0.0813497,0.0069809,0.0579071,0.0247955,0.131912,0.0196075,0.0282288,0.0270844,0.0187683,-9.97986,0.0205994,0.00118256,0.00549316,0.0495148,0.00843048,-0.00457764,0.0120926,0.0194931
39,8,10.0097,0.0012207,-0.00106812,-2.42409,0.0559862,-0.073232,0.0538228,0.0370958,-0.0955879,0.147149,-0.127292,-0.0816549,0.00675201,0.0576782,0.0359726,0.158463,0.018692,0.0298691,0.026474,0.018158,-9.97986,0.0213242,0.00392914,0.00694275,0.0512314,0.00591278,0.00343323,0.00637054,0.0173187
39,9,8.43923,0.0012207,-0.00183105,-2.42501,0.0562914,-0.0747579,0.0538228,0.0486925,-0.0925361,0.146844,-0.125461,-0.0798238,0.00450134,0.0598526,0.0446701,0.206833,0.0236893,0.0272751,0.0309372,0.0200272,-9.97986,0.0229263,-0.00156403,0.00644684,0.0468826,0.00740051,0.00274658,0.00423431,0.0190353
40,0,7.58382,0,-0.000305176,-2.42837,0.0550706,-0.0741475,0.054128,0.0584581,-0.0937568,0.145624,-0.124851,-0.0847066,0.00518799,0.0601196,0.0580978,0.289536,0.019722,0.0284958,0.0275803,0.020752,-9.97986,0.0240326,0.00278473,0.012207,0.0606155,0.0102234,0.00770569,0.0038147,0.0200653
40,1,7.53621,-0.000915527,0.00106812,-2.42745,0.0550706,-0.0747579,0.0544332,0.0642565,-0.0925361,0.144708,-0.125766,-0.0825704,0.00572205,0.0520706,0.0666428,0.301704,0.0229645,0.0284958,0.0269699,0.015564,-9.97986,0.0240707,0.00453949,0.00793457,0.0677109,0.00652313,0.00389099,0.00190735,0.0184631
40,2,8.04982,0.000915527,0.000915527,-2.42623,0.0544603,-0.0741475,0.0544332,0.0752428,-0.0903999,0.145624,-0.124851,-0.0828756,0.00816345,0.0481796,0.0730896,0.247192,0.0194168,0.0304031,0.0297928,0.0233459,-9.97986,0.0282669,0.00797272,0.0113678,0.0637054,0.00782013,0.00968933,0.0031662,0.0242615
40,3,10.0097,0.0012207,0.00213623,-2.42135,0.0544603,-0.0762837,0.0553487,0.107591,-0.088874,0.144708,-0.124546,-0.0834859,0.00419617,0.0444794,0.061264,0.213127,0.0236511,0.0302505,0.0317001,0.0248718,-9.97986,0.0271225,0.00888824,0.0111389,0.0694656,0.0123596,0.00946045,-0.001297,0.0197601
40,4,10.0097,0,0.00198364,-2.42806,0.0538499,-0.0759786,0.0510762,0.0853136,-0.0949775,0.142267,-0.126072,-0.0868429,0.00843048,0.0440216,0.0424576,0.170555,0.02388,0.0297546,0.0316238,0.0234985,-9.97986,0.031395,0.00770569,0.0137711,0.0799561,0.00736237,-0.00312805,-0.000991821,0.021286
40,5,10.0097,-0.000915527,0.0012207,-2.42989,0.0538499,-0.0756734,0.0522969,0.0709703,-0.0952827,0.143792,-0.127598,-0.0886739,0.00423431,0.0439835,0.0138474,0.148697,0.0196075,0.0283051,0.0274658,0.0238037,-9.97986,0.0312805,0.00465393,0.0167465,0.0767899,0.00961304,0.000457764,-0.00522614,0.0215149
