
Devices
1200
,,BP Load cell - Voltage,String Length - Voltage,Clutch Active - Voltage,#7 iPecs - Voltage,,,,,,,,,EMG 1-8 Left - Voltage,,,,,,,,Pylon Force - Voltage,EMG 9-16 Right - Voltage,,,,,,,,
Frame,Sub Frame,BP Load Cell,String Length,From Arduino Logic,A45,A135,A225,A315,S0,S90,S180,S270,ZSum,EMG 1 Glut Max,EMG 2 Glut Med,EMG 3 Biceps Femoris Long,EMG 4 Rectus Femoris,EMG 5 Vastus Medialis,EMG 6 Tib Ant,EMG 7 Med Gas,EMG 8 Soleus,Pylon volts,EMG 9 Glut Max,EMG 10 Glut Med,EMG 11 Biceps Femoris Long,EMG 12 Rectus Femoris,EMG 13 Vastus Medialis,EMG 14 Tib Ant,EMG 15 Med Gas,EMG 16 Soleus
,,V,V,V,V,V,V,V,V,V,V,V,V,V,V,V,V,V,V,V,V,V,V,V,V,V,V,V,V,V
1,0,10.0097,0.000610352,-0.000915527,-2.4244,0.0562914,-0.075063,0.0532125,0.0731066,-0.0913154,0.146539,-0.124546,-0.0819601,-0.0246811,0.0107193,-0.00659943,0.0114059,0.0463104,0.0261688,0.243912,0.0251389,-9.97986,0.195351,-0.00404358,-0.0730133,-0.121231,-0.071907,0.0557327,0.0170517,0.038681
1,1,10.0097,-0.000610352,-0.0012207,-2.42653,0.0559862,-0.0747579,0.0532125,0.0630358,-0.0925361,0.146234,-0.124851,-0.0807394,-0.0382233,0.0138092,-0.00774384,0.0151062,0.0137711,0.0234222,0.257607,0.0224304,-9.97986,0.246506,0.00564575,-0.0735474,-0.133171,-0.0502014,0.0377274,0.00843048,0.0363922
1,2,10.0097,-0.000305176,-0.000762939,-2.42653,0.0562914,-0.0738423,0.0538228,0.0633409,-0.0922309,0.146234,-0.125461,-0.0831808,-0.039444,0.0182343,-0.0037384,0.0151062,-0.0221252,0.0258636,0.258789,0.0225067,-9.97986,0.227928,0.00270844,-0.0701141,-0.13649,-0.0313187,0.0253677,0.00434875,0.0331497
1,3,10.0097,-0.000915527,-0.00198364,-2.42684,0.0553758,-0.0735371,0.054128,0.0682238,-0.0931465,0.145013,-0.126072,-0.0834859,-0.0320435,0.0180435,0.00297546,0.0154877,-0.0516129,0.0281525,0.256729,0.029068,-9.97986,0.179138,0.00526428,-0.0741196,-0.149422,-0.0221634,0.0185776,-0.00526428,0.020256
1,4,10.0097,0.000610352,-0.000457764,-2.42684,0.0569017,-0.0747579,0.0532125,0.0743273,-0.0922309,0.145318,-0.124546,-0.0834859,-0.0388718,0.0247192,0.0088501,0.0183105,-0.0677872,0.0335312,0.256844,0.0260162,-9.97986,0.146408,-0.00434875,-0.0770187,-0.155945,-0.0154114,0.0270844,-0.0103378,-0.00396729
1,5,10.0097,0.0012207,-0.000305176,-2.42867,0.0535448,-0.0756734,0.0532125,0.075548,-0.0931465,0.144098,-0.125766,-0.085317,-0.0170135,0.0265121,0.0114822,0.015831,-0.0733566,0.043335,0.261307,0.0302124,-9.97986,0.131226,-0.00606537,-0.0775909,-0.159569,-0.000152588,0.0285339,-0.0179291,-0.00968933
1,6,10.0097,0.000610352,-0.00183105,-2.42837,0.0541551,-0.0756734,0.0522969,0.0706652,-0.0931465,0.145013,-0.126377,-0.0859274,0.00679016,0.0267792,0.0157547,0.0183487,-0.0660324,0.0462341,0.260201,0.0213242,-9.97986,0.122643,0.00209808,-0.0746536,-0.172691,0.0180435,0.0323868,-0.0238037,0.00854492
1,7,10.0097,0.000305176,-0.000457764,-2.42806,0.0544603,-0.0762837,0.0529073,0.0694445,-0.094062,0.145013,-0.127598,-0.0859274,0.0228119,0.0297165,0.0144196,0.0154495,-0.0524521,0.0460052,0.251312,0.0191879,-9.97986,0.112,-0.00320435,-0.0654602,-0.169678,0.0396729,0.0221252,-0.0264359,0.0329971
1,8,10.0097,0.000610352,0.000152588,-2.42684,0.0547655,-0.0765889,0.0519917,0.0697496,-0.0931465,0.144708,-0.127903,-0.0862325,0.0572205,0.029068,0.0236893,0.0134277,-0.0329971,0.0491333,0.247154,0.0143051,-9.97986,0.0967026,-0.00564575,-0.0626755,-0.172005,0.0531769,0.0108337,-0.0263977,0.0627899
1,9,10.0097,0.000305176,-0.000915527,-2.42959,0.0538499,-0.0762837,0.0526021,0.0691393,-0.0946723,0.145013,-0.126987,-0.0868429,0.106354,0.0307465,0.0179672,0.0127792,-0.00431061,0.0448608,0.240555,0.0157547,-9.97986,0.0896454,0.00110626,-0.0554657,-0.172462,0.0724411,0.00564575,-0.0293732,0.0772476
2,0,10.0097,0.00152588,-0.000305176,-2.42867,0.0529344,-0.0768941,0.0513814,0.0663927,-0.0949775,0.143487,-0.127903,-0.0874532,0.129929,0.0312805,0.0183487,0.0151443,0.0201416,0.0340271,0.228577,0.0242615,-9.97986,0.0588226,0.0082016,-0.0521469,-0.170937,0.0936508,0.00335693,-0.0308228,0.0763321
2,1,10.0097,0.00152588,-0.000610352,-2.42959,0.0547655,-0.0756734,0.0519917,0.0666979,-0.094062,0.143792,-0.126682,-0.0868429,0.0867462,0.0305939,0.0236511,0.00946045,0.0405502,0.025177,0.221329,0.0210953,-9.97986,0.02491,0.0152969,-0.0489426,-0.17704,0.111847,0.00297546,-0.0284576,0.0645447
2,2,10.0097,-0.000305176,0,-2.42806,0.0541551,-0.0756734,0.0535176,0.0673082,-0.0946723,0.143487,-0.126377,-0.0844015,0.0236511,0.0305176,0.0228882,0.0146484,0.0675964,0.0163269,0.210724,0.0221634,-9.97986,-0.00522614,0.0129318,-0.0487518,-0.178833,0.125046,-0.0120926,-0.0351715,0.0529861
2,3,10.0097,0.000915527,0.000457764,-2.42714,0.0547655,-0.0756734,0.0529073,0.0679186,-0.0943672,0.143792,-0.126072,-0.0847066,-0.0311279,0.0325775,0.0246429,0.0126648,0.0717545,0.0166321,0.207863,0.0201035,-9.97986,-0.0272751,0.0190353,-0.0512314,-0.174217,0.13855,-0.0183868,-0.0426865,0.0313187
2,4,10.0097,0.00213623,-0.000457764,-2.42776,0.0544603,-0.0744527,0.054128,0.0685289,-0.094062,0.144098,-0.126072,-0.0847066,-0.0590897,0.0353241,0.0263214,0.00732422,0.0716782,0.0127411,0.21637,0.014801,-9.97986,-0.0409317,0.0149155,-0.0568008,-0.182953,0.152893,-0.0143051,-0.0440216,0.0164413
2,5,10.0097,-0.000305176,-0.000762939,-2.42501,0.055681,-0.075063,0.0538228,0.0718859,-0.0919257,0.147455,-0.124241,-0.0828756,-0.0368118,0.0295258,0.0268555,0.01297,0.0749588,0.0141525,0.211067,0.0115967,-9.97986,-0.0519943,0.0143814,-0.0617981,-0.187454,0.183372,-0.0141907,-0.0458527,0.01194
2,6,10.0097,0.00152588,0.000152588,-2.42531,0.0575121,-0.0735371,0.0544332,0.0709703,-0.0922309,0.147149,-0.125156,-0.0819601,-0.0166702,0.0335312,0.02388,0.00377655,0.0746918,0.0141144,0.191383,0.018158,-9.97986,-0.0696564,0.0143814,-0.0621796,-0.188026,0.207558,-0.0100708,-0.0443649,0.00667572
2,7,10.0097,0.0012207,0.000152588,-2.42592,0.0559862,-0.0738423,0.0547383,0.0697496,-0.0916206,0.147455,-0.123935,-0.0807394,-0.0121307,0.0249481,0.025177,0.000839233,0.0641632,0.0172424,0.174065,0.0212479,-9.97986,-0.0907516,0.00724792,-0.0596237,-0.177002,0.229836,0.000152588,-0.0479889,0.0031662
2,8,10.0097,0.0012207,0.00106812,-2.42623,0.0559862,-0.0741475,0.0544332,0.07036,-0.088874,0.146844,-0.125461,-0.0804342,0.00782013,0.0298691,0.0230408,0.00141144,0.0568008,0.0232697,0.149155,0.0328827,-9.97986,-0.129242,0.00747681,-0.0577545,-0.166512,0.255623,0.0127029,-0.0512314,0.00038147
2,9,10.0097,0.000915527,0.00106812,-2.42501,0.0565965,-0.0738423,0.054128,0.0709703,-0.0897895,0.146844,-0.123325,-0.0795187,0.00637054,0.0282669,0.0259018,0.00564575,0.0477219,0.0179672,0.145569,0.0310135,-9.97986,-0.163002,-0.000724792,-0.0589752,-0.154305,0.287743,0.0264359,-0.057106,0.00972748
3,0,10.0097,0.000305176,0.00137329,-2.42501,0.0553758,-0.0729268,0.0556539,0.0706652,-0.0913154,0.147455,-0.12363,-0.0816549,0.00102997,0.0300598,0.0266647,0.00762939,0.0369263,0.0105286,0.147018,0.0248337,-9.97986,-0.166702,-0.00556946,-0.0548172,-0.143661,0.304565,0.0265121,-0.0532913,0.0148392
3,1,10.0097,-0.000610352,0.000457764,-2.42714,0.055681,-0.0735371,0.0550435,0.0642565,-0.0931465,0.145318,-0.125156,-0.0819601,0.00434875,0.0281143,0.0261307,0.00221252,0.0307083,0.0121307,0.128212,0.0224686,-9.97986,-0.111351,-7.62939e-005,-0.0484467,-0.132408,0.303917,0.0145721,-0.0434875,0.0153351
3,2,10.0097,-0.00152588,0.000915527,-2.42592,0.0559862,-0.0729268,0.0550435,0.0648668,-0.0919257,0.146234,-0.125461,-0.0822652,-0.00286102,0.0310135,0.0226974,0.00434875,0.0270081,0.00511169,0.109863,0.0278473,-9.97986,-0.0224304,-0.00617981,-0.0411224,-0.114975,0.310249,0.0150299,-0.0387192,0.0147629
3,3,10.0097,-0.000305176,0.00152588,-2.42592,0.055681,-0.073232,0.0547383,0.0697496,-0.0928413,0.145624,-0.125156,-0.0831808,0.00553131,0.0207138,0.0231552,0.0063324,0.0257874,0.0025177,0.0781631,0.032692,-9.97986,0.0302505,-0.012207,-0.0388718,-0.099678,0.319977,0.0132751,-0.041275,0.00663757
3,4,10.0097,-0.000915527,0.00183105,-2.42714,0.0541551,-0.0738423,0.0544332,0.077379,-0.0916206,0.145013,-0.124851,-0.0831808,0.0375748,0.0221634,0.0191498,0.00282288,0.0285339,-0.00270844,0.0551605,0.0504303,-9.97986,0.0538635,-0.0087738,-0.0288391,-0.0911331,0.321274,0.0101852,-0.0519562,0.00507355
3,5,10.0097,-0.000915527,0.0012207,-2.42837,0.0547655,-0.0762837,0.0535176,0.0746324,-0.094062,0.144403,-0.126682,-0.085317,0.0551224,0.0204468,0.025177,0.00156403,0.0376511,0.00244141,0.031662,0.0502777,-9.97986,0.0534821,-0.0063324,-0.00675201,-0.0848007,0.335617,0.00038147,-0.0640106,0.00667572
3,6,10.0097,-0.0012207,0.000305176,-2.42898,0.0535448,-0.075063,0.0526021,0.07036,-0.0943672,0.144098,-0.126987,-0.0868429,0.0614929,0.0199127,0.0230789,0.0037384,0.0535583,0.00564575,0.0101471,0.051384,-9.97986,0.0414658,-0.000915527,0.00621796,-0.0767136,0.35038,-0.00125885,-0.0630188,0.00946045
3,7,10.0097,0.000305176,0,-2.42959,0.0541551,-0.0753682,0.0522969,0.067003,-0.0946723,0.144403,-0.126682,-0.0862325,0.00270844,0.022316,0.0255966,0.0025177,0.0687027,0.0063324,-0.0162125,0.0428391,-9.97986,0.0157547,-0.0110626,0.00228882,-0.0686264,0.352325,0.0050354,-0.053978,0.0218964
3,8,10.0097,0.0012207,0.000762939,-2.42898,0.0535448,-0.0759786,0.0513814,0.067003,-0.0955879,0.143792,-0.127292,-0.0859274,-0.0715637,0.0252533,0.0260925,0.00217438,0.0778961,0.0107574,-0.0528717,0.0329208,-9.97986,-0.00255585,-0.0125504,0.0122452,-0.0594711,0.356026,0.0112534,-0.043869,0.0413895
3,9,10.0097,0.00152588,0.000152588,-2.4302,0.0538499,-0.0759786,0.0526021,0.0694445,-0.0943672,0.144403,-0.126682,-0.0862325,-0.0844955,0.027771,0.0301361,0.00900269,0.0822449,0.00663757,-0.0794601,0.0261688,-9.97986,-0.00553131,-0.0136948,0.0170898,-0.0536728,0.357819,0.011673,-0.0336075,0.0408554
4,0,10.0097,-0.000610352,0,-2.42989,0.0535448,-0.0753682,0.0535176,0.0682238,-0.0931465,0.143182,-0.126682,-0.0865377,-0.0630951,0.0278473,0.028038,0.0094223,0.0788116,0.00751495,-0.0963593,0.0185394,-9.97986,0.015831,-0.0132751,0.0325394,-0.0530243,0.353889,0.0131989,-0.0273514,0.0335312
4,1,10.0097,0.0012207,0.000305176,-2.42745,0.0535448,-0.075063,0.0526021,0.07036,-0.0937568,0.144708,-0.126682,-0.0856222,-0.0357056,0.0238419,0.0316238,0.0134659,0.0891113,0.0087738,-0.113487,0.0167465,-9.97986,0.0381088,-0.0148773,0.0388718,-0.045433,0.366859,0.0233841,-0.0186539,0.0403976
4,2,10.0097,0.000610352,-0.000305176,-2.42837,0.0541551,-0.0759786,0.0532125,0.0700548,-0.0931465,0.143792,-0.126072,-0.085317,-0.0119019,0.0256729,0.0275421,0.0102234,0.0788498,0.0133514,-0.12188,0.019989,-9.97986,0.0357437,-0.00701904,0.060463,-0.0506973,0.369911,0.0222778,-0.0165176,0.0310516
4,3,10.0097,0.000915527,0.000915527,-2.42592,0.0544603,-0.075063,0.054128,0.0700548,-0.0925361,0.146234,-0.126377,-0.0847066,0.00843048,0.0206757,0.0262451,0.0154877,0.0536728,0.0214005,-0.134239,0.018692,-9.97986,0.0150681,-0.00614166,0.0700378,-0.0486374,0.373917,0.0226212,-0.00652313,0.026474
4,4,10.0097,0,0.000762939,-2.42684,0.055681,-0.0747579,0.0532125,0.0685289,-0.0925361,0.144708,-0.126072,-0.0837911,0.0250244,0.0238419,0.027771,0.0131226,0.0256729,0.0227356,-0.132103,0.0177002,-9.97986,-0.0268936,-0.0162506,0.0703812,-0.0389862,0.366173,0.022316,-0.000457764,0.0163269
4,5,10.0097,-0.000915527,0.000610352,-2.42592,0.0535448,-0.0738423,0.0544332,0.0712755,-0.0934516,0.145929,-0.124241,-0.0813497,0.0675964,0.0240326,0.0289917,0.0131989,-0.00305176,0.0206375,-0.130577,0.0213623,-9.97986,-0.0356293,-0.0130844,0.0828552,-0.0437546,0.355263,0.025444,0.00221252,0.00221252
4,6,10.0097,0.0012207,0.000457764,-2.42531,0.0565965,-0.0744527,0.0535176,0.0712755,-0.0910102,0.145318,-0.124851,-0.0816549,0.0985718,0.0227737,0.0292969,0.0158691,-0.0185394,0.0188446,-0.130386,0.0272751,-9.97986,-0.0450134,0.00167847,0.0849152,-0.0425339,0.349503,0.0291061,0.0139618,-0.00900269
4,7,10.0097,-0.00213623,0,-2.42592,0.0575121,-0.0744527,0.0544332,0.07036,-0.0922309,0.145624,-0.124241,-0.0807394,0.0717545,0.0178909,0.0270462,0.0147247,-0.0293732,0.0131226,-0.137596,0.0373077,-9.97986,-0.0358963,0.00598907,0.0739288,-0.0403214,0.336113,0.0273132,0.0226593,-0.0379562
4,8,10.0097,0.00274658,0.000762939,-2.42409,0.0572069,-0.0738423,0.0553487,0.07036,-0.0919257,0.145624,-0.124546,-0.0810445,0.0231552,0.016861,0.0230026,0.0109482,-0.0227737,0.0161743,-0.136642,0.0476837,-9.97986,-0.0318527,0.00717163,0.0708771,-0.0304794,0.313072,0.0227356,0.0300598,-0.0556564
4,9,10.0097,0.000305176,0.00106812,-2.42562,0.055681,-0.0738423,0.054128,0.0715807,-0.0937568,0.146844,-0.123935,-0.0807394,-0.0195694,0.0204468,0.0219345,0.0149155,-0.000724792,0.0213242,-0.138741,0.0542068,-9.97986,-0.0479507,0.00461578,0.0587463,-0.0371933,0.2985,0.0229263,0.0380707,-0.0309753
5,0,10.0097,0.000915527,0.000152588,-2.42592,0.0559862,-0.0729268,0.0553487,0.0700548,-0.0928413,0.147455,-0.123325,-0.080129,-0.0580215,0.0182343,0.0236893,0.0172424,0.0325012,0.0263596,-0.138779,0.0530243,-9.97986,-0.0536728,0.000991821,0.0517654,-0.0295639,0.277367,0.0214386,0.0539398,-0.00167847
5,1,10.0097,0.0012207,0.000457764,-2.4247,0.0553758,-0.0744527,0.0538228,0.0621202,-0.0931465,0.145318,-0.125156,-0.0822652,-0.0912857,0.0276184,0.0251389,0.0191498,0.0774002,0.0245285,-0.140114,0.0458145,-9.97986,-0.051918,-0.00400543,0.0579071,-0.0299454,0.252991,0.0164795,0.0634003,0.00801086
5,2,10.0097,0.000305176,-0.000305176,-2.42592,0.0550706,-0.0738423,0.0538228,0.0645616,-0.0931465,0.145318,-0.125766,-0.0828756,-0.0737762,0.0241852,0.021553,0.0123596,0.10891,0.013504,-0.138245,0.0450134,-9.97986,-0.0240707,-0.00282288,0.0751877,-0.033493,0.237541,0.00892639,0.0746155,-0.000801086
5,3,10.0097,-0.000610352,0.000305176,-2.42684,0.0547655,-0.0738423,0.0550435,0.0706652,-0.0922309,0.145013,-0.125461,-0.0828756,0.00244141,0.0234985,0.0207138,0.0157166,0.126343,0.00778198,-0.143585,0.0457382,-9.97986,0.00450134,-0.00278473,0.0945663,-0.0304794,0.217018,0.0115585,0.0739288,0.0114441
5,4,10.0097,0.000305176,0.00106812,-2.42684,0.0553758,-0.0735371,0.0538228,0.0776842,-0.0910102,0.145929,-0.124851,-0.0837911,0.0654602,0.026741,0.0222015,0.0148392,0.143204,-0.00141144,-0.152206,0.0368881,-9.97986,0.0177765,0.000724792,0.100975,-0.0172806,0.179214,0.00301361,0.0759506,0.0525284
5,5,10.0097,-0.00213623,0.00137329,-2.42898,0.0541551,-0.0756734,0.0535176,0.0743273,-0.0949775,0.144708,-0.126682,-0.0856222,0.0881958,0.0312424,0.02491,0.0209808,0.151749,0.00183105,-0.151138,0.0243759,-9.97986,0.0298309,-0.00888824,0.0851059,-0.00785828,0.147438,0.00179291,0.0802231,0.0999451
5,6,10.0097,0.0012207,0.00137329,-2.42928,0.0544603,-0.075063,0.0529073,0.07036,-0.094062,0.144403,-0.126682,-0.0856222,0.0645447,0.0308228,0.0275421,0.0181961,0.127296,-0.00511169,-0.151024,0.0157547,-9.97986,0.0423813,-0.00152588,0.0624847,0.00160217,0.125732,0.00110626,0.0776672,0.127792
5,7,10.0097,-0.000305176,0.000457764,-2.42837,0.0535448,-0.0759786,0.0495503,0.0673082,-0.0955879,0.143487,-0.127292,-0.0868429,-0.025444,0.0334549,0.0248337,0.0222778,0.0906372,-0.0116348,-0.132828,0.0220108,-9.97986,0.0326538,-0.00392914,0.0258255,0.00724792,0.121269,-0.00209808,0.0854874,0.129509
5,8,10.0097,-0.000610352,0.000457764,-2.42928,0.055681,-0.0759786,0.0516866,0.0676134,-0.0952827,0.142267,-0.126377,-0.0859274,-0.0798035,0.0341797,0.0207138,0.0193405,0.053215,-0.0113297,-0.11116,0.0365829,-9.97986,0.017128,-0.0106812,-0.000724792,0.0143814,0.116196,-0.00881195,0.0907135,0.114708
5,9,10.0097,0.0012207,0.000762939,-2.42776,0.0538499,-0.0756734,0.0519917,0.0676134,-0.0946723,0.142572,-0.127292,-0.0862325,-0.0820923,0.0287628,0.0236511,0.0151062,0.00682831,-0.0121307,-0.109329,0.0310516,-9.97986,-0.0168991,-0.0323486,-0.000801086,0.0333023,0.103149,-0.0107193,0.090065,0.0859833
6,0,10.0097,0.00152588,0.000305176,-2.42928,0.0532396,-0.0762837,0.0532125,0.0694445,-0.0961982,0.142267,-0.126377,-0.0862325,-0.0514221,0.0343704,0.02388,0.0215149,-0.0437164,-0.0172424,-0.101013,0.0266266,-9.97986,-0.0699234,-0.0443268,0.00354767,0.0458908,0.0837326,-0.00499725,0.0897598,0.0309753
6,1,10.0097,0.000610352,0.00167847,-2.42837,0.0547655,-0.0753682,0.0529073,0.0676134,-0.0937568,0.142572,-0.126987,-0.0862325,-0.0153732,0.0282669,0.0247574,0.0117493,-0.0798798,-0.00930786,-0.099678,0.0185013,-9.97986,-0.130806,-0.0342941,0.011673,0.0523758,0.0684357,0.00263214,0.0868988,0.00667572
6,2,10.0097,0.000305176,0.000610352,-2.42714,0.0547655,-0.0753682,0.0513814,0.0682238,-0.0934516,0.143792,-0.125766,-0.0840963,0.00930786,0.0414658,0.0311661,0.0226974,-0.105324,0.00457764,-0.088501,0.00461578,-9.97986,-0.185165,-0.00823975,0.00511169,0.0655746,0.0740814,-0.00545502,0.091629,-0.000801086
6,3,10.0097,0.000915527,0.00106812,-2.42745,0.0544603,-0.0759786,0.0535176,0.0688341,-0.0925361,0.143792,-0.126682,-0.0844015,0.0470352,0.0431442,0.0315857,0.0247574,-0.105743,0.00919342,-0.0846481,-0.00537872,-9.97986,-0.226326,-0.000762939,-0.00858307,0.0686646,0.0701141,-0.00797272,0.0920868,-0.0663376
6,4,10.0097,0.000610352,0.000915527,-2.42592,0.0559862,-0.0744527,0.0535176,0.0697496,-0.0934516,0.142877,-0.126377,-0.0840963,0.0471497,0.0431061,0.0364685,0.0235748,-0.10891,0.00946045,-0.0805283,-0.00926971,-9.97986,-0.213318,0.0138092,-0.0212479,0.0791168,0.0525665,-0.0133896,0.0919724,-0.105743
6,5,10.0097,0.000305176,0.000915527,-2.42592,0.0553758,-0.0741475,0.0547383,0.0715807,-0.0916206,0.145929,-0.124241,-0.0822652,-0.000114441,0.0439072,0.034256,0.0289536,-0.116997,0.00782013,-0.0741196,-0.0133896,-9.97986,-0.149727,0.0142288,-0.0139618,0.0844955,0.0382996,-0.0115585,0.0895309,-0.109367
6,6,10.0097,0.000610352,0.000915527,-2.42379,0.0562914,-0.075063,0.0553487,0.0718859,-0.0931465,0.145624,-0.124546,-0.0813497,-0.0479889,0.0427246,0.026741,0.0267029,-0.107346,0.00499725,-0.0643921,-0.00911713,-9.97986,-0.0873947,-0.00385284,-0.0104141,0.0934982,0.0260925,-0.0128174,0.0851059,-0.103798
6,7,10.0097,0.00183105,0.000915527,-2.42531,0.0553758,-0.0729268,0.0547383,0.0718859,-0.0922309,0.147149,-0.123935,-0.0813497,-0.0574112,0.0370407,0.0196457,0.0282669,-0.101547,0.00175476,-0.0548172,-0.00789642,-9.97986,-0.0431061,-0.000572205,-0.00190735,0.1017,0.00480652,-0.0239182,0.0798798,-0.0659943
6,8,10.0097,0.00305176,0.000610352,-2.42501,0.055681,-0.075063,0.0544332,0.0709703,-0.0931465,0.14776,-0.124851,-0.0807394,-0.00621796,0.0384521,0.0191879,0.027504,-0.0943756,-0.00125885,-0.029335,-0.0111389,-9.97986,-0.0226593,0.00209808,0.0144196,0.104637,0.000114441,-0.0248718,0.0737,-0.0164032
6,9,10.0097,0.000305176,0.000915527,-2.42562,0.0553758,-0.0741475,0.0538228,0.0694445,-0.0919257,0.145929,-0.124851,-0.0816549,0.0296402,0.0342178,0.0189209,0.0316238,-0.0824356,0.00278473,-0.0182724,-0.0185394,-9.97986,-0.060463,0.0157166,0.0215149,0.108452,-0.0174332,-0.0302887,0.0663376,0.0105286
7,0,10.0097,0.000610352,0.000762939,-2.4247,0.0569017,-0.0735371,0.0535176,0.0697496,-0.0916206,0.146234,-0.123935,-0.0807394,0.0432968,0.0289154,0.0177765,0.0323486,-0.0800705,0.0102997,-0.000305176,-0.0322723,-9.97986,-0.111313,0.0162506,0.00514984,0.11097,-0.0329208,-0.0369644,0.0611877,0.0105286
7,1,10.0097,0.0012207,-0.000152588,-2.42714,0.0562914,-0.075063,0.0532125,0.0602892,-0.0934516,0.145318,-0.125156,-0.0819601,0.063591,0.0281525,0.0101471,0.0309753,-0.0788498,0.0293732,0.0146866,-0.0343704,-9.97986,-0.123367,0.0126648,0.00537872,0.111427,-0.0497055,-0.0417328,0.0592804,0.0196457
7,2,10.0097,0.000915527,-0.000305176,-2.42592,0.0565965,-0.0735371,0.054128,0.0642565,-0.0934516,0.146234,-0.125156,-0.0828756,0.0509262,0.0188828,0.00286102,0.0236893,-0.0847244,0.0187302,0.0287628,-0.0259399,-9.97986,-0.0682068,0.0158691,0.000762939,0.117912,-0.057869,-0.0444031,0.0556946,0.0163269
7,3,10.0097,-0.000915527,0,-2.42592,0.055681,-0.0747579,0.054128,0.0706652,-0.0934516,0.144708,-0.125766,-0.0825704,0.0418472,0.0185013,-0.00305176,0.0188446,-0.0805664,-0.00240326,0.0487137,-0.017395,-9.97986,-0.00686646,0.0069046,-0.00183105,0.118065,-0.0619507,-0.0442505,0.0523758,0.0226593
7,4,10.0097,0.000915527,0.000762939,-2.42684,0.0547655,-0.0735371,0.0538228,0.0770738,-0.0919257,0.145318,-0.124851,-0.0840963,0.0489807,0.00816345,-0.00858307,0.0175095,-0.0732422,-0.0206375,0.0639725,-0.00869751,-9.97986,0.0454712,0.00431061,0.00904083,0.112457,-0.0744629,-0.0422668,0.0447464,0.0177765
7,5,10.0097,0.0012207,0,-2.42867,0.0529344,-0.075063,0.054128,0.0758531,-0.0943672,0.142877,-0.127292,-0.0859274,0.0603485,0.00854492,-0.013237,0.0146866,-0.0495148,-0.0237656,0.0774384,-0.00545502,-9.97986,0.0904846,0.011673,0.0312424,0.110474,-0.093689,-0.0451279,0.0398254,-0.00522614
7,6,10.0097,0.000610352,-0.000152588,-2.42867,0.0550706,-0.0762837,0.0532125,0.0718859,-0.0986396,0.142572,-0.127292,-0.0868429,0.0782013,0.000267029,-0.0228882,0.0138855,-0.0191116,-0.0123215,0.0858307,0.0114822,-9.97986,0.101395,0.0109863,0.0318909,0.106659,-0.109444,-0.0460052,0.0408936,-0.0094986
7,7,10.0097,0.00213623,-0.00167847,-2.42867,0.0547655,-0.0759786,0.0519917,0.0700548,-0.0943672,0.143487,-0.127292,-0.0865377,0.0643158,-0.00175476,-0.0271988,0.011673,-0.000762939,0.00473022,0.0904083,0.0125504,-9.97986,0.150871,0.00938416,0.0305939,0.093956,-0.125237,-0.0378036,0.0390625,-0.0128555
7,8,10.0097,0.00183105,-0.000610352,-2.42898,0.0541551,-0.0759786,0.0522969,0.0718859,-0.0937568,0.143792,-0.127598,-0.0856222,0.0837708,-0.00305176,-0.0357437,0.014267,0.0200272,0.0183105,0.0993729,0.0101852,-9.97986,0.245667,0.0150681,0.0284958,0.0875473,-0.123749,-0.0344086,0.0386047,-0.0183105
7,9,10.0097,0.000305176,-0.0012207,-2.42837,0.0538499,-0.0753682,0.0516866,0.0709703,-0.0961982,0.144403,-0.126682,-0.0877584,0.0680161,-0.001297,-0.0304031,0.0134659,0.0224686,0.0238419,0.0952911,0.00267029,-9.97986,0.315399,0.0112534,0.0291061,0.0795746,-0.122566,-0.0357819,0.0354004,-0.00915527
8,0,10.0097,-0.000915527,-0.000915527,-2.42959,0.0532396,-0.0762837,0.0519917,0.0694445,-0.0961982,0.143182,-0.126987,-0.0862325,0.0224686,0.00244141,-0.0237656,0.0112534,0.0109863,0.0162125,0.0964737,0.00221252,-9.97986,0.355949,0.0180435,0.0342941,0.0777435,-0.134315,-0.031395,0.0466919,-0.0185394
8,1,10.0097,-0.000305176,-0.000457764,-2.42806,0.0538499,-0.0756734,0.0532125,0.0694445,-0.094062,0.144403,-0.126682,-0.0859274,0.0374603,0.010643,-0.0151062,0.014267,-0.0147629,0.00202179,0.0855255,0.000495911,-9.97986,0.327759,0.0120544,0.0297165,0.0840759,-0.144081,-0.0162888,0.0525284,-0.0307846
8,2,10.0097,0.000305176,0,-2.42776,0.0526292,-0.075063,0.0538228,0.0673082,-0.0931465,0.143792,-0.125766,-0.0859274,0.0155258,0.0183105,-0.01091,0.0117111,-0.0307465,-0.0019455,0.0758362,0.0104141,-9.97986,0.259666,0.0124741,0.0257492,0.0803375,-0.154877,0.00534058,0.052681,-0.0643539
8,3,10.0097,0.000915527,0,-2.42714,0.0538499,-0.075063,0.0532125,0.067003,-0.0955879,0.143487,-0.125156,-0.0831808,-0.0610352,0.0192642,0.00164032,0.0139999,-0.0262451,-0.000419617,0.0727844,0.00541687,-9.97986,0.188751,0.00549316,0.00915527,0.0806427,-0.167694,0.00728607,0.0531387,-0.105476
8,4,10.0097,-0.000305176,0.000610352,-2.42714,0.0559862,-0.0753682,0.0544332,0.0679186,-0.0928413,0.145013,-0.125766,-0.0837911,-0.116043,0.0229263,0.00354767,0.0159073,-0.0082016,0.014801,0.0691986,-0.000801086,-9.97986,0.145683,0.00682831,-0.00324249,0.0730133,-0.155945,-0.00213623,0.0428391,-0.11261
8,5,10.0097,0.000915527,-0.000915527,-2.42592,0.0550706,-0.0738423,0.0535176,0.0715807,-0.0913154,0.147455,-0.124546,-0.0819601,-0.0687027,0.0236893,0.00587463,0.0145721,0.0113678,0.0269699,0.0703049,0.00564575,-9.97986,0.117378,0.00518799,-0.0109863,0.0672913,-0.154877,-0.0108337,0.0393295,-0.098114
8,6,10.0097,0.0012207,-0.000457764,-2.4247,0.0562914,-0.0744527,0.0535176,0.0724962,-0.0903999,0.147149,-0.12363,-0.0804342,0.0659561,0.0242996,-0.000343323,0.0141525,0.00370026,0.0299072,0.0684738,0.0120544,-9.97986,0.105858,-0.00320435,-0.018425,0.062294,-0.164642,-0.0108337,0.0352859,-0.0749207
8,7,10.0097,0.000915527,-0.00137329,-2.42653,0.0562914,-0.0735371,0.0550435,0.07036,-0.090705,0.146539,-0.124241,-0.0819601,0.139008,0.0307083,0.0101089,0.0149155,-0.0105286,0.032692,0.0737,0.0180817,-9.97986,0.0971985,0.00328064,-0.0137711,0.0579834,-0.156631,-0.0117493,0.0165176,-0.0563049
8,8,10.0097,0.000610352,-0.000305176,-2.42562,0.0565965,-0.0738423,0.0553487,0.0712755,-0.0900947,0.14776,-0.124851,-0.0810445,0.132828,0.0270462,0.00202179,0.00835419,-0.0115967,0.0130081,0.0722122,0.0123596,-9.97986,0.0643539,0.00583649,-0.0221252,0.0588989,-0.143242,-0.0109482,0.0125885,-0.0350189
8,9,10.0097,0.000915527,0.000305176,-2.42684,0.0562914,-0.073232,0.0529073,0.0697496,-0.0925361,0.147455,-0.123325,-0.0810445,0.0923157,0.0317764,0.00804901,0.0120926,0.0110245,0.0163651,0.0683212,0.00671387,-9.97986,0.0335693,0.00556946,-0.0663376,0.0500488,-0.146332,-0.0139618,0.0108337,-0.0133514
9,0,10.0097,0,-0.000305176,-2.4244,0.0565965,-0.0744527,0.0538228,0.0679186,-0.0925361,0.147149,-0.123325,-0.0810445,0.0331116,0.0337219,0.0140381,0.017662,0.0566483,0.0293732,0.0592804,-0.00236511,-9.97986,0.0218201,0.0183487,-0.106735,0.0476456,-0.150719,-0.0104523,0.000534058,-0.00495911
9,1,10.0097,0.000610352,-0.000762939,-2.42745,0.055681,-0.0747579,0.0522969,0.0615099,-0.0931465,0.145624,-0.124851,-0.0819601,0.00156403,0.0336838,0.0147629,0.0137329,0.0819016,0.0263596,0.0519943,-0.0138092,-9.97986,-0.00507355,0.00637054,-0.13401,0.0364685,-0.149803,-0.00911713,-0.015564,-0.0401306
9,2,10.0097,0.000610352,-0.000915527,-2.42592,0.0547655,-0.0729268,0.0550435,0.0627306,-0.0916206,0.145013,-0.125461,-0.0825704,0.00759125,0.033989,0.0226974,0.0158691,0.095787,0.0123215,0.0395584,-0.0187683,-9.97986,-0.0469971,0.00209808,-0.134392,0.0342178,-0.139084,-0.00522614,-0.0188828,-0.0719452
9,3,10.0097,-0.000610352,-0.000762939,-2.42714,0.0559862,-0.0747579,0.0532125,0.0697496,-0.0922309,0.144708,-0.125156,-0.0831808,0.0266266,0.0338745,0.0170517,0.0156021,0.104523,0.00434875,0.0303268,-0.00747681,-9.97986,-0.0851822,-0.0043869,-0.11364,0.0291061,-0.148125,-0.0121307,-0.0228119,-0.0988388
9,4,10.0097,0.000305176,0.000457764,-2.42745,0.0547655,-0.0747579,0.0550435,0.0752428,-0.0922309,0.143792,-0.124851,-0.0831808,0.0260162,0.0314713,0.01194,0.0132751,0.0853348,-0.0108337,0.0192261,0.00331879,-9.97986,-0.102158,-0.00366211,-0.0909805,0.0256348,-0.140343,-0.0209045,-0.0260925,-0.120544
9,5,10.0097,-0.000305176,-0.000152588,-2.42867,0.0532396,-0.075063,0.0535176,0.0734117,-0.0931465,0.144403,-0.126682,-0.0856222,0.0231934,0.0255203,0.00724792,0.00724792,0.063858,-0.0216675,0.0116348,0.015564,-9.97986,-0.0944519,0.00553131,-0.0650024,0.0178146,-0.114059,-0.0255203,-0.018158,-0.0743484
9,6,10.0097,-0.000305176,-0.000610352,-2.42837,0.0538499,-0.0768941,0.0538228,0.0709703,-0.0934516,0.145013,-0.128208,-0.0874532,0.0239563,0.0244522,0.00507355,0.00717163,0.0286484,-0.0268936,-0.00938416,0.0107574,-9.97986,-0.107918,0.00522614,-0.0320435,0.0143051,-0.105629,-0.0297165,-0.0174713,-0.000228882
9,7,10.0097,0.00244141,-0.00137329,-2.42806,0.0535448,-0.0756734,0.0526021,0.0688341,-0.0943672,0.145318,-0.125461,-0.0865377,-0.00572205,0.0254059,0.00988007,0.0129318,-0.0173187,-0.0352478,-0.0170517,0.0125122,-9.97986,-0.111198,0.000305176,-0.00659943,-0.00793457,-0.093956,-0.0300598,-0.0229645,0.0577927
9,8,10.0097,0.000305176,-0.00152588,-2.42928,0.0535448,-0.0756734,0.0519917,0.0712755,-0.0934516,0.146234,-0.127292,-0.0865377,0.0257874,0.0259781,0.00366211,0.00747681,-0.0592804,-0.0397491,-0.0244141,0.026741,-9.97986,-0.0455475,3.8147e-005,0.0175476,-0.0209427,-0.0888824,-0.034523,-0.029068,0.104828
9,9,10.0097,0.000610352,-0.00183105,-2.42898,0.0544603,-0.0759786,0.0519917,0.07036,-0.0946723,0.143792,-0.127903,-0.0871481,0.0731659,0.0247955,0.00518799,0.00770569,-0.068779,-0.0367355,-0.0352097,0.0295639,-9.97986,0.051384,0.00534058,0.048027,-0.0296021,-0.0865936,-0.0310898,-0.0318146,0.118523
10,0,10.0097,0.000610352,-0.00167847,-2.42928,0.0526292,-0.0759786,0.0535176,0.0694445,-0.0977241,0.142877,-0.127598,-0.0865377,-0.0553513,0.0318909,0.00450134,0.0107956,-0.0587082,-0.0259399,-0.0442123,0.0416565,-9.97986,0.125351,0.00808716,0.0699615,-0.0351715,-0.0847244,-0.0304031,-0.0273895,0.103455
10,1,10.0097,0.00152588,-0.000762939,-2.42898,0.0538499,-0.0768941,0.0529073,0.0694445,-0.095893,0.142267,-0.127598,-0.0868429,-0.165901,0.0330353,0.00827789,0.00736237,-0.0371552,-0.0284958,-0.0509262,0.0534058,-9.97986,0.151291,0.00534058,0.0969315,-0.0404358,-0.0902939,-0.0267792,-0.0316238,0.0533676
10,2,10.0097,0.000610352,-0.000610352,-2.42837,0.0553758,-0.0741475,0.0526021,0.0688341,-0.0928413,0.143487,-0.126682,-0.0850118,-0.173035,0.0395203,0.0213623,0.00793457,-0.00488281,-0.0159073,-0.0578308,0.0575638,-9.97986,0.142822,0.0120926,0.100937,-0.0454712,-0.0975037,-0.0218582,-0.0373459,0.0105667
10,3,10.0097,0.000610352,-0.000610352,-2.42745,0.0541551,-0.0747579,0.0532125,0.0691393,-0.0928413,0.144403,-0.126072,-0.085317,-0.17128,0.050621,0.0240326,0.0159073,0.0291443,0.00923157,-0.0641632,0.0238037,-9.97986,0.131798,0.0165176,0.0997162,-0.0552368,-0.0975418,-0.0163651,-0.0386047,-0.00232697
10,4,10.0097,-0.000305176,-0.000152588,-2.42653,0.055681,-0.0753682,0.0544332,0.0697496,-0.0928413,0.145013,-0.126377,-0.0834859,-0.19268,0.0640488,0.0488663,0.0268555,0.076561,0.0225449,-0.0681305,-0.026474,-9.97986,0.124016,0.0177383,0.110931,-0.0642776,-0.0737,-0.0210571,-0.0377274,-0.00637054
10,5,10.0097,-0.000610352,0.000152588,-2.42531,0.0569017,-0.0729268,0.0538228,0.0694445,-0.0916206,0.147149,-0.124851,-0.0828756,-0.216255,0.0703049,0.0580597,0.0302887,0.111847,0.00930786,-0.0735474,-0.0594711,-9.97986,0.0880051,0.0146866,0.0921249,-0.0643921,-0.0617599,-0.0259781,-0.0345612,0.0130081
10,6,10.0097,-0.0012207,-0.000152588,-2.42562,0.0569017,-0.0729268,0.0553487,0.0749376,-0.0894843,0.145929,-0.124546,-0.0810445,-0.0587463,0.0777817,0.0630951,0.0323868,0.145264,-0.00957489,-0.0814056,-0.057106,-9.97986,0.0519943,0.0115967,0.0797272,-0.0648499,-0.0758362,-0.0236511,-0.0285721,0.00728607
10,7,10.0097,-0.000610352,0.000152588,-2.42592,0.0572069,-0.0747579,0.0565694,0.0740221,-0.0894843,0.146539,-0.123935,-0.0810445,0.219383,0.074234,0.0698853,0.031662,0.172615,-0.0235748,-0.0815582,-0.0475311,-9.97986,0.0424576,0.00934601,0.0819016,-0.0661469,-0.0793076,-0.0274277,-0.0293732,-0.0226593
10,8,10.0097,0.000305176,-0.000762939,-2.42501,0.0569017,-0.0747579,0.0535176,0.0718859,-0.0916206,0.145013,-0.124851,-0.0822652,0.300026,0.0693893,0.0640869,0.0289536,0.149498,-0.0328445,-0.0915909,-0.0279999,-9.97986,0.000495911,-3.8147e-005,0.0709915,-0.0754547,-0.0834274,-0.0177002,-0.0298691,-0.0364685
10,9,10.0097,0,-0.000305176,-2.42562,0.0569017,-0.0738423,0.0538228,0.0685289,-0.0934516,0.145013,-0.124241,-0.0810445,0.201569,0.060463,0.0646591,0.0217438,0.107803,-0.0381088,-0.0913239,-0.00904083,-9.97986,-0.0727844,0.00312805,0.0408936,-0.0811005,-0.0924683,-0.0211334,-0.0300598,-0.0801849
11,0,10.0097,0.00213623,-0.000915527,-2.4244,0.0559862,-0.073232,0.0535176,0.0657823,-0.0937568,0.144708,-0.124851,-0.0813497,0.0555801,0.0544739,0.0575256,0.0165558,0.0643921,-0.0366974,-0.0866699,0.0150681,-9.97986,-0.1614,0.00198364,0.0209427,-0.0858688,-0.0914001,-0.0195694,-0.03479,-0.137253
11,1,10.0097,-0.000915527,-0.000915527,-2.4244,0.055681,-0.0753682,0.0535176,0.0587633,-0.094062,0.144708,-0.125156,-0.0819601,-0.0688934,0.0368881,0.0475311,0.0131226,0.0298309,-0.0314331,-0.0794983,0.029068,-9.97986,-0.27317,-0.00228882,0.0266266,-0.0936508,-0.0995255,-0.026474,-0.0324249,-0.143814
11,2,10.0097,0.00183105,-0.0012207,-2.42653,0.0559862,-0.0747579,0.0547383,0.0618151,-0.0922309,0.146234,-0.125461,-0.0816549,-0.043335,0.0331497,0.0330734,0.0131989,0.0196838,-0.0258636,-0.0839996,0.0268173,-9.97986,-0.367622,-0.00175476,0.0430679,-0.0950241,-0.0982285,-0.0317383,-0.0205994,-0.0890732
11,3,10.0097,0,-0.000305176,-2.42562,0.0562914,-0.075063,0.0550435,0.0700548,-0.0897895,0.145929,-0.124851,-0.0831808,0.130539,0.0246048,0.0306702,0.00831604,0.0212097,-0.0151443,-0.0775909,0.0198364,-9.97986,-0.393715,-0.00526428,0.0509644,-0.0920105,-0.0904846,-0.0232315,-0.0128174,-0.0191498
11,4,10.0097,0.000610352,0.000762939,-2.42653,0.0541551,-0.0756734,0.054128,0.0789049,-0.0910102,0.145013,-0.125461,-0.0840963,0.240402,0.0115204,0.0113678,0.00713348,0.0151825,-0.00804901,-0.0841904,0.0209045,-9.97986,-0.298271,-0.00358582,0.0598907,-0.101051,-0.0987625,-0.0207901,-0.0127792,-0.00659943
11,5,10.0097,-0.000610352,0.000762939,-2.42867,0.0541551,-0.0762837,0.0526021,0.075548,-0.0955879,0.145318,-0.126682,-0.0856222,0.190659,0.00385284,0.00514984,0.0056839,0.000534058,0.0087738,-0.0773621,0.0239182,-9.97986,-0.120811,-0.00396729,0.0627899,-0.0974655,-0.0868225,-0.0172424,-0.010376,-0.0138855
11,6,10.0097,0.000305176,0.000152588,-2.42928,0.0535448,-0.0747579,0.0526021,0.0724962,-0.0949775,0.143182,-0.126987,-0.0856222,0.0566864,0.00297546,-0.00236511,0.00328064,-0.016861,0.0229645,-0.0635529,0.0290298,-9.97986,-0.00377655,-0.00808716,0.0428009,-0.0878143,-0.0796127,-0.0156403,-0.00247955,-0.0214386
11,7,10.0097,0.000915527,0.000457764,-2.42837,0.0538499,-0.0729268,0.0510762,0.0712755,-0.0949775,0.144403,-0.126987,-0.0868429,-0.0132751,0.000457764,-0.00881195,0.00606537,-0.0569916,0.0254059,-0.0535583,0.0296021,-9.97986,0.0839233,-0.0193405,0.0221252,-0.0742722,-0.0666046,-0.00930786,0.00461578,-0.0353241
11,8,10.0097,-0.000305176,0.000610352,-2.42867,0.0547655,-0.0759786,0.0519917,0.07036,-0.0937568,0.144708,-0.126377,-0.0859274,0.00751495,0.00347137,-0.0044632,0.000610352,-0.0860596,0.032196,-0.0503922,0.0278854,-9.97986,0.168304,-0.0243759,0.0134659,-0.0691223,-0.0728607,-0.00148773,0.0094223,-0.0317001
11,9,10.0097,0.0012207,0.000762939,-2.42837,0.0541551,-0.0768941,0.0532125,0.07036,-0.0943672,0.144403,-0.129123,-0.0874532,0.00747681,0.00614166,0.00244141,0.00793457,-0.0782394,0.04879,-0.0476074,0.0195313,-9.97986,0.205917,-0.0323868,0.0025177,-0.0572586,-0.0774765,0.00476837,0.0193405,-0.0278091
12,0,10.0097,0.000305176,-0.000152588,-2.42928,0.0547655,-0.0762837,0.0516866,0.0706652,-0.0952827,0.144708,-0.127292,-0.0865377,-0.0175858,0.0132751,0.00995636,0.00980377,-0.0690842,0.0418091,-0.0466156,0.01297,-9.97986,0.225067,-0.0506592,-0.00514984,-0.0446701,-0.0524139,0.00923157,0.0340271,-0.0104141
12,1,10.0097,-0.0012207,0.000762939,-2.42684,0.0553758,-0.0747579,0.0529073,0.0697496,-0.0919257,0.144708,-0.127292,-0.085317,0.00431061,0.0120926,0.0138092,0.0100708,-0.0550461,0.0271606,-0.0543976,0.0209045,-9.97986,0.199432,-0.0498581,-0.0094986,-0.0365067,-0.0082016,0.00476837,0.0561142,0.00999451
12,2,10.0097,0,0.000915527,-2.42806,0.055681,-0.0747579,0.0532125,0.0694445,-0.0925361,0.144708,-0.126377,-0.0844015,0.030365,0.0109863,0.0153732,0.0018692,-0.0337601,0.0191498,-0.062294,0.0176239,-9.97986,0.143089,-0.0453186,-0.000572205,-0.0345612,0.0159454,-0.0069809,0.052681,-0.0269699
12,3,10.0097,-0.000305176,0.000457764,-2.42714,0.0547655,-0.0744527,0.054128,0.0685289,-0.0928413,0.143792,-0.126682,-0.0840963,0.0574112,0.0139236,0.0159836,0.00751495,-0.0217819,0.00923157,-0.056839,0.0209808,-9.97986,0.109673,-0.0443649,0.0133896,-0.0365067,0.0283051,-0.00522614,0.0376511,-0.0730896
12,4,10.0097,0.000915527,0,-2.42623,0.055681,-0.075063,0.054128,0.0691393,-0.0937568,0.145013,-0.125461,-0.0844015,0.0699997,0.0136185,0.0174713,0.00301361,-0.0341415,-0.00270844,-0.0605774,0.0265884,-9.97986,0.0835037,-0.0257874,0.0265121,-0.0300217,0.0434113,-0.00411987,0.0284195,-0.0999069
12,5,10.0097,0.000915527,0.000610352,-2.42592,0.0565965,-0.0738423,0.054128,0.0697496,-0.0922309,0.146844,-0.125461,-0.0822652,0.0603485,0.0172806,0.015831,0.00331879,-0.0365829,-0.00442505,-0.0500488,0.038414,-9.97986,0.0679779,-0.0104141,0.0229645,-0.0297165,0.052681,-0.00301361,0.0157928,-0.105209
12,6,10.0097,0.000915527,-0.000305176,-2.4247,0.0569017,-0.0726216,0.0532125,0.0709703,-0.0916206,0.14776,-0.124241,-0.0819601,0.0482559,0.0166321,0.0214386,0.0037384,-0.00190735,-0.00694275,-0.0473404,0.0444031,-9.97986,0.0791168,0.00335693,-0.000953674,-0.0305176,0.0579071,-0.0056839,0.0100327,-0.0786591
12,7,10.0097,0.000305176,0.000152588,-2.4247,0.0559862,-0.0741475,0.0547383,0.0709703,-0.0931465,0.148065,-0.125156,-0.0816549,0.0192642,0.0164032,0.0193787,0.00694275,0.0407028,-0.00591278,-0.0386047,0.0448227,-9.97986,0.101128,0.00350952,-0.0195313,-0.0245285,0.0788116,-0.00713348,0.00804901,-0.089035
12,8,10.0097,0.000610352,0.000762939,-2.42501,0.0569017,-0.0735371,0.054128,0.0706652,-0.0919257,0.147149,-0.123325,-0.0810445,-0.0182343,0.0140762,0.0230789,0.00793457,0.0748062,-0.00247955,-0.0277328,0.045166,-9.97986,0.113029,-0.00892639,-0.0305939,-0.02388,0.119514,0.00640869,0.00610352,-0.117569
12,9,10.0097,-0.000915527,0.000152588,-2.4247,0.0559862,-0.0735371,0.0532125,0.0718859,-0.0916206,0.147149,-0.123935,-0.0810445,-0.00740051,0.0143814,0.016861,0.00324249,0.111504,-0.000839233,-0.014534,0.0380325,-9.97986,0.112457,-0.00701904,-0.0435257,-0.0191498,0.144272,0.0233459,0.00972748,-0.118866
13,0,10.0097,0.00213623,-0.000152588,-2.42592,0.0575121,-0.0735371,0.0538228,0.0685289,-0.090705,0.145318,-0.123935,-0.0804342,-0.0191879,0.0201416,0.0214386,0.0056076,0.134354,-0.00102997,-0.00190735,0.0357819,-9.97986,0.0900269,-0.00160217,-0.0246048,-0.02388,0.16037,0.0245285,0.0120163,-0.0870895
13,1,10.0097,0.000915527,-0.000457764,-2.42592,0.0559862,-0.075063,0.0535176,0.0618151,-0.0916206,0.148065,-0.125461,-0.0819601,-0.0345612,0.0225067,0.0253677,0.00812531,0.107155,0.000762939,0.016861,0.0240326,-9.97986,0.0714493,-0.00240326,-0.0172043,-0.0265503,0.197067,0.0274658,0.0112915,-0.0330734
13,2,10.0097,-0.000610352,-0.000152588,-2.42623,0.0565965,-0.0756734,0.0532125,0.0633409,-0.0922309,0.147455,-0.125156,-0.0825704,-0.0409317,0.0310516,0.0313568,0.00843048,0.0876617,0.0101089,0.0336075,0.0130844,-9.97986,0.0507736,-0.0164413,-0.0283051,-0.0215912,0.240593,0.0356293,0.0192261,-0.00675201
13,3,10.0097,0.00213623,0.000762939,-2.42714,0.0550706,-0.0738423,0.0547383,0.0679186,-0.0916206,0.148065,-0.125766,-0.0819601,-0.0592041,0.031929,0.0357056,0.0109482,0.0812912,0.0159073,0.0308609,0.0172424,-9.97986,0.0487137,-0.0408936,-0.0456619,-0.0144958,0.271225,0.032959,0.0240326,0.0220871
13,4,10.0097,0.000610352,0.000457764,-2.42684,0.0550706,-0.0756734,0.054128,0.0767687,-0.0919257,0.146234,-0.125156,-0.0834859,0.00141144,0.0312424,0.0261307,0.00843048,0.0627136,0.0224304,0.0279617,0.0185394,-9.97986,0.0676346,-0.0273132,-0.0613022,-0.00965118,0.29686,0.0348282,0.0239563,0.0693512
13,5,10.0097,0.000610352,0.000457764,-2.42806,0.0550706,-0.0768941,0.0526021,0.075548,-0.0931465,0.144403,-0.125766,-0.085317,0.0526428,0.0304413,0.0209808,0.00328064,0.0359726,0.0167084,0.0226593,0.0203323,-9.97986,0.0810623,0.00873566,-0.0777054,-0.0038147,0.32795,0.0357056,0.0143814,0.0632477
13,6,10.0097,0.000915527,0.000762939,-2.42898,0.0541551,-0.0753682,0.050771,0.0700548,-0.094062,0.142877,-0.126377,-0.0862325,0.0379181,0.0349808,0.0273895,0.0144196,-0.00408173,0.0172424,0.0191116,0.0421906,-9.97986,0.0880432,0.0238419,-0.0949478,-0.000572205,0.361633,0.0347137,0.00205994,0.0227356
13,7,10.0097,0.00244141,-0.000305176,-2.42928,0.0535448,-0.0759786,0.0519917,0.0691393,-0.0943672,0.144098,-0.126987,-0.0856222,0.0502396,0.0299072,0.022316,0.00835419,-0.0225067,0.0123596,0.00663757,0.0479507,-9.97986,0.0889206,0.0124741,-0.11158,-0.00202179,0.393524,0.0415802,-0.00614166,-0.0212097
13,8,10.0097,0.0012207,0.000457764,-2.42898,0.0520189,-0.0762837,0.0526021,0.0676134,-0.094062,0.144403,-0.125766,-0.0856222,0.066452,0.0325775,0.0268173,0.0104904,0.0110245,0.0255966,0.0105667,0.056839,-9.97986,0.0682068,-0.00728607,-0.104446,0.0139618,0.421753,0.0306702,-0.00659943,-0.0462723
13,9,10.0097,0,-0.000152588,-2.42928,0.0541551,-0.0759786,0.0532125,0.0676134,-0.0952827,0.143182,-0.127598,-0.0871481,0.0439835,0.0323105,0.0215912,0.00766754,0.0513458,0.0302505,0.0136566,0.05867,-9.97986,0.033226,-0.00770569,-0.106544,0.0184631,0.439835,0.022583,0.00171661,-0.0469208
14,0,10.0097,0.000305176,0.000305176,-2.42806,0.0535448,-0.0759786,0.0526021,0.0663927,-0.0949775,0.144403,-0.127903,-0.0868429,0.020752,0.0286865,0.0198364,0.0063324,0.107918,0.0234985,0.0221252,0.0600433,-9.97986,-0.00747681,-0.00183105,-0.102959,0.0279236,0.45826,0.0169754,0.0143433,-0.0516129
14,1,10.0097,-0.000610352,0.000762939,-2.42867,0.0535448,-0.075063,0.0519917,0.0697496,-0.0934516,0.145013,-0.126377,-0.0859274,0.0221634,0.0299454,0.0187683,0.00507355,0.155792,0.00709534,0.0394821,0.0678635,-9.97986,-0.0524139,0.0128174,-0.097084,0.0446701,0.500412,0.0118256,0.0156403,-0.0357819
14,2,10.0097,0.00152588,0.00106812,-2.42623,0.0547655,-0.075063,0.0522969,0.0688341,-0.0922309,0.146539,-0.126377,-0.0844015,0.0245667,0.0310135,0.0209427,0.00408173,0.136452,-0.00205994,0.0449753,0.0515747,-9.97986,-0.0681305,0.0164032,-0.0874329,0.0581741,0.538864,0.0102234,0.0127029,-0.021286
14,3,10.0097,0.000305176,0.00106812,-2.42837,0.055681,-0.0744527,0.0532125,0.0691393,-0.0925361,0.145318,-0.125156,-0.0828756,0.00671387,0.0265884,0.0173187,0.00217438,0.0740433,0.000305176,0.0513458,0.0485992,-9.97986,-0.0588226,-0.0132751,-0.0696564,0.0680542,0.569916,-0.00347137,0.00602722,-0.0193787
14,4,10.0097,-0.000305176,0.00137329,-2.42653,0.0553758,-0.0744527,0.054128,0.0706652,-0.0934516,0.147455,-0.125156,-0.0834859,0.00480652,0.032692,0.016861,0.00526428,0.0512314,0.0135422,0.0577545,0.0448608,-9.97986,-0.034256,-0.0247955,-0.0520325,0.0792313,0.595398,-0.00221252,0.00396729,-0.0198746
14,5,10.0097,0.00152588,0.0012207,-2.42623,0.0562914,-0.073232,0.0538228,0.0697496,-0.0913154,0.147149,-0.125156,-0.0816549,-0.00133514,0.0402451,0.0192642,-0.00167847,0.0340652,0.0182724,0.0569916,0.0345612,-9.97986,3.8147e-005,-0.0105286,-0.07267,0.0881958,0.608406,-0.00640869,0.000572205,-0.0165558
14,6,10.0097,0.000305176,0.00106812,-2.42562,0.0575121,-0.073232,0.0544332,0.0718859,-0.0925361,0.147149,-0.123935,-0.080129,-0.0109482,0.0393295,0.0214767,0.00247955,-0.0310135,0.00873566,0.0590515,0.0183868,-9.97986,0.0180435,0.00968933,-0.079689,0.101128,0.608253,-0.0158691,-0.00587463,-0.00988007
14,7,10.0097,-0.000610352,0.0012207,-2.42623,0.0562914,-0.0738423,0.0550435,0.072191,-0.0919257,0.145624,-0.124241,-0.0810445,-0.00801086,0.0401688,0.0202942,0.00659943,-0.049324,-0.0117111,0.0540543,-0.00225067,-9.97986,0.0156021,0.017662,-0.0695801,0.110016,0.613365,-0.0179291,-0.0127411,-0.0169754
14,8,10.0097,0,0.000305176,-2.42562,0.0572069,-0.0744527,0.0532125,0.07036,-0.0922309,0.146844,-0.123935,-0.0810445,-0.00869751,0.0408554,0.0254059,0.00118256,-0.0642395,-0.0256729,0.0551224,-0.00419617,-9.97986,0.00572205,0.0195694,-0.0475311,0.115128,0.619354,-0.0201416,-0.0123596,-0.0231171
14,9,10.0097,0.00305176,0.000915527,-2.42531,0.0569017,-0.0744527,0.055959,0.0712755,-0.0903999,0.146844,-0.124241,-0.080129,-0.00152588,0.0448227,0.02388,0.00614166,-0.0381851,-0.0395966,0.0530243,0.0123596,-9.97986,-0.00118256,0.0256348,-0.0056839,0.116997,0.628586,-0.0284576,-0.0111008,-0.0188446
15,0,10.0097,0.000610352,0.000305176,-2.42531,0.0553758,-0.073232,0.055959,0.0700548,-0.0913154,0.146234,-0.124241,-0.0798238,-0.00453949,0.0466919,0.0257111,0.00953674,0.0146866,-0.0502777,0.0547791,0.0160599,-9.97986,-0.0144958,0.0149536,0.0636292,0.119896,0.637054,-0.0314713,-0.0069809,-0.0242996
15,1,10.0097,0.000610352,0.000152588,-2.42653,0.0547655,-0.0738423,0.055959,0.0608995,-0.0928413,0.145318,-0.124851,-0.0810445,-0.0531006,0.0427628,0.0263214,0.00801086,0.00995636,-0.067749,0.0646973,0.018158,-9.97986,-0.0189972,0.00953674,0.0970459,0.127335,0.624733,-0.0260544,-0.00522614,-0.0235367
15,2,10.0097,0.000915527,0,-2.42653,0.0562914,-0.0735371,0.054128,0.065172,-0.0931465,0.144098,-0.125766,-0.0825704,-0.0781631,0.0272369,0.0246429,0.0012207,0.0185394,-0.0735474,0.0653839,0.0163269,-9.97986,-0.0217438,-0.00320435,0.0988007,0.130615,0.608521,-0.0212479,0.00148773,-0.0205231
15,3,10.0097,0,0.000457764,-2.42684,0.055681,-0.0738423,0.0538228,0.0691393,-0.0925361,0.144403,-0.126072,-0.0816549,-0.0585556,0.0183487,0.0149536,0.00923157,0.0284195,-0.068512,0.0604248,0.0258255,-9.97986,-0.016098,-0.00038147,0.0867462,0.131378,0.584297,-0.016861,0.0172424,-0.0432205
15,4,10.0097,0.000915527,0.0012207,-2.42623,0.0544603,-0.0738423,0.0516866,0.0770738,-0.0925361,0.144708,-0.125156,-0.0834859,-0.030365,0.0157547,0.0131607,0.00465393,0.0223541,-0.0569916,0.0593567,0.030899,-9.97986,-0.0147629,0.00701904,0.0527573,0.133247,0.542336,-0.00495911,0.0304031,-0.0522614
15,5,10.0097,0.00152588,0.000305176,-2.42776,0.0547655,-0.0759786,0.0526021,0.0737169,-0.0949775,0.144403,-0.126682,-0.085317,0.0131989,0.0185776,0.0137711,0.00724792,-0.00144958,-0.0308228,0.0431061,0.0320435,-9.97986,-0.0120926,0.00534058,0.0203323,0.134583,0.494156,0.00209808,0.0427628,-0.0562286
15,6,10.0097,0.000915527,-0.000457764,-2.42776,0.0526292,-0.075063,0.0516866,0.0709703,-0.0937568,0.142572,-0.127292,-0.0856222,0.0613022,0.0253296,0.0141525,0.00694275,-0.0322723,-0.00797272,0.0326538,0.0320816,-9.97986,-0.0121307,0.0278473,-0.00526428,0.138206,0.444565,0.00656128,0.046196,-0.0598907
15,7,10.0097,-0.0012207,0.000457764,-2.4305,0.0544603,-0.0762837,0.0516866,0.0682238,-0.095893,0.143487,-0.127598,-0.0859274,0.0617218,0.0230408,0.0112534,0.010376,-0.063858,-0.01091,0.0179672,0.0367737,-9.97986,-0.0123596,0.0566483,-0.0300217,0.145454,0.397186,0.0120163,0.0477219,-0.0498581
15,8,10.0097,-0.0012207,0.000305176,-2.42959,0.0535448,-0.0762837,0.0516866,0.0676134,-0.0971137,0.143487,-0.126682,-0.0865377,-0.0416946,0.0307846,0.0205994,0.00907898,-0.10994,-0.0110245,0.00598907,0.0482178,-9.97986,-0.00774384,0.087204,-0.0624847,0.14576,0.345497,0.0094223,0.0445938,-0.0384903
15,9,10.0097,0.00152588,-0.000915527,-2.42867,0.0538499,-0.0756734,0.0519917,0.067003,-0.0955879,0.143182,-0.127292,-0.0865377,-0.13279,0.0333405,0.023613,0.00591278,-0.132751,-0.0114441,-0.00221252,0.0532532,-9.97986,-0.00743866,0.0966263,-0.0978088,0.135956,0.292664,0.0031662,0.042572,0.00114441
16,0,10.0097,-0.000305176,-0.0012207,-2.42989,0.0544603,-0.0756734,0.0510762,0.0682238,-0.0971137,0.142877,-0.127292,-0.0877584,-0.126038,0.0381851,0.0221252,0.00331879,-0.118065,-0.00530243,0.00865936,0.04776,-9.97986,-0.0117111,0.0594711,-0.104256,0.131531,0.227394,-0.00286102,0.0344086,0.0422287
16,1,10.0097,0.000915527,-0.000152588,-2.42745,0.0547655,-0.075063,0.0535176,0.067003,-0.0946723,0.141351,-0.127903,-0.0856222,-0.115089,0.0415421,0.0287628,0.00835419,-0.0807571,-0.00492096,0.0116348,0.0289154,-9.97986,-0.0239182,0.0278854,-0.0844574,0.129242,0.147438,-0.0019455,0.0213242,0.0653839
16,2,10.0097,-0.000305176,-0.000152588,-2.42592,0.0569017,-0.0747579,0.0547383,0.0691393,-0.0946723,0.143487,-0.125766,-0.085317,-0.115509,0.0456619,0.0334167,0.0107193,-0.0239182,-0.00873566,0.0105667,0.00350952,-9.97986,-0.0322342,-0.00652313,-0.0649643,0.129395,0.0934601,-0.000953674,0.00797272,0.0760651
16,3,10.0097,-0.00183105,0,-2.42623,0.0559862,-0.0747579,0.0544332,0.0694445,-0.0931465,0.144708,-0.125766,-0.0840963,-0.0783539,0.0570679,0.0448227,0.019455,0.0466919,-0.0105667,0.0120163,-0.0209427,-9.97986,-0.0344849,-0.00537872,-0.0252151,0.135345,0.0483322,-0.000457764,0.0112915,0.105476
16,4,10.0097,0.00244141,0.000305176,-2.42592,0.0565965,-0.075063,0.0547383,0.07036,-0.0931465,0.144708,-0.126987,-0.0847066,-0.00289917,0.0583649,0.0551605,0.025444,0.0955582,-0.0125885,0.0208664,-0.0292206,-9.97986,-0.0325012,0.0109482,0.0113297,0.126228,-0.00305176,-0.00289917,0.0269699,0.136986
16,5,10.0097,0.000915527,0.000305176,-2.42684,0.0553758,-0.073232,0.0562642,0.072191,-0.0910102,0.146844,-0.125461,-0.0819601,0.0489807,0.0638962,0.0539017,0.0245667,0.100021,-0.000953674,0.0318527,-0.0168228,-9.97986,-0.0306702,-0.0243759,0.0491333,0.123329,-0.0499725,-0.00133514,0.0392532,0.155678
16,6,10.0097,0.000610352,-0.000457764,-2.42562,0.0559862,-0.0747579,0.0580953,0.07036,-0.0919257,0.144403,-0.124241,-0.0813497,0.0721741,0.0531387,0.0519562,0.0218582,0.0867844,0.014267,0.0270081,-0.0148392,-9.97986,-0.0431442,-0.0534439,0.0860977,0.122833,-0.112343,-0.00335693,0.0408554,0.177116
16,7,10.0097,0.000610352,0,-2.42562,0.0575121,-0.0738423,0.0553487,0.0712755,-0.0928413,0.144708,-0.124546,-0.0813497,0.102959,0.0329208,0.045929,0.0180817,0.0605392,0.0322723,0.0231934,-0.00968933,-9.97986,-0.0761032,-0.0481415,0.107498,0.126991,-0.179214,-0.000991821,0.0338745,0.17971
16,8,10.0097,0.00152588,-0.000152588,-2.4247,0.0559862,-0.073232,0.055959,0.07036,-0.0928413,0.145013,-0.124546,-0.0819601,0.126038,0.0209808,0.043335,0.0169754,0.0335312,0.0544357,0.0251389,0.00389099,-9.97986,-0.139732,-0.00652313,0.121193,0.130157,-0.224648,-0.000419617,0.0374985,0.157509
16,9,10.0097,0.000610352,0.000762939,-2.4244,0.0562914,-0.0738423,0.0562642,0.0709703,-0.0925361,0.145624,-0.124546,-0.0807394,0.12867,0.0183868,0.0344849,0.0178528,0.00873566,0.0645065,0.0278091,0.0069046,-9.97986,-0.2108,0.033493,0.143661,0.136528,-0.256462,-0.0012207,0.0372314,0.15213
17,0,10.0097,0,0.000915527,-2.42653,0.0575121,-0.0735371,0.0550435,0.0697496,-0.0928413,0.145624,-0.12363,-0.0807394,0.135193,0.0136185,0.0288773,0.0151062,-0.038681,0.0541306,0.0323105,0.0194168,-9.97986,-0.259056,0.0113297,0.169716,0.143661,-0.291557,0.00175476,0.0363159,0.155106
17,1,10.0097,0.000610352,-0.000152588,-2.42623,0.0565965,-0.0744527,0.0553487,0.0624254,-0.0946723,0.145624,-0.125766,-0.0813497,0.145721,0.0120544,0.0178146,0.00728607,-0.0757599,0.0434875,0.0256348,0.030098,-9.97986,-0.243263,0.00946045,0.196075,0.147171,-0.328331,-0.00164032,0.0224686,0.150452
17,2,10.0097,-0.000915527,0.000610352,-2.42592,0.0562914,-0.0738423,0.0538228,0.0673082,-0.0937568,0.143792,-0.126377,-0.0828756,0.119476,0.000343323,0.0094986,0.00289917,-0.0973129,0.0255203,0.0285721,0.0440216,-9.97986,-0.163193,0.0178909,0.200424,0.151024,-0.370941,-0.00328064,0.00579834,0.160332
17,3,10.0097,0.0012207,0.000152588,-2.42653,0.055681,-0.0747579,0.0538228,0.0712755,-0.0934516,0.146234,-0.12302,-0.0819601,0.0616837,0.00274658,0.0030899,0.00404358,-0.0976563,0.00419617,0.0317383,0.050621,-9.97986,-0.0476837,-0.0105667,0.17601,0.15789,-0.395012,-0.0031662,-0.00431061,0.180664
17,4,10.0097,-0.000610352,0.00167847,-2.42745,0.0550706,-0.0744527,0.0538228,0.0789049,-0.0937568,0.145013,-0.125766,-0.0847066,-0.0359726,0.000305176,-0.00614166,0.00396729,-0.0858307,-0.0266266,0.0428772,0.0544357,-9.97986,0.0751495,-0.0286865,0.162697,0.162392,-0.420189,-0.00312805,-0.00556946,0.198135
17,5,10.0097,0.00183105,0.00183105,-2.42806,0.0544603,-0.0753682,0.0532125,0.0743273,-0.0949775,0.144098,-0.126682,-0.0844015,-0.102768,0.00205994,-0.00530243,0.00904083,-0.0779724,-0.0518799,0.0537872,0.0511169,-9.97986,0.152779,-0.0157928,0.188866,0.185204,-0.43644,-0.000953674,0.0136185,0.204735
17,6,10.0097,0.0012207,0.00137329,-2.42867,0.0532396,-0.0756734,0.0538228,0.0706652,-0.0955879,0.143792,-0.126987,-0.085317,-0.113029,0.00476837,-0.00259399,0.00686646,-0.0845337,-0.0756073,0.0653076,0.0395584,-9.97986,0.141449,-0.0159454,0.232086,0.202599,-0.452576,-0.000305176,0.0188446,0.222702
17,7,10.0097,-0.000610352,0.00198364,-2.42867,0.0541551,-0.0762837,0.0544332,0.0682238,-0.095893,0.143792,-0.127292,-0.0856222,-0.179443,0.0115967,0.00301361,0.0163269,-0.0940704,-0.0931931,0.0790405,0.00652313,-9.97986,0.117073,-0.0231171,0.257874,0.224915,-0.47081,0.000343323,0.0145721,0.216904
17,8,10.0097,0.00152588,0.00137329,-2.42837,0.0529344,-0.0759786,0.0526021,0.0706652,-0.094062,0.143182,-0.127292,-0.0868429,-0.171967,0.0136185,0.00396729,0.0203705,-0.0546646,-0.0923538,0.0797653,-0.00572205,-9.97986,0.0872421,-0.0292587,0.261955,0.24437,-0.490608,-0.00228882,0.0152969,0.203743
17,9,10.0097,0.00244141,0.000305176,-2.42989,0.0532396,-0.0765889,0.0510762,0.0688341,-0.0955879,0.144098,-0.127598,-0.0865377,-0.0799179,0.0185013,0.00671387,0.0142288,-0.00823975,-0.0833511,0.0789261,-0.00183105,-9.97986,0.0789642,-0.0352097,0.258179,0.259094,-0.506325,0.00442505,0.0124741,0.197487
18,0,10.0097,0,0.00106812,-2.42837,0.0529344,-0.0759786,0.0513814,0.0694445,-0.0946723,0.142877,-0.126987,-0.0871481,-0.0588989,0.0259781,0.00797272,0.0175095,0.0302505,-0.0593185,0.0772095,0.00904083,-9.97986,0.0843811,-0.0254059,0.262985,0.270309,-0.515366,0.00228882,0.0144958,0.193405
18,1,10.0097,0.000915527,0.000305176,-2.42837,0.0541551,-0.0762837,0.0526021,0.0709703,-0.0934516,0.143487,-0.127292,-0.0862325,0.0423431,0.0233078,0.00190735,0.0141144,0.0806046,-0.0392151,0.0735092,0.0149155,-9.97986,0.0815582,-0.020256,0.274429,0.26619,-0.526695,-0.00213623,0.00461578,0.19371
18,2,10.0097,0.0012207,-0.000305176,-2.42745,0.0547655,-0.0744527,0.0532125,0.07036,-0.0931465,0.144708,-0.126377,-0.0856222,0.13073,0.0178146,0.000801086,0.0131226,0.107231,-0.0308609,0.0714493,0.0281525,-9.97986,0.0683594,-0.0190353,0.27916,0.272217,-0.53196,-0.00133514,-0.00469208,0.17643
18,3,10.0097,0.00183105,-0.000152588,-2.42714,0.0553758,-0.0747579,0.0535176,0.0694445,-0.0946723,0.143792,-0.125766,-0.0847066,0.0935364,0.00904083,-0.00427246,0.0150299,0.135574,-0.00759125,0.077095,0.0283813,-9.97986,0.0667953,-0.00961304,0.266533,0.261421,-0.538902,0.00522614,-0.0175858,0.167236
18,4,10.0097,0.0012207,-0.00106812,-2.42684,0.0559862,-0.0747579,0.054128,0.07036,-0.0946723,0.144403,-0.126987,-0.0834859,0.0666809,0.00709534,-0.00133514,0.0056076,0.177727,0.0271606,0.0851822,0.0218201,-9.97986,0.0531006,0.00270844,0.277023,0.245857,-0.545349,-0.000762939,-0.0233078,0.1828
18,5,10.0097,0.000305176,-0.000152588,-2.4244,0.0559862,-0.0729268,0.0544332,0.0697496,-0.0928413,0.146844,-0.125461,-0.0825704,0.0274277,0.00846863,0.00263214,0.00366211,0.220757,0.0663757,0.0938797,0.0102234,-9.97986,0.0243759,0.000534058,0.271683,0.244102,-0.552635,0.00305176,-0.0307465,0.213814
18,6,10.0097,0,-0.000457764,-2.42501,0.0572069,-0.0738423,0.0538228,0.0715807,-0.0928413,0.146844,-0.124241,-0.0819601,0.0232697,0.0110245,0.00255585,0.00576019,0.267525,0.101547,0.0989532,-0.0127029,-9.97986,0.0119019,-0.0151825,0.270538,0.236778,-0.553474,0.00289917,-0.03479,0.243683
18,7,10.0097,0.00152588,-0.00152588,-2.42379,0.0572069,-0.0744527,0.0574849,0.0715807,-0.0922309,0.146844,-0.121189,-0.0813497,0.0161362,0.00835419,0.00125885,0.0109863,0.310211,0.126648,0.101128,-0.0146484,-9.97986,0.0311279,-0.00255585,0.314407,0.207405,-0.544319,0.0069046,-0.0299072,0.246353
18,8,10.0097,0.000305176,-0.00228882,-2.42562,0.0569017,-0.0726216,0.0556539,0.0718859,-0.0919257,0.147455,-0.12302,-0.0825704,-0.00335693,0.0104523,0.00656128,0.0169754,0.304375,0.135002,0.0977707,-0.00831604,-9.97986,0.0175858,0.0165939,0.329704,0.17952,-0.535202,0.00671387,-0.0186157,0.254936
18,9,10.0097,-0.000610352,-0.00167847,-2.42409,0.0550706,-0.073232,0.0574849,0.0715807,-0.090705,0.14776,-0.124241,-0.0810445,0.0273132,0.0241852,0.0114822,0.0131989,0.279846,0.137749,0.0939178,0.00141144,-9.97986,-0.000686646,0.0151825,0.341835,0.162392,-0.517426,0.0082016,0.00152588,0.261993
19,0,10.0097,0.000610352,-0.00152588,-2.4244,0.0572069,-0.0744527,0.0565694,0.07036,-0.0910102,0.145624,-0.124241,-0.0813497,0.0466919,0.0284195,0.0112534,0.0153351,0.265388,0.143509,0.0931549,0.00774384,-9.97986,-0.00167847,0.022049,0.374794,0.136757,-0.50621,0.00740051,0.0130463,0.233345
19,1,10.0097,-0.000305176,-0.00289917,-2.42653,0.0562914,-0.0744527,0.054128,0.0642565,-0.094062,0.145013,-0.125766,-0.0831808,0.0635147,0.00915527,0.0132751,0.0075531,0.222397,0.134926,0.0914383,0.00965118,-9.97986,0.0056076,0.0197601,0.371895,0.102882,-0.51178,0.00671387,0.0188828,0.196838
19,2,10.0097,0.000610352,-0.00305176,-2.42592,0.0550706,-0.0744527,0.0547383,0.0630358,-0.0931465,0.145013,-0.126072,-0.0828756,0.0699615,0.001297,0.0150299,0.0082016,0.195808,0.138206,0.0914383,0.0138092,-9.97986,0.00431061,0.00999451,0.349998,0.0688553,-0.505714,0.00907898,0.0151825,0.18177
19,3,10.0097,-0.000305176,-0.00274658,-2.42653,0.0553758,-0.0744527,0.0538228,0.0685289,-0.0913154,0.144403,-0.125766,-0.0844015,0.0414276,0.00370026,0.0113297,0.00595093,0.195465,0.129356,0.0930023,0.0157166,-9.97986,0.00202179,0.0025177,0.32795,0.0384903,-0.498466,0.00892639,0.0145721,0.165405
19,4,10.0097,0.0012207,-0.00228882,-2.42623,0.0550706,-0.0747579,0.0519917,0.0767687,-0.0913154,0.144403,-0.125156,-0.0834859,0.033226,-0.00259399,0.00572205,0.0146866,0.177574,0.119972,0.0983047,0.0141525,-9.97986,0.0336075,-0.013504,0.299377,0.0117111,-0.499954,0.0136185,0.0360107,0.134926
19,5,10.0097,-0.000610352,-0.00350952,-2.42837,0.0550706,-0.0762837,0.0495503,0.0728014,-0.0952827,0.143487,-0.127292,-0.0871481,0.0167465,0.00114441,0.0112915,0.0102997,0.163879,0.113106,0.099411,0.0127411,-9.97986,0.0830841,-0.00713348,0.214539,-0.0416946,-0.513458,0.0108719,0.0431824,0.125237
19,6,10.0097,-0.00183105,-0.00518799,-2.42928,0.0547655,-0.075063,0.050771,0.0709703,-0.0949775,0.144708,-0.127598,-0.0880636,0.0128937,0.00724792,0.0137711,0.00743866,0.147362,0.102272,0.0999832,0.0148392,-9.97986,0.100517,0.0205994,0.121307,-0.0854111,-0.519676,0.00930786,0.0385284,0.157776
19,7,10.0097,-0.000610352,-0.00350952,-2.42806,0.0538499,-0.0756734,0.0516866,0.0682238,-0.0943672,0.144403,-0.126987,-0.0874532,0.0165939,0.00827789,0.0153351,0.010643,0.0952911,0.0900269,0.0945282,0.010643,-9.97986,0.0883102,0.034523,0.0931549,-0.123672,-0.515099,0.0146103,0.0281525,0.195122
19,8,10.0097,0.000305176,-0.00411987,-2.42898,0.0532396,-0.0765889,0.0513814,0.0673082,-0.0934516,0.144403,-0.126377,-0.0874532,0.0160599,0.0107956,0.010376,0.0123215,0.026207,0.0954437,0.0880432,0.0117493,-9.97986,0.071907,0.0399017,0.0795746,-0.168762,-0.500221,0.0111389,0.0247955,0.216713
19,9,10.0097,0.00244141,-0.00534058,-2.43111,0.0532396,-0.0771993,0.0513814,0.0688341,-0.0943672,0.144708,-0.127292,-0.0877584,0.0186539,0.00926971,0.00659943,0.00938416,-0.0276184,0.0948334,0.0930786,0.00854492,-9.97986,0.063324,0.0366974,0.0468826,-0.215645,-0.477104,0.0104523,0.026741,0.225563
20,0,10.0097,0.000610352,-0.00427246,-2.42928,0.0541551,-0.0747579,0.0516866,0.0685289,-0.0955879,0.142877,-0.127903,-0.0874532,0.0161362,0.0195313,0.016861,-0.00247955,-0.0701141,0.099411,0.0978088,0.0125885,-9.97986,0.0697327,0.0382614,-0.0198746,-0.244865,-0.49057,0.0120926,0.0263214,0.196915
20,1,10.0097,0.000610352,-0.00335693,-2.42898,0.0538499,-0.0753682,0.0513814,0.0697496,-0.0955879,0.141656,-0.127292,-0.0862325,0.0138474,0.0127411,0.00823975,0.000114441,-0.096283,0.107956,0.0981903,0.0179672,-9.97986,0.0810623,0.0387955,-0.0972366,-0.267601,-0.518456,0.0138092,0.0235367,0.160904
20,2,10.0097,0.000915527,-0.0038147,-2.42776,0.0550706,-0.075063,0.0519917,0.0694445,-0.0934516,0.143182,-0.126072,-0.0856222,0.0121307,0.0188065,0.0101471,0.00396729,-0.0975418,0.119553,0.0909042,0.0216293,-9.97986,0.0849533,0.032692,-0.122337,-0.307617,-0.527916,0.0150299,0.022316,0.149422
20,3,10.0097,0,-0.00335693,-2.42714,0.0550706,-0.075063,0.0529073,0.0691393,-0.0928413,0.143487,-0.126072,-0.0859274,0.00904083,0.0288773,0.013504,0.00465393,-0.0588989,0.11322,0.0953293,0.0284195,-9.97986,0.0850296,0.0418854,-0.139198,-0.345154,-0.521965,0.0162125,0.0351715,0.0908279
20,4,10.0097,0.000305176,-0.00305176,-2.42592,0.0565965,-0.0741475,0.0526021,0.07036,-0.0925361,0.141961,-0.126377,-0.085317,0.0082016,0.0220871,0.0123596,-0.00320435,0.018158,0.0992966,0.102425,0.0242996,-9.97986,0.0882721,0.0441742,-0.153313,-0.373611,-0.536728,0.0230789,0.0485611,-0.0688553
20,5,10.0097,-0.000610352,-0.00320435,-2.4244,0.055681,-0.0735371,0.0547383,0.0706652,-0.0910102,0.143792,-0.124241,-0.0825704,0.00663757,0.0165176,0.0125504,-0.00610352,0.0816727,0.0701904,0.0971985,0.0159073,-9.97986,0.0853348,0.0404358,-0.164642,-0.411911,-0.548973,0.0204468,0.060997,-0.186996
20,6,10.0097,-0.000305176,-0.00305176,-2.42501,0.0559862,-0.0741475,0.0544332,0.0712755,-0.090705,0.146539,-0.124546,-0.0822652,0.00339508,0.00713348,0.00900269,0.00110626,0.0729752,0.0477219,0.109215,0.0160217,-9.97986,0.0740433,0.0378036,-0.177612,-0.446281,-0.513496,0.0189972,0.0795364,-0.174332
20,7,10.0097,0.00152588,-0.00228882,-2.42531,0.0550706,-0.0744527,0.0544332,0.0709703,-0.0913154,0.148065,-0.124546,-0.0822652,0.00465393,0.00179291,0.0136948,-0.00427246,0.0453568,0.0426102,0.115013,0.0219345,-9.97986,0.0534821,0.0333023,-0.195427,-0.469398,-0.450134,0.0320053,0.104599,-0.126686
20,8,10.0097,0.00183105,-0.00183105,-2.4247,0.0569017,-0.0729268,0.054128,0.0718859,-0.0897895,0.147455,-0.124546,-0.0816549,0.00629425,-0.00808716,0.0160599,-0.00671387,0.0245285,0.0362778,0.113983,0.0224686,-9.97986,0.0414658,0.0363541,-0.229721,-0.481758,-0.398293,0.0391006,0.124512,-0.119286
20,9,10.0097,-0.000915527,-0.00106812,-2.42562,0.0559862,-0.0735371,0.0550435,0.0709703,-0.0897895,0.147455,-0.12363,-0.0810445,0.00862122,0.00621796,0.0226593,-0.0154877,-0.0391769,0.0303268,0.116806,0.0208282,-9.97986,0.0304794,0.0331497,-0.237656,-0.501251,-0.374603,0.0460052,0.161362,-0.0985718
21,0,10.0097,0.00213623,-0.00183105,-2.4247,0.0562914,-0.0723164,0.0553487,0.0712755,-0.0894843,0.14837,-0.124241,-0.0810445,-0.00038147,0.0104904,0.0253296,0.00305176,-0.137253,0.0194168,0.115089,0.0069809,-9.97986,0.0208282,0.0338364,-0.248222,-0.52906,-0.361938,0.0489426,0.193138,-0.0695419
21,1,10.0097,0,-0.00274658,-2.42562,0.0562914,-0.0744527,0.0535176,0.0618151,-0.0934516,0.146539,-0.125156,-0.0831808,0.00423431,0.0165939,0.0267029,0.0485992,-0.206604,0.00965118,0.115967,0.0106049,-9.97986,0.0143433,0.0328064,-0.260582,-0.544395,-0.368347,0.0288391,0.204277,-0.0487518
21,2,10.0097,0.00152588,-0.00289917,-2.42714,0.0553758,-0.0744527,0.0547383,0.0639513,-0.0931465,0.145624,-0.126072,-0.0831808,0.00137329,0.0179291,0.0263596,0.0534821,-0.281906,-0.00202179,0.115852,0.0188065,-9.97986,0.01194,0.0364685,-0.226593,-0.5616,-0.39238,0.0197601,0.205727,-0.0675583
21,3,10.0097,0.0012207,-0.0012207,-2.42623,0.0541551,-0.075063,0.0550435,0.0685289,-0.0919257,0.144098,-0.125156,-0.0825704,0.0025177,0.0177765,0.0257111,0.0506973,-0.329475,-0.00110626,0.113716,0.0196838,-9.97986,0.000915527,0.0435257,-0.203056,-0.576096,-0.393562,0.0146866,0.19928,-0.103378
21,4,10.0097,-0.000305176,-0.000457764,-2.42623,0.0565965,-0.0756734,0.0553487,0.077379,-0.0922309,0.145929,-0.125461,-0.0828756,-0.00114441,0.0186539,0.0244904,0.0496292,-0.331497,0.000839233,0.110283,0.0160217,-9.97986,-0.00038147,0.0452423,-0.187874,-0.576324,-0.358391,0.00629425,0.181046,-0.098877
21,5,10.0097,0.000610352,0.000457764,-2.42837,0.0547655,-0.0753682,0.0538228,0.0734117,-0.0943672,0.144098,-0.126682,-0.085317,-0.00255585,0.0232697,0.0224304,0.0310516,-0.336304,-0.0251389,0.113144,0.0159073,-9.97986,0.00152588,0.0374222,-0.144958,-0.578499,-0.335503,0.000572205,0.166512,-0.113525
21,6,10.0097,0.000915527,-0.000457764,-2.42837,0.0532396,-0.0756734,0.0538228,0.0700548,-0.0937568,0.143792,-0.126682,-0.0859274,0.000343323,0.0342178,0.0292587,0.0308609,-0.309601,-0.0402451,0.118256,0.0205612,-9.97986,-0.00480652,0.0419998,-0.100861,-0.56572,-0.310593,-0.00259399,0.179787,-0.150032
21,7,10.0097,0.000305176,0.00137329,-2.42928,0.0538499,-0.0759786,0.0544332,0.0682238,-0.0931465,0.143487,-0.127292,-0.0856222,-0.00522614,0.0361252,0.0311661,0.0209045,-0.260582,-0.0493622,0.11055,0.0242233,-9.97986,-0.0109863,0.0431442,-0.0469208,-0.551796,-0.28801,-0.00827789,0.172539,-0.190125
21,8,10.0097,0,0.000915527,-2.42959,0.0535448,-0.0759786,0.0532125,0.0688341,-0.094062,0.143182,-0.124851,-0.0856222,-0.00270844,0.0360489,0.0374603,0.0133514,-0.253983,-0.0392151,0.106468,0.0415421,-9.97986,-0.0108719,0.0411606,-0.0240707,-0.531807,-0.261421,-0.0112534,0.139351,-0.224037
21,9,10.0097,0.00152588,0.00198364,-2.42806,0.0538499,-0.075063,0.0532125,0.0679186,-0.0943672,0.143182,-0.127292,-0.0862325,-0.00209808,0.0188065,0.0362015,0.0201797,-0.232849,-0.0319672,0.105515,0.0658417,-9.97986,-0.0190735,0.0331879,-0.0393295,-0.505257,-0.259743,-0.0157166,0.10891,-0.221291
22,0,10.0097,0.000915527,0.00259399,-2.42867,0.0541551,-0.0768941,0.0510762,0.0673082,-0.0955879,0.143792,-0.127292,-0.0859274,0.000343323,0.0127411,0.0336075,0.0210571,-0.179062,-0.021286,0.104637,0.0833511,-9.97986,-0.0199127,0.0357056,-0.068512,-0.470886,-0.257454,-0.0185394,0.0728989,-0.195198
22,1,10.0097,-0.000610352,0.00259399,-2.42867,0.0535448,-0.0765889,0.050771,0.0676134,-0.0937568,0.145624,-0.127292,-0.0847066,-0.00389099,0.0296783,0.0326157,0.014267,-0.124931,-0.0062561,0.0913239,0.0818253,-9.97986,-0.018425,0.047493,-0.137863,-0.439148,-0.226898,-0.0261307,0.0449753,-0.163803
22,2,10.0097,0.0012207,0.00198364,-2.42714,0.0547655,-0.075063,0.0519917,0.0691393,-0.0928413,0.146539,-0.126682,-0.0847066,-0.000419617,0.041275,0.0320053,0.0160599,-0.0911331,-0.00350952,0.0853729,0.129471,-9.97986,-0.0250626,0.0379944,-0.175056,-0.417595,-0.176659,-0.0230026,0.0320435,-0.141144
22,3,10.0097,0.00366211,0.00289917,-2.42837,0.0550706,-0.0744527,0.0516866,0.0691393,-0.0931465,0.145929,-0.125766,-0.0831808,0.000152588,0.0352478,0.0352859,0.0128555,-0.0808716,-0.00370026,0.0832367,0.209198,-9.97986,-0.0201416,0.0235748,-0.184326,-0.390015,-0.136986,-0.0164795,0.0288773,-0.143852
22,4,10.0097,0.00213623,0.00228882,-2.42653,0.0547655,-0.0747579,0.0547383,0.0718859,-0.0922309,0.144098,-0.125461,-0.0834859,-0.000267029,0.0138855,0.0281143,0.0107193,-0.103683,-0.00137329,0.0772095,0.268669,-9.97986,-0.0280762,0.0122452,-0.178986,-0.359421,-0.116882,-0.00564575,0.0298309,-0.19062
22,5,10.0097,0.000305176,0.00274658,-2.42501,0.055681,-0.073232,0.054128,0.07036,-0.0910102,0.145318,-0.123935,-0.080129,-0.00362396,0.00114441,0.0239182,0.0104523,-0.112915,0.00782013,0.0692368,0.301704,-9.97986,-0.0251389,0.00728607,-0.173759,-0.323563,-0.084343,-0.00858307,0.0143433,-0.244904
22,6,10.0097,-0.00244141,0.00366211,-2.4247,0.0562914,-0.0729268,0.0562642,0.07036,-0.0910102,0.147455,-0.124851,-0.0813497,-0.000457764,-0.00972748,0.0204468,0.00602722,-0.111465,0.0229263,0.049324,0.244751,-9.97986,-0.0307083,0.000953674,-0.157471,-0.287666,-0.0509644,-0.0123978,-0.0121689,-0.243721
22,7,10.0097,-0.00183105,0.00244141,-2.42501,0.0562914,-0.073232,0.0544332,0.0715807,-0.0913154,0.14837,-0.124241,-0.0807394,0.0104523,-0.0222778,0.030632,-0.0019455,-0.114326,0.0254059,0.0442505,0.100975,-9.97986,-0.0336456,-0.00511169,-0.112495,-0.258598,-0.00835419,-0.016098,-0.0298691,-0.223312
22,8,10.0097,-0.00274658,0.00305176,-2.42501,0.0517137,-0.0741475,0.0562642,0.0709703,-0.0910102,0.14837,-0.124241,-0.0804342,0.00579834,0.00656128,0.0325394,0.00488281,-0.103111,0.0087738,0.0598145,-0.0362778,-9.97986,-0.0310135,-0.0133514,-0.04673,-0.228806,0.0262833,-0.0144196,-0.0314331,-0.194511
22,9,10.0097,0.000610352,0.00320435,-2.42348,0.0562914,-0.0738423,0.0568746,0.0709703,-0.090705,0.150201,-0.124241,-0.0798238,0.00564575,0.0291824,0.0348663,0.0174332,-0.0721359,0.0012207,0.0774384,-0.108643,-9.97986,-0.0262833,-0.0107956,0.00366211,-0.196915,0.0583267,-0.0118256,-0.0312805,-0.136719
23,0,10.0097,-0.000915527,0.00366211,-2.42562,0.0562914,-0.0741475,0.0556539,0.0712755,-0.0910102,0.149896,-0.124241,-0.0798238,-0.00514984,0.0379562,0.0363541,0.0239563,-0.0696945,-0.0124741,0.0867844,-0.0980759,-9.97986,-0.030365,-0.00812531,0.0316238,-0.159416,0.104713,-0.0106812,-0.0325394,-0.0927353
23,1,10.0097,0,0.00305176,-2.42653,0.0559862,-0.0744527,0.0544332,0.0605944,-0.0928413,0.14837,-0.124851,-0.0810445,-0.020752,0.0372314,0.0334167,0.0134277,-0.040741,-0.0165939,0.074501,-0.112991,-9.97986,-0.0314331,-0.017128,0.0299072,-0.126266,0.144882,-0.00816345,-0.0175095,-0.0799942
23,2,10.0097,-0.00396729,0.00183105,-2.42531,0.055681,-0.0744527,0.0547383,0.0648668,-0.0922309,0.146539,-0.125766,-0.0819601,-0.026474,0.0273132,0.0291824,0.0164795,-0.00762939,-0.00640869,0.0510025,-0.197449,-9.97986,-0.0305939,-0.0168991,-0.0100327,-0.11219,0.174332,-0.017662,-0.00782013,-0.0901031
23,3,10.0097,0.000610352,0.00137329,-2.42623,0.0562914,-0.0735371,0.0526021,0.0694445,-0.0916206,0.146539,-0.124851,-0.0822652,-0.0193787,0.0212097,0.0224686,0.0153732,0.0143814,-0.00144958,0.0196075,-0.224762,-9.97986,-0.0269699,-0.0161743,-0.0747681,-0.0995636,0.20752,-0.0259781,-0.0143433,-0.0859833
23,4,10.0097,0.00274658,0.00152588,-2.42653,0.0550706,-0.0753682,0.0538228,0.0779894,-0.090705,0.144403,-0.125156,-0.0831808,-0.00240326,0.0147247,0.0175095,0.014801,0.0118256,0.0124359,-0.0108719,-0.161247,-9.97986,-0.0257874,-0.0205994,-0.107613,-0.0920868,0.237846,-0.0249863,-0.0237274,-0.0819778
23,5,10.0097,0,0.00167847,-2.42837,0.0544603,-0.075063,0.0516866,0.0737169,-0.0931465,0.144403,-0.126682,-0.0859274,0.0125885,0.0141144,0.0209045,0.0137329,0.0229645,0.0288391,-0.0284576,-0.0838089,-9.97986,-0.0173187,-0.016861,-0.13485,-0.0881577,0.26886,-0.0182343,-0.0340652,-0.087471
23,6,10.0097,-0.00152588,0.00183105,-2.42867,0.0547655,-0.0744527,0.0532125,0.0706652,-0.0928413,0.144403,-0.126682,-0.0856222,0.0144958,-0.0012207,0.0117874,0.0102997,0.0150299,0.0330734,-0.0385284,-0.089035,-9.97986,0.00423431,-0.0218964,-0.163727,-0.0735855,0.318871,-0.0178146,-0.0449371,-0.089798
23,7,10.0097,0.0012207,0.000457764,-2.42959,0.0498827,-0.0756734,0.0529073,0.0691393,-0.0922309,0.144403,-0.126682,-0.0862325,0.0128937,-0.00873566,0.0102615,0.0105667,0.020256,0.0418472,-0.0447845,-0.116615,-9.97986,0.01194,-0.0200653,-0.16201,-0.0659561,0.352936,-0.017662,-0.0635529,-0.0891876
23,8,10.0097,0.00244141,0.00137329,-2.42959,0.0547655,-0.0759786,0.0522969,0.0694445,-0.0946723,0.145318,-0.127598,-0.0868429,0.0195313,-0.0130081,0.00312805,0.0102615,0.0340271,0.0549698,-0.0394058,-0.0986862,-9.97986,0.0204086,-0.0321198,-0.147552,-0.0476456,0.3936,-0.018692,-0.0762177,-0.0915527
23,9,10.0097,0.00244141,0.00183105,-2.42989,0.0535448,-0.0747579,0.0510762,0.0685289,-0.0952827,0.143487,-0.127292,-0.085317,0.0217819,-0.0108719,0.0103378,0.0157166,0.0428772,0.050087,-0.0387955,-0.0736237,-9.97986,0.0368118,-0.0329971,-0.140152,-0.0217819,0.441246,-0.0286865,-0.0740814,-0.133629
24,0,10.0097,0.00152588,0.00228882,-2.42867,0.0538499,-0.0762837,0.0522969,0.0688341,-0.094062,0.143792,-0.128208,-0.0856222,0.0211334,0.000572205,0.0239944,0.0132751,0.0441742,0.0543594,-0.0356293,-0.0456619,-9.97986,0.0358963,-0.0394821,-0.145683,0.00328064,0.477409,-0.0333786,-0.0593948,-0.169563
24,1,10.0097,0.00244141,0.00259399,-2.42928,0.0547655,-0.0762837,0.0526021,0.0676134,-0.094062,0.145013,-0.126987,-0.0856222,0.012207,0.0151825,0.0436783,0.0135422,0.054512,0.0614166,-0.0374985,-0.0301361,-9.97986,0.022049,-0.0427628,-0.155296,0.0295639,0.542679,-0.0281143,-0.064621,-0.157738
24,2,10.0097,0.00213623,0.00183105,-2.42653,0.0544603,-0.0744527,0.0529073,0.0685289,-0.0928413,0.145624,-0.126987,-0.0834859,0.0108337,0.013237,0.0558472,0.0170517,0.0607681,0.0890732,-0.0394058,-0.0304031,-9.97986,0.00640869,-0.0289536,-0.170937,0.0465775,0.602913,-0.0265884,-0.0860214,-0.144386
24,3,10.0097,0.000305176,0.00213623,-2.42684,0.0550706,-0.0738423,0.0522969,0.0673082,-0.0931465,0.146539,-0.126987,-0.0840963,0.000801086,0.0075531,0.0570297,0.0115204,0.0546646,0.11116,-0.0507355,-0.0257492,-9.97986,-0.017395,-0.0222015,-0.187531,0.0673676,0.636063,-0.0260925,-0.0953674,-0.142517
24,4,10.0097,0.0012207,0.00228882,-2.42684,0.0544603,-0.075063,0.0538228,0.0688341,-0.0925361,0.146844,-0.125766,-0.0847066,0.00205994,0.0170898,0.0731277,0.00289917,0.0490952,0.129089,-0.0582886,-0.00968933,-9.97986,-0.0335312,-0.03479,-0.182724,0.0915909,0.667191,-0.0205612,-0.107346,-0.133438
24,5,10.0097,0.000610352,0.00183105,-2.42592,0.0553758,-0.0759786,0.0556539,0.0700548,-0.0913154,0.148065,-0.124851,-0.0822652,0.00213623,0.0334167,0.0841522,-0.00827789,0.00293732,0.130692,-0.0710297,-0.00808716,-9.97986,-0.0395966,-0.0465012,-0.147171,0.112572,0.708961,-0.0199127,-0.112686,-0.129128
24,6,10.0097,-0.0012207,0.00228882,-2.42501,0.0572069,-0.0723164,0.0562642,0.0737169,-0.0913154,0.149286,-0.124851,-0.0807394,0.00679016,0.0705338,0.0902939,-0.0178146,-0.018959,0.120811,-0.074501,-0.000762939,-9.97986,-0.0283813,-0.0117874,-0.111237,0.130119,0.756493,-0.0162888,-0.0854874,-0.118675
24,7,10.0097,-0.000305176,0.00152588,-2.42531,0.0569017,-0.0741475,0.055959,0.0712755,-0.0913154,0.148675,-0.125156,-0.0813497,0.0115967,0.106277,0.0878525,-0.0126648,-0.020752,0.109291,-0.0769424,-0.0146103,-9.97986,-0.00484467,0.103035,-0.0941086,0.141411,0.7938,-0.022049,-0.0677872,-0.103989
24,8,10.0097,0.000610352,0.00137329,-2.42501,0.0562914,-0.0738423,0.0562642,0.0706652,-0.0900947,0.147455,-0.125156,-0.080129,0.0134277,0.145035,0.0812531,-0.0108719,-0.016098,0.111465,-0.0731277,-0.0145721,-9.97986,0.00999451,0.193748,-0.0804901,0.154915,0.841751,-0.0176239,-0.0532532,-0.101433
24,9,10.0097,0.000610352,0.0012207,-2.42531,0.0572069,-0.0741475,0.054128,0.072191,-0.0903999,0.14776,-0.124851,-0.0813497,0.00465393,0.148811,0.0751114,-0.00267029,-0.0194931,0.113945,-0.0736618,0.0258255,-9.97986,0.0289917,0.173302,-0.0761795,0.161858,0.891151,-0.015831,-0.032959,-0.0854111
25,0,10.0097,-0.000610352,0.00106812,-2.42562,0.0572069,-0.0726216,0.0535176,0.0718859,-0.0894843,0.146539,-0.124851,-0.080129,0.00255585,0.128632,0.0402832,-0.000801086,0.00385284,0.110207,-0.0687027,0.0472641,-9.97986,0.047226,0.0489807,-0.0895309,0.170059,0.914154,-0.0163651,-0.026474,-0.0827026
25,1,10.0097,-0.000915527,0.0012207,-2.42653,0.0559862,-0.0738423,0.0535176,0.0615099,-0.0931465,0.144403,-0.125156,-0.0825704,0.00419617,0.0941086,-0.0190735,-0.000190735,0.0229263,0.109482,-0.055809,0.046196,-9.97986,0.0503159,-0.0669479,-0.101089,0.178757,0.938492,-0.00793457,-0.0352859,-0.0814056
25,2,10.0097,-0.000305176,0.000762939,-2.42562,0.0547655,-0.0753682,0.0538228,0.0679186,-0.0925361,0.143182,-0.126072,-0.0819601,0.00331879,0.00656128,-0.0344086,-0.0019455,0.0357437,0.111732,-0.0545502,0.0312424,-9.97986,0.0529099,-0.0959396,-0.0966644,0.186005,0.955353,-0.0030899,-0.055542,-0.0925827
25,3,10.0097,-0.000305176,0.00106812,-2.42684,0.0553758,-0.0756734,0.0532125,0.0697496,-0.0922309,0.144098,-0.124241,-0.0840963,0.0044632,-0.0518417,-0.0395584,-0.000839233,0.0453949,0.117378,-0.0572968,0.0300598,-9.97986,0.0440216,-0.0621796,-0.109482,0.199089,0.970306,0.00507355,-0.0672913,-0.0979996
25,4,10.0097,0.0012207,0.00167847,-2.42898,0.0550706,-0.073232,0.0550435,0.0764635,-0.0900947,0.145624,-0.124851,-0.0825704,0.00328064,-0.0218201,-0.0302887,-0.00534058,0.0682068,0.126343,-0.0463867,0.0330353,-9.97986,0.0337601,-0.0206375,-0.101128,0.214691,0.972328,0.0104904,-0.0774384,-0.0821304
25,5,10.0097,0.000610352,0.00152588,-2.42837,0.0511034,-0.0759786,0.0529073,0.072191,-0.0937568,0.145624,-0.127292,-0.0850118,0.00911713,0.0170517,-0.02285,0.000305176,0.0885391,0.126534,-0.0379562,0.0094223,-9.97986,0.0281906,0.00583649,-0.0769043,0.218811,0.969429,0.0164413,-0.0838852,-0.0730515
25,6,10.0097,0.000915527,0.000457764,-2.42898,0.0535448,-0.075063,0.0532125,0.0691393,-0.0937568,0.145624,-0.127292,-0.0865377,0.0133133,0.0570297,-0.018158,0.00114441,0.100098,0.140572,-0.041275,-0.00785828,-9.97986,0.0186539,-0.0222015,-0.0540924,0.214081,0.966187,0.0138855,-0.0865936,-0.0547791
25,7,10.0097,-0.000915527,-0.000152588,-2.42592,0.0541551,-0.0759786,0.0529073,0.0682238,-0.0943672,0.142877,-0.127292,-0.0865377,0.0177383,0.0317001,-0.0263214,-0.000915527,0.117035,0.142746,-0.0513458,0.0243759,-9.97986,0.0195313,-0.0406647,-0.03479,0.208168,0.963135,0.0178146,-0.0841141,-0.0430298
25,8,10.0097,0.00274658,-0.000915527,-2.42959,0.0553758,-0.075063,0.0526021,0.0688341,-0.0943672,0.143487,-0.126682,-0.0859274,0.0273132,-0.0286102,-0.031929,0.00209808,0.11898,0.146103,-0.059166,0.0633621,-9.97986,0.0194168,-0.0576401,-0.0146866,0.212784,0.95253,0.018959,-0.0803375,-0.0486374
25,9,10.0097,0.00152588,0,-2.42959,0.0538499,-0.0762837,0.0516866,0.0679186,-0.0961982,0.143182,-0.127292,-0.0865377,0.0205994,-0.0363159,-0.0316238,0.0043869,0.115623,0.151863,-0.0728607,0.0692749,-9.97986,0.0227737,-0.0831985,0.0151825,0.213737,0.930786,0.0218582,-0.0770187,-0.0426483
26,0,10.0097,0.000915527,-0.000305176,-2.42806,0.0541551,-0.075063,0.0535176,0.0688341,-0.0952827,0.142877,-0.127598,-0.0871481,0.0220108,-0.0458527,-0.0328827,-0.00282288,0.128708,0.160866,-0.084343,0.0859451,-9.97986,0.0308609,-0.07164,0.0567627,0.22625,0.914116,0.0270462,-0.07061,-0.0294495
26,1,10.0097,0.0012207,0.000610352,-2.42806,0.0547655,-0.0759786,0.0535176,0.0685289,-0.0946723,0.144098,-0.126072,-0.085317,0.00919342,-0.0682068,-0.038147,-0.0169373,0.136719,0.165138,-0.0944138,0.110435,-9.97986,0.0291824,-0.079689,0.0829315,0.234947,0.884933,0.0300217,-0.0636292,-0.0177765
26,2,10.0097,0.00244141,0.000915527,-2.42745,0.0544603,-0.075063,0.0547383,0.0691393,-0.0946723,0.144098,-0.126072,-0.0850118,-0.00751495,-0.0463867,-0.0327301,-0.0248337,0.143204,0.172882,-0.0845718,0.112076,-9.97986,0.0238037,-0.0909805,0.114784,0.25341,0.853043,0.034523,-0.0531387,-0.00705719
26,3,10.0097,0.000305176,0.00244141,-2.42653,0.0547655,-0.0756734,0.0544332,0.0697496,-0.0934516,0.144098,-0.126072,-0.0834859,-0.0338745,-0.0128174,-0.0300598,-0.0352859,0.144043,0.185165,-0.0707245,0.0646973,-9.97986,0.0204086,-0.0508881,0.125046,0.279427,0.825272,0.0337982,-0.0391769,0.000610352
26,4,10.0097,0.000305176,0.00213623,-2.42806,0.0547655,-0.0747579,0.0544332,0.0688341,-0.0934516,0.144708,-0.125766,-0.0831808,-0.0634384,-0.00213623,-0.0146484,-0.0408554,0.140877,0.183296,-0.0650406,0.0336075,-9.97986,0.0177383,-0.029335,0.140343,0.300865,0.788651,0.0317383,-0.0341415,0.00240326
26,5,10.0097,0.000305176,0.00411987,-2.42562,0.0562914,-0.0738423,0.0550435,0.0715807,-0.0931465,0.143792,-0.124851,-0.0807394,-0.0502777,-0.00137329,0.00106812,-0.0353622,0.137329,0.184822,-0.0682831,-0.00114441,-9.97986,0.0199509,-0.00984192,0.155869,0.336723,0.752335,0.0241852,-0.0368881,0.00404358
26,6,10.0097,0.0012207,0.00244141,-2.42562,0.0569017,-0.0741475,0.0538228,0.0700548,-0.0928413,0.145318,-0.125156,-0.0810445,-0.031662,0.00305176,0.00537872,-0.0384903,0.133171,0.17765,-0.0773621,-0.040741,-9.97986,0.0174332,-0.00213623,0.165176,0.356941,0.707512,0.0281143,-0.029068,-0.00240326
26,7,10.0097,0.000305176,0.00167847,-2.42501,0.0553758,-0.073232,0.054128,0.0712755,-0.0916206,0.145013,-0.125156,-0.080129,-0.0075531,-0.000305176,0.00038147,-0.0412369,0.135384,0.170555,-0.0783157,-0.0336838,-9.97986,0.020752,-0.0144958,0.177345,0.374336,0.658188,0.0236893,-0.0183487,-0.00823975
26,8,10.0097,0.00244141,0.00320435,-2.42501,0.0572069,-0.0735371,0.0550435,0.072191,-0.0919257,0.144098,-0.12302,-0.0810445,0.039978,-0.0230026,-0.00133514,-0.0372314,0.128593,0.154419,-0.0818253,-0.0404358,-9.97986,0.0266266,0.00621796,0.180855,0.405884,0.613899,0.0197983,-0.0123596,-0.0203323
26,9,10.0097,0.00183105,0.00213623,-2.42592,0.0562914,-0.0744527,0.0550435,0.0724962,-0.0903999,0.146539,-0.123935,-0.0804342,0.0769424,-0.0242615,0.00423431,-0.0279236,0.121956,0.138321,-0.0770187,-0.0245667,-9.97986,0.0363541,0.0223541,0.178986,0.420036,0.569839,0.0184631,-0.00144958,-0.0226593
27,0,10.0097,0.00152588,0.00167847,-2.42531,0.0559862,-0.0738423,0.0553487,0.072191,-0.090705,0.146234,-0.124851,-0.0798238,0.0989532,-0.0125122,0.00797272,0.00923157,0.108376,0.117264,-0.0793839,0.0219727,-9.97986,0.0350571,0.0191498,0.191269,0.446281,0.524597,0.0141525,0.0127411,-0.0194931
27,1,10.0097,-0.00213623,0.0012207,-2.42623,0.0562914,-0.0753682,0.0550435,0.0621202,-0.0949775,0.145013,-0.126072,-0.0822652,0.10231,-0.000839233,0.00888824,0.080986,0.104103,0.0997925,-0.0728989,0.00160217,-9.97986,0.0477982,-0.00102997,0.20195,0.467567,0.472183,0.0088501,0.0312805,-0.0162125
27,2,10.0097,-0.000610352,0.000915527,-2.42623,0.0559862,-0.0741475,0.0556539,0.065172,-0.0934516,0.145929,-0.126072,-0.0822652,0.0914764,0.00579834,0.0088501,0.10849,0.0970078,0.0776291,-0.0687027,-0.0369263,-9.97986,0.0634003,-0.0190353,0.218315,0.476799,0.41008,0.0105286,0.0396347,-0.00038147
27,3,10.0097,0,0.0012207,-2.42623,0.055681,-0.075063,0.0544332,0.0694445,-0.0937568,0.144708,-0.125461,-0.0828756,0.0748062,0.00576019,0.00804901,0.083847,0.0954819,0.0457001,-0.0672531,-0.0270081,-9.97986,0.0475311,-0.0112915,0.241776,0.481987,0.355759,0.00804901,0.0405121,0.00492096
27,4,10.0097,0.0012207,0.000915527,-2.42623,0.0553758,-0.0753682,0.0547383,0.0779894,-0.0931465,0.144403,-0.125156,-0.0837911,0.0478363,-0.000724792,0.0189972,0.0644302,0.0908279,0.0203323,-0.068512,-0.0182343,-9.97986,0.0223541,-0.00888824,0.260162,0.484543,0.305138,0.0143433,0.0330353,0.0110245
27,5,10.0097,-0.0012207,0.0012207,-2.42867,0.0535448,-0.075063,0.0538228,0.0712755,-0.0946723,0.143182,-0.126682,-0.0850118,0.0283432,-0.00938416,0.0188828,0.0440216,0.0901413,0.00442505,-0.0774384,-0.029335,-9.97986,-0.01091,-0.00659943,0.279617,0.484772,0.254593,0.0148773,0.0200653,0.0207901
27,6,10.0097,-0.000305176,0.000305176,-2.42837,0.0529344,-0.0759786,0.0529073,0.0685289,-0.095893,0.142267,-0.126682,-0.0865377,0.0161362,-0.0122452,0.0285721,0.0315475,0.0867081,-0.0142288,-0.0813293,-0.0340652,-9.97986,-0.050087,-0.0117874,0.29213,0.490379,0.196877,0.0196838,0.0138474,0.0275421
27,7,10.0097,0.0012207,0.000305176,-2.42867,0.0541551,-0.0759786,0.0532125,0.0682238,-0.0949775,0.143487,-0.127598,-0.0865377,0.0148773,-0.00137329,0.0292587,0.0215912,0.0927353,-0.0255585,-0.0754547,-0.0153732,-9.97986,-0.0772476,-0.0138855,0.310097,0.488815,0.138283,0.0162888,0.00991821,0.0322342
27,8,10.0097,0.00152588,0.000762939,-2.42837,0.0538499,-0.075063,0.0516866,0.0679186,-0.0965034,0.142877,-0.126987,-0.0865377,0.00556946,3.8147e-005,0.0321198,0.00671387,0.0873947,-0.039711,-0.0651169,0.0130081,-9.97986,-0.0828171,-0.0268555,0.323372,0.504227,0.0831985,0.0104141,0.0120544,0.0392532
27,9,10.0097,0,-0.000305176,-2.42928,0.0532396,-0.0744527,0.0538228,0.0682238,-0.095893,0.142877,-0.128513,-0.0871481,0.00648499,0.00228882,0.0211334,-0.0136185,0.0849152,-0.0632095,-0.0493622,0.0363922,-9.97986,-0.0698471,-0.0268555,0.317039,0.490761,0.0236893,0.00652313,0.0124359,0.0415039
28,0,10.0097,0.000610352,-0.0012207,-2.42959,0.0538499,-0.0762837,0.0519917,0.0694445,-0.0971137,0.141961,-0.128208,-0.0880636,0.0122452,0.000419617,0.0185013,-0.0213623,0.0798035,-0.0915146,-0.0444794,0.0533295,-9.97986,-0.0276947,-0.00358582,0.311203,0.477562,-0.0311279,0.000991821,0.00843048,0.0447845
28,1,10.0097,-0.000305176,-0.00213623,-2.42714,0.0535448,-0.075063,0.0513814,0.0694445,-0.0943672,0.141351,-0.126987,-0.0868429,0.0126648,0.00713348,0.022049,-0.0225067,0.0842667,-0.10952,-0.0418854,0.0618362,-9.97986,0.00873566,0.0217056,0.299797,0.442619,-0.0856781,0.000343323,0.00457764,0.0561905
28,2,10.0097,0.000305176,-0.00167847,-2.42776,0.0550706,-0.0738423,0.0529073,0.0700548,-0.0931465,0.145318,-0.126377,-0.0859274,0.0134659,0.0250626,0.0231552,-0.0198746,0.083046,-0.12001,-0.0467682,0.0383759,-9.97986,0.0464249,0.0387955,0.289955,0.425529,-0.138092,-0.00286102,0.00270844,0.060463
28,3,10.0097,-0.00244141,-0.00183105,-2.42684,0.0550706,-0.0744527,0.0535176,0.0712755,-0.0955879,0.144098,-0.125766,-0.0847066,0.0104141,0.0370407,0.0201416,-0.0124359,0.0827789,-0.140305,-0.0560379,0.0266266,-9.97986,0.0847626,0.0151825,0.280304,0.395775,-0.183792,-0.00644684,0.00228882,0.0654221
28,4,10.0097,-0.0012207,-0.00289917,-2.42745,0.0553758,-0.0747579,0.0532125,0.0706652,-0.0946723,0.145318,-0.125766,-0.0844015,0.0122833,0.0533676,0.0250626,-0.00297546,0.0793839,-0.164871,-0.0663376,0.0231934,-9.97986,0.10643,-0.0131989,0.272675,0.356903,-0.227661,-0.0151825,-0.00736237,0.0665665
28,5,10.0097,-0.0012207,-0.00228882,-2.42592,0.0553758,-0.0744527,0.0547383,0.0709703,-0.0925361,0.145318,-0.124546,-0.0825704,0.0149918,0.0538635,0.0207138,-0.00476837,0.0746155,-0.185089,-0.0719452,0.0334167,-9.97986,0.106697,-0.0031662,0.268478,0.335007,-0.259819,-0.0126648,-0.00408173,0.0751495
28,6,10.0097,0.00213623,-0.00289917,-2.42501,0.0559862,-0.0741475,0.0538228,0.0709703,-0.0937568,0.145624,-0.124546,-0.0828756,0.0176239,0.063858,0.0301743,-0.0313187,0.0730515,-0.203819,-0.0731277,0.0282669,-9.97986,0.0994873,-0.0112534,0.259361,0.296783,-0.296745,-0.0157547,-0.0050354,0.0734711
28,7,10.0097,0,-0.00411987,-2.4247,0.0565965,-0.0735371,0.0547383,0.0700548,-0.0922309,0.145624,-0.124546,-0.0822652,0.019989,0.0625992,0.0340271,-0.0450897,0.0729752,-0.211601,-0.0639343,0.0255585,-9.97986,0.0970078,-0.0521851,0.258636,0.253716,-0.325623,-0.0151062,-0.000419617,0.0776291
28,8,10.0097,0.000610352,-0.00320435,-2.42562,0.0581224,-0.0756734,0.0544332,0.0709703,-0.0913154,0.145929,-0.123935,-0.0825704,0.0234604,0.0430298,0.0393677,-0.0200272,0.068779,-0.221558,-0.0637054,0.0193787,-9.97986,0.0831985,-0.0434875,0.252991,0.208435,-0.354576,-0.0141144,-0.0056076,0.0796127
28,9,10.0097,0.000610352,-0.0038147,-2.4247,0.0559862,-0.0741475,0.054128,0.0706652,-0.0919257,0.147149,-0.12363,-0.0813497,0.0234604,0.0426102,0.0463867,-0.0334549,0.0709915,-0.22438,-0.0483322,-0.0131607,-9.97986,0.0669861,-0.0185013,0.247726,0.172653,-0.384331,-0.0122452,-0.00209808,0.0875473
29,0,10.0097,0.00183105,-0.00427246,-2.4244,0.0562914,-0.0738423,0.0556539,0.0709703,-0.0922309,0.147149,-0.124546,-0.0828756,0.026741,0.0368881,0.0442123,-0.0376129,0.0767899,-0.230789,-0.0260925,-0.0125122,-9.97986,0.0534439,-0.0260925,0.243111,0.123596,-0.409927,-0.0157547,-0.00617981,0.0895691
29,1,10.0097,0.00366211,-0.00610352,-2.42653,0.0559862,-0.0765889,0.0532125,0.0608995,-0.094062,0.144403,-0.125156,-0.0831808,0.0218201,0.0328827,0.0461197,0.0186539,0.0709534,-0.226974,-0.0178528,0.0196075,-9.97986,0.0511169,-0.0323868,0.238533,0.0615311,-0.430374,-0.0119781,-0.00534058,0.092659
29,2,10.0097,-0.000610352,-0.00549316,-2.42684,0.055681,-0.0747579,0.0538228,0.0645616,-0.0934516,0.142572,-0.126072,-0.0837911,0.0128937,0.0217819,0.0511932,0.0492477,0.0661469,-0.227585,-0.0183105,0.0286484,-9.97986,0.0407791,-0.042038,0.235214,0.00335693,-0.449409,-0.0157166,-0.00732422,0.0922775
29,3,10.0097,0.00244141,-0.0050354,-2.42623,0.0541551,-0.0744527,0.0535176,0.0700548,-0.0916206,0.146234,-0.125156,-0.0847066,0.00991821,0.0336075,0.0597382,0.0370789,0.0616837,-0.228844,-0.0137329,0.0207901,-9.97986,0.0419235,-0.0348282,0.224609,-0.0531769,-0.459595,-0.0180054,-0.00671387,0.0944138
29,4,10.0097,0.000610352,-0.00411987,-2.42684,0.0547655,-0.0735371,0.0532125,0.0776842,-0.0925361,0.144403,-0.125156,-0.0847066,0.00972748,0.043335,0.0654602,0.00522614,0.0656509,-0.22728,-0.0120544,0.00923157,-9.97986,0.0354767,-0.0214386,0.213318,-0.0950241,-0.470848,-0.0126266,-0.00537872,0.0967026
29,5,10.0097,-0.000915527,-0.00411987,-2.42867,0.0541551,-0.0759786,0.0529073,0.0728014,-0.094062,0.143182,-0.126072,-0.0874532,0.00648499,0.0282669,0.0460052,-0.0134277,0.063324,-0.235023,-0.0149918,0.0226212,-9.97986,0.0326538,-0.0280762,0.204124,-0.137062,-0.481682,-0.0137329,-0.0056839,0.0958252
29,6,10.0097,-0.000915527,-0.0050354,-2.42867,0.0550706,-0.0756734,0.0516866,0.0697496,-0.0934516,0.144098,-0.126987,-0.0874532,0.00720978,0.0130844,0.0198364,0.00198364,0.0626373,-0.226974,-0.0190353,0.0308609,-9.97986,0.0286865,-0.0334167,0.189133,-0.19146,-0.492172,-0.0133133,-0.00534058,0.0961685
29,7,10.0097,-0.000305176,-0.00610352,-2.4302,0.0550706,-0.0759786,0.0526021,0.0697496,-0.0949775,0.144098,-0.126987,-0.0874532,0.00766754,0.0263977,0.0056076,-0.0143814,0.0661087,-0.220947,-0.0136185,0.0327301,-9.97986,0.0255585,-0.0416946,0.172234,-0.25425,-0.499649,-0.0167465,-0.00869751,0.0967407
29,8,10.0097,-0.000305176,-0.00656128,-2.42898,0.0538499,-0.0756734,0.0529073,0.0685289,-0.0955879,0.14776,-0.127598,-0.0883688,0.00461578,0.0317764,-0.00320435,-0.0218201,0.0653076,-0.22007,-0.0166702,0.0383377,-9.97986,0.0223923,-0.0417328,0.151176,-0.314941,-0.512924,-0.0133514,-0.00778198,0.0945282
29,9,10.0097,0.000915527,-0.00579834,-2.42989,0.0544603,-0.0759786,0.0522969,0.0688341,-0.0952827,0.143487,-0.126987,-0.0886739,0.0107193,0.0333405,-0.0162888,0.0149155,0.06073,-0.213966,-0.0192642,0.0375748,-9.97986,0.0182724,-0.0288773,0.134773,-0.370293,-0.523567,-0.0160599,-0.00648499,0.092926
30,0,10.0097,-0.000305176,-0.00595093,-2.42867,0.0541551,-0.0747579,0.0535176,0.0688341,-0.0943672,0.143792,-0.128208,-0.0880636,0.00873566,0.0322723,-0.0188446,0.0488663,0.0551987,-0.202026,-0.0185013,0.039978,-9.97986,0.0144196,-0.0350571,0.120316,-0.4245,-0.53093,-0.0183487,-0.0031662,0.0949478
30,1,10.0097,0.000610352,-0.00656128,-2.42806,0.0532396,-0.0756734,0.0522969,0.0691393,-0.0946723,0.144403,-0.126377,-0.0880636,0.00495911,0.0365829,-0.0109482,0.0214767,0.0582504,-0.198326,-0.0133133,0.0488663,-9.97986,0.0123215,-0.0335693,0.0965118,-0.49366,-0.528641,-0.0177002,-0.001297,0.0958252
30,2,10.0097,0.000610352,-0.00732422,-2.42898,0.0547655,-0.0741475,0.0526021,0.07036,-0.0946723,0.145624,-0.126987,-0.0865377,0.00511169,0.0385666,0.000495911,-0.0199509,0.0521469,-0.183563,-0.00999451,0.0499725,-9.97986,0.00377655,-0.0291061,0.0738144,-0.561562,-0.525665,-0.02285,-0.000572205,0.091629
30,3,10.0097,-0.000305176,-0.00564575,-2.42776,0.0559862,-0.0747579,0.0550435,0.0694445,-0.0922309,0.144708,-0.124546,-0.0871481,0.00667572,0.0391769,0.0234604,-0.028038,0.052681,-0.163651,-0.0094223,0.0478745,-9.97986,0.00804901,-0.0234985,0.0495148,-0.613136,-0.518074,-0.021553,0.000839233,0.0954437
30,4,10.0097,0.0012207,-0.00411987,-2.42592,0.0550706,-0.0744527,0.0532125,0.07036,-0.0931465,0.145624,-0.125766,-0.085317,0.00797272,0.0324249,0.0333023,-0.0683594,0.0491333,-0.142326,-0.00923157,0.0492859,-9.97986,0.00484467,-0.0213623,0.0312805,-0.651932,-0.512123,-0.0192642,0.00236511,0.0983047
30,5,10.0097,0.00244141,-0.00366211,-2.42562,0.0565965,-0.0735371,0.0532125,0.0712755,-0.0913154,0.146234,-0.124851,-0.0822652,0.00812531,0.0270081,0.0325012,-0.0713348,0.0465012,-0.119171,0.00106812,0.0436401,-9.97986,0.00804901,-0.0166321,0.00991821,-0.679817,-0.50045,-0.0180054,0.00549316,0.099411
30,6,10.0097,-0.000915527,-0.00244141,-2.42531,0.0562914,-0.0738423,0.054128,0.0715807,-0.090705,0.146539,-0.124546,-0.0813497,0.01091,0.0336075,0.0343323,0.000572205,0.044136,-0.0989914,0.00392914,0.0369644,-9.97986,0.00518799,-0.0247955,-0.0115204,-0.692596,-0.495033,-0.0251007,0.0112534,0.0894547
30,7,10.0097,0.0012207,-0.00137329,-2.42531,0.0559862,-0.0744527,0.0550435,0.07036,-0.0910102,0.145929,-0.123935,-0.0804342,0.00904083,0.0336075,0.0364685,0.0245667,0.0371552,-0.0811005,0.0112915,0.0394821,-9.97986,0.00495911,-0.0262451,-0.0297165,-0.696068,-0.484695,-0.0247574,0.0162888,0.077858
30,8,10.0097,0.00152588,-0.000457764,-2.42501,0.0562914,-0.0738423,0.0553487,0.0709703,-0.0922309,0.147455,-0.123325,-0.0807394,0.0153351,0.0366974,0.0335312,0.00141144,0.0318909,-0.0585175,0.017662,0.0402451,-9.97986,0.00247955,-0.0253296,-0.0389862,-0.718155,-0.474052,-0.0226593,0.0265884,0.0759888
30,9,10.0097,0.000915527,-0.0012207,-2.42562,0.0550706,-0.0747579,0.0532125,0.0715807,-0.0922309,0.146844,-0.124241,-0.0813497,0.0125122,0.0399399,0.0343323,0.00427246,0.0304413,-0.0460052,0.0281906,0.0423813,-9.97986,0.00453949,-0.0232315,-0.0653839,-0.720329,-0.459251,-0.0200653,0.0358582,0.0780869
31,0,10.0097,0.000305176,0.000762939,-2.42409,0.0559862,-0.073232,0.0547383,0.0718859,-0.0916206,0.146844,-0.124546,-0.0807394,0.0115204,0.0416946,0.0294876,0.0901031,0.0251389,-0.0298691,0.0333786,0.044899,-9.97986,-0.00118256,-0.0199509,-0.0809479,-0.696259,-0.444641,-0.0198364,0.0439453,0.0786591
31,1,10.0097,0.000305176,0.00396729,-2.42562,0.0562914,-0.0747579,0.0529073,0.0621202,-0.0931465,0.146234,-0.124546,-0.080129,0.00972748,0.0486755,0.0243759,0.152817,0.0157166,-0.00732422,0.0349426,0.0453568,-9.97986,-0.00297546,-0.0191498,-0.100212,-0.627861,-0.424957,-0.019455,0.0503159,0.080719
31,2,10.0097,0,0.00701904,-2.42623,0.0559862,-0.0753682,0.0535176,0.065172,-0.0931465,0.146234,-0.125766,-0.0807394,0.00873566,0.0530624,0.0320816,0.125923,0.0177383,0.00793457,0.0337219,0.0482941,-9.97986,0.0012207,-0.0155258,-0.117569,-0.528259,-0.402374,-0.0233078,0.0576782,0.0849915
31,3,10.0097,0.0012207,0.0088501,-2.42684,0.0550706,-0.0747579,0.0529073,0.0715807,-0.0934516,0.147149,-0.124851,-0.080129,0.00396729,0.0550079,0.043335,0.0986862,0.0105667,0.0214767,0.0331116,0.0463486,-9.97986,-0.00038147,-0.0236893,-0.146713,-0.418816,-0.390701,-0.0238037,0.0630951,0.0904846
31,4,10.0097,0,0.00961304,-2.42592,0.0547655,-0.0741475,0.0544332,0.0782946,-0.0913154,0.145013,-0.124851,-0.0813497,0.00961304,0.0558472,0.0413513,0.0999451,0.0126266,0.0258255,0.028801,0.0493622,-9.97986,-0.000457764,-0.0196075,-0.164757,-0.332108,-0.378571,-0.0217819,0.0636292,0.088501
31,5,10.0097,0.000915527,0.0062561,-2.42867,0.0532396,-0.0726216,0.0513814,0.0709703,-0.0943672,0.144403,-0.126377,-0.0847066,0.00873566,0.0568008,0.0358963,0.0741959,0.00915527,0.0375366,0.0271606,0.0525665,-9.97986,-0.000495911,-0.0178909,-0.177841,-0.290985,-0.361595,-0.0242233,0.0696182,0.0912857
31,6,10.0097,0,0.00335693,-2.42806,0.0538499,-0.075063,0.0513814,0.0688341,-0.0937568,0.142877,-0.127292,-0.0862325,0.0075531,0.0505829,0.026207,0.0626755,0.00782013,0.0392914,0.0244522,0.0458527,-9.97986,-0.00419617,-0.0232315,-0.190506,-0.271416,-0.334549,-0.0231171,0.0773239,0.0770187
31,7,10.0097,0.000305176,0.00198364,-2.42989,0.0523241,-0.0768941,0.0516866,0.0694445,-0.0937568,0.144098,-0.126987,-0.0859274,0.0156403,0.0382233,0.0144196,0.0810623,0.00770569,0.0466919,0.021019,0.0409698,-9.97986,-0.00450134,-0.017662,-0.206261,-0.256195,-0.310364,-0.0225449,0.0856781,0.0556946
31,8,10.0097,-0.000915527,0.000610352,-2.42928,0.0535448,-0.075063,0.0522969,0.0694445,-0.094062,0.143487,-0.126682,-0.0859274,0.0131226,0.0456619,0.0164413,0.115623,0.00961304,0.0485611,0.00843048,0.0399017,-9.97986,-0.00175476,-0.00827789,-0.214119,-0.253906,-0.294495,-0.0200653,0.0924683,0.056076
31,9,10.0097,-0.0012207,-0.000610352,-2.42898,0.0535448,-0.0759786,0.0522969,0.0688341,-0.0931465,0.145318,-0.126987,-0.0877584,0.0121307,0.0483704,0.0333405,0.13195,0.00583649,0.0395203,0.00244141,0.0338364,-9.97986,-0.00385284,-0.0271225,-0.234413,-0.267639,-0.274734,-0.0205612,0.102119,0.07267
32,0,10.0097,0.000915527,-0.000915527,-2.4305,0.0544603,-0.0756734,0.0529073,0.0691393,-0.0946723,0.144403,-0.126377,-0.0862325,0.0140762,0.0534058,0.0616455,0.102158,0.00205994,0.0416183,-0.000152588,0.0292206,-9.97986,-0.00114441,-0.0324249,-0.232353,-0.268135,-0.258751,-0.019455,0.114098,0.0828171
32,1,10.0097,0.00244141,0.000915527,-2.42745,0.0550706,-0.0762837,0.0529073,0.0682238,-0.0931465,0.146234,-0.126682,-0.085317,0.00541687,0.05867,0.0979614,0.0634384,0.00591278,0.0377655,-0.00537872,0.0328445,-9.97986,-0.00141144,-0.0305939,-0.233688,-0.255928,-0.246124,-0.0189209,0.116806,0.0898743
32,2,10.0097,0.00244141,0.00137329,-2.42745,0.0538499,-0.0744527,0.0532125,0.07036,-0.0931465,0.141656,-0.126377,-0.0847066,0.00740051,0.0600433,0.119171,0.0488281,0.00442505,0.030365,-0.00453949,0.0405121,-9.97986,-0.00267029,-0.0238419,-0.22625,-0.236282,-0.226669,-0.018158,0.128441,0.0923538
32,3,10.0097,0.000305176,0.00152588,-2.42745,0.055681,-0.0759786,0.0522969,0.0700548,-0.0943672,0.144098,-0.126377,-0.0837911,0.00865936,0.0525665,0.130615,0.0475693,-0.0063324,0.0141144,0.00202179,0.042305,-9.97986,0.000343323,-0.0117111,-0.232391,-0.215988,-0.20813,-0.0175095,0.142899,0.0993729
32,4,10.0097,-0.000305176,0.0050354,-2.42531,0.0550706,-0.0747579,0.0535176,0.07036,-0.0931465,0.145013,-0.125156,-0.0813497,0.00537872,0.0519562,0.119095,0.0331497,-0.0136948,0.00789642,0.00366211,0.0431442,-9.97986,0.000610352,-0.0162125,-0.229301,-0.148315,-0.190468,-0.0149918,0.143051,0.100555
32,5,10.0097,-0.00152588,0.00793457,-2.4247,0.0562914,-0.0744527,0.0550435,0.0712755,-0.0928413,0.145929,-0.124851,-0.0786031,0.0120544,0.0553513,0.0779724,0.00961304,-0.0156403,-0.00793457,0.0213242,0.0447464,-9.97986,0.00827789,-0.00694275,-0.216599,-0.0396729,-0.178337,-0.0125885,0.146332,0.089798
32,6,10.0097,-0.000610352,0.0088501,-2.42562,0.0553758,-0.0735371,0.0553487,0.0718859,-0.0913154,0.145624,-0.124546,-0.078298,0.0139236,0.050621,0.0273895,-0.00270844,-0.0256729,-0.0231934,0.038681,0.0362778,-9.97986,0.00217438,-0.011673,-0.212135,0.0602722,-0.16304,-0.0146484,0.147018,0.0788116
32,7,10.0097,-0.00152588,0.0112915,-2.42562,0.0559862,-0.0720113,0.0544332,0.0706652,-0.090705,0.146539,-0.124546,-0.0786031,0.0130081,0.0513077,-0.0030899,-0.0153732,-0.0370407,-0.0382996,0.0661469,0.0353622,-9.97986,0.00923157,-0.0118637,-0.199242,0.186348,-0.144005,-0.0138855,0.149574,0.0671005
32,8,10.0097,0.000610352,0.0105286,-2.42501,0.0569017,-0.0741475,0.0553487,0.0712755,-0.0916206,0.148065,-0.123935,-0.0779928,0.0108719,0.0480652,-0.0449371,0.0243759,-0.0440216,-0.0590515,0.0798798,0.032196,-9.97986,0.00267029,-0.0101471,-0.194626,0.284424,-0.12886,-0.0117874,0.147629,0.0557327
32,9,10.0097,0,0.00106812,-2.4244,0.0565965,-0.0738423,0.054128,0.0712755,-0.0910102,0.145624,-0.124241,-0.0810445,0.0075531,0.0481796,-0.0812149,0.0798416,-0.0517273,-0.0808716,0.0820923,0.0343704,-9.97986,0.000991821,-0.00370026,-0.191078,0.232239,-0.112839,-0.0063324,0.150375,0.0402832
33,0,10.0097,0.000305176,-0.0106812,-2.42531,0.0562914,-0.0762837,0.0553487,0.07036,-0.0916206,0.147455,-0.124241,-0.085317,0.0118256,0.0547028,-0.0905609,0.0888824,-0.0611496,-0.0890732,0.0786209,0.034256,-9.97986,0.00782013,-0.0111008,-0.175552,0.0347137,-0.100899,-0.0056076,0.146675,0.0315857
33,1,10.0097,0.000915527,-0.0134277,-2.42684,0.055681,-0.0744527,0.0544332,0.0627306,-0.0922309,0.145929,-0.126987,-0.085317,0.0104141,0.043869,-0.0779724,0.0610733,-0.0610733,-0.0992203,0.0726318,0.0389862,-9.97986,0.00915527,-0.00545502,-0.167542,-0.118713,-0.0814438,0.00312805,0.149689,0.0315857
33,2,10.0097,0.00183105,-0.00961304,-2.42653,0.0562914,-0.0735371,0.0538228,0.0642565,-0.0913154,0.146234,-0.125766,-0.0850118,0.00473022,0.0233459,-0.0730133,0.030365,-0.0676346,-0.126038,0.0523376,0.0195694,-9.97986,0.0069046,-0.0168991,-0.174904,-0.196419,-0.0793839,0.000724792,0.138359,0.0185013
33,3,10.0097,-0.00213623,-0.00534058,-2.42684,0.0553758,-0.0775044,0.0556539,0.07036,-0.0925361,0.145929,-0.126072,-0.0850118,0.013237,0.0154877,-0.063858,0.0309372,-0.0604248,-0.133743,0.0463104,0.0139236,-9.97986,0.010376,-0.0056076,-0.157509,-0.243073,-0.0556564,0.00576019,0.139618,0.0222397
33,4,10.0097,0.000305176,-0.00595093,-2.42653,0.0553758,-0.0747579,0.0547383,0.0798204,-0.0913154,0.145318,-0.12363,-0.0850118,0.00835419,0.015564,-0.0571823,0.0437164,-0.0575256,-0.147552,0.0208282,0.0107574,-9.97986,0.00385284,0.00110626,-0.146942,-0.31517,-0.0423431,0.00434875,0.133171,0.0219727
33,5,10.0097,0.0012207,-0.00350952,-2.42837,0.050493,-0.0747579,0.0513814,0.0718859,-0.0937568,0.143182,-0.126987,-0.0859274,0.00762939,-0.000915527,-0.0493622,0.0512314,-0.0589752,-0.156822,0.00324249,0.00629425,-9.97986,0.00541687,0.00911713,-0.149994,-0.320778,-0.0271606,0.00553131,0.12661,0.0213623
33,6,10.0097,0.000610352,0.0038147,-2.42898,0.0544603,-0.0775044,0.0529073,0.0697496,-0.0943672,0.143792,-0.127903,-0.0850118,0.0119781,-0.0261307,-0.0318527,0.0282288,-0.0556183,-0.160217,-0.00221252,0.00347137,-9.97986,0.00431061,0.0115967,-0.149612,-0.234833,-0.0143051,0.00919342,0.122566,0.0216293
33,7,10.0097,0.000305176,0.00869751,-2.42837,0.0538499,-0.0762837,0.0526021,0.0691393,-0.0943672,0.144403,-0.127598,-0.0834859,0.0109863,-0.0222015,-0.0183868,0.0181961,-0.0611115,-0.157814,-0.0135803,0.0113678,-9.97986,0.00335693,0.0075531,-0.142784,-0.0981903,-0.00423431,0.00343323,0.11734,0.0185394
33,8,10.0097,0.0012207,0.012207,-2.4302,0.0541551,-0.0759786,0.0519917,0.0685289,-0.0946723,0.143487,-0.126987,-0.0831808,0.00705719,-0.00419617,-0.00595093,0.0113297,-0.0624466,-0.1548,-0.0181198,0.0200653,-9.97986,0.00587463,0.00431061,-0.132866,0.0508118,0.00961304,0.0025177,0.111427,0.0141144
33,9,10.0097,0.0012207,0.0134277,-2.42837,0.0547655,-0.0768941,0.0529073,0.0676134,-0.0937568,0.144098,-0.127903,-0.0834859,0.0112915,0.0130844,0.00293732,-0.00564575,-0.0625992,-0.148964,-0.00617981,0.0266647,-9.97986,0.00610352,0.000915527,-0.118942,0.198898,0.0188446,3.8147e-005,0.102463,0.0132751
34,0,10.0097,0,0.00946045,-2.42837,0.0541551,-0.0756734,0.0532125,0.0682238,-0.0949775,0.143182,-0.127598,-0.0837911,0.00743866,0.000686646,0.00205994,-0.0378418,-0.0689316,-0.138054,0.0196838,0.0179672,-9.97986,0.00453949,0.000152588,-0.103569,0.286789,0.0267792,-0.00488281,0.0956345,0.00713348
34,1,10.0097,-0.126953,0.00640869,-2.42867,0.0535448,-0.0747579,0.0519917,0.0694445,-0.0965034,0.119989,-0.128513,-0.0847066,0.0119781,-0.00946045,0.0163269,-0.0436401,-0.0623703,-0.117683,0.0583649,0.0069809,-9.97986,0.00743866,0.00682831,-0.0991821,0.323639,0.0373459,-0.00366211,0.0887299,0.00576019
34,2,10.0097,-0.00488281,0.00518799,-2.42714,0.0553758,-0.075063,0.0535176,0.0694445,-0.0931465,0.136773,-0.125156,-0.0840963,0.00587463,-0.0164795,0.0222778,-0.034256,-0.0680161,-0.106392,0.0917816,0.00312805,-9.97986,0.0112915,0.00537872,-0.103493,0.377312,0.0407028,-0.0119019,0.0814819,0.00770569
34,3,10.0097,0.000610352,0.00442505,-2.42684,0.0544603,-0.075063,0.0529073,0.0691393,-0.0934516,0.142572,-0.126377,-0.0834859,0.00732422,-0.00328064,0.0169373,-0.0297546,-0.0607681,-0.088501,0.127602,0.00682831,-9.97986,0.0140381,0.00389099,-0.0983047,0.39856,0.0513458,-0.0109482,0.0760269,0.00183105
34,4,10.0097,0.00183105,0.00106812,-2.42653,0.0565965,-0.0741475,0.0535176,0.0700548,-0.0925361,0.145624,-0.126072,-0.0847066,0.00736237,-0.00541687,0.016861,-0.0225449,-0.0611496,-0.0716782,0.160904,0.00766754,-9.97986,0.0142288,0.00453949,-0.0949478,0.388718,0.0603104,-0.0114441,0.0725174,0.00190735
34,5,10.0097,0.00152588,0.00167847,-2.42501,0.0565965,-0.073232,0.0547383,0.0715807,-0.0910102,0.145624,-0.124241,-0.0813497,0.00823975,-0.00236511,0.0233459,-0.0196457,-0.0585175,-0.0453568,0.195999,0.0117874,-9.97986,0.0105286,-0.00377655,-0.0917435,0.411911,0.0667572,-0.00980377,0.0678635,-0.00118256
34,6,10.0097,0.0012207,0.00610352,-2.42531,0.0569017,-0.0738423,0.0550435,0.072191,-0.0922309,0.144403,-0.123935,-0.0798238,0.00785828,0.00553131,0.0326157,-0.0170135,-0.0562286,-0.0307465,0.228043,0.0130844,-9.97986,0.0125504,-0.00648499,-0.0871277,0.48336,0.0766754,-0.00793457,0.0606918,-0.00335693
34,7,10.0097,0.00274658,0.00747681,-2.42531,0.0569017,-0.0729268,0.0547383,0.0706652,-0.0910102,0.145624,-0.12302,-0.0786031,0.0124741,0.0018692,0.0439072,-0.0154114,-0.0545883,-0.000114441,0.245361,0.0180054,-9.97986,0.00957489,-0.00400543,-0.0845718,0.566711,0.0790024,-0.00965118,0.0582504,-0.00377655
34,8,10.0097,0.000610352,0.00289917,-2.42501,0.0562914,-0.0744527,0.0544332,0.0712755,-0.0919257,0.148065,-0.124546,-0.0792135,0.0143051,-0.00766754,0.0434875,-0.0470352,-0.0537109,0.0259399,0.25753,0.0250626,-9.97986,0.0088501,-0.001297,-0.0812149,0.558662,0.0891495,-0.0115967,0.0492859,-0.00785828
34,9,10.0097,0.00274658,-0.0109863,-2.42531,0.0572069,-0.0738423,0.0553487,0.0709703,-0.0919257,0.146844,-0.124546,-0.0865377,0.0146866,-0.0043869,0.047493,-0.0613403,-0.0476837,0.0572586,0.27256,0.029068,-9.97986,0.0153351,0.00995636,-0.0758743,0.327339,0.0889969,-0.00892639,0.0418854,-0.0109482
35,0,10.0097,0.000305176,-0.0271606,-2.42531,0.0575121,-0.0735371,0.0550435,0.0709703,-0.0910102,0.146844,-0.12363,-0.090505,0.0127029,-0.00743866,0.0529861,-0.0448227,-0.0481415,0.0761032,0.274086,0.0267029,-9.97986,0.00812531,0.0209427,-0.0744629,-0.0746155,0.0997925,-0.00831604,0.0382996,-0.00816345
35,1,10.0097,0.000915527,-0.0297546,-2.42562,0.0553758,-0.0747579,0.0535176,0.059984,-0.0934516,0.146234,-0.125766,-0.0898946,0.0156403,0.0031662,0.0615692,-0.0203323,-0.0394821,0.0962448,0.272293,0.0224304,-9.97986,0.0101471,0.0178909,-0.0723648,-0.373306,0.10231,-0.00995636,0.0346375,-0.0155258
35,2,10.0097,-0.000305176,-0.0161743,-2.42592,0.0565965,-0.0744527,0.054128,0.0648668,-0.0925361,0.145013,-0.125156,-0.0859274,0.0127029,-0.00110626,0.0505066,-0.0516129,-0.0363922,0.113525,0.273438,0.0156403,-9.97986,0.0157547,0.00202179,-0.0647736,-0.445099,0.11013,-0.00743866,0.0260544,-0.0146484
35,3,10.0097,0.00152588,-0.00350952,-2.42684,0.0553758,-0.0744527,0.054128,0.0688341,-0.0928413,0.145929,-0.125461,-0.0834859,0.010376,0.0146484,0.0477982,-0.0735474,-0.0336075,0.125237,0.263672,-0.000724792,-9.97986,0.0133133,0.00934601,-0.0650406,-0.395622,0.114136,-0.00480652,0.0217438,-0.0193787
35,4,10.0097,0.000915527,0.00793457,-2.42592,0.0547655,-0.0741475,0.0553487,0.0801256,-0.0916206,0.145318,-0.124851,-0.0795187,0.014267,0.0448608,0.0581741,-0.0116348,-0.0308609,0.136719,0.262566,0,-9.97986,0.0146103,0.0274277,-0.0657272,-0.247726,0.120049,-0.0075531,0.0166702,-0.0186539
35,5,10.0097,0.000915527,0.0128174,-2.42867,0.0544603,-0.075063,0.0529073,0.0718859,-0.0937568,0.143182,-0.126377,-0.0816549,0.0175858,0.0568008,0.0611496,0.0376892,-0.0270844,0.149918,0.253105,0.00549316,-9.97986,0.0214767,0.0511551,-0.062561,-0.079155,0.121078,-0.00217438,0.0135803,-0.0194931
35,6,10.0097,0.0012207,0.0112915,-2.42928,0.0541551,-0.0771993,0.0516866,0.0694445,-0.0955879,0.143182,-0.127903,-0.0825704,0.0180817,0.0513458,0.0702667,0.0625229,-0.0250626,0.160484,0.24044,0.00587463,-9.97986,0.0221252,0.0453949,-0.0559235,0.0276184,0.126343,-0.00244141,0.0125504,-0.0211334
35,7,10.0097,-0.000610352,0.00610352,-2.42959,0.0535448,-0.0759786,0.0522969,0.0700548,-0.0949775,0.143487,-0.127292,-0.085317,0.0143051,0.0337982,0.07164,0.0708771,-0.0229263,0.160141,0.231628,0.00648499,-9.97986,0.0178528,0.0164413,-0.0426102,0.0448227,0.126266,-0.00301361,0.00907898,-0.0201797
35,8,10.0097,0.00152588,-0.00366211,-2.42959,0.0532396,-0.0759786,0.0522969,0.0691393,-0.0943672,0.143182,-0.127903,-0.0877584,0.0121689,0.0177002,0.0600052,0.0251007,-0.0159073,0.166092,0.219498,0.000991821,-9.97986,0.0281525,-0.00644684,-0.0437164,-0.0398636,0.130959,-0.00297546,0.00869751,-0.02388
35,9,10.0097,0,-0.00579834,-2.42867,0.0538499,-0.0756734,0.0532125,0.0676134,-0.0961982,0.143487,-0.127903,-0.0886739,0.00804901,0.0174332,0.0452042,0.0151443,-0.0120544,0.172501,0.206566,-0.00534058,-9.97986,0.0345612,-0.0156021,-0.0389481,-0.107956,0.137329,-3.8147e-005,0.00366211,-0.0270844
36,0,10.0097,0.00152588,-0.00305176,-2.42989,0.0532396,-0.0762837,0.0529073,0.0679186,-0.0943672,0.143792,-0.128208,-0.0874532,0.0123215,0.0191879,0.0451279,0.0236511,-0.00835419,0.169907,0.196915,-0.0124359,-9.97986,0.0344849,-0.00038147,-0.0410843,-0.113754,0.140572,0.000152588,0.001297,-0.0276566
36,1,10.0097,0.00152588,-0.000457764,-2.42837,0.0541551,-0.0753682,0.0526021,0.0685289,-0.0931465,0.143487,-0.126987,-0.0859274,0.0141144,0.0283051,0.0389862,0.00865936,-0.00102997,0.17067,0.187454,-0.0156784,-9.97986,0.0301743,0.0206375,-0.0511932,-0.099678,0.14061,7.62939e-005,-0.00331879,-0.0271225
36,2,10.0097,-0.00183105,0.00198364,-2.42714,0.0547655,-0.0738423,0.0529073,0.0691393,-0.0937568,0.144098,-0.126377,-0.0840963,0.0104141,0.0387955,0.02388,0.00202179,0.00247955,0.171165,0.177002,-0.0175095,-9.97986,0.0286102,0.0217056,-0.0473404,-0.0601959,0.142975,0.000457764,-0.00404358,-0.0273895
36,3,10.0097,0.0012207,0.00335693,-2.42684,0.0541551,-0.0738423,0.0535176,0.07036,-0.0937568,0.144403,-0.126072,-0.0828756,0.0157166,0.0582123,0.000686646,-0.00576019,0.00228882,0.168648,0.162582,-0.0177765,-9.97986,0.0229263,0.0206375,-0.04879,-0.0117111,0.144463,-0.0012207,-0.00762939,-0.0286102
36,4,10.0097,-0.000610352,0.00320435,-2.42684,0.0544603,-0.0747579,0.054128,0.0694445,-0.0934516,0.145929,-0.126682,-0.0834859,0.0116348,0.0617981,-0.0153351,-0.00751495,0.00736237,0.165176,0.159683,-0.00629425,-9.97986,0.0246429,0.00701904,-0.0541306,0.0110245,0.14801,-0.00156403,-0.00808716,-0.0315475
36,5,10.0097,0,-0.000762939,-2.42562,0.055681,-0.0747579,0.0547383,0.0712755,-0.0925361,0.145929,-0.125156,-0.0828756,0.01194,0.0535202,-0.0320053,-0.00957489,0.0154495,0.166626,0.14946,0.00221252,-9.97986,0.0245285,0.00385284,-0.0497437,-0.0302887,0.152664,-0.00160217,-0.00717163,-0.0264359
36,6,10.0097,0.000610352,-0.00305176,-2.42562,0.055681,-0.0735371,0.0553487,0.0709703,-0.0913154,0.145929,-0.124546,-0.0816549,0.00514984,0.0418854,-0.0470352,0.00648499,0.012207,0.169296,0.142517,-0.000839233,-9.97986,0.0272751,0.00869751,-0.0537872,-0.0654602,0.149422,-0.00038147,-0.0171661,-0.0292969
36,7,10.0097,-0.000305176,-0.00106812,-2.42562,0.055681,-0.0735371,0.0547383,0.07036,-0.0922309,0.145624,-0.124241,-0.0810445,0.0082016,-0.00682831,-0.056839,0.0262451,0.0210571,0.162506,0.128899,0.00659943,-9.97986,0.0275803,0.0168991,-0.0513458,-0.0766373,0.154114,0.00240326,-0.0169754,-0.030899
36,8,10.0097,0.000610352,0.000610352,-2.42501,0.0572069,-0.0729268,0.0556539,0.0709703,-0.0922309,0.145624,-0.123935,-0.0807394,0.00244141,-0.0362778,-0.0491333,0.0462723,0.0302887,0.16655,0.12043,0.0109863,-9.97986,0.0284576,0.0179291,-0.0534439,-0.0476837,0.150871,0.00164032,-0.0218964,-0.0298691
36,9,10.0097,0.000915527,0.00671387,-2.42562,0.0559862,-0.0729268,0.0544332,0.0715807,-0.0910102,0.145929,-0.123325,-0.0789083,0.00743866,-0.0258636,-0.0485992,0.0368118,0.0341415,0.168037,0.12001,0.0128937,-9.97986,0.0256729,0.0211334,-0.0557709,0.0625229,0.148582,-0.00396729,-0.0278473,-0.0335312
37,0,10.0097,0.000305176,0.00854492,-2.4244,0.0581224,-0.0738423,0.0553487,0.07036,-0.0910102,0.145318,-0.123935,-0.0789083,0.00160217,-0.0193405,-0.0296783,0.0238419,0.0368118,0.171394,0.112495,0.0181961,-9.97986,0.0164413,0.0254059,-0.0544357,0.154495,0.154381,-0.00198364,-0.0259399,-0.0271988
37,1,10.0097,-0.0012207,0.00732422,-2.42714,0.0553758,-0.0741475,0.0532125,0.0596788,-0.094062,0.145624,-0.126987,-0.080129,0.00770569,-0.00743866,-0.021019,0.0167847,0.0398254,0.162926,0.101967,0.0164032,-9.97986,0.0206757,0.0223923,-0.0581741,0.236778,0.154686,-0.00652313,-0.0310516,-0.0314713
37,2,10.0097,0.000305176,0.00747681,-2.42714,0.0553758,-0.0744527,0.0538228,0.0639513,-0.0925361,0.146234,-0.125461,-0.0804342,0.0114822,0.00202179,-0.0108719,0.0107956,0.0452423,0.167236,0.0938416,0.0183868,-9.97986,0.0236511,0.0273895,-0.0559616,0.302849,0.155373,-0.00461578,-0.0346375,-0.0268173
37,3,10.0097,0.000305176,0.0038147,-2.42714,0.0553758,-0.0744527,0.0544332,0.0697496,-0.0919257,0.145624,-0.12363,-0.0810445,0.0167847,0.00411987,-0.0126648,0.0030899,0.0509644,0.163803,0.0824356,0.0119781,-9.97986,0.0188065,0.0247955,-0.0543213,0.320396,0.150642,0.00114441,-0.0401306,-0.0294495
37,4,10.0097,-0.000915527,0.00564575,-2.42684,0.0559862,-0.0753682,0.0538228,0.0792101,-0.090705,0.145013,-0.125461,-0.0810445,0.0199127,0.0121689,-0.00137329,0.0125885,0.0489807,0.16449,0.0789642,0.0123978,-9.97986,0.0260162,0.0234604,-0.0593567,0.383148,0.152969,-0.00118256,-0.0379944,-0.0289917
37,5,10.0097,0.000915527,0.00823975,-2.42837,0.0538499,-0.0756734,0.0526021,0.0737169,-0.0931465,0.144403,-0.126987,-0.0837911,0.0114822,0.0139236,0.0050354,-0.00465393,0.053215,0.163422,0.0669861,0.00679016,-9.97986,0.0236511,0.0233459,-0.0560379,0.478973,0.151863,-0.00434875,-0.0402451,-0.0289154
37,6,10.0097,-0.000305176,0.00839233,-2.42867,0.0535448,-0.0765889,0.0532125,0.07036,-0.0949775,0.143487,-0.126682,-0.0847066,0.014267,0.0138855,0.00740051,-0.0201035,0.0562286,0.156631,0.0536728,0.0128174,-9.97986,0.0240326,0.0216293,-0.0606918,0.581017,0.149155,0.000724792,-0.0421143,-0.0252151
37,7,10.0097,0.000915527,0.0109863,-2.42898,0.0538499,-0.0762837,0.0510762,0.0688341,-0.094062,0.143487,-0.128513,-0.0828756,0.0112152,0.0159454,0.00980377,-0.0263214,0.0538254,0.15522,0.0445938,0.00881195,-9.97986,0.0185776,0.0133133,-0.0550079,0.696945,0.145607,-0.00167847,-0.0449753,-0.0277328
37,8,10.0097,-0.000610352,0.00869751,-2.42989,0.0532396,-0.0768941,0.0519917,0.0682238,-0.0946723,0.142572,-0.128208,-0.0844015,0.0102997,0.01194,0.0169373,-0.0271988,0.0575638,0.148964,0.0315475,0.00801086,-9.97986,0.0230789,0.00926971,-0.0589752,0.769768,0.144615,-0.00267029,-0.0458527,-0.0246811
37,9,10.0097,0.0012207,0.0050354,-2.42867,0.0547655,-0.0765889,0.0522969,0.0691393,-0.094062,0.142572,-0.127292,-0.0859274,0.0154495,0.0118637,0.0245285,-0.029068,0.0540543,0.147476,0.0213623,0.0110245,-9.97986,0.0176239,0.00968933,-0.0597,0.806198,0.148087,0.000152588,-0.0467682,-0.0261307
38,0,10.0097,0,0.00289917,-2.42806,0.0535448,-0.0759786,0.0522969,0.0682238,-0.0952827,0.142877,-0.127598,-0.085317,0.014801,0.0178909,0.0348663,-0.041275,0.0564194,0.142822,0.0141907,0.0151443,-9.97986,0.0171661,0.0151062,-0.0590897,0.809326,0.143013,-0.0012207,-0.0453186,-0.0239944
38,1,10.0097,0.000610352,0.000915527,-2.42776,0.0538499,-0.075063,0.0522969,0.0688341,-0.0974189,0.143792,-0.127292,-0.0847066,0.013237,0.0334167,0.0399399,-0.0438309,0.0601578,0.137062,0.00988007,0.0206757,-9.97986,0.0135422,0.0107956,-0.0556183,0.811615,0.142174,-0.000915527,-0.0431824,-0.0249481
38,2,10.0097,-0.000610352,0.00137329,-2.42776,0.0547655,-0.0744527,0.0526021,0.0691393,-0.0943672,0.144708,-0.125766,-0.0856222,0.0119781,0.041008,0.0420761,-0.0253296,0.0581741,0.129852,3.8147e-005,0.0213623,-9.97986,0.0134659,0.0166702,-0.0549698,0.829201,0.138283,0.000762939,-0.0442505,-0.0200272
38,3,10.0097,0,-0.000610352,-2.42684,0.0553758,-0.0759786,0.0532125,0.0700548,-0.0934516,0.144708,-0.126072,-0.0850118,0.0117111,0.0350952,0.0470352,-0.01194,0.0585175,0.11837,0.00160217,0.0167465,-9.97986,0.0153351,0.0123978,-0.0532532,0.808411,0.135155,0.00938416,-0.0403595,-0.0195313
38,4,10.0097,0.00366211,-0.000457764,-2.42592,0.0553758,-0.075063,0.054128,0.0706652,-0.0931465,0.145013,-0.125766,-0.0834859,0.00919342,0.0276566,0.057869,-0.050354,0.0598526,0.10952,-0.000419617,0.0146866,-9.97986,0.0172043,0.0120926,-0.0463486,0.799751,0.13031,0.00888824,-0.0390244,-0.0219727
38,5,10.0097,0.000305176,-0.000457764,-2.42531,0.0562914,-0.0738423,0.0547383,0.0706652,-0.0922309,0.147149,-0.124546,-0.0828756,0.0122833,0.0333023,0.0688934,-0.0981522,0.065155,0.0986481,-0.00198364,0.0177383,-9.97986,0.012207,0.00907898,-0.0465012,0.783539,0.129776,0.0128174,-0.0337219,-0.016098
38,6,10.0097,-0.000305176,-0.00274658,-2.42501,0.055681,-0.0738423,0.0556539,0.0712755,-0.0922309,0.146234,-0.124241,-0.0816549,0.0112152,0.0431824,0.0731277,-0.110397,0.0679016,0.0970078,-0.00831604,0.0131607,-9.97986,0.0129318,0.00724792,-0.0381851,0.732269,0.121002,0.0094986,-0.0325012,-0.0186539
38,7,10.0097,0.000305176,-0.00411987,-2.42562,0.0569017,-0.0738423,0.0556539,0.072191,-0.0916206,0.14776,-0.123935,-0.0816549,0.0151443,0.0400925,0.0798416,-0.0582504,0.0675583,0.0818634,-0.00228882,0.0178146,-9.97986,0.0109863,0.00549316,-0.037117,0.689812,0.113831,0.00778198,-0.0299072,-0.0132751
38,8,10.0097,0.000610352,-0.00549316,-2.4244,0.0562914,-0.073232,0.0544332,0.0712755,-0.090705,0.146539,-0.123935,-0.0828756,0.0114441,0.0413513,0.0753021,0.0127792,0.0741959,0.0710297,-0.00904083,0.0130463,-9.97986,0.0141144,0.00404358,-0.0257111,0.612068,0.110817,0.0112152,-0.0229263,-0.014534
38,9,10.0097,0.000610352,-0.00747681,-2.42562,0.0572069,-0.0744527,0.0547383,0.0712755,-0.0922309,0.146539,-0.12363,-0.0837911,0.017128,0.0470734,0.0643158,0.0520706,0.0779343,0.0642776,-0.00816345,0.0111771,-9.97986,0.0165939,7.62939e-005,-0.0213623,0.518112,0.105667,0.00869751,-0.0170135,-0.0157547
39,0,10.0097,-0.000610352,-0.00701904,-2.4247,0.0565965,-0.0729268,0.0553487,0.0718859,-0.0910102,0.147455,-0.124241,-0.0816549,0.0104523,0.0377655,0.0553513,0.0357437,0.0850296,0.048027,-0.00961304,0.0149536,-9.97986,0.0160217,-0.00183105,-0.00881195,0.444756,0.0954819,0.0159454,-0.0140381,-0.0108719
39,1,10.0097,-0.0012207,-0.00457764,-2.42531,0.0565965,-0.0741475,0.054128,0.0593737,-0.0943672,0.145929,-0.126072,-0.0837911,0.0108719,0.0279236,0.0404358,0.00427246,0.0892258,0.0453186,-0.00858307,0.0200272,-9.97986,0.0177383,0.00175476,-0.00404358,0.413857,0.0905991,0.0111008,-0.0131607,-0.00968933
39,2,10.0097,0.00152588,-0.00366211,-2.42684,0.0550706,-0.0738423,0.054128,0.0663927,-0.0928413,0.146234,-0.126377,-0.0834859,0.00782013,0.0347137,0.0248337,-0.0344086,0.0941849,0.0339508,-0.00827789,0.0176239,-9.97986,0.0194931,0.00602722,0.00343323,0.367241,0.0807953,0.015831,-0.0113297,-0.00663757
39,3,10.0097,-0.0012207,-0.00442505,-2.4244,0.055681,-0.0741475,0.0547383,0.0706652,-0.0922309,0.145929,-0.125461,-0.0837911,0.00812531,0.0324631,0.0223541,0.00228882,0.098877,0.0242615,-0.0159454,0.0209808,-9.97986,0.0179291,0.00858307,0.0130463,0.311813,0.077095,0.0223541,-0.00907898,-0.00587463
39,4,10.0097,-0.000305176,-0.00137329,-2.42653,0.0550706,-0.0744527,0.0553487,0.0801256,-0.0919257,0.145013,-0.128208,-0.0831808,0.0123978,0.0331497,0.0233459,0.0801086,0.10643,0.0156403,-0.0188065,0.0201416,-9.97986,0.0214005,0.0157928,0.0226974,0.318375,0.0767899,0.0270462,-0.00400543,-0.00278473
39,5,10.0097,0,0.0038147,-2.42776,0.0541551,-0.075063,0.0532125,0.0734117,-0.094062,0.143792,-0.126987,-0.0834859,0.0127411,0.042305,0.0389481,0.116539,0.116577,0.00370026,-0.0230026,0.0151825,-9.97986,0.0195694,0.0138855,0.0320435,0.394707,0.072403,0.0286865,0.00427246,-0.00156403
39,6,10.0097,0.00152588,0.00930786,-2.42776,0.0538499,-0.0747579,0.0519917,0.0700548,-0.0952827,0.143792,-0.126987,-0.0837911,0.0117111,0.0390625,0.0470734,0.0982666,0.125008,-0.00610352,-0.0248718,0.0163269,-9.97986,0.020752,0.013504,0.0441742,0.530205,0.0657654,0.0286484,0.00434875,-0.00152588
39,7,10.0097,-0.000305176,0.00930786,-2.42806,0.0544603,-0.0744527,0.0532125,0.0691393,-0.0952827,0.143792,-0.126682,-0.0844015,0.00770569,0.0328064,0.048027,0.0593948,0.126343,-0.0219727,-0.0226212,0.0103378,-9.97986,0.0279617,0.0138474,0.0543594,0.625534,0.0615311,0.0276947,0.0105667,-0.00267029
39,8,10.0097,-0.0012207,0.0050354,-2.4302,0.0541551,-0.0759786,0.0519917,0.0682238,-0.094062,0.141961,-0.126682,-0.0856222,0.00968933,0.0228882,0.0514984,0.0580215,0.136948,-0.0419998,-0.0204086,0.00556946,-9.97986,0.0215912,0.0056839,0.0629807,0.649643,0.050621,0.0217438,0.00976563,-0.00289917
39,9,10.0097,0.000610352,0.00701904,-2.42837,0.0532396,-0.0771993,0.0532125,0.0694445,-0.0949775,0.143487,-0.127598,-0.0847066,0.00637054,0.0119781,0.0468445,0.0405121,0.140572,-0.0401688,-0.013237,0.0102234,-9.97986,0.0255585,-0.00179291,0.0749969,0.743484,0.0502396,0.0204468,0.0172043,0.000762939
40,0,10.0097,-0.000610352,0.0088501,-2.42989,0.0541551,-0.0762837,0.0519917,0.0679186,-0.0952827,0.144098,-0.127903,-0.0847066,0.00923157,0.00534058,0.0455093,0.0281525,0.14782,-0.047226,-0.00846863,0.0123215,-9.97986,0.0196838,-0.00423431,0.0875473,0.8535,0.0431061,0.0241089,0.0215149,-7.62939e-005
40,1,10.0097,-0.000305176,0.00915527,-2.42714,0.0547655,-0.0756734,0.0544332,0.0691393,-0.0937568,0.144098,-0.126682,-0.0834859,0.00747681,0.0141907,0.0330734,0.0552368,0.150146,-0.065918,-0.01091,0.0137329,-9.97986,0.0226212,0.00507355,0.0955963,0.948372,0.0395203,0.0252151,0.0179291,-0.000610352
40,2,10.0097,0.000305176,0.012207,-2.42776,0.0559862,-0.0753682,0.0547383,0.0700548,-0.0934516,0.144403,-0.125461,-0.0810445,0.0115967,0.0386047,0.0175095,0.0618362,0.149193,-0.0751114,-0.00904083,0.0162125,-9.97986,0.0226593,0.0174332,0.108681,1.0973,0.038147,0.0246048,0.021553,0.0012207
40,3,10.0097,-0.0012207,0.0167847,-2.42745,0.0547655,-0.075063,0.0535176,0.07036,-0.0943672,0.144708,-0.126377,-0.0798238,0.0113297,0.0438309,-0.00255585,0.0408173,0.153503,-0.0775909,-0.00785828,0.016861,-9.97986,0.0183868,0.0307846,0.11261,1.24996,0.0229645,0.0246429,0.0205231,0.00354767
40,4,10.0097,-0.0012207,0.017395,-2.42623,0.0550706,-0.0747579,0.0535176,0.0694445,-0.0931465,0.144708,-0.125461,-0.0779928,0.0111771,0.030098,-0.0198746,-0.00259399,0.161972,-0.0823212,-0.0115204,0.0191879,-9.97986,0.0222015,0.0233459,0.121613,1.24996,0.0203705,0.0185394,0.0178528,0.00301361
40,5,10.0097,-0.000915527,0.0137329,-2.42501,0.0565965,-0.0744527,0.0550435,0.0712755,-0.0913154,0.145624,-0.124546,-0.0786031,0.00980377,0.0322723,-0.0261688,-0.0385666,0.15873,-0.090065,-0.0150681,0.0179672,-9.97986,0.0188828,0.00423431,0.126457,1.24996,0.0123215,0.013504,0.0202179,0.00675201
40,6,10.0097,0.000915527,0.0088501,-2.42501,0.055681,-0.0741475,0.0553487,0.0706652,-0.0922309,0.145624,-0.124241,-0.0795187,0.0124741,0.0260544,-0.0247574,-0.0525284,0.159378,-0.0947571,-0.0226212,0.0201035,-9.97986,0.0196457,-0.0176239,0.13279,1.24996,0.00640869,0.0172806,0.0242233,0.000724792
40,7,10.0097,0.000305176,0.00946045,-2.42409,0.0562914,-0.0765889,0.0562642,0.0712755,-0.0913154,0.146234,-0.123935,-0.0779928,0.0103378,0.00675201,-0.0267792,-0.0559235,0.158997,-0.0968933,-0.0271988,0.0218964,-9.97986,0.0151825,-0.0299454,0.143013,1.24996,0.00167847,0.0205994,0.0249481,0.000114441
