
Devices
1200
,,BP Load cell - Voltage,String Length - Voltage,Clutch Active - Voltage,#7 iPecs - Voltage,,,,,,,,,EMG 1-8 Left - Voltage,,,,,,,,Pylon Force - Voltage,EMG 9-16 Right - Voltage,,,,,,,,
Frame,Sub Frame,BP Load Cell,String Length,From Arduino Logic,A45,A135,A225,A315,S0,S90,S180,S270,ZSum,EMG 1 Glut Max,EMG 2 Glut Med,EMG 3 Biceps Femoris Long,EMG 4 Rectus Femoris,EMG 5 Vastus Medialis,EMG 6 Tib Ant,EMG 7 Med Gas,EMG 8 Soleus,Pylon volts,EMG 9 Glut Max,EMG 10 Glut Med,EMG 11 Biceps Femoris Long,EMG 12 Rectus Femoris,EMG 13 Vastus Medialis,EMG 14 Tib Ant,EMG 15 Med Gas,EMG 16 Soleus
,,V,V,V,V,V,V,V,V,V,V,V,V,V,V,V,V,V,V,V,V,V,V,V,V,V,V,V,V,V
1,0,10.0097,0.000305176,-0.000457764,-2.42928,0.0541551,-0.0756734,0.0516866,0.0706652,-0.0949775,0.143792,-0.125766,-0.0871481,-0.0206375,0.0257492,0.0231171,0.0094986,0.0455093,0.0803757,0.0133133,0.0166702,-9.97986,-0.0252914,-0.00305176,0.0119781,0.0152206,0.00354767,-0.0257492,-0.114861,0.02491
1,1,10.0097,0.000305176,-0.000610352,-2.42898,0.0541551,-0.075063,0.050771,0.0694445,-0.0946723,0.144098,-0.128208,-0.0877584,-0.0127029,0.0286865,0.0201797,0.0110626,0.04673,0.0849533,0.0193787,0.0220108,-9.97986,-0.0188446,-0.00190735,0.00377655,0.0153351,0.00751495,-0.0346756,-0.111198,0.026474
1,2,10.0097,0.00183105,-0.000152588,-2.42806,0.0544603,-0.0762837,0.0547383,0.0700548,-0.0949775,0.143487,-0.127598,-0.0865377,0.00431061,0.0299072,0.0262833,0.0168991,0.0414276,0.0831604,0.0189972,0.0221252,-9.97986,-0.0269699,0.000572205,0.00396729,0.0204086,0.00656128,-0.0373459,-0.102501,0.0267029
1,3,10.0097,0.0012207,0,-2.42867,0.0550706,-0.0756734,0.0538228,0.0691393,-0.0928413,0.143792,-0.126682,-0.085317,0.00785828,0.0301743,0.0281525,0.0117493,0.0403214,0.0875854,0.0174713,0.0252533,-9.97986,-0.0309753,0.00133514,0.00465393,0.0211334,0.0128174,-0.0438309,-0.097084,0.0282669
1,4,10.0097,0.000915527,0,-2.42745,0.0547655,-0.0747579,0.0492452,0.0706652,-0.0934516,0.144708,-0.125766,-0.0844015,0.00423431,0.0295639,0.0271225,0.0108719,0.0341415,0.0849533,0.0192642,0.0202179,-9.97986,-0.0241852,0.000267029,0.00347137,0.028038,0.0094986,-0.0485611,-0.0934219,0.0285339
1,5,10.0097,-0.000610352,0.000915527,-2.42684,0.0553758,-0.0744527,0.0565694,0.0700548,-0.0931465,0.144708,-0.125156,-0.0844015,0.000762939,0.0310898,0.0258636,0.0108337,0.0336075,0.0867081,0.0250626,0.0226974,-9.97986,-0.0126266,0.000610352,0.0094223,0.026207,0.0196838,-0.04776,-0.0870514,0.0281525
1,6,10.0097,0,0.000610352,-2.42776,0.0559862,-0.0744527,0.054128,0.07036,-0.0922309,0.145318,-0.126682,-0.0816549,-0.00221252,0.0275421,0.0275421,0.00846863,0.0314713,0.0914764,0.0273132,0.024147,-9.97986,0.00873566,-0.00263214,0.00350952,0.0274658,0.0160599,-0.045929,-0.082016,0.0309372
1,7,10.0097,0.0012207,-0.000305176,-2.42623,0.0559862,-0.0744527,0.0538228,0.072191,-0.0919257,0.146234,-0.124546,-0.0816549,0.0122833,0.0253296,0.0258255,0.0128174,0.0294113,0.0918579,0.0262833,0.0242233,-9.97986,0.0325012,-0.00144958,0.00358582,0.0339508,0.0193405,-0.0385284,-0.0681686,0.0317383
1,8,10.0097,0.000305176,0.000152588,-2.42562,0.0565965,-0.0744527,0.0565694,0.0709703,-0.0916206,0.146234,-0.122104,-0.0810445,0.0368118,0.0284958,0.0242233,0.0109863,0.0315094,0.0998688,0.0292969,0.0268173,-9.97986,0.0461197,0.00274658,0.00282288,0.0320053,0.0200653,-0.0395966,-0.0643539,0.0286102
1,9,10.0097,0.0012207,-0.000152588,-2.42562,0.0559862,-0.0747579,0.0550435,0.0709703,-0.0922309,0.146234,-0.124241,-0.0807394,0.0165558,0.0274277,0.0288773,0.0158691,0.0293732,0.0950623,0.0279236,0.0226593,-9.97986,0.0577545,-0.00167847,0.00778198,0.0354385,0.0205994,-0.0378799,-0.0522614,0.0302124
2,0,10.0097,0,0.000305176,-2.4247,0.0562914,-0.0735371,0.0562642,0.0709703,-0.090705,0.148675,-0.125156,-0.0810445,-0.0338745,0.0288773,0.0227737,0.0124741,0.0285721,0.100746,0.032196,0.0213623,-9.97986,0.0484467,0.00148773,0.00408173,0.0429535,0.0260544,-0.0320816,-0.0395203,0.0323868
2,1,10.0097,-0.000305176,0.000762939,-2.42623,0.0553758,-0.0744527,0.0556539,0.052965,-0.0946723,0.145929,-0.128818,-0.0816549,-0.0498962,0.0307846,0.0279999,0.0173187,0.0281525,0.102501,0.0311279,0.0130844,-9.97986,0.039444,0.000610352,0.00141144,0.0450516,0.0283432,-0.021286,-0.0323868,0.0330353
2,2,9.46462,0.000610352,-0.00137329,-2.4247,0.0565965,-0.0738423,0.054128,0.0431993,-0.094062,0.145624,-0.123935,-0.0816549,-0.000495911,0.0297928,0.0268173,0.0193405,0.017662,0.0963974,0.0333023,0.0123978,-9.97986,0.0352478,0.00118256,0.00453949,0.044632,0.0315475,-0.0174713,-0.0177002,0.0292969
2,3,7.97017,0.0012207,0.000305176,-2.42562,0.0562914,-0.0744527,0.0529073,0.0520494,-0.0922309,0.147149,-0.126987,-0.0819601,0.0478745,0.0289154,0.0276947,0.0139236,0.0191879,0.0938416,0.0349045,0.0115204,-9.97986,0.0349045,0.00282288,0.00156403,0.0483704,0.0384903,-0.00659943,-0.00789642,0.0275421
2,4,7.52614,0.0012207,0,-2.42531,0.055681,-0.0744527,0.0544332,0.0624254,-0.090705,0.145624,-0.122104,-0.0825704,0.0476837,0.0302505,0.0294113,0.0132751,0.0154495,0.0942612,0.0403214,0.0128937,-9.97986,0.0337601,0.00514984,0.0094986,0.0484467,0.0362396,-0.0105667,-0.00812531,0.0231171
2,5,7.65676,0.000610352,0.00137329,-2.42592,0.0569017,-0.0747579,0.0547383,0.0697496,-0.0922309,0.145624,-0.124851,-0.0825704,0.0636292,0.0313568,0.0238037,0.0132751,0.019722,0.0846863,0.0413895,0.021019,-9.97986,0.0272369,0.00488281,0.00850677,0.0523758,0.0382614,-0.00164032,0.00183105,0.0204086
2,6,8.86861,0.000305176,0.00167847,-2.42745,0.055681,-0.0747579,0.0556539,0.0834825,-0.0910102,0.145013,-0.124241,-0.0831808,0.0904465,0.0239182,0.0228119,0.0111771,0.0169754,0.0882339,0.0411224,0.0402069,-9.97986,0.0120163,0.00495911,0.00629425,0.055809,0.0378418,0.00709534,0.00461578,0.0215149
2,7,10.0097,-0.000610352,0.00228882,-2.42806,0.0535448,-0.0759786,0.0513814,0.101183,-0.0922309,0.143792,-0.12302,-0.0856222,0.056076,0.0237274,0.0194931,0.00988007,0.0147629,0.0879669,0.0408936,0.0414658,-9.97986,-0.0050354,0.00598907,0.00289917,0.0624847,0.0388336,0.0162125,0.00572205,0.0202942
2,8,10.0097,0.000915527,0.000457764,-2.42898,0.0547655,-0.0753682,0.0519917,0.0801256,-0.095893,0.142877,-0.126072,-0.0871481,0.0249863,0.0218201,0.0200272,0.00797272,0.0110626,0.0841141,0.0407028,0.0417328,-9.97986,-0.012207,0.0025177,0.00583649,0.0596619,0.0411606,0.0223541,0.00675201,0.0242996
2,9,10.0097,0.000610352,0.000152588,-2.42989,0.0544603,-0.0762837,0.0529073,0.0728014,-0.0946723,0.142877,-0.126682,-0.0874532,0.0199509,0.0218964,0.0191879,0.0117874,0.0114059,0.0799561,0.03582,0.0297165,-9.97986,-0.0138855,0.00766754,0.00305176,0.0620651,0.0421906,0.0234985,0.0103378,0.0189972
3,0,10.0097,-0.00152588,-0.000305176,-2.42959,0.0535448,-0.0771993,0.0498555,0.0706652,-0.0961982,0.142877,-0.130039,-0.0877584,0.0128937,0.0239944,0.0233459,0.0123978,0.012207,0.0823212,0.0379562,0.0196075,-9.97986,-0.0248337,0.00263214,0.00278473,0.0681686,0.0425339,0.0266266,0.0170135,0.016098
3,1,10.0097,0.000915527,-0.000305176,-2.42837,0.0547655,-0.0762837,0.0519917,0.0688341,-0.0952827,0.143182,-0.127292,-0.0871481,-0.0136566,0.030899,0.0256729,0.0126266,0.00663757,0.0802231,0.0443649,0.0149918,-9.97986,-0.0327301,0.00164032,0.0123978,0.0632095,0.0447083,0.0282288,0.0256729,0.0110626
3,2,10.0097,0.00244141,0.000305176,-2.42867,0.0553758,-0.0759786,0.0532125,0.0700548,-0.0949775,0.142572,-0.126682,-0.0862325,-0.00926971,0.0271225,0.0269699,0.0138092,0.0108337,0.0766373,0.0426865,0.0172043,-9.97986,-0.0426865,0.00209808,0.0114822,0.0645447,0.0438309,0.0290298,0.0260162,0.00923157
3,3,10.0097,0,-0.000305176,-2.42776,0.0547655,-0.0756734,0.0532125,0.07036,-0.0937568,0.144098,-0.128208,-0.0856222,0.0242615,0.0246048,0.0229263,0.0135422,0.00797272,0.070343,0.0405121,0.0330353,-9.97986,-0.0299072,0.00541687,0.00858307,0.0643158,0.044136,0.0259781,0.0268555,0.00740051
3,4,10.0097,-0.000610352,-0.000457764,-2.42806,0.0553758,-0.0753682,0.0535176,0.0706652,-0.0928413,0.144098,-0.126682,-0.0847066,0.00267029,0.0202942,0.016861,0.0122452,0.0114441,0.0710297,0.0383759,0.0419998,-9.97986,-0.00553131,0.00202179,0.00961304,0.0632095,0.0405121,0.0201035,0.0284576,0.00495911
3,5,10.0097,-0.000305176,0,-2.42776,0.0550706,-0.0744527,0.0544332,0.0706652,-0.0928413,0.145318,-0.125156,-0.0840963,-0.0123596,0.0187683,0.021019,0.0063324,0.0104904,0.0662231,0.0353241,0.0443649,-9.97986,0.0062561,0.0108337,0.0110245,0.0629044,0.0382233,0.0162506,0.0273514,0.00911713
3,6,10.0097,-0.000610352,0.000915527,-2.42623,0.0553758,-0.0753682,0.0556539,0.0691393,-0.0928413,0.145318,-0.124851,-0.0828756,-0.0296402,0.0183105,0.0151443,0.0147247,0.0100708,0.0592804,0.0264359,0.0439453,-9.97986,0.00904083,0.00427246,0.0105286,0.0614166,0.0379181,0.0138855,0.0302505,0.0126648
3,7,10.0097,-0.000610352,0,-2.42623,0.0562914,-0.075063,0.0538228,0.0712755,-0.0928413,0.146539,-0.124546,-0.0819601,-0.0679398,0.0180435,0.0130463,0.00904083,0.0139999,0.054512,0.0206757,0.0352859,-9.97986,0.00988007,0.00442505,0.0130081,0.0575638,0.0391006,0.0056076,0.0256729,0.0127029
3,8,10.0097,-0.00152588,0.000610352,-2.42501,0.0562914,-0.0741475,0.0553487,0.0712755,-0.090705,0.147455,-0.124546,-0.0816549,-0.0712967,0.0164032,0.0120544,0.0108337,0.0104523,0.0539017,0.0267792,0.0302124,-9.97986,0.0136185,0.00652313,0.0123215,0.0548172,0.0376511,0.0130844,0.0253296,0.0168991
3,9,10.0097,0.000610352,-0.000610352,-2.42501,0.0565965,-0.0741475,0.0562642,0.0709703,-0.0903999,0.146844,-0.122715,-0.0813497,-0.0417328,0.0193787,0.0154877,0.00701904,0.00926971,0.0499344,0.027771,0.0356674,-9.97986,-0.00492096,0.00526428,0.0191879,0.0521088,0.0404739,0.0201416,0.0266266,0.0140381
4,0,10.0097,0,0,-2.42501,0.0565965,-0.0738423,0.0550435,0.0728014,-0.0900947,0.147149,-0.124546,-0.0813497,0.0170517,0.0172424,0.0177765,0.0139999,0.00717163,0.0503159,0.0383377,0.0378799,-9.97986,-0.0240326,0.00602722,0.0223541,0.0534439,0.0363541,0.0177002,0.0289536,0.0130463
4,1,10.0097,0.000915527,0,-2.42653,0.055681,-0.0756734,0.0529073,0.0499132,-0.0949775,0.146234,-0.126377,-0.0825704,0.0586319,0.020752,0.0145721,0.0148392,0.00476837,0.0476837,0.0352859,0.0362015,-9.97986,-0.0230026,0.00362396,0.020752,0.0510025,0.0383759,0.016861,0.0293732,0.013237
4,2,9.21803,0,-0.00167847,-2.42562,0.0550706,-0.073232,0.0526021,0.0407579,-0.0928413,0.146844,-0.126987,-0.0816549,0.0399399,0.0172043,0.0190353,0.00995636,0.00442505,0.046196,0.0377655,0.0383759,-9.97986,-0.017662,0.00106812,0.0203323,0.0521469,0.0367355,0.0192261,0.0218582,0.0130463
4,3,7.74007,-0.000610352,-0.000610352,-2.42653,0.0559862,-0.0744527,0.0538228,0.0514391,-0.0934516,0.145929,-0.127903,-0.0825704,0.0103378,0.0157928,0.0148392,0.0126266,0.00507355,0.0471115,0.0353241,0.0313568,-9.97986,-0.019722,0.0031662,0.0141144,0.0551605,0.0330734,0.0156403,0.0209427,0.0171661
4,4,7.28627,-0.000610352,0.000152588,-2.42653,0.0553758,-0.0741475,0.0538228,0.0615099,-0.0922309,0.145318,-0.125156,-0.0822652,-0.00892639,0.0146103,0.0151062,0.0094223,0.00148773,0.0437546,0.0345993,0.027771,-9.97986,-0.0141525,0.00377655,0.0124741,0.051651,0.031929,0.0137711,0.0206757,0.0151443
4,5,7.40712,0,0.000305176,-2.42653,0.0559862,-0.0744527,0.0550435,0.0691393,-0.0928413,0.144708,-0.124851,-0.0825704,-0.0167084,0.018158,0.0156403,0.0111008,0.00453949,0.0429153,0.0309372,0.0335693,-9.97986,0.0133514,0.00656128,0.0189972,0.0465775,0.0272751,0.0154877,0.0232697,0.0140762
4,6,8.63454,0.00244141,0.00137329,-2.42745,0.055681,-0.0744527,0.0544332,0.0847032,-0.0919257,0.145013,-0.126377,-0.0834859,-0.0162506,0.0182724,0.0143051,0.0116348,0.00663757,0.0413895,0.0267792,0.031662,-9.97986,0.050354,0.00270844,0.0164413,0.0487518,0.0296402,0.0140762,0.0208664,0.014801
4,7,10.0097,0.0012207,0.00228882,-2.42776,0.0535448,-0.0753682,0.054128,0.10454,-0.0900947,0.142572,-0.124241,-0.085317,-0.0063324,0.0116348,0.017128,0.00988007,0.00522614,0.041008,0.0238037,0.030632,-9.97986,0.0702286,-0.00183105,0.0189972,0.0459671,0.0305557,0.0126266,0.0188446,0.0144958
4,8,10.0097,-0.0012207,0.000457764,-2.42989,0.0544603,-0.0756734,0.0532125,0.0813463,-0.0949775,0.144708,-0.125156,-0.0868429,0.0196838,0.0180817,0.016861,0.0120163,0.00583649,0.0432968,0.0198746,0.0311661,-9.97986,0.0694275,0.000610352,0.0236511,0.0469971,0.0264359,0.00255585,0.0187302,0.00988007
4,9,10.0097,0.000610352,0,-2.42928,0.0541551,-0.0762837,0.0532125,0.0737169,-0.0952827,0.143182,-0.125461,-0.0868429,0.0413513,0.0169754,0.0182724,0.00995636,0.00904083,0.0350571,0.0109863,0.0347137,-9.97986,0.0688171,-0.000839233,0.0218582,0.0465012,0.0263977,0.00484467,0.0177002,0.00694275
5,0,10.0097,0,-0.000305176,-2.42989,0.0541551,-0.0756734,0.0516866,0.0706652,-0.0949775,0.142877,-0.128208,-0.0871481,0.0436783,0.0172424,0.0140381,0.00980377,0.00541687,0.0331879,0.018158,0.0344849,-9.97986,0.0672913,0.000572205,0.0247574,0.0402832,0.019989,0.00331879,0.0112915,0.00732422
5,1,10.0097,0.00183105,0,-2.42928,0.0541551,-0.0759786,0.0519917,0.0679186,-0.0955879,0.143487,-0.128513,-0.0877584,0.0408936,0.0202942,0.0180817,0.0101089,0.00701904,0.0325394,0.02491,0.0352478,-9.97986,0.0798035,0.00484467,0.0246429,0.0447845,0.0198364,-0.00320435,0.0149536,0.00938416
5,2,10.0097,0,-0.000305176,-2.42898,0.0532396,-0.0756734,0.0516866,0.0706652,-0.0937568,0.143487,-0.125461,-0.0862325,0.0338364,0.0125122,0.0136566,0.0100327,0.00362396,0.0254822,0.0213242,0.0367355,-9.97986,0.102539,0.00473022,0.0229645,0.0423813,0.017662,-0.0127411,0.0164795,0.0137329
5,3,10.0097,0.00183105,0.000152588,-2.42745,0.0544603,-0.075063,0.0532125,0.0706652,-0.0946723,0.144098,-0.127292,-0.085317,0.0388718,0.0174713,0.0158691,0.0104141,0.0111389,0.0243759,0.0166321,0.0421143,-9.97986,0.103455,0.00484467,0.0217819,0.0439072,0.0165939,-0.0104904,0.0126266,0.0166702
5,4,10.0097,0.000610352,0.000305176,-2.42776,0.0550706,-0.0765889,0.0522969,0.0679186,-0.0949775,0.145318,-0.126377,-0.0847066,0.020256,0.0193405,0.0159836,0.0120544,0.011673,0.0185394,0.0145721,0.041008,-9.97986,0.075531,-0.00175476,0.0203705,0.0413132,0.0166321,-0.0111389,0.0158691,0.0179672
5,5,10.0097,0,0,-2.42592,0.0541551,-0.0753682,0.0532125,0.0688341,-0.0946723,0.145624,-0.127292,-0.0840963,0.000572205,0.0224686,0.0225067,0.0125885,0.0161743,0.0131607,0.0114059,0.0425339,-9.97986,0.0389099,-0.00110626,0.0222778,0.0455093,0.0178146,-0.0109482,0.0173187,0.0237274
5,6,10.0097,0.0012207,-0.000305176,-2.42714,0.0562914,-0.0747579,0.0550435,0.0700548,-0.094062,0.145624,-0.125766,-0.0834859,-0.0317383,0.0219345,0.0170135,0.00801086,0.0127411,0.0025177,0.00289917,0.0351334,-9.97986,0.0219345,0.00289917,0.0194168,0.0423813,0.0139236,-0.0107574,0.0172043,0.0240707
5,7,10.0097,0,0,-2.42501,0.0559862,-0.073232,0.0565694,0.07036,-0.0919257,0.146234,-0.125156,-0.0816549,-0.0339127,0.0258255,0.0211716,0.0105667,0.0145721,-0.00167847,0.00720978,0.0354004,-9.97986,0.0167084,0.00343323,0.0191116,0.0386047,0.0138474,-0.00938416,0.0167847,0.0243378
5,8,10.0097,-0.000610352,-0.000305176,-2.42531,0.0575121,-0.0741475,0.0544332,0.0724962,-0.090705,0.146844,-0.124851,-0.0810445,-0.00961304,0.0244522,0.0273514,0.0123978,0.0131226,-0.00499725,0.0207138,0.0286102,-9.97986,0.0114822,0.000343323,0.0269699,0.0369644,0.0152588,-0.00694275,0.0161743,0.0193405
5,9,10.0097,0.000915527,-0.000610352,-2.42409,0.0569017,-0.0744527,0.0550435,0.0709703,-0.0916206,0.14776,-0.123935,-0.0813497,0.0152206,0.0296402,0.0258636,0.0138855,0.00957489,-0.0153732,0.0363922,0.0263977,-9.97986,0.0227737,-0.000686646,0.0278473,0.0416565,0.012207,-0.00965118,0.015564,0.019455
6,0,10.0097,0.000610352,0,-2.42562,0.0575121,-0.0738423,0.0547383,0.0718859,-0.090705,0.146234,-0.123325,-0.0813497,0.038414,0.0295639,0.0251007,0.0148392,0.0125504,-0.0142288,0.047226,0.0304794,-9.97986,0.0357437,-0.00305176,0.0353241,0.034256,0.0120926,-0.0139618,0.0154877,0.0177383
6,1,10.0097,0.000610352,-0.000305176,-2.42653,0.0562914,-0.075063,0.0532125,0.0517443,-0.0937568,0.146234,-0.126377,-0.0816549,0.0784302,0.029068,0.0216293,0.0114441,0.0143433,-0.0201797,0.0432587,0.0392151,-9.97986,0.0387192,-0.00827789,0.0310516,0.0348663,0.0106812,-0.0154877,0.0115204,0.018425
6,2,9.31935,0.000915527,-0.00183105,-2.42562,0.0572069,-0.0738423,0.0547383,0.0413683,-0.0952827,0.146844,-0.126377,-0.0816549,0.0983429,0.030899,0.0231552,0.0157928,0.0138092,-0.0148773,0.0473785,0.0490952,-9.97986,0.0466537,-0.000724792,0.0368118,0.0375366,0.0118637,-0.0140762,0.00785828,0.0196457
6,3,7.83986,-0.000610352,-0.00106812,-2.42684,0.0562914,-0.0744527,0.0535176,0.0499132,-0.0934516,0.145318,-0.126377,-0.0825704,0.0122452,0.0261307,0.0146484,0.0107193,0.0134277,-0.0220871,0.0348663,0.0460434,-9.97986,0.028038,-0.00106812,0.0395966,0.0365448,0.0110245,-0.00923157,0.00427246,0.0191879
6,4,7.37844,-0.000610352,-0.000610352,-2.42684,0.0572069,-0.0756734,0.0535176,0.0596788,-0.0928413,0.145929,-0.124546,-0.0825704,-0.0664139,0.0291443,0.0205612,0.0169754,0.0114822,-0.021286,0.0267029,0.0351715,-9.97986,0.0273895,0.00179291,0.0378799,0.0366974,0.0103378,-0.00846863,0.000114441,0.015831
6,5,7.47609,0.000915527,-0.000305176,-2.42684,0.0553758,-0.0741475,0.054128,0.0688341,-0.0934516,0.145318,-0.126072,-0.0822652,-0.107918,0.0304794,0.0260162,0.01194,0.00637054,-0.0226593,0.0128937,0.0271988,-9.97986,0.0349045,-0.000152588,0.03582,0.0318146,0.00888824,-0.00843048,-0.00289917,0.0134277
6,6,8.70656,0,0.000610352,-2.42592,0.0559862,-0.075063,0.0547383,0.0850084,-0.0913154,0.145013,-0.124851,-0.0828756,-0.125275,0.0299454,0.0235748,0.0147247,0.00694275,-0.019455,0.0111008,0.0117111,-9.97986,0.039444,-0.00415802,0.0366974,0.0370407,0.0129318,-0.0111008,0.00247955,0.00782013
6,7,10.0097,-0.000305176,0.00289917,-2.42806,0.0535448,-0.0771993,0.0519917,0.10454,-0.0910102,0.144403,-0.125156,-0.0847066,-0.0798035,0.0339127,0.0263214,0.0126266,0.00892639,-0.0262451,0.00946045,-0.00217438,-9.97986,0.0501251,-0.00125885,0.0404739,0.031929,0.0108337,-0.00984192,0.00038147,0.0012207
6,8,10.0097,0.0012207,0.000762939,-2.42867,0.0529344,-0.0756734,0.0519917,0.0831774,-0.0937568,0.144403,-0.126072,-0.0874532,-0.0043869,0.028038,0.0229263,0.0125504,0.00293732,-0.0286484,0.0150681,0.00419617,-9.97986,0.0516129,0.000495911,0.050354,0.0368118,0.0179291,-0.00968933,0.00915527,-0.000419617
6,9,10.0097,-0.000305176,-0.000457764,-2.42898,0.0535448,-0.0756734,0.0522969,0.0749376,-0.0952827,0.143182,-0.126987,-0.0865377,0.101471,0.0307083,0.0151443,0.00736237,0.000343323,-0.0277328,0.0159836,0.0114822,-9.97986,0.0447845,0.000572205,0.0554276,0.0346375,0.0155258,-0.0102234,0.00511169,-0.00408173
7,0,10.0097,0.000915527,-0.000305176,-2.42867,0.0532396,-0.0756734,0.0516866,0.0718859,-0.0961982,0.142572,-0.128513,-0.0874532,0.143967,0.0302124,0.0202179,0.0162506,0.00576019,-0.0229645,0.0278091,0.0220108,-9.97986,0.0301743,0.00686646,0.0678635,0.0328064,0.0191116,-0.00392914,0.0115585,-0.00480652
7,1,10.0097,0.000915527,-0.00183105,-2.42898,0.0547655,-0.0756734,0.0522969,0.07036,-0.0955879,0.143487,-0.126987,-0.0877584,0.0789642,0.0196838,0.0154877,0.00843048,-0.00431061,-0.0217056,0.0212479,0.0128937,-9.97986,0.00801086,-0.0025177,0.0597382,0.0217819,0.0185013,-0.00469208,0.0125122,-0.00972748
7,2,10.0097,0.000915527,-0.000152588,-2.42867,0.0538499,-0.0756734,0.050771,0.0676134,-0.0952827,0.142877,-0.126377,-0.0862325,0.0447083,0.0267029,0.0192642,0.0140762,0.00232697,-0.0193024,0.0224304,0.0170898,-9.97986,-0.0134659,-0.00377655,0.0660706,0.0227737,0.0224686,-0.00431061,0.00766754,-0.00717163
7,3,10.0097,0.0012207,-0.000457764,-2.42806,0.0547655,-0.075063,0.0532125,0.0697496,-0.094062,0.143792,-0.126987,-0.0847066,-0.00133514,0.0205231,0.018158,0.0131989,0.00457764,-0.0163269,0.0310516,0.0223923,-9.97986,-0.0362396,-0.000686646,0.0615311,0.021019,0.0236511,-0.00774384,0.00602722,-0.00576019
7,4,10.0097,0.00183105,-0.00106812,-2.42837,0.0562914,-0.0747579,0.0535176,0.0706652,-0.094062,0.145318,-0.126072,-0.0850118,-0.00465393,0.0234222,0.0130463,0.0114441,0.00209808,-0.0196838,0.0321198,0.0219727,-9.97986,-0.0453949,-0.000839233,0.0589752,0.0149536,0.0223541,-0.00728607,-0.0012207,-0.00587463
7,5,10.0097,-0.000305176,0.000152588,-2.42623,0.0559862,-0.075063,0.0529073,0.0694445,-0.0934516,0.145624,-0.126377,-0.0847066,0.027504,0.0183868,0.00961304,0.00808716,-0.00198364,-0.0313568,0.0343704,0.0267029,-9.97986,-0.0326157,-0.00244141,0.059967,0.0135422,0.0201035,-0.00606537,-0.00305176,-0.0050354
7,6,10.0097,-0.000610352,-0.000915527,-2.42653,0.055681,-0.0744527,0.0532125,0.0706652,-0.094062,0.145318,-0.125766,-0.0837911,0.0186157,0.0167465,0.00694275,0.00999451,-0.00415802,-0.0353622,0.0279999,0.0217438,-9.97986,0.00324249,-0.00209808,0.054512,0.0112152,0.0157166,-0.00396729,-0.000534058,-0.00610352
7,7,10.0097,0,-0.000152588,-2.42501,0.0565965,-0.0744527,0.0550435,0.0715807,-0.0919257,0.147149,-0.124546,-0.0816549,-0.000495911,0.0181961,0.00621796,0.010643,-0.00278473,-0.0374603,0.026741,0.0139618,-9.97986,0.0550079,-0.00133514,0.0534058,0.00419617,0.0148392,-0.00888824,-0.00488281,-0.00988007
7,8,10.0097,0,-0.000152588,-2.42501,0.0553758,-0.0729268,0.0547383,0.0731066,-0.0910102,0.146539,-0.124241,-0.0816549,0.0349045,0.0205231,0.0110245,0.0138092,-0.00743866,-0.0525665,0.0217819,0.00385284,-9.97986,0.0724792,0.00102997,0.0543594,0.00648499,0.0165939,-0.00339508,-0.00728607,-0.00724792
7,9,10.0097,0,0.000457764,-2.42531,0.0575121,-0.0735371,0.0547383,0.0715807,-0.090705,0.146539,-0.125156,-0.0822652,0.117264,0.0192261,0.00850677,0.0132751,-0.0082016,-0.052681,0.014801,0.0106812,-9.97986,0.051651,-0.00324249,0.0545502,0.00389099,0.00888824,-0.00457764,-0.0118256,-0.00991821
8,0,10.0097,0.000610352,-0.000457764,-2.42379,0.0559862,-0.073232,0.0553487,0.0685289,-0.0913154,0.145624,-0.12302,-0.0798238,0.108566,0.0233078,0.00732422,0.00659943,-0.00461578,-0.0514984,0.0122833,0.0143433,-9.97986,0.0120544,-0.000190735,0.0482178,-0.00198364,0.0102997,-0.00740051,-0.0151062,-0.0104141
8,1,10.0097,0.000915527,-0.000457764,-2.42562,0.0569017,-0.0744527,0.0532125,0.0480822,-0.095893,0.145624,-0.126072,-0.0822652,0.0395966,0.0230026,0.00968933,0.0130844,-0.000457764,-0.0479507,0.0165558,0.0102234,-9.97986,-0.0190735,-0.000762939,0.0525665,-0.00274658,0.00896454,-0.0120163,-0.0131607,-0.00946045
8,2,9.24275,0,-0.00228882,-2.42653,0.0562914,-0.0747579,0.0544332,0.0413683,-0.0946723,0.147455,-0.126377,-0.0816549,0.00179291,0.0179672,0.0056076,0.0104141,-0.00164032,-0.0452805,0.0194168,0.001297,-9.97986,-0.0246429,-7.62939e-005,0.0502014,-0.00701904,0.00740051,-0.0105286,-0.0129318,-0.0106049
8,3,7.84963,-0.000610352,-0.000915527,-2.42531,0.0553758,-0.0744527,0.0538228,0.0517443,-0.0931465,0.144708,-0.125156,-0.0819601,-0.0143051,0.0193405,0.0087738,0.00873566,-0.00297546,-0.0343323,0.0217438,-0.00988007,-9.97986,-0.0325775,-0.000114441,0.0514603,-0.00911713,0.00686646,-0.0127029,-0.0127411,-0.010376
8,4,7.4352,0,0,-2.42562,0.0550706,-0.0744527,0.054128,0.0639513,-0.0925361,0.146234,-0.124546,-0.0828756,-0.0288391,0.0165558,0.00724792,0.0088501,-0.00553131,-0.0425339,0.024147,-0.0180435,-9.97986,-0.0299072,0.00167847,0.0478363,-0.00873566,0.0140381,-0.0102234,-0.0100708,-0.0104523
8,5,7.59358,0.000610352,-0.000305176,-2.42562,0.0547655,-0.075063,0.0544332,0.0694445,-0.0931465,0.147149,-0.125156,-0.0825704,-0.00656128,0.0178146,0.00587463,0.0109863,-0.00465393,-0.0533676,0.0209045,-0.0120163,-9.97986,-0.014801,-0.000228882,0.0494385,-0.00850677,0.0110626,-0.0110626,-0.00671387,-0.0110245
8,6,8.90645,0.000305176,0.000305176,-2.42653,0.0550706,-0.075063,0.0538228,0.0847032,-0.0913154,0.145013,-0.124851,-0.0831808,0.0224304,0.0120926,0.00484467,0.00808716,-0.0025177,-0.0609207,0.018692,-0.00686646,-9.97986,-0.0128937,0.00408173,0.0480652,-0.0141525,0.00408173,-0.0143051,-0.0107574,-0.0157547
8,7,10.0097,0.00152588,0.00244141,-2.42898,0.0541551,-0.0759786,0.0532125,0.100878,-0.0916206,0.143792,-0.124851,-0.0847066,0.00362396,0.0161743,0.00724792,0.00804901,-0.00160217,-0.071373,0.0247574,0.00038147,-9.97986,-0.0112915,0.00232697,0.0450897,-0.0167084,0.00953674,-0.0131226,-0.00640869,-0.0117493
8,8,10.0097,0.000915527,0.000152588,-2.42959,0.0541551,-0.0756734,0.0532125,0.0804308,-0.0934516,0.142877,-0.127598,-0.0865377,0.00865936,0.017662,0.00743866,0.0121689,-0.0025177,-0.0919724,0.0216293,0.00141144,-9.97986,-0.00839233,0.00514984,0.0456619,-0.0188446,0.0117493,-0.0087738,-0.00671387,-0.0120544
8,9,10.0097,0.000915527,-0.000457764,-2.42928,0.0538499,-0.0759786,0.0516866,0.0764635,-0.0949775,0.144708,-0.127598,-0.0874532,0.0565338,0.0186157,0.0117111,0.00709534,-0.00480652,-0.100594,0.0235748,0.00450134,-9.97986,-0.00579834,0.00530243,0.0439072,-0.0218964,0.0113297,-0.00938416,-0.00614166,-0.0155258
9,0,10.0097,0,-0.000610352,-2.4302,0.0526292,-0.0768941,0.0532125,0.07036,-0.095893,0.143182,-0.128208,-0.0874532,0.0736237,0.022316,0.0134277,0.0105286,-0.00537872,-0.107574,0.0229645,-0.000190735,-9.97986,-0.00087738,0.00495911,0.039444,-0.0268173,0.00976563,-0.0111008,-0.00389099,-0.0155258
9,1,10.0097,-0.000915527,-0.000610352,-2.42745,0.0547655,-0.0765889,0.0519917,0.07036,-0.0946723,0.142572,-0.126072,-0.0880636,0.0358963,0.0222397,0.0104523,0.0113297,-0.0117111,-0.109901,0.0205994,-0.00293732,-9.97986,0.0110245,0.000801086,0.0383759,-0.0272751,0.00419617,-0.00740051,0.00305176,-0.0135422
9,2,10.0097,0.00152588,-0.000915527,-2.42989,0.0547655,-0.0765889,0.0513814,0.0706652,-0.0946723,0.144403,-0.126987,-0.0862325,0.0119781,0.0270462,0.00839233,0.00892639,-0.00976563,-0.12085,0.0259781,-0.00404358,-9.97986,0.0387192,0.000610352,0.0360107,-0.0275803,0.0107574,-0.00671387,-0.000457764,-0.0131226
9,3,10.0097,0.000305176,-0.000457764,-2.42714,0.0544603,-0.0747579,0.0529073,0.0709703,-0.0943672,0.143792,-0.126377,-0.0868429,0.0131989,0.02388,0.00782013,0.0124741,-0.0150681,-0.120926,0.0302124,-0.0069809,-9.97986,0.0511169,0.00518799,0.0394821,-0.0318146,0.00644684,-0.00923157,0.00553131,-0.0139618
9,4,10.0097,0.000305176,-0.000152588,-2.42684,0.0550706,-0.0747579,0.0532125,0.07036,-0.0934516,0.145013,-0.126377,-0.0844015,0.00370026,0.0231934,0.0125122,0.01091,-0.0151062,-0.123215,0.0374985,-0.0138092,-9.97986,0.0534821,0.00263214,0.0344849,-0.030632,0.00988007,-0.00999451,0.00854492,-0.0157166
9,5,10.0097,0.00213623,0.000152588,-2.42623,0.0553758,-0.0756734,0.054128,0.07036,-0.0934516,0.145318,-0.124851,-0.0831808,-0.00572205,0.0234985,0.00774384,0.00774384,-0.0240326,-0.118141,0.0334167,-0.00968933,-9.97986,0.0482941,0.00400543,0.031662,-0.0291061,0.0113678,-0.00823975,0.0107956,-0.0185776
9,6,10.0097,0.000915527,0,-2.42653,0.0544603,-0.0744527,0.054128,0.0697496,-0.0919257,0.145624,-0.125156,-0.0844015,-0.00766754,0.0244904,0.0114822,0.0111771,-0.025444,-0.101242,0.0253296,-0.00198364,-9.97986,0.0281525,0.00377655,0.0279999,-0.0286484,0.00694275,-0.0123596,0.0143433,-0.0215912
9,7,10.0097,0.000610352,0.000152588,-2.42898,0.0562914,-0.0744527,0.0538228,0.0700548,-0.0925361,0.146234,-0.124851,-0.0825704,-0.00587463,0.0245285,0.011673,0.0122833,-0.0224686,-0.0905228,0.0259399,0.00598907,-9.97986,0.00793457,-0.000648499,0.028038,-0.0245285,0.0126648,-0.0141144,0.0216293,-0.022049
9,8,10.0097,0.000610352,0.000457764,-2.42592,0.0550706,-0.0729268,0.0550435,0.0712755,-0.090705,0.147455,-0.124546,-0.0807394,0.000610352,0.0209045,0.0173187,0.0104904,-0.0283432,-0.0891876,0.0232315,0.0177383,-9.97986,-0.0163269,0.00247955,0.0234604,-0.0226974,0.0111008,-0.0242233,0.0281525,-0.0218582
9,9,10.0097,0,-0.000610352,-2.4247,0.0572069,-0.0735371,0.054128,0.0706652,-0.0910102,0.146234,-0.123935,-0.0831808,-0.000686646,0.0281525,0.0202179,0.0104523,-0.0329208,-0.0940704,0.0211716,0.0157547,-9.97986,-0.0319672,0.00102997,0.0267792,-0.0220108,0.0112152,-0.0225067,0.0333786,-0.0199509
10,0,10.0097,0,0,-2.42837,0.055681,-0.0738423,0.0547383,0.0706652,-0.0910102,0.147149,-0.124241,-0.080129,-0.0152206,0.0288391,0.0168228,0.00720978,-0.0396729,-0.107689,0.022316,0.0136948,-9.97986,-0.0313568,0.00221252,0.0199127,-0.022316,0.0107956,-0.0261688,0.037384,-0.0218964
10,1,10.0097,0.000610352,0.000152588,-2.42684,0.0553758,-0.0747579,0.0544332,0.0499132,-0.0943672,0.147149,-0.125766,-0.0819601,-0.0261307,0.0309372,0.0189972,0.00846863,-0.0347137,-0.116997,0.0224686,0.00984192,-9.97986,-0.0172043,-0.000419617,0.0175476,-0.0235748,0.0107574,-0.0255966,0.0374603,-0.0182343
10,2,9.18782,0.000915527,-0.00137329,-2.42653,0.0575121,-0.0741475,0.0522969,0.0431993,-0.0937568,0.146539,-0.125766,-0.0828756,-0.0323868,0.0310516,0.023613,0.0130081,-0.0394821,-0.105247,0.021019,0.0031662,-9.97986,0.00873566,-0.000152588,0.0175858,-0.019722,0.0130081,-0.0317764,0.0435257,-0.0183487
10,3,7.79897,0.00183105,-0.000915527,-2.42928,0.0547655,-0.0753682,0.0538228,0.0517443,-0.0922309,0.146844,-0.126682,-0.0825704,-0.0790405,0.031395,0.0210953,0.0117111,-0.0404739,-0.0907516,0.0418472,0.00602722,-9.97986,0.0292206,-0.000343323,0.0120926,-0.0180435,0.0160217,-0.0250244,0.0436401,-0.0197601
10,4,7.34059,0.000915527,0.000610352,-2.42562,0.0553758,-0.0747579,0.0550435,0.0605944,-0.0922309,0.145318,-0.125766,-0.0822652,-0.139999,0.0340271,0.0210953,0.0139236,-0.0432587,-0.0740433,0.0495911,-0.0018692,-9.97986,0.0382614,-0.000457764,0.00579834,-0.0105286,0.0191879,-0.0243759,0.0449371,-0.0212097
10,5,7.45503,0.000915527,0.000610352,-2.42623,0.055681,-0.075063,0.054128,0.0694445,-0.0928413,0.145013,-0.125156,-0.0856222,-0.143967,0.036087,0.0264359,0.0193787,-0.0372696,-0.0528717,0.0574493,-0.0152969,-9.97986,0.0386047,-0.00286102,0.0105286,-0.0082016,0.021286,-0.0158691,0.0505447,-0.0199509
10,6,8.74593,0.00152588,0.0012207,-2.42501,0.0550706,-0.075063,0.0522969,0.0865343,-0.0891792,0.144403,-0.124851,-0.0834859,-0.059166,0.0312042,0.0282288,0.0192642,-0.0446701,-0.0315475,0.0535583,-0.0153351,-9.97986,0.023613,0.000190735,0.00198364,-0.0056076,0.0192261,-0.00747681,0.0593185,-0.0212097
10,7,10.0097,-0.000915527,0.00228882,-2.42867,0.0538499,-0.0753682,0.0532125,0.104234,-0.0916206,0.144098,-0.124546,-0.0859274,0.0289536,0.0352859,0.0244904,0.0133896,-0.0362396,-0.0375366,0.0455475,0.0019455,-9.97986,0.0104523,-0.00415802,-0.000724792,-0.00465393,0.0218964,-3.8147e-005,0.0605392,-0.0205231
10,8,10.0097,0,0.000610352,-2.42989,0.0544603,-0.0759786,0.0513814,0.0822618,-0.0946723,0.142877,-0.126072,-0.0877584,0.103798,0.0313568,0.0196457,0.0114059,-0.0355148,-0.0405884,0.0304794,0.0144196,-9.97986,0.00087738,-0.00270844,-0.00225067,-0.00347137,0.02285,0.00411987,0.0731659,-0.0181198
10,9,10.0097,0,0.000610352,-2.43081,0.0544603,-0.0756734,0.0522969,0.0740221,-0.094062,0.143792,-0.127292,-0.0871481,0.128632,0.0247192,0.0195694,0.0088501,-0.030098,-0.0324631,0.0215912,0.017395,-9.97986,0.00354767,-0.00400543,-0.0043869,-0.00671387,0.0285721,0.0185013,0.0829697,-0.0184631
11,0,10.0097,-0.000305176,-0.000152588,-2.4305,0.0529344,-0.0759786,0.0522969,0.0706652,-0.095893,0.141961,-0.127598,-0.0874532,0.0838852,0.027771,0.0196457,0.00915527,-0.0183105,-0.0218582,0.00808716,0.00984192,-9.97986,-0.00133514,-0.00263214,-0.00106812,0.000801086,0.0271225,0.0212097,0.0901794,-0.0197601
11,1,10.0097,0,-0.000610352,-2.42837,0.0535448,-0.0768941,0.0519917,0.0682238,-0.0949775,0.143792,-0.126377,-0.0880636,0.00656128,0.0241089,0.0173187,0.00888824,-0.0198746,-0.0265121,0.000991821,-0.00259399,-9.97986,0.0062561,-0.00396729,-0.00431061,0.00255585,0.0298691,0.019989,0.0954437,-0.0183105
11,2,10.0097,0.000305176,-0.000610352,-2.42592,0.0541551,-0.0765889,0.0522969,0.0685289,-0.0943672,0.143792,-0.126987,-0.0862325,-0.0336456,0.0246048,0.0193405,0.00923157,-0.015564,-0.0384521,0.00972748,-0.016098,-9.97986,0.0154495,-0.00320435,-0.00713348,0.00102997,0.027504,0.0230026,0.104103,-0.0185394
11,3,10.0097,0.000610352,0,-2.42867,0.0544603,-0.0756734,0.0529073,0.0700548,-0.0937568,0.144403,-0.126072,-0.0850118,-0.0270844,0.0282288,0.0163651,0.00621796,-0.010376,-0.025177,0.0186539,-0.016098,-9.97986,0.0503922,0.00171661,-0.000953674,0.00183105,0.0291824,0.0257111,0.10746,-0.0175095
11,4,10.0097,0.00274658,0.000762939,-2.42745,0.0544603,-0.0747579,0.0529073,0.0712755,-0.0934516,0.145318,-0.126072,-0.0837911,-0.0212097,0.0234222,0.0172424,0.0131989,0.000495911,-0.0122833,0.0282669,-0.0214767,-9.97986,0.0901794,0.00160217,-0.00675201,0.00793457,0.0327682,0.0307465,0.11467,-0.0128555
11,5,10.0097,-0.000305176,0.0012207,-2.42867,0.0559862,-0.0747579,0.0535176,0.0715807,-0.0928413,0.144708,-0.125461,-0.0831808,0.00526428,0.0254822,0.0165176,0.0149536,-0.00164032,0.0167084,0.0315094,-0.010643,-9.97986,0.110855,0.00453949,-0.00160217,0.0119781,0.0335693,0.0329971,0.124321,-0.0148392
11,6,10.0097,0.000305176,0.000610352,-2.42653,0.0562914,-0.075063,0.0544332,0.0712755,-0.0928413,0.145318,-0.125766,-0.0834859,0.0486374,0.0215149,0.0151825,0.00659943,0.00293732,0.0294113,0.0222015,0.00480652,-9.97986,0.087204,0.000724792,-0.00167847,0.0145721,0.0343323,0.0324249,0.13546,-0.0145721
11,7,10.0097,-0.00213623,0.000610352,-2.42531,0.0569017,-0.0735371,0.0535176,0.0694445,-0.0928413,0.146234,-0.124851,-0.0825704,0.033493,0.0172806,0.0152206,0.00930786,0.00480652,0.0252533,0.0188065,0.00587463,-9.97986,0.0549316,0.0019455,0.00492096,0.0187683,0.0366211,0.0408554,0.151901,-0.0147247
11,8,10.0097,-0.000305176,0.000305176,-2.42348,0.055681,-0.0738423,0.0550435,0.0712755,-0.0913154,0.145929,-0.124241,-0.0813497,-0.010643,0.0197601,0.00873566,0.0088501,0.00144958,0.0287628,0.00469208,0.0037384,-9.97986,0.0258255,-0.00102997,0.00801086,0.0223541,0.0318527,0.0465012,0.174866,-0.0261688
11,9,10.0097,0.0012207,0.000152588,-2.42379,0.0565965,-0.0744527,0.0550435,0.0697496,-0.0910102,0.145929,-0.124546,-0.0816549,-0.00289917,0.0242615,0.014267,0.0142288,0.00564575,0.0346375,0.00984192,0.00453949,-9.97986,0.00171661,0.000114441,0.00915527,0.0210571,0.0301743,0.052681,0.191803,-0.0411987
12,0,10.0097,0,0,-2.4247,0.0569017,-0.0744527,0.0553487,0.0718859,-0.090705,0.146234,-0.123935,-0.0810445,-0.00171661,0.0267792,0.0181961,0.0146484,0.00667572,0.0501633,0.0119019,-0.00705719,-9.97986,-0.0123215,-0.00793457,0.0119019,0.0220108,0.0300217,0.0537872,0.213509,-0.0413132
12,1,10.0097,-0.000305176,0,-2.42653,0.0559862,-0.0762837,0.0544332,0.0502184,-0.0949775,0.145929,-0.126377,-0.0825704,-0.0146866,0.0291824,0.0189209,0.0141144,0.0110245,0.0599289,0.0126648,-0.00644684,-9.97986,-0.00343323,-0.00213623,0.0164032,0.0206375,0.0304794,0.0468445,0.221786,-0.0372314
12,2,9.19667,0.00152588,-0.00183105,-2.4247,0.0559862,-0.0738423,0.0544332,0.0419786,-0.0937568,0.145624,-0.124851,-0.0810445,-0.00976563,0.0210571,0.0141525,0.00846863,0.00965118,0.0632477,0.00465393,0.00247955,-9.97986,-0.00938416,0.000801086,0.0161743,0.0137711,0.0313187,0.0344467,0.235367,-0.0284195
12,3,7.8542,0.0012207,-0.000610352,-2.42623,0.0565965,-0.075063,0.054128,0.0523546,-0.0922309,0.146539,-0.125766,-0.0816549,0.00709534,0.0232697,0.0130463,0.00938416,0.00652313,0.0763702,0.00843048,0.0169754,-9.97986,-0.0196838,0.00183105,0.0261688,0.0212479,0.025444,0.0269318,0.247536,-0.0117111
12,4,7.44252,0.000915527,-0.000152588,-2.42562,0.0553758,-0.075063,0.054128,0.0627306,-0.0910102,0.146234,-0.124546,-0.0819601,-0.0133514,0.0201797,0.0168991,0.00946045,0.00537872,0.0801849,0.00923157,0.0113678,-9.97986,-0.0165176,0.000839233,0.0254822,0.0194168,0.0323105,0.0281525,0.270882,-0.00434875
12,5,7.58077,0.000305176,-0.000152588,-2.42623,0.0547655,-0.0735371,0.0544332,0.0694445,-0.0919257,0.145318,-0.125156,-0.0834859,-0.0259399,0.0160217,0.00984192,0.00743866,0.00148773,0.0802994,0.0163269,0.0122833,-9.97986,-0.0170517,3.8147e-005,0.0242996,0.0226593,0.030899,0.0249863,0.283508,0.0114059
12,6,8.95131,0.000610352,0.000915527,-2.42592,0.055681,-0.0744527,0.0550435,0.0862291,-0.0900947,0.144403,-0.125461,-0.0831808,0.0279999,0.0151443,0.0043869,0.0103378,0.00133514,0.0918579,0.0149918,0.0151062,-9.97986,-0.0185776,-0.00118256,0.0178528,0.0224686,0.0317764,0.0198746,0.300102,0.0184631
12,7,10.0097,0.0012207,0.00228882,-2.42745,0.0538499,-0.075063,0.0532125,0.100878,-0.0916206,0.143792,-0.125766,-0.085317,0.0666809,0.00537872,-7.62939e-005,0.0063324,-0.00247955,0.098877,0.0190735,0.0180435,-9.97986,-0.0113678,-0.0056076,0.00934601,0.0170135,0.0299835,0.0147247,0.325317,0.024147
12,8,10.0097,0.0012207,0,-2.4302,0.0541551,-0.0753682,0.0526021,0.0813463,-0.0961982,0.143792,-0.126682,-0.0868429,0.0641632,0.00476837,-0.000724792,0.00518799,-0.00335693,0.109749,0.0235367,0.021019,-9.97986,0.000343323,-0.00488281,0.0111008,0.0193405,0.0322723,0.0154495,0.341568,0.0229645
12,9,10.0097,0.00152588,0,-2.42837,0.0535448,-0.0753682,0.0522969,0.0734117,-0.0949775,0.143792,-0.126987,-0.0889791,0.0575638,0.00617981,0.000610352,0.00469208,-0.00621796,0.108948,0.0263977,0.0228119,-9.97986,-0.0182343,-0.00400543,0.00808716,0.0138474,0.0287247,0.0144577,0.367012,0.0198746
13,0,10.0097,0.00213623,-0.0012207,-2.42989,0.0529344,-0.0762837,0.050771,0.0709703,-0.0949775,0.142572,-0.127903,-0.0871481,0.0481033,0.00419617,0.00118256,0.00545502,-0.00305176,0.109711,0.032959,0.0303268,-9.97986,-0.0279236,-0.0050354,0.00598907,0.0106812,0.0330734,0.0148392,0.378456,0.0136566
13,1,10.0097,0.000610352,-0.000457764,-2.42928,0.0532396,-0.0753682,0.0516866,0.0673082,-0.0946723,0.143182,-0.127292,-0.0871481,0.0379944,0.00659943,0.00385284,0.00358582,-0.00461578,0.111618,0.0311661,0.0285721,-9.97986,-0.0278854,-0.00087738,-0.00534058,0.0115204,0.030098,0.00865936,0.367317,0.00717163
13,2,10.0097,0.000915527,-0.000305176,-2.42898,0.0544603,-0.0756734,0.0529073,0.0679186,-0.0949775,0.143792,-0.127292,-0.0862325,0.0242615,0.0143051,0.00392914,0.0069809,-0.00392914,0.11982,0.0407791,0.0288773,-9.97986,-0.0369263,-0.00453949,-0.0106812,0.00984192,0.0282669,0.0144196,0.350304,0.00392914
13,3,10.0097,0.000610352,-0.000457764,-2.42776,0.0559862,-0.0744527,0.0519917,0.0706652,-0.0925361,0.143487,-0.126682,-0.0847066,0.0215912,0.0144196,0.00701904,0.0100327,-0.00255585,0.114326,0.0413132,0.02491,-9.97986,-0.0419617,0.00232697,-0.0209808,0.00793457,0.0333405,0.0143051,0.315895,-0.0019455
13,4,10.0097,-0.000305176,0.000152588,-2.42623,0.0544603,-0.075063,0.0535176,0.0673082,-0.0931465,0.146234,-0.126072,-0.0844015,0.0224304,0.0147247,0.00499725,0.00782013,-0.00408173,0.108948,0.0461578,0.0211716,-9.97986,-0.0102997,0.00465393,-0.0265121,0.01091,0.0281143,0.0114441,0.304947,-0.0031662
13,5,10.0097,0.000610352,0.000305176,-2.42653,0.055681,-0.0747579,0.0538228,0.0700548,-0.0946723,0.145013,-0.126072,-0.0844015,0.0189209,0.0169754,0.00541687,0.0103378,-0.00526428,0.107422,0.0455856,0.0193024,-9.97986,0.0163651,0.00778198,-0.0268173,0.0161362,0.0246811,0.011673,0.297241,-0.00656128
13,6,10.0097,0.0012207,0.000457764,-2.42623,0.0562914,-0.0744527,0.0538228,0.0724962,-0.0928413,0.145013,-0.126072,-0.0828756,0.0257111,0.014801,0.0103378,0.00961304,-0.00343323,0.105553,0.0416946,0.0146103,-9.97986,0.0479507,0.0112534,-0.0386429,0.0155258,0.0304413,0.00785828,0.293159,-0.00976563
13,7,10.0097,0.000915527,0.000457764,-2.42501,0.055681,-0.0738423,0.054128,0.0712755,-0.0913154,0.14776,-0.124241,-0.0816549,0.026474,0.0205994,0.0161362,0.0118256,0.00404358,0.0992966,0.0531006,0.0247955,-9.97986,0.0687027,0.00694275,-0.0431061,0.0172806,0.0286484,0.00846863,0.304985,-0.0167847
13,8,10.0097,0.00305176,-0.000610352,-2.42501,0.0559862,-0.073232,0.0550435,0.0706652,-0.0903999,0.146539,-0.12363,-0.0816549,0.0265121,0.0194931,0.0110626,0.0141525,0.00766754,0.097084,0.0569153,0.0255203,-9.97986,0.0705338,0.0100327,-0.0457001,0.0173569,0.0241852,0.00442505,0.311737,-0.017662
13,9,10.0097,0.00305176,0.0012207,-2.4247,0.0578172,-0.0741475,0.0556539,0.0706652,-0.090705,0.147149,-0.124241,-0.0813497,0.0753784,0.0178909,0.0152969,0.0056839,0.0134277,0.0920105,0.0613022,0.0365448,-9.97986,0.04879,0.001297,-0.0421143,0.0170135,0.0248718,0.00541687,0.325546,-0.0159836
14,0,10.0097,-0.000610352,0.000457764,-2.4247,0.0572069,-0.0726216,0.0553487,0.0715807,-0.0910102,0.146844,-0.123325,-0.0804342,0.0868607,0.0228882,0.0131607,0.0127411,0.0120926,0.0857544,0.0689316,0.0368881,-9.97986,0.0288773,0.00572205,-0.0364304,0.0202179,0.0310135,0.0056839,0.339203,-0.0144958
14,1,10.0097,-0.000610352,0,-2.42684,0.055681,-0.0741475,0.0532125,0.0505236,-0.0949775,0.145929,-0.125766,-0.0816549,0.059433,0.0204468,0.0149536,0.0127411,0.0193787,0.0846863,0.0761795,0.0357819,-9.97986,0.028038,-0.00362396,-0.045433,0.0290298,0.0229645,0.00236511,0.346527,-0.0151443
14,2,9.27999,-0.00152588,-0.000915527,-2.42501,0.0562914,-0.0747579,0.054128,0.0416735,-0.0934516,0.145318,-0.125461,-0.0813497,0.0453568,0.0238419,0.0151443,0.00808716,0.0246429,0.0740814,0.0635529,0.0289917,-9.97986,0.0173569,-0.00457764,-0.041008,0.0295639,0.0280762,-0.00366211,0.355453,-0.0208282
14,3,7.9717,0,-0.000915527,-2.42592,0.0569017,-0.0741475,0.054128,0.052965,-0.0934516,0.145624,-0.126377,-0.0825704,0.00892639,0.02491,0.0075531,0.0103378,0.0264359,0.0826645,0.0474167,0.035553,-9.97986,0.00911713,-0.00087738,-0.0431442,0.0266266,0.0288773,-0.000152588,0.354767,-0.025177
14,4,7.54201,0.00183105,0.000152588,-2.42623,0.0559862,-0.0744527,0.0553487,0.0627306,-0.0919257,0.145318,-0.126072,-0.0822652,-0.0452805,0.0226212,0.0114059,0.0101471,0.0288773,0.0809479,0.0382233,0.0259781,-9.97986,0.0218964,-0.00350952,-0.0505447,0.0326538,0.0219727,-0.00152588,0.349579,-0.0198746
14,5,7.6946,-0.000305176,0.000305176,-2.42623,0.0547655,-0.0744527,0.054128,0.0697496,-0.0922309,0.145318,-0.125766,-0.0831808,-0.0717545,0.0164413,0.0157928,0.01091,0.0375366,0.0649261,0.0314713,0.0292587,-9.97986,0.0475693,-0.0031662,-0.0585938,0.0332642,0.0232697,0.000534058,0.33947,-0.0130463
14,6,9.06545,0.0012207,0.000610352,-2.42684,0.0547655,-0.0747579,0.0535176,0.0847032,-0.0913154,0.145624,-0.124851,-0.0831808,-0.0751877,0.0180435,0.0175858,0.0130463,0.0444412,0.0543213,0.0123215,0.0308228,-9.97986,0.0621414,-0.000648499,-0.0623322,0.0324631,0.0242615,-0.000267029,0.336914,-0.0125885
14,7,10.0097,0.000610352,0.00274658,-2.42806,0.0544603,-0.0753682,0.0529073,0.098131,-0.0922309,0.145013,-0.124241,-0.085317,-0.0376129,0.0238037,0.0235748,0.0171661,0.0479507,0.0537872,0.00656128,0.0363922,-9.97986,0.0696564,0.00236511,-0.0660706,0.032692,0.0250244,0.00610352,0.336609,-0.00530243
14,8,10.0097,-0.000915527,0.000457764,-2.42867,0.0532396,-0.0762837,0.0532125,0.0804308,-0.095893,0.144098,-0.126377,-0.0868429,-0.00911713,0.0229645,0.0210953,0.0126648,0.0549698,0.0519943,0.00591278,0.0372314,-9.97986,0.0568008,0.00114441,-0.0708389,0.0298309,0.0228119,0.00198364,0.323105,0.00267029
14,9,10.0097,0.000610352,0.000457764,-2.42989,0.0535448,-0.0762837,0.0519917,0.072191,-0.0955879,0.145624,-0.126377,-0.0862325,-0.014267,0.0227737,0.027771,0.0142288,0.0522614,0.0513458,0.00732422,0.0364304,-9.97986,0.0336075,0.00263214,-0.0674438,0.0354004,0.0270081,0.00331879,0.30899,-0.0031662
15,0,10.0097,-0.0012207,0,-2.4305,0.0532396,-0.0765889,0.0513814,0.0697496,-0.0949775,0.141351,-0.128208,-0.0874532,0.00682831,0.0209427,0.0279236,0.0115967,0.0524521,0.0370789,0.00919342,0.0399399,-9.97986,0.0185013,-0.00244141,-0.0730133,0.0395966,0.0257111,0.00278473,0.278625,0.00144958
15,1,10.0097,0.00305176,-0.000152588,-2.4302,0.0538499,-0.0765889,0.0519917,0.0694445,-0.0955879,0.143487,-0.127598,-0.0877584,0.0306702,0.0248718,0.0305176,0.0105667,0.057106,0.0275803,0.0142288,0.043602,-9.97986,0.025444,0.00274658,-0.0715256,0.0332642,0.0229263,0.0012207,0.257187,0.00148773
15,2,10.0097,0.0012207,-0.000305176,-2.42867,0.0541551,-0.0756734,0.0513814,0.0685289,-0.0949775,0.143182,-0.127292,-0.0868429,0.0431824,0.0225067,0.0239563,0.0115585,0.0540161,0.0276184,0.0275421,0.0426102,-9.97986,0.0330734,-0.00728607,-0.0792313,0.0368881,0.0255585,-0.00160217,0.242043,-0.00484467
15,3,10.0097,0.000610352,-0.000610352,-2.42806,0.0541551,-0.0744527,0.0532125,0.0682238,-0.0955879,0.142572,-0.125766,-0.085317,0.0351334,0.0264359,0.0241089,0.0151062,0.0574112,0.032959,0.0358963,0.0382996,-9.97986,0.037117,-0.000991821,-0.071106,0.0351334,0.0164032,-0.00171661,0.229683,-0.00549316
15,4,10.0097,0.0012207,0,-2.42806,0.0535448,-0.0753682,0.054128,0.0682238,-0.0931465,0.145013,-0.126987,-0.0850118,0.0185394,0.021553,0.0221634,0.0156021,0.0541306,0.0294113,0.0401688,0.0401688,-9.97986,0.0233841,-0.000114441,-0.0590515,0.0353622,0.0144958,0.00278473,0.220184,-0.00770569
15,5,10.0097,-0.000915527,0,-2.42653,0.0550706,-0.075063,0.0532125,0.0694445,-0.0934516,0.143487,-0.125156,-0.0847066,0.0147629,0.0217819,0.0230408,0.0107956,0.0521851,0.0391388,0.0431061,0.0404358,-9.97986,0.022316,0.00183105,-0.0515747,0.0340652,0.0104904,-0.000915527,0.198441,-0.00534058
15,6,10.0097,0.000610352,-0.000152588,-2.42592,0.0559862,-0.0738423,0.0535176,0.0697496,-0.0934516,0.144403,-0.125156,-0.0822652,0.00648499,0.022583,0.018692,0.0106812,0.0512314,0.0579834,0.0365448,0.0413895,-9.97986,0.00442505,-0.000305176,-0.0507355,0.03479,0.00770569,-0.00228882,0.172005,-0.0101471
15,7,10.0097,0.000305176,0.000610352,-2.42562,0.0544603,-0.0738423,0.0538228,0.0691393,-0.0946723,0.145929,-0.124546,-0.0813497,0.00915527,0.0239182,0.0241852,0.00862122,0.0585175,0.0652695,0.0331116,0.0365067,-9.97986,-0.0100708,0.000305176,-0.0527573,0.0292206,0.00377655,0.000228882,0.152473,-0.0102234
15,8,10.0097,-0.000305176,-0.000457764,-2.42531,0.0559862,-0.0744527,0.0550435,0.0706652,-0.0913154,0.146539,-0.124851,-0.0798238,0.0201416,0.0175858,0.0218964,0.0125122,0.0571442,0.0696182,0.0297165,0.0403976,-9.97986,-0.000152588,-0.00225067,-0.0630188,0.0225449,0.0025177,-0.00102997,0.130081,-0.00473022
15,9,10.0097,0.000915527,-0.000305176,-2.42562,0.0572069,-0.0744527,0.0547383,0.0706652,-0.0934516,0.146234,-0.124851,-0.0822652,0.018692,0.0149918,0.0157166,0.0117874,0.0649643,0.0818634,0.0284195,0.0416565,-9.97986,0.00598907,-0.00579834,-0.0693893,0.015831,-0.00312805,-0.00278473,0.107574,-0.00602722
16,0,10.0097,0.00152588,-0.000457764,-2.42531,0.0562914,-0.0729268,0.0556539,0.0706652,-0.0913154,0.14837,-0.12363,-0.0807394,0.0127029,0.0211334,0.021286,0.00965118,0.0643158,0.104141,0.0334549,0.0424957,-9.97986,0.0168228,-0.00312805,-0.0588989,0.0164413,-0.000457764,-0.00362396,0.0856018,-0.00659943
16,1,10.0097,0.000305176,-0.00106812,-2.42623,0.0553758,-0.0729268,0.0529073,0.049608,-0.0949775,0.146234,-0.126682,-0.0825704,-0.00102997,0.0172806,0.0194168,0.013237,0.0688934,0.120163,0.0257111,0.0415039,-9.97986,0.0246811,-0.0111389,-0.0640488,0.00854492,-0.00335693,-0.00476837,0.0737762,-0.00759125
16,2,9.17317,0.00152588,-0.00167847,-2.42562,0.0572069,-0.0744527,0.0538228,0.042589,-0.0937568,0.146234,-0.126072,-0.0816549,-0.0101852,0.0230026,0.0200653,0.0110626,0.0701904,0.125923,0.0202179,0.0365448,-9.97986,0.0281525,-0.0107956,-0.0546265,0.00896454,-0.00377655,-0.000534058,0.0503159,-0.00808716
16,3,7.90456,0,-0.0012207,-2.42531,0.0559862,-0.0747579,0.0550435,0.052965,-0.0925361,0.146234,-0.126072,-0.0810445,-0.0206375,0.0231552,0.0244522,0.00804901,0.0728989,0.137291,0.00541687,0.0358582,-9.97986,0.0318909,-0.00339508,-0.0510788,0.00808716,-0.00923157,-0.0030899,0.0356674,-0.00743866
16,4,7.48525,-0.000610352,-0.000915527,-2.42562,0.0547655,-0.0735371,0.0550435,0.0636461,-0.0925361,0.147149,-0.125156,-0.0825704,-0.0217056,0.025444,0.0219727,0.0127411,0.0765991,0.136681,-0.00366211,0.0390625,-9.97986,0.0305557,-0.00514984,-0.0417328,0.000305176,-0.00473022,-0.00335693,0.0134659,-0.00896454
16,5,7.66133,0.000610352,-0.000457764,-2.42562,0.0550706,-0.0747579,0.0535176,0.0694445,-0.0922309,0.146844,-0.125156,-0.0831808,-0.00564575,0.0250244,0.0238037,0.0114822,0.077095,0.145531,-0.000610352,0.0403595,-9.97986,0.0288391,-7.62939e-005,-0.0416565,-0.00324249,-0.00537872,0.00766754,-0.0167465,-0.00530243
16,6,9.0862,0.00152588,0.000915527,-2.42684,0.0550706,-0.0756734,0.054128,0.0859239,-0.0919257,0.145013,-0.125461,-0.0840963,0.0237274,0.02491,0.0267029,0.0149918,0.0724792,0.158043,-0.00572205,0.0402451,-9.97986,0.0257874,-0.00431061,-0.0397873,-0.00808716,-0.00671387,0.00736237,-0.0558472,-0.00576019
16,7,10.0097,-0.00152588,0.00198364,-2.42806,0.0541551,-0.0765889,0.0526021,0.0969103,-0.088874,0.143792,-0.126072,-0.0850118,0.0329208,0.0209808,0.0279236,0.0181961,0.0642776,0.173988,-0.0037384,0.0411224,-9.97986,0.0265121,-0.00518799,-0.0314713,-0.0150681,-0.00659943,0.00976563,-0.106735,-0.00984192
16,8,10.0097,0.0012207,-0.000305176,-2.42959,0.0535448,-0.0756734,0.0513814,0.0770738,-0.0955879,0.143487,-0.126682,-0.0874532,0.0178909,0.026741,0.0219345,0.015564,0.0554276,0.188789,-0.00038147,0.0367355,-9.97986,0.027504,-0.00343323,-0.0349426,-0.0244904,-0.01091,0.00732422,-0.163269,-0.0151062
16,9,10.0097,-0.00213623,-0.000457764,-2.42867,0.0550706,-0.0759786,0.0516866,0.072191,-0.095893,0.144708,-0.126682,-0.0865377,0.0110245,0.0230789,0.0235367,0.0141144,0.0522232,0.196152,-0.00236511,0.0368881,-9.97986,0.0274658,-0.00488281,-0.0355911,-0.0333023,-0.00762939,0.00572205,-0.219841,-0.0194931
17,0,10.0097,-0.000915527,-0.000305176,-2.4302,0.0529344,-0.0759786,0.0529073,0.0694445,-0.09925,0.143487,-0.127598,-0.0871481,0.0125504,0.0239182,0.0255585,0.0113678,0.0529861,0.215378,-0.00923157,0.0422668,-9.97986,0.0233459,-0.0111008,-0.0284195,-0.0402451,-0.00125885,0.00347137,-0.27565,-0.0115204
17,1,10.0097,-0.000610352,-0.00106812,-2.42928,0.0544603,-0.0759786,0.0522969,0.0682238,-0.0965034,0.143487,-0.126682,-0.0877584,0.0158691,0.0260544,0.0286484,0.0159836,0.0522232,0.227356,-0.0131607,0.0419235,-9.97986,0.0174332,-0.00926971,-0.0294113,-0.040741,-0.00473022,-0.0138092,-0.33062,-0.0121307
17,2,10.0097,0.00305176,-0.000915527,-2.42928,0.0507982,-0.0756734,0.0529073,0.0685289,-0.0952827,0.143792,-0.126682,-0.0847066,0.023613,0.0258636,0.0275803,0.0142288,0.0503922,0.2314,-0.00762939,0.0512314,-9.97986,0.0173187,-0.00762939,-0.0247955,-0.0498199,-0.00244141,-0.0192261,-0.387115,-0.00808716
17,3,10.0097,0.000305176,-0.000762939,-2.42806,0.0538499,-0.0744527,0.0535176,0.0673082,-0.0949775,0.143792,-0.126987,-0.0856222,0.0037384,0.0263596,0.0309753,0.0149536,0.0488663,0.239525,-0.00644684,0.0365829,-9.97986,0.0136948,-0.00896454,-0.0182724,-0.0544357,-0.000648499,-0.0115967,-0.432892,-0.0174332
17,4,10.0097,-0.000305176,-0.000610352,-2.42776,0.0544603,-0.0756734,0.054128,0.0700548,-0.0949775,0.143792,-0.126072,-0.085317,-0.0341415,0.0252151,0.0294876,0.014534,0.0495148,0.236244,-0.00205994,0.0332642,-9.97986,0.00591278,-0.00675201,-0.00812531,-0.0595474,-0.00743866,0.00110626,-0.474358,-0.0344467
17,5,10.0097,-0.000305176,-0.000610352,-2.42714,0.0550706,-0.0735371,0.0522969,0.0679186,-0.0931465,0.144708,-0.126072,-0.0862325,-0.0396729,0.0225067,0.0305939,0.0151443,0.0469589,0.23819,0.00827789,0.0362015,-9.97986,-0.0149918,-0.0102615,-0.000534058,-0.0717163,-0.00858307,0.00995636,-0.51033,-0.0453949
17,6,10.0097,-0.000305176,-0.000457764,-2.42562,0.055681,-0.075063,0.0547383,0.07036,-0.0922309,0.145929,-0.125156,-0.0840963,-0.0289154,0.0247192,0.0318527,0.00930786,0.0392151,0.237541,0.0110626,0.0260925,-9.97986,-0.0262833,-0.0075531,0.00549316,-0.0756073,-0.00888824,0.0102615,-0.536346,-0.0600433
17,7,10.0097,0.000305176,-0.000152588,-2.42562,0.0575121,-0.0741475,0.0538228,0.0688341,-0.0922309,0.147149,-0.12363,-0.0819601,-0.0192642,0.0271606,0.0310898,0.0196457,0.0281525,0.241547,0.0138092,0.0170898,-9.97986,-0.0330734,-0.00583649,0.0164795,-0.079689,-0.0132751,0.0168991,-0.546112,-0.0605774
17,8,10.0097,0.00152588,-0.000457764,-2.4244,0.060869,-0.0729268,0.0553487,0.0715807,-0.0922309,0.146234,-0.123935,-0.0813497,-0.0302887,0.0255203,0.0349808,0.0169373,0.0164032,0.234528,0.0160599,0.0115204,-9.97986,-0.0316238,-0.00450134,0.030899,-0.0881577,-0.0156784,0.024147,-0.543633,-0.0483704
17,9,10.0097,-0.0012207,-0.000152588,-2.42806,0.0581224,-0.0738423,0.0550435,0.0724962,-0.0900947,0.148065,-0.123325,-0.0807394,0.0310135,0.0245667,0.0386429,0.0226974,0.00705719,0.234108,0.0106049,0.0120926,-9.97986,-0.0356674,0.00038147,0.0259399,-0.0914764,-0.0147629,0.0263214,-0.535545,-0.0355911
18,0,10.0097,0.00152588,-0.000305176,-2.4244,0.0572069,-0.0735371,0.0553487,0.0718859,-0.090705,0.147149,-0.123935,-0.0810445,0.100403,0.0269699,0.0335693,0.0139236,-0.00522614,0.226784,0.0245667,0.0197983,-9.97986,-0.0404739,-0.00499725,0.0239944,-0.0966263,-0.0191498,0.0195694,-0.532837,-0.0185776
18,1,10.0097,0.00213623,-0.00106812,-2.42653,0.0587328,-0.0741475,0.0529073,0.0493029,-0.0961982,0.144708,-0.126377,-0.0810445,0.0750351,0.0205612,0.0307846,0.0119781,-0.0152588,0.223427,0.0445557,0.0243759,-9.97986,-0.05867,-0.0056076,0.0208282,-0.107384,-0.0258255,0.0189209,-0.520706,-0.00614166
18,2,9.17867,-0.000610352,-0.00335693,-2.42806,0.0569017,-0.075063,0.054128,0.042589,-0.0955879,0.146234,-0.125766,-0.0825704,0.0436401,0.0150299,0.0258255,0.00812531,-0.0246429,0.221977,0.0440598,0.0338745,-9.97986,-0.0724792,-0.00816345,0.0153732,-0.121078,-0.0254822,0.0140762,-0.51178,0.00331879
18,3,7.93569,-0.000610352,-0.00152588,-2.42592,0.0553758,-0.0744527,0.0550435,0.052965,-0.0922309,0.146844,-0.125461,-0.0831808,0.0258636,0.0127029,0.0181961,0.00511169,-0.026207,0.211372,0.031395,0.0418472,-9.97986,-0.061264,-0.00537872,0.00926971,-0.130577,-0.0206375,0.0115585,-0.493584,0.0120926
18,4,7.553,-0.000610352,-0.000610352,-2.42653,0.0544603,-0.0747579,0.0538228,0.0633409,-0.0916206,0.145624,-0.125766,-0.0813497,0.00213623,0.0201416,0.0151443,0.00377655,-0.0322723,0.196152,0.0265884,0.034256,-9.97986,-0.0342178,-0.0044632,0.0158691,-0.139618,-0.0173187,0.00976563,-0.469131,0.0107956
18,5,7.66896,0.0012207,-0.000915527,-2.4247,0.0562914,-0.0744527,0.0553487,0.0697496,-0.0922309,0.145318,-0.126072,-0.0834859,0.0122833,0.0208664,0.0117874,0.00457764,-0.0293732,0.177345,0.0151443,0.0337982,-9.97986,0.00278473,-0.00328064,0.0255585,-0.147858,-0.00919342,0.00659943,-0.453033,0.00553131
18,6,9.07704,0.000915527,0,-2.42684,0.0541551,-0.0759786,0.0544332,0.0856188,-0.0900947,0.145318,-0.125156,-0.0834859,0.0129318,0.0165939,0.0149918,0.00423431,-0.0368881,0.161705,0.01091,0.0172424,-9.97986,0.0531387,-0.00644684,0.0430679,-0.156631,-0.00751495,0.00587463,-0.433426,-0.00904083
18,7,10.0097,0.000915527,0.000610352,-2.42806,0.0538499,-0.0762837,0.0532125,0.0996569,-0.0919257,0.144098,-0.125156,-0.0840963,0.0122833,0.00968933,0.011673,0.00823975,-0.0362015,0.150757,0.00465393,0.0113678,-9.97986,0.0990295,-0.00965118,0.0524521,-0.164795,-0.0112534,0.00778198,-0.409966,-0.0222015
18,8,10.0097,0.000305176,0,-2.43386,0.0529344,-0.0765889,0.0526021,0.0792101,-0.0946723,0.143487,-0.126682,-0.0874532,0.0062561,0.0131607,0.0112915,0.00488281,-0.0314331,0.135117,0.0087738,0.0130081,-9.97986,0.112572,-0.00434875,0.0680542,-0.171051,-0.00198364,0.00587463,-0.388107,-0.0198364
18,9,10.0097,0.0012207,-0.000152588,-2.42867,0.0538499,-0.0762837,0.0519917,0.0764635,-0.0943672,0.145929,-0.126987,-0.0868429,-0.0199509,0.0104523,0.00808716,0.00743866,-0.0265121,0.112572,0.0220108,0.0144577,-9.97986,0.106125,-0.00514984,0.0843811,-0.169411,0.00366211,0.00335693,-0.365028,-0.015831
19,0,10.0097,0.000305176,-0.000610352,-2.4305,0.0514085,-0.0756734,0.0519917,0.0694445,-0.0955879,0.143182,-0.127903,-0.0917257,-0.0164032,0.0122452,0.0109863,0.00785828,-0.0262833,0.0865936,0.022583,0.0167847,-9.97986,0.0997543,-0.00709534,0.0924301,-0.175247,0.00293732,0.00324249,-0.358772,-0.0056076
19,1,10.0097,0.000305176,0.000152588,-2.42989,0.0535448,-0.0756734,0.0526021,0.0691393,-0.0965034,0.142267,-0.128208,-0.0859274,-0.00679016,0.0140762,0.0109482,0.0056839,-0.0280762,0.0663376,0.00968933,0.0232697,-9.97986,0.0837326,-0.00377655,0.0954056,-0.167084,0.00087738,0.00846863,-0.343895,-0.00354767
19,2,10.0097,0.000915527,0.000152588,-2.42837,0.0526292,-0.0744527,0.0519917,0.0630358,-0.0946723,0.143792,-0.127292,-0.0862325,0.00442505,0.0136948,0.00984192,0.00740051,-0.0291824,0.0556564,-0.00644684,0.0196075,-9.97986,0.0471115,-0.00232697,0.101471,-0.157204,-0.00736237,0.00377655,-0.337448,-0.00476837
19,3,10.0097,-0.000610352,0.000762939,-2.42837,0.0538499,-0.0756734,0.0526021,0.0697496,-0.0946723,0.145318,-0.126377,-0.0883688,0.0294876,0.0146103,0.0153732,0.00450134,-0.0254822,0.0301361,-0.0140762,0.0183105,-9.97986,0.0183487,0.00175476,0.117264,-0.149574,-0.00331879,0.0018692,-0.329742,-0.00476837
19,4,10.0097,-0.00213623,0.00152588,-2.43111,0.0550706,-0.0747579,0.0529073,0.0691393,-0.0925361,0.143792,-0.125156,-0.0844015,0.0263977,0.0123215,0.0121307,0.00469208,-0.0349045,0.00778198,-0.0232315,0.0170517,-9.97986,-0.00808716,0.000801086,0.123978,-0.135422,0.00286102,-0.000152588,-0.318718,-0.00595093
19,5,10.0097,-0.000305176,0.00198364,-2.42653,0.0553758,-0.0741475,0.0535176,0.0657823,-0.0922309,0.145013,-0.126377,-0.0834859,0.0448227,0.00751495,0.00946045,0.00526428,-0.0410461,-0.00488281,-0.0116348,0.0169754,-9.97986,-0.00720978,7.62939e-005,0.12867,-0.113945,-0.00217438,-0.000953674,-0.310593,-0.00717163
19,6,10.0097,0.000610352,0.00167847,-2.42592,0.0575121,-0.0747579,0.0544332,0.0709703,-0.0919257,0.145929,-0.126072,-0.0859274,0.0522232,0.00312805,0.00686646,0.00549316,-0.0464249,-0.0179291,0.017662,0.0128555,-9.97986,-0.00350952,-0.00114441,0.129242,-0.0945282,0.000534058,-0.00118256,-0.296745,-0.00724792
19,7,10.0097,0.00274658,0.00259399,-2.4302,0.0562914,-0.0741475,0.0544332,0.0718859,-0.0910102,0.145624,-0.123935,-0.0807394,0.0403595,-0.00179291,0.00793457,0.0056076,-0.0461578,-0.0289917,0.0481033,0.0126266,-9.97986,0.0128174,-0.00621796,0.133057,-0.0732422,0.00553131,-0.000457764,-0.276794,0.00167847
19,8,10.0097,0,0.00244141,-2.4247,0.0578172,-0.0738423,0.0547383,0.067003,-0.090705,0.146539,-0.12363,-0.0816549,0.0223541,0.00637054,0.00453949,0.00495911,-0.0502777,-0.0397873,0.0801849,0.0145721,-9.97986,0.0193787,-0.00331879,0.139503,-0.0446701,0.00411987,-0.0050354,-0.254364,-7.62939e-005
19,9,10.0097,0.00152588,0.00274658,-2.4244,0.0581224,-0.073232,0.0544332,0.0709703,-0.0913154,0.146539,-0.124851,-0.0810445,0.00125885,0.0031662,0.00541687,0.00244141,-0.0426865,-0.0587845,0.0964737,0.0173187,-9.97986,0.0259018,-0.00804901,0.14267,-0.0176239,0.00610352,-0.00389099,-0.226555,-0.0185394
20,0,10.0097,-0.000610352,0.00305176,-2.42837,0.0569017,-0.073232,0.0556539,0.0728014,-0.0897895,0.147455,-0.12363,-0.0798238,0.00152588,0.00823975,0.00976563,0.0063324,-0.0404358,-0.0788498,0.0803757,0.0175476,-9.97986,0.0362396,-0.00442505,0.151596,0.0109482,0.00888824,-0.00617981,-0.204468,-0.0295639
20,1,10.0097,-0.000305176,0.00213623,-2.42714,0.0565965,-0.0747579,0.0547383,0.0428942,-0.0952827,0.145929,-0.126987,-0.0813497,0.018158,0.0163269,0.0129318,0.00747681,-0.0285721,-0.0957489,0.0470734,0.0157166,-9.97986,0.0564194,-0.00209808,0.175552,0.0311279,0.0125504,-0.00846863,-0.185089,-0.0269318
20,2,8.87776,-0.000915527,0.000305176,-2.42592,0.0578172,-0.0747579,0.0547383,0.04442,-0.0928413,0.145624,-0.126072,-0.0792135,0.0355911,0.0137329,0.0140762,0.0101471,-0.0326157,-0.114861,0.0280762,0.0169373,-9.97986,0.0880051,-0.00282288,0.192528,0.0500107,0.00865936,-0.00637054,-0.15419,-0.0264359
20,3,7.66194,-0.000915527,0.000915527,-2.42165,0.0550706,-0.0747579,0.0550435,0.052965,-0.0931465,0.147149,-0.126072,-0.0810445,0.0188828,0.0217056,0.0159073,0.0126648,-0.0279236,-0.125237,0.0141144,0.0200272,-9.97986,0.0896454,0.000991821,0.195274,0.0685501,0.0108719,-0.0116348,-0.128975,-0.0192261
20,4,7.26064,-0.000610352,0.00198364,-2.42714,0.0550706,-0.0744527,0.054128,0.0566271,-0.0913154,0.145318,-0.126377,-0.0822652,0.015831,0.032196,0.0196075,0.0128937,-0.0146103,-0.134239,-0.00106812,0.022316,-9.97986,0.0704575,0.00492096,0.192757,0.0850677,0.0115585,-0.00663757,-0.106392,-0.00816345
20,5,7.40315,-0.000915527,0.00228882,-2.42714,0.0553758,-0.0756734,0.0544332,0.0691393,-0.0910102,0.146539,-0.125156,-0.0816549,0.0430679,0.0281525,0.0221634,0.0094986,-0.000267029,-0.148315,-0.0167465,0.0161743,-9.97986,0.0499344,-0.00255585,0.19352,0.0960541,0.0143051,-0.0100327,-0.0919724,0.00152588
20,6,8.81734,0.00152588,0.00213623,-2.42776,0.0553758,-0.0756734,0.0544332,0.0853136,-0.0910102,0.144403,-0.124851,-0.0825704,0.0357819,0.0268555,0.0236893,0.0104523,0.00946045,-0.155067,-0.0094223,0.0115204,-9.97986,0.0371933,-0.000534058,0.202713,0.109177,0.0216293,-0.0107193,-0.0681305,0.024147
20,7,10.0097,-0.000305176,0.00320435,-2.42837,0.0529344,-0.0762837,0.0532125,0.0978258,-0.0922309,0.145013,-0.126072,-0.0847066,0.0286484,0.0263596,0.0273895,0.00534058,0.0203323,-0.160179,-0.0170135,0.0188065,-9.97986,0.0233841,-0.00362396,0.211296,0.114403,0.0143814,-0.0131226,-0.0430679,0.0328827
20,8,10.0097,0.000915527,0.0012207,-2.42928,0.0535448,-0.0759786,0.0504659,0.0792101,-0.095893,0.144098,-0.126987,-0.0856222,-0.000534058,0.0260925,0.0246048,0.00816345,0.0210571,-0.169792,-0.0199127,0.0165558,-9.97986,0.0188065,-0.00175476,0.210762,0.126953,0.0122833,-0.0124741,-0.0123596,0.0414658
20,9,10.0097,-0.000305176,0.00152588,-2.42867,0.0535448,-0.0756734,0.0519917,0.0728014,-0.0949775,0.144403,-0.126987,-0.0871481,-0.0695801,0.0310135,0.0241852,0.00892639,0.0310898,-0.182686,-0.026207,0.013504,-9.97986,0.0163651,-3.8147e-005,0.199165,0.137329,0.0133133,-0.015564,0.0130081,0.0376511
21,0,10.0097,0.000915527,0.000305176,-2.42989,0.0529344,-0.0753682,0.0516866,0.0737169,-0.0946723,0.144403,-0.128513,-0.0871481,-0.0307846,0.0304794,0.0234604,0.0103378,0.039444,-0.187912,-0.0219727,0.0125122,-9.97986,0.0119781,0.00469208,0.177002,0.14492,0.0127792,-0.0118637,0.0376892,0.0313568
21,1,10.0097,0.000610352,0.000305176,-2.42989,0.0535448,-0.0768941,0.0526021,0.0688341,-0.0946723,0.143792,-0.128513,-0.0862325,0.0317383,0.0325012,0.0266266,0.0056839,0.0349426,-0.192795,-0.0257874,0.0131226,-9.97986,0.013504,0.0019455,0.169525,0.15255,0.0130844,-0.0143814,0.0534439,0.0301361
21,2,10.0097,-0.000305176,0.0012207,-2.43172,0.0541551,-0.0756734,0.0516866,0.0688341,-0.0943672,0.143182,-0.126987,-0.0859274,-0.0188446,0.0395584,0.0338364,0.0114441,0.0356674,-0.198708,-0.0239563,0.00843048,-9.97986,0.00167847,0.00267029,0.159683,0.164833,0.0149918,-0.00988007,0.0730896,0.0283813
21,3,10.0097,-0.000305176,0.000762939,-2.42745,0.0547655,-0.0747579,0.0519917,0.0743273,-0.0937568,0.145318,-0.126377,-0.0850118,-0.0468445,0.0369263,0.0278091,0.0131989,0.041008,-0.206299,-0.0209808,-0.00522614,-9.97986,0.00904083,0.00846863,0.135765,0.17025,0.0102234,-0.0136948,0.0864792,0.0200272
21,4,10.0097,0,0.000610352,-2.42653,0.0544603,-0.0753682,0.0529073,0.0700548,-0.0916206,0.144403,-0.126377,-0.085317,0.0131989,0.0371933,0.0213242,0.0118637,0.0392151,-0.204964,-0.0138474,0.000495911,-9.97986,0.018692,0.00724792,0.0857925,0.17868,0.0126266,-0.0161743,0.100784,0.019722
21,5,10.0097,-0.0012207,0.0012207,-2.42714,0.0553758,-0.0744527,0.0526021,0.0700548,-0.0928413,0.144098,-0.126072,-0.0844015,0.0439835,0.0346756,0.0137329,0.0136185,0.0428009,-0.209808,-0.0106049,0.0062561,-9.97986,0.0151825,0.00324249,0.0269699,0.191154,0.00846863,-0.0154114,0.110207,0.0164795
21,6,10.0097,0.000915527,0.00137329,-2.42623,0.0559862,-0.075063,0.0532125,0.0709703,-0.0931465,0.145624,-0.124546,-0.0822652,0.0252151,0.0320053,0.0143433,0.0107574,0.0461197,-0.211067,-0.0102234,0.018692,-9.97986,0.0161362,-0.00293732,-0.00499725,0.206795,0.00919342,-0.0163269,0.117607,0.0225449
21,7,10.0097,0.000610352,0.00137329,-2.4244,0.0553758,-0.0741475,0.0538228,0.0697496,-0.0910102,0.146234,-0.123935,-0.0807394,0.0119781,0.0130081,0.0174332,0.0139618,0.0495529,-0.214348,-0.00366211,0.0222015,-9.97986,-0.00156403,-0.00343323,-0.0171661,0.21595,0.013237,-0.0157547,0.124092,0.0239944
21,8,10.0097,0.000610352,0.000610352,-2.42379,0.0575121,-0.0738423,0.0547383,0.0706652,-0.0925361,0.146234,-0.123935,-0.0810445,0.0110626,-0.00564575,0.0151062,0.0123596,0.0595474,-0.216866,0.00404358,0.0212479,-9.97986,-0.0157547,-0.00343323,-0.0112152,0.224876,0.013504,-0.0173569,0.125198,0.0270462
21,9,10.0097,-0.000305176,0.000915527,-2.42501,0.0559862,-0.0741475,0.0544332,0.07036,-0.0913154,0.146234,-0.124546,-0.080129,0.0234985,-0.00476837,0.0219345,0.0102234,0.0705338,-0.216789,0.00171661,0.00831604,-9.97986,-0.0315475,-0.00106812,-0.00778198,0.231476,0.0120926,-0.0114441,0.129051,0.0269699
22,0,10.0097,-0.000610352,0.000610352,-2.4247,0.0575121,-0.0729268,0.0535176,0.0706652,-0.0913154,0.148675,-0.124546,-0.0837911,0.0308228,0.00778198,0.0262833,0.0133514,0.0684738,-0.215912,0.00160217,0.0037384,-9.97986,-0.0419235,0.00350952,-0.0315857,0.235519,0.0217438,-0.0118256,0.138397,0.0290298
22,1,10.0097,-0.000305176,0.000152588,-2.4244,0.055681,-0.0738423,0.0519917,0.0486925,-0.095893,0.146234,-0.126072,-0.0819601,0.0251389,0.0273895,0.0312042,0.0187683,0.0747681,-0.213737,-0.0030899,0.00358582,-9.97986,-0.0382996,0.00312805,-0.0525284,0.235977,0.0276566,-0.0127029,0.146027,0.0302887
22,2,9.09993,0.000610352,-0.0012207,-2.42562,0.0559862,-0.0726216,0.0538228,0.0413683,-0.0934516,0.147149,-0.126987,-0.0819601,0.0256348,0.0399017,0.0390244,0.012207,0.0767136,-0.208511,-0.00465393,0.00572205,-9.97986,-0.00911713,0.00171661,-0.0769806,0.237198,0.0273514,-0.0164795,0.147552,0.0296402
22,3,7.80843,-0.000305176,-0.000915527,-2.42531,0.0550706,-0.0738423,0.0538228,0.0538805,-0.0928413,0.146844,-0.126072,-0.0825704,0.0228882,0.0470352,0.0430679,0.0103378,0.0832367,-0.201492,-0.0128937,0.0069809,-9.97986,0.0191498,0.00431061,-0.120049,0.237503,0.0312805,-0.0171661,0.156784,0.0264359
22,4,7.41719,0.000610352,-0.000457764,-2.42592,0.055681,-0.0753682,0.054128,0.0639513,-0.0916206,0.145318,-0.125156,-0.0834859,0.0242233,0.0431442,0.0465393,0.0043869,0.0938034,-0.197067,-0.0151062,0.00904083,-9.97986,0.0318146,0.00160217,-0.148125,0.227966,0.0299072,-0.0147629,0.159035,0.0270462
22,5,7.58596,0.000305176,-0.000457764,-2.42623,0.0569017,-0.0741475,0.054128,0.0709703,-0.0925361,0.145318,-0.125461,-0.0825704,0.0200653,0.0427628,0.0455475,0.00362396,0.0933075,-0.188408,-0.00442505,0.0114059,-9.97986,0.00778198,7.62939e-005,-0.156097,0.215454,0.0309753,-0.0165176,0.164528,0.0279999
22,6,9.02822,-0.00213623,0.000762939,-2.42776,0.0541551,-0.075063,0.0532125,0.0871447,-0.0922309,0.145318,-0.124851,-0.0847066,0.0175476,0.0392151,0.0354767,0.00534058,0.0928116,-0.187798,-0.000190735,0.00720978,-9.97986,-0.0179672,0.00240326,-0.16716,0.206718,0.0314331,-0.028038,0.1651,0.0247574
22,7,10.0097,0.0012207,0.0012207,-2.42928,0.0538499,-0.0753682,0.0526021,0.098131,-0.0922309,0.144403,-0.125156,-0.0856222,0.0158691,0.0353622,0.037117,0.00141144,0.0947952,-0.182114,-0.000991821,0.00167847,-9.97986,-0.0169754,0.0050354,-0.184784,0.190353,0.0345612,-0.0343323,0.166931,0.0250626
22,8,10.0097,0,-0.0012207,-2.4302,0.0544603,-0.0762837,0.0513814,0.0816515,-0.0968086,0.144098,-0.126987,-0.0880636,0.0179291,0.0500488,0.0385666,-0.00404358,0.0942612,-0.17437,0.00175476,-0.00244141,-9.97986,-0.00740051,0.000305176,-0.185127,0.167847,0.0294113,-0.0309753,0.165558,0.0364685
22,9,10.0097,-0.000915527,-0.00228882,-2.42898,0.0526292,-0.0768941,0.0519917,0.0731066,-0.0949775,0.144098,-0.126072,-0.0883688,0.016098,0.0429535,0.0434494,-0.00171661,0.0986862,-0.164757,0.00656128,-0.00789642,-9.97986,-0.00286102,0.00324249,-0.192986,0.145035,0.0354767,-0.0256348,0.167122,0.0455093
23,0,10.0097,-0.000610352,-0.00289917,-2.42928,0.0535448,-0.0759786,0.0516866,0.0694445,-0.0937568,0.143182,-0.127292,-0.0880636,0.0123978,0.0350952,0.0342178,0.000152588,0.0960922,-0.155602,0.0149155,-0.000762939,-9.97986,0.00202179,0.00770569,-0.207138,0.115318,0.0423813,-0.0178146,0.162888,0.0456619
23,1,10.0097,-0.000915527,-0.00366211,-2.42867,0.0547655,-0.0765889,0.0522969,0.0706652,-0.0955879,0.143792,-0.127292,-0.0880636,0.0118637,0.0396347,0.0214767,0.00495911,0.0923538,-0.150604,0.0221634,-0.00469208,-9.97986,0.00621796,0.00984192,-0.217094,0.0788498,0.0432205,-0.0200653,0.150795,0.0402069
23,2,10.0097,0.000610352,-0.00396729,-2.42928,0.0541551,-0.0762837,0.0522969,0.0700548,-0.0934516,0.143487,-0.126682,-0.0874532,0.0105667,0.0315094,0.00354767,0.0037384,0.0921249,-0.147629,0.0239563,0.000114441,-9.97986,0.0172424,0.0117111,-0.202522,0.0460434,0.0413513,-0.0133896,0.155449,0.0354004
23,3,10.0097,-0.000305176,-0.00305176,-2.42867,0.0535448,-0.0747579,0.0526021,0.0694445,-0.0943672,0.142572,-0.126987,-0.0868429,0.00900269,0.018959,-0.010643,0.00579834,0.0839996,-0.144539,0.0104141,0.00362396,-9.97986,0.0209427,0.00835419,-0.203857,0.010376,0.0415421,-0.0107956,0.155373,0.0298691
23,4,10.0097,0.000305176,-0.00274658,-2.42745,0.0547655,-0.0759786,0.0532125,0.0709703,-0.094062,0.144403,-0.126987,-0.0840963,0.0126648,-0.0139999,-0.0211716,0.00541687,0.0803375,-0.14473,0.0030899,0.00137329,-9.97986,0.0255203,0.00137329,-0.218391,-0.00770569,0.051651,-0.00488281,0.156479,0.0130081
23,5,10.0097,0.000305176,-0.00213623,-2.42623,0.0550706,-0.0753682,0.0522969,0.0697496,-0.0937568,0.144403,-0.125461,-0.0844015,0.0088501,-0.0286484,-0.0219345,0,0.0751114,-0.135193,0.00392914,0.00782013,-9.97986,0.0276566,-0.00644684,-0.222702,-0.0313568,0.0530243,-0.00926971,0.154037,-0.00354767
23,6,10.0097,0.0012207,-0.00152588,-2.42745,0.0569017,-0.0738423,0.0529073,0.0700548,-0.0937568,0.145929,-0.125156,-0.0831808,0.00553131,-0.038681,-0.0230026,0.00911713,0.0733948,-0.133171,0.0031662,0.0038147,-9.97986,0.0236511,-0.0126648,-0.232506,-0.0468826,0.0516129,-0.0135422,0.146599,0.00293732
23,7,10.0097,0.00244141,-0.00137329,-2.42592,0.0553758,-0.0738423,0.0544332,0.0697496,-0.0925361,0.146539,-0.12363,-0.0816549,0.0056076,-0.0457764,-0.0242996,0.0106812,0.071373,-0.128288,0.00591278,0.00339508,-9.97986,0.0286865,-0.000534058,-0.237923,-0.0559616,0.0560379,-0.0102997,0.138016,0.0094223
23,8,10.0097,0.000305176,-0.000915527,-2.4244,0.0559862,-0.0738423,0.0553487,0.07036,-0.0913154,0.14837,-0.12363,-0.080129,0.00476837,-0.0444794,-0.0312424,0.00736237,0.0689697,-0.117836,0.00923157,0.0063324,-9.97986,0.0260544,0.000839233,-0.244446,-0.0570297,0.0469971,-0.00801086,0.133705,0.0180435
23,9,10.0097,0.000610352,-0.000915527,-2.42196,0.0569017,-0.0747579,0.0547383,0.0715807,-0.0922309,0.14837,-0.124851,-0.0816549,0.0104141,-0.0282288,-0.032196,0.0094223,0.0696182,-0.111465,0.00751495,0.00358582,-9.97986,0.0228119,0.00522614,-0.2425,-0.0643921,0.0510406,-0.0094223,0.126534,0.0255585
24,0,10.0097,0.00152588,-0.000305176,-2.42531,0.0559862,-0.0735371,0.0550435,0.0728014,-0.0916206,0.146234,-0.123325,-0.080129,0.00793457,-0.0135803,-0.0287628,0.0106049,0.069809,-0.112,0.000610352,0.00648499,-9.97986,0.0220108,0.00286102,-0.236549,-0.0672913,0.0499725,-0.0063324,0.116768,0.0301361
24,1,10.0097,0.00152588,-0.000915527,-2.42592,0.0550706,-0.0747579,0.0519917,0.0489977,-0.0949775,0.146234,-0.125766,-0.0834859,0.00846863,-0.00621796,-0.0174332,0.0107956,0.0634003,-0.101509,-0.00171661,0.00888824,-9.97986,0.0194168,-0.00217438,-0.240097,-0.0711823,0.0536346,-0.0120163,0.112267,0.0444794
24,2,8.95589,0.00366211,-0.00152588,-2.42653,0.0559862,-0.0744527,0.0547383,0.0438097,-0.094062,0.14776,-0.126072,-0.0828756,0.00801086,0.00141144,-0.00881195,0.0106812,0.0658798,-0.0904083,0.00305176,0.0094223,-9.97986,0.0161743,0.000762939,-0.250702,-0.070076,0.0568771,-0.0115585,0.106125,0.0553513
24,3,7.70803,-0.000915527,-0.000762939,-2.42592,0.0562914,-0.0741475,0.054128,0.0535753,-0.0928413,0.146539,-0.126377,-0.0816549,0.00782013,-0.00236511,-0.00530243,0.0145721,0.0593185,-0.0822067,0.00419617,0.0125504,-9.97986,0.0204849,0.00236511,-0.248871,-0.0651169,0.0612259,-0.0149536,0.104637,0.0577164
24,4,7.37721,0,-0.000610352,-2.42623,0.0559862,-0.0738423,0.0544332,0.0618151,-0.0931465,0.146234,-0.126072,-0.0828756,0.00495911,-0.0056839,-0.00644684,0.0160599,0.0559235,-0.0759888,0.00812531,0.0134277,-9.97986,0.0158691,-0.0044632,-0.251503,-0.0651932,0.060997,-0.0146103,0.105782,0.0594711
24,5,7.54537,0.00274658,0.00106812,-2.42684,0.0547655,-0.0747579,0.0547383,0.0685289,-0.0894843,0.14898,-0.126682,-0.0828756,0.00797272,-0.00259399,-0.00484467,0.0143051,0.0520325,-0.0701141,0.00881195,0.016861,-9.97986,0.0151825,-0.0012207,-0.25341,-0.0497818,0.07267,-0.00999451,0.11116,0.0561142
24,6,9.03859,0.00183105,0.00198364,-2.42653,0.0538499,-0.075063,0.0547383,0.0868395,-0.0913154,0.145624,-0.124851,-0.0834859,0.00961304,0.000457764,-0.00190735,0.0108719,0.04673,-0.0640106,0.00778198,0.0131989,-9.97986,0.0150299,-0.000648499,-0.23613,-0.0465012,0.0759888,-0.0131226,0.110741,0.04879
24,7,10.0097,-0.000915527,0.00335693,-2.42837,0.0544603,-0.0775044,0.0544332,0.0990465,-0.0922309,0.143487,-0.125461,-0.0847066,0.00717163,0.00480652,0.00926971,0.0144196,0.0401688,-0.0648117,0.00900269,0.0139618,-9.97986,0.0140381,-0.00148773,-0.217896,-0.0326538,0.0776672,-0.0119019,0.11055,0.0463867
24,8,10.0097,0.000610352,0.00198364,-2.43081,0.0538499,-0.0759786,0.0526021,0.0801256,-0.0949775,0.145013,-0.125766,-0.0862325,0.00736237,0.00175476,0.0159073,0.014267,0.0402069,-0.0598907,0.00888824,0.0162125,-9.97986,0.0132751,0.00499725,-0.207634,-0.0120926,0.0787354,-0.0124741,0.116005,0.0432968
24,9,10.0097,-0.000305176,0.00213623,-2.42867,0.0547655,-0.0762837,0.0516866,0.0724962,-0.0971137,0.144403,-0.127292,-0.0862325,0.00606537,0.00839233,0.0174332,0.0137329,0.0404739,-0.0633621,0.0127029,0.0188065,-9.97986,0.010643,0.00110626,-0.19989,0.00610352,0.0816345,-0.0165939,0.120125,0.0414276
25,0,10.0097,0,0.00137329,-2.4305,0.0541551,-0.0759786,0.0513814,0.07036,-0.0946723,0.141351,-0.128513,-0.0871481,0.00976563,0.0107574,0.0180817,0.0120544,0.0368881,-0.0531769,0.0149918,0.0257874,-9.97986,0.0175476,0.00247955,-0.186348,0.0279999,0.079155,-0.0193405,0.10994,0.0372314
25,1,10.0097,0.000610352,0.00137329,-2.42959,0.0538499,-0.0762837,0.0526021,0.0685289,-0.095893,0.143182,-0.127598,-0.0868429,0.00644684,0.0256729,0.0270462,0.0141907,0.0345612,-0.0468826,0.015831,0.0234985,-9.97986,0.0102615,0.00183105,-0.179672,0.0566483,0.0770569,-0.0237274,0.103569,0.0325394
25,2,10.0097,0.000610352,0.00198364,-2.42867,0.0529344,-0.0759786,0.0529073,0.067003,-0.0934516,0.145013,-0.126682,-0.0856222,0.00564575,0.0387573,0.0260925,0.0135422,0.0307846,-0.0386047,0.0185013,0.0260544,-9.97986,0.0118256,-0.000457764,-0.170555,0.0916672,0.0809479,-0.0306702,0.0901794,0.031929
25,3,10.0097,0.00213623,0.00320435,-2.42867,0.0547655,-0.0707906,0.0526021,0.0694445,-0.0943672,0.145013,-0.126377,-0.0844015,0.0126648,0.0391006,0.031929,0.00930786,0.0316238,-0.0350952,0.0157928,0.0271606,-9.97986,0.00934601,-0.00598907,-0.157433,0.126534,0.0833893,-0.0315094,0.077858,0.0290298
25,4,10.0097,0.00152588,0.00305176,-2.42714,0.0559862,-0.0759786,0.0538228,0.0709703,-0.0949775,0.145013,-0.125461,-0.0837911,0.00488281,0.0460815,0.0358582,0.014534,0.0288391,-0.0447083,0.0178909,0.0205231,-9.97986,0.00835419,-0.00160217,-0.14328,0.1577,0.0848007,-0.0258636,0.0720978,0.0317764
25,5,10.0097,0.00213623,0.00442505,-2.42684,0.0547655,-0.0747579,0.0532125,0.0694445,-0.0934516,0.145624,-0.125461,-0.0840963,0.00766754,0.0510025,0.0392151,0.0139236,0.0258636,-0.0474548,0.0161743,0.0204849,-9.97986,0.00701904,-0.00087738,-0.134277,0.180359,0.0853729,-0.0191498,0.0697708,0.0345993
25,6,10.0097,0.00152588,0.00259399,-2.42684,0.055681,-0.0787251,0.0547383,0.0712755,-0.0913154,0.146234,-0.125461,-0.0825704,0.00812531,0.0531006,0.0393677,0.014267,0.024147,-0.058403,0.0181961,0.0197601,-9.97986,0.00736237,-0.0030899,-0.122108,0.202827,0.0790787,-0.0114822,0.0672913,0.0328827
25,7,10.0097,-0.000305176,0.00213623,-2.42531,0.0559862,-0.0744527,0.0550435,0.0706652,-0.0916206,0.146234,-0.124241,-0.0813497,0.00370026,0.0455856,0.045166,0.0139236,0.0239944,-0.0544739,0.0175858,0.0177765,-9.97986,0.00656128,-0.00190735,-0.110016,0.222473,0.0806808,-0.0075531,0.0590515,0.0317383
25,8,10.0097,0.00152588,0.000762939,-2.42531,0.0559862,-0.0735371,0.0544332,0.0700548,-0.0903999,0.147455,-0.124851,-0.0807394,0.00564575,0.0343323,0.046463,0.0101089,0.0215149,-0.0564194,0.0230789,0.0159454,-9.97986,0.00652313,-0.00770569,-0.094223,0.227585,0.0834656,0.00247955,0.0588226,0.0340652
25,9,10.0097,-0.000610352,0.000762939,-2.42592,0.0559862,-0.069875,0.0550435,0.0724962,-0.0916206,0.14837,-0.124241,-0.0813497,0.00679016,0.0469971,0.0503159,0.0140381,0.0263596,-0.0577545,0.0285339,0.0196457,-9.97986,0.0056076,-0.000228882,-0.0788116,0.234413,0.0844574,0.017128,0.0587463,0.039711
26,0,10.0097,0.000610352,0.000610352,-2.42409,0.0572069,-0.0738423,0.0556539,0.0715807,-0.0919257,0.145929,-0.12302,-0.0807394,0.00923157,0.0485229,0.0481033,0.00835419,0.0265121,-0.0527954,0.0265884,0.019722,-9.97986,0.0104141,-0.00213623,-0.0533295,0.232391,0.0878143,0.0188065,0.0470734,0.0390625
26,1,10.0097,-0.000305176,-0.000915527,-2.42623,0.0559862,-0.0747579,0.0535176,0.0474718,-0.095893,0.146844,-0.126377,-0.0822652,0.00598907,0.0445938,0.0480652,0.0146484,0.0265503,-0.0531769,0.0317764,0.0175476,-9.97986,0.011673,-0.0038147,-0.039978,0.233383,0.0870514,0.0157928,0.0450134,0.043869
26,2,8.92476,-0.000610352,-0.00137329,-2.42592,0.0562914,-0.069875,0.0550435,0.0441149,-0.0934516,0.145929,-0.125766,-0.0810445,0.0116348,0.0447083,0.0548172,0.0136185,0.0235367,-0.0497437,0.0333405,0.00980377,-9.97986,0.00995636,-0.00190735,-0.0358963,0.22747,0.0827789,0.0209808,0.0332642,0.0452805
26,3,7.69826,0.000610352,-0.000915527,-2.42531,0.0550706,-0.0729268,0.0547383,0.0526598,-0.0922309,0.146234,-0.126377,-0.0813497,0.0111771,0.0442123,0.0543976,0.016861,0.020752,-0.0426483,0.0363541,0.00148773,-9.97986,0.0118256,0.000190735,-0.018692,0.214844,0.0777435,0.0181961,0.0285721,0.0431824
26,4,7.41475,0.00213623,-0.00106812,-2.42592,0.0547655,-0.0747579,0.0550435,0.0627306,-0.0931465,0.146234,-0.124851,-0.0831808,0.0121307,0.0513077,0.0601196,0.0123978,0.0173569,-0.0366592,0.0372314,0.00488281,-9.97986,0.00675201,0.0043869,-0.0101471,0.211067,0.0769424,0.0188828,0.0243759,0.0399017
26,5,7.5884,0.000610352,-0.000305176,-2.42653,0.0553758,-0.0714009,0.0562642,0.0691393,-0.0916206,0.145013,-0.125461,-0.0837911,0.00751495,0.0463104,0.0548172,0.0119781,0.0159836,-0.0324249,0.0367737,0.00259399,-9.97986,0.0105286,0.00179291,0.00350952,0.205994,0.0769043,0.0164032,0.0159073,0.0363922
26,6,9.08223,0.00244141,0.000457764,-2.42714,0.0538499,-0.075063,0.0544332,0.0865343,-0.0916206,0.145318,-0.125156,-0.0847066,0.0151825,0.038681,0.0449753,0.0110245,0.0155258,-0.0218201,0.0379944,0.00240326,-9.97986,0.00709534,-0.00255585,0.00862122,0.19146,0.0721741,0.00904083,0.0138092,0.0306702
26,7,10.0097,0.000610352,0.00137329,-2.42989,0.0535448,-0.0768941,0.0535176,0.0990465,-0.0931465,0.142877,-0.124851,-0.0856222,0.0094986,0.040741,0.0349426,0.0110626,0.0141144,-0.0152206,0.03685,0.00801086,-9.97986,0.0094223,0.00114441,0.0157166,0.179253,0.0730133,0.00564575,0.0139236,0.0258255
26,8,10.0097,0.000610352,-0.000610352,-2.42959,0.0541551,-0.0759786,0.0522969,0.0789049,-0.0937568,0.143792,-0.127292,-0.0868429,0.00926971,0.0230408,0.0346375,0.00919342,0.00495911,-0.00785828,0.0339508,0.00495911,-9.97986,0.00823975,0.000267029,0.0173187,0.171051,0.0712585,0.00331879,0.00801086,0.0230408
26,9,10.0097,0.000610352,-0.000915527,-2.43081,0.0535448,-0.0756734,0.0522969,0.072191,-0.0949775,0.143487,-0.126682,-0.0880636,0.0147629,0.0213242,0.03582,0.0115204,0.0087738,0.00736237,0.0373459,0.0105667,-9.97986,0.00785828,0.00415802,0.0194931,0.154915,0.071907,-0.00495911,0.00785828,0.0154495
27,0,10.0097,0.00152588,-0.00152588,-2.42928,0.0529344,-0.0759786,0.0522969,0.0712755,-0.0952827,0.144708,-0.127903,-0.0874532,0.0094223,0.0481415,0.030098,-0.00499725,0.00415802,0.0126266,0.0391006,0.0139999,-9.97986,0.0149155,0.00385284,0.0234222,0.140228,0.0694656,-0.00549316,0.0118637,0.0108719
27,1,10.0097,0.000610352,-0.00137329,-2.42898,0.0529344,-0.0741475,0.0516866,0.0685289,-0.0946723,0.142877,-0.127292,-0.0877584,0.0118637,0.0709152,0.0316238,-0.0158691,0.000228882,0.0219345,0.0450516,0.0121307,-9.97986,0.0113678,0.0115204,0.0391769,0.133209,0.0665283,-0.0056076,0.0143051,0.0012207
27,2,10.0097,0.000305176,-0.00152588,-2.42745,0.0550706,-0.0747579,0.0516866,0.0697496,-0.0943672,0.142877,-0.127292,-0.0865377,0.0088501,0.0661087,0.0242615,0.00957489,0.000648499,0.0317764,0.0477219,0.0117493,-9.97986,0.012207,0.00621796,0.0545883,0.118523,0.0636292,-0.00858307,0.0226593,0.00255585
27,3,10.0097,0.00183105,-0.000762939,-2.42714,0.0541551,-0.0753682,0.0532125,0.0685289,-0.0943672,0.143792,-0.127598,-0.0850118,0.00827789,0.0447464,0.0226974,0.0320053,-0.0031662,0.0447083,0.0425339,0.0172806,-9.97986,0.0170898,0.00274658,0.054245,0.114174,0.0645828,-0.0105286,0.0276566,0.0159836
27,4,10.0097,0.00183105,-0.000915527,-2.42776,0.0544603,-0.0738423,0.0544332,0.0709703,-0.0931465,0.144403,-0.125156,-0.085317,0.0110245,0.0341034,0.0155258,0.0209045,-0.00190735,0.0485611,0.0498962,0.0239182,-9.97986,0.0165176,0.00427246,0.0577927,0.106468,0.0580215,-0.0108719,0.0270844,0.00923157
27,5,10.0097,-0.000305176,-0.000610352,-2.42684,0.0544603,-0.0747579,0.054128,0.0700548,-0.0937568,0.144708,-0.126072,-0.0844015,0.0102234,0.0485229,0.0216293,0.00873566,0.00537872,0.0557709,0.0439072,0.0217438,-9.97986,0.0156021,-0.000495911,0.0636673,0.0958252,0.055542,-0.0156021,0.0324249,0.00709534
27,6,10.0097,0.000915527,-0.000762939,-2.42592,0.055681,-0.0744527,0.0538228,0.0700548,-0.0916206,0.145624,-0.124851,-0.0834859,0.00659943,0.0528336,0.00564575,0.0239182,0.00648499,0.0557709,0.0485992,0.0236511,-9.97986,0.0203705,-0.00213623,0.075264,0.0886536,0.0571442,-0.0165939,0.0371552,0.000534058
27,7,10.0097,0,-0.00137329,-2.4247,0.0559862,-0.0744527,0.0556539,0.0706652,-0.0916206,0.145013,-0.12363,-0.0816549,0.01194,0.0212097,-0.00686646,0.0230408,0.0137329,0.0570297,0.0505829,0.018158,-9.97986,0.018692,0.000648499,0.0865555,0.0751495,0.04673,-0.0214767,0.0384903,-0.00225067
27,8,10.0097,0,-0.000762939,-2.42501,0.0590379,-0.0738423,0.0550435,0.0718859,-0.0925361,0.145624,-0.123935,-0.0807394,0.00617981,-0.0181961,-0.0152206,0.0146866,0.0131226,0.0590134,0.0445175,0.0219345,-9.97986,0.0203705,0.00476837,0.0854874,0.0662994,0.0438309,-0.0257874,0.0349808,-0.00144958
27,9,10.0097,0.00244141,-0.000915527,-2.42592,0.0562914,-0.0735371,0.0538228,0.0709703,-0.0925361,0.145929,-0.125156,-0.0807394,0.0128555,-0.0217056,-0.0143433,0.0242615,0.0177383,0.0664139,0.0461197,0.0202942,-9.97986,0.0270844,0.00328064,0.0886917,0.06073,0.0411224,-0.025444,0.0411606,0.00431061
28,0,10.0097,0.00152588,-0.000305176,-2.4247,0.0553758,-0.0710957,0.0553487,0.0712755,-0.0916206,0.14776,-0.125156,-0.0810445,0.0056076,-0.025177,-0.014267,0.0188065,0.0101471,0.0685501,0.0456619,0.0186157,-9.97986,0.02491,0.000801086,0.103912,0.057106,0.0332642,-0.0268936,0.0409698,0.00583649
28,1,10.0097,-0.000915527,-0.000610352,-2.42745,0.0562914,-0.0741475,0.054128,0.0474718,-0.0943672,0.146844,-0.125766,-0.0813497,0.00789642,-0.0133514,-0.00644684,0.0201797,0.0123596,0.0637054,0.0460052,0.0230026,-9.97986,0.0239182,0.0031662,0.123177,0.0540161,0.0358582,-0.0293732,0.0428009,0.00457764
28,2,8.99037,0.000915527,-0.00198364,-2.42653,0.0565965,-0.0726216,0.0544332,0.0450304,-0.0931465,0.146844,-0.126987,-0.0816549,0.0130081,0.00778198,-0.00663757,0.0294113,0.00541687,0.0559616,0.0431824,0.0263596,-9.97986,0.0284195,0.00656128,0.138283,0.0537872,0.046463,-0.0303268,0.0461197,0.00225067
28,3,7.76967,0,-0.00137329,-2.4247,0.0553758,-0.0738423,0.0565694,0.0526598,-0.0919257,0.147455,-0.126987,-0.0822652,0.010643,0.0162888,0.00572205,0.032959,0.00110626,0.0618362,0.042038,0.0288391,-9.97986,0.0243759,0.00740051,0.156059,0.0518036,0.0494766,-0.0256729,0.0540543,0.0012207
28,4,7.46236,0.000610352,-0.000457764,-2.42531,0.0553758,-0.0741475,0.055959,0.0630358,-0.0916206,0.145929,-0.125461,-0.0825704,0.0108719,0.0193787,0.00675201,0.0245285,-0.00312805,0.0580978,0.0497055,0.0322723,-9.97986,0.02285,0.00621796,0.168419,0.0469208,0.0408173,-0.0205994,0.062561,0.0019455
28,5,7.65554,0.000610352,-0.000457764,-2.42562,0.0562914,-0.0747579,0.0538228,0.0706652,-0.0922309,0.146234,-0.125766,-0.0837911,0.00740051,0.0213623,0.00656128,0.0266266,-0.0114059,0.0600052,0.0470734,0.0295258,-9.97986,0.0182724,0.00656128,0.177765,0.0431061,0.0352859,-0.0239944,0.0725937,0.00350952
28,6,9.157,0.0387573,0.00198364,-2.42714,0.0550706,-0.0753682,0.054128,0.0874498,-0.0897895,0.162103,-0.126377,-0.0831808,0.0087738,0.0291061,0.0168991,0.0302887,-0.0117111,0.0630188,0.044136,0.0284576,-9.97986,0.0183105,0.00736237,0.182571,0.0496674,0.037117,-0.0253677,0.0843048,0.0104904
28,7,10.0097,0.00152588,0.00259399,-2.42928,0.0532396,-0.0756734,0.0513814,0.0969103,-0.0928413,0.149286,-0.125156,-0.0856222,0.00896454,0.0302505,0.0147247,0.025444,-0.0127792,0.0661087,0.0477219,0.0331116,-9.97986,0.0160217,0.00389099,0.173492,0.048027,0.0344849,-0.0271606,0.0979996,0.00694275
28,8,10.0097,0.000915527,0.000305176,-2.42989,0.0535448,-0.0762837,0.0516866,0.0782946,-0.0943672,0.145929,-0.126987,-0.0865377,0.00556946,0.0325394,0.0133514,0.0267029,-0.0107956,0.0703812,0.0492477,0.0312805,-9.97986,0.0217819,-0.000419617,0.173111,0.0522232,0.0382233,-0.0279999,0.104828,0.00232697
28,9,10.0097,0.000305176,0.000305176,-2.42867,0.0535448,-0.0753682,0.0513814,0.072191,-0.095893,0.144708,-0.127598,-0.0871481,0.00461578,0.036087,0.0226212,0.0226974,-0.0170135,0.0769043,0.0485992,0.0317001,-9.97986,0.0168228,0.000343323,0.172272,0.0530243,0.0357056,-0.026207,0.102234,0.0118637
29,0,10.0097,0.000915527,-0.000762939,-2.4302,0.0529344,-0.0762837,0.050771,0.0697496,-0.0955879,0.143792,-0.126987,-0.0880636,0.00736237,0.0352478,0.0263977,0.023613,-0.021286,0.0742722,0.0437546,0.0255203,-9.97986,0.0115967,-0.00743866,0.170364,0.0545502,0.0400162,-0.0266647,0.0976944,0.00453949
29,1,10.0097,0.000305176,0,-2.42867,0.0526292,-0.0756734,0.0513814,0.0691393,-0.0943672,0.143182,-0.126987,-0.0874532,0.0082016,0.041275,0.0268555,0.0205994,-0.0112915,0.0728607,0.0414276,0.0305176,-9.97986,0.0146484,-0.00377655,0.173454,0.0539398,0.0344849,-0.0243759,0.0914383,0.00484467
29,2,10.0097,0.00244141,0,-2.42867,0.0535448,-0.0753682,0.0526021,0.0694445,-0.094062,0.143792,-0.127598,-0.0868429,0.00358582,0.0373077,0.033989,0.0204468,-0.0104904,0.0704956,0.0435638,0.0251007,-9.97986,0.00961304,-0.00400543,0.180626,0.0584793,0.0345993,-0.02491,0.0918198,0.00907898
29,3,10.0097,0.000610352,-0.000305176,-2.42745,0.055681,-0.0762837,0.0532125,0.0694445,-0.0946723,0.144098,-0.126682,-0.0856222,0.00804901,0.0384903,0.033989,0.0149918,0.0101089,0.0676727,0.0401306,0.0260162,-9.97986,0.00968933,-0.00259399,0.186272,0.0624466,0.027771,-0.0195694,0.0893021,0.00793457
29,4,10.0097,0.00183105,0.000305176,-2.42623,0.0547655,-0.075063,0.0535176,0.0685289,-0.0934516,0.145624,-0.126072,-0.0837911,0.00518799,0.0374222,0.0314713,0.0215912,0.0203705,0.0707626,0.0419998,0.0256348,-9.97986,0.0063324,-0.00762939,0.180969,0.0706482,0.0207138,-0.0177002,0.0816727,-0.00236511
29,5,10.0097,0.0012207,-0.000457764,-2.42714,0.0550706,-0.0738423,0.0532125,0.0694445,-0.0937568,0.143792,-0.125461,-0.0831808,0.0069046,0.0396347,0.0266266,0.0196075,0.0312042,0.0789642,0.0395966,0.020752,-9.97986,0.0114059,-0.00324249,0.181389,0.0693512,0.0159073,-0.017128,0.0827789,-0.0178909
29,6,10.0097,0.000305176,0.000457764,-2.42531,0.0562914,-0.0741475,0.0538228,0.0700548,-0.0925361,0.146234,-0.124546,-0.0831808,0.00400543,0.0342178,0.0318146,0.0194931,0.0455475,0.0843048,0.0377655,0.0156784,-9.97986,0.00778198,-0.00629425,0.166626,0.0701141,0.0117493,-0.0213242,0.0793076,-0.0195313
29,7,10.0097,-0.000305176,-0.000152588,-2.4244,0.055681,-0.0735371,0.0547383,0.0718859,-0.0913154,0.146539,-0.124241,-0.0819601,0.00793457,0.0389099,0.0380707,0.0267029,0.0466919,0.088501,0.0398254,0.00774384,-9.97986,0.00858307,-0.00640869,0.153999,0.0762939,0.00209808,-0.0224686,0.0733185,-0.00843048
29,8,10.0097,-0.0012207,0.000305176,-2.42623,0.0569017,-0.0738423,0.0547383,0.0706652,-0.0919257,0.14776,-0.124241,-0.0813497,0.00556946,0.0460434,0.0322723,0.0164032,0.0514984,0.0935364,0.0365067,0.00682831,-9.97986,0.0119019,-0.0025177,0.149918,0.077095,-0.00442505,-0.0224304,0.0631714,-0.00255585
29,9,10.0097,-0.000305176,0.000152588,-2.42562,0.0562914,-0.0738423,0.0553487,0.0706652,-0.0922309,0.14776,-0.124546,-0.0813497,0.00370026,0.0483704,0.0286102,0.0169373,0.0498581,0.0915909,0.0377655,0.00873566,-9.97986,0.00709534,0.00270844,0.150604,0.073967,-0.00728607,-0.0197601,0.0540161,0.0172806
30,0,10.0097,0,0.000457764,-2.4244,0.055681,-0.073232,0.0553487,0.07036,-0.0910102,0.147149,-0.12363,-0.0810445,0.00244141,0.0515747,0.0326538,0.0146103,0.044136,0.0762939,0.0379944,0.00610352,-9.97986,0.00919342,-0.000190735,0.154152,0.0780869,-0.0106049,-0.0212479,0.0450516,0.0389099
30,1,10.0097,0.000915527,-0.000915527,-2.42653,0.0562914,-0.0747579,0.0532125,0.0474718,-0.0971137,0.148065,-0.126377,-0.0816549,0.00461578,0.051384,0.0307465,0.0196838,0.0382614,0.0634003,0.0392532,0.000343323,-9.97986,0.00843048,-0.0019455,0.158958,0.0733566,-0.0104904,-0.0233459,0.0401306,0.0641632
30,2,8.85335,0.000610352,-0.00289917,-2.42592,0.0553758,-0.0735371,0.054128,0.0441149,-0.0925361,0.145624,-0.126072,-0.0810445,0.00659943,0.0382233,0.0243378,0.0133896,0.0276566,0.0515747,0.0307465,-0.000190735,-9.97986,0.00751495,-0.00038147,0.15667,0.0657654,-0.0125885,-0.0177383,0.0292206,0.0810242
30,3,7.66377,-0.000305176,-0.000610352,-2.42531,0.055681,-0.0729268,0.054128,0.052965,-0.0931465,0.145318,-0.125766,-0.0813497,0.00526428,0.0353622,0.0204849,0.0157928,0.0239182,0.0560379,0.0296021,-0.00293732,-9.97986,0.00583649,0.000152588,0.14843,0.0572586,-0.0231934,-0.0261307,0.0258255,0.0802231
30,4,7.34517,0.000305176,-0.000457764,-2.42531,0.0541551,-0.0768941,0.0538228,0.0624254,-0.0922309,0.146234,-0.126072,-0.0831808,0.00324249,0.0360107,0.0186539,0.0109863,0.00968933,0.06073,0.0285721,-0.0037384,-9.97986,0.00537872,0.0043869,0.145607,0.0537872,-0.0294113,-0.0181961,0.0244522,0.0767899
30,5,7.50173,0.000915527,-0.000762939,-2.42653,0.0547655,-0.0756734,0.0538228,0.0700548,-0.0931465,0.144403,-0.124851,-0.0831808,0.00663757,0.0364685,0.0208664,0.0110626,-0.00404358,0.0563812,0.0256729,-0.00968933,-9.97986,0.00709534,0.0031662,0.135078,0.0456619,-0.0298309,-0.0259781,0.00957489,0.0528717
30,6,9.00319,0,0.000762939,-2.42653,0.0535448,-0.0744527,0.0535176,0.087755,-0.0910102,0.144098,-0.124851,-0.0834859,0.00732422,0.0384903,0.018158,0.0131226,-0.0125504,0.0691223,0.0320435,-0.00579834,-9.97986,0.00808716,-0.00347137,0.123062,0.0396729,-0.033989,-0.0205231,0.00144958,0.030365
30,7,10.0097,0,0.00213623,-2.42959,0.0538499,-0.0753682,0.0529073,0.0984362,-0.0925361,0.143792,-0.124851,-0.0850118,0.00160217,0.0365448,0.0131607,0.0149918,-0.0141144,0.0784302,0.0285721,-0.000152588,-9.97986,0.00759125,0.000991821,0.114212,0.043602,-0.0327301,-0.0157166,-0.0069046,0.0156403
30,8,10.0097,0.000610352,-0.000152588,-2.42806,0.0541551,-0.0762837,0.0526021,0.0782946,-0.0965034,0.142572,-0.126682,-0.0877584,0.00366211,0.0253677,0.00343323,0.0113678,-0.020256,0.0812531,0.0246811,0.00114441,-9.97986,0.013237,0.00389099,0.118637,0.0298691,-0.021286,-0.0172806,-0.0117493,-0.00217438
30,9,10.0097,0.000610352,-0.000610352,-2.42959,0.0550706,-0.075063,0.0522969,0.0724962,-0.0949775,0.142572,-0.126987,-0.0868429,0.00583649,0.0310898,0.00980377,0.0134659,-0.0219727,0.0828171,0.0263596,0.00167847,-9.97986,0.0133896,0.0056076,0.135765,0.0205231,-0.0196457,-0.0149155,-0.0153732,-0.0201416
31,0,10.0097,0.000915527,-0.00152588,-2.43081,0.0535448,-0.0765889,0.0532125,0.0709703,-0.0955879,0.141656,-0.127292,-0.0883688,0.00507355,0.0224686,0.00183105,0.00850677,-0.0294495,0.0708771,0.0269318,0.000915527,-9.97986,0.0114822,0.00106812,0.144806,0.000534058,-0.0211334,-0.0183105,-0.0151825,-0.0339508
31,1,10.0097,0.000610352,-0.00228882,-2.42959,0.0538499,-0.0753682,0.0510762,0.0691393,-0.0946723,0.143182,-0.127598,-0.0877584,0.00480652,0.0202179,0.00572205,0.0150299,-0.0239944,0.0688934,0.0327301,0.00347137,-9.97986,0.0139236,-0.00637054,0.150566,-0.0193405,-0.0351334,-0.0151062,-0.00881195,-0.0286102
31,2,10.0097,0.000610352,-0.00244141,-2.42867,0.0547655,-0.0762837,0.0526021,0.0694445,-0.0931465,0.143792,-0.127598,-0.0862325,0.00740051,0.0228119,0.0088501,0.00740051,-0.0161362,0.0704193,0.0315857,0.000839233,-9.97986,0.0124741,-0.0107574,0.155334,-0.0483322,-0.0391388,-0.0161362,-0.00751495,-0.018425
31,3,10.0097,0.0012207,-0.00274658,-2.42837,0.0541551,-0.0756734,0.0522969,0.0706652,-0.0943672,0.143792,-0.127292,-0.0859274,0.00598907,0.0240326,0.0140762,0.0123596,-0.00762939,0.0751877,0.0294495,0.00293732,-9.97986,0.010643,-0.0101089,0.147972,-0.0695038,-0.0403976,-0.0164413,-0.00740051,-0.0342178
31,4,10.0097,-0.000610352,-0.00213623,-2.42837,0.0541551,-0.0744527,0.0532125,0.0691393,-0.0934516,0.145318,-0.126072,-0.085317,0.00724792,0.0262833,0.0199509,0.01194,-0.00694275,0.0810623,0.0340271,0.00450134,-9.97986,0.0127029,-0.00892639,0.140533,-0.0923157,-0.034523,-0.0180435,-0.00644684,-0.0509262
31,5,10.0097,0.000305176,-0.0012207,-2.42745,0.0550706,-0.075063,0.0522969,0.0688341,-0.0913154,0.145318,-0.126072,-0.0840963,0.0141907,0.0343323,0.0231552,0.0163269,-0.00442505,0.08358,0.0320053,0.00469208,-9.97986,0.0154495,-0.00175476,0.137711,-0.100136,-0.0367737,-0.013237,-0.00785828,-0.0414276
31,6,10.0097,0,-0.00167847,-2.42684,0.0559862,-0.0747579,0.0538228,0.0700548,-0.0922309,0.145013,-0.125766,-0.0834859,0.00675201,0.0276947,0.0159836,0.00728607,-0.015564,0.0874329,0.030632,0.0019455,-9.97986,0.00675201,-0.0145721,0.120087,-0.125084,-0.0543976,-0.0213623,-0.014267,-0.030365
31,7,10.0097,0.000915527,-0.00106812,-2.4247,0.055681,-0.0738423,0.0538228,0.07036,-0.0910102,0.14898,-0.125766,-0.0825704,0.0135422,0.0307846,0.0246048,0.01297,0.00389099,0.0893784,0.0387955,0.00976563,-9.97986,0.016098,-0.00259399,0.11631,-0.136757,-0.0478363,-0.0094223,-0.000457764,0.0043869
31,8,10.0097,-0.000305176,-0.00259399,-2.42531,0.0550706,-0.0738423,0.0538228,0.0709703,-0.090705,0.146844,-0.124241,-0.0819601,0.00621796,0.029335,0.0262833,0.0120544,0.00831604,0.0790405,0.0315857,0.00926971,-9.97986,0.013504,-0.00656128,0.10601,-0.165634,-0.0524139,-0.0102997,0.00102997,0.0244904
31,9,10.0097,-0.0012207,-0.00213623,-2.4244,0.0562914,-0.0747579,0.0544332,0.0718859,-0.0922309,0.147455,-0.124546,-0.0816549,0.00747681,0.0278473,0.021286,0.00892639,0.00141144,0.0727463,0.0353241,0.00782013,-9.97986,0.014534,-0.00255585,0.0941086,-0.178337,-0.0514603,-0.00484467,-0.00637054,0.049324
32,0,10.0097,0.00183105,-0.00167847,-2.42592,0.0565965,-0.0735371,0.0544332,0.0706652,-0.0919257,0.147149,-0.125156,-0.0804342,0.0128174,0.0309372,0.0253296,0.0120544,0.00148773,0.0714874,0.0342941,0.00728607,-9.97986,0.0149918,0.00297546,0.0798416,-0.185966,-0.0536346,-0.00160217,-0.0216675,0.0672531
32,1,10.0097,0.00366211,-0.00213623,-2.42684,0.0562914,-0.0747579,0.0522969,0.0474718,-0.0949775,0.146844,-0.125156,-0.0828756,0.0109863,0.0306702,0.0258255,0.0109863,0.000190735,0.0745773,0.0365829,0.0130081,-9.97986,0.00850677,-0.0038147,0.0716782,-0.198936,-0.0589752,-0.0056839,-0.0384903,0.0681686
32,2,9.0099,0.00213623,-0.00305176,-2.42653,0.0559862,-0.0738423,0.0544332,0.0453356,-0.0928413,0.147149,-0.124851,-0.0819601,0.0114822,0.0325394,0.0254059,0.00865936,-0.0138092,0.0827408,0.030899,0.0114822,-9.97986,0.00999451,-0.00297546,0.0531769,-0.217018,-0.0570679,-0.0031662,-0.0480652,0.0626755
32,3,7.83101,0.000610352,-0.00259399,-2.42562,0.0553758,-0.073232,0.0556539,0.0544908,-0.0919257,0.145318,-0.125766,-0.0828756,0.00770569,0.0344849,0.030365,0.010376,-0.0209427,0.0893021,0.0301361,0.0111008,-9.97986,0.00850677,-0.00377655,0.0360489,-0.239029,-0.0621414,-0.00148773,-0.0387955,0.0481033
32,4,7.50875,-0.000305176,-0.00228882,-2.42714,0.0565965,-0.0759786,0.0526021,0.0621202,-0.0916206,0.145624,-0.125766,-0.0828756,0.00858307,0.0307846,0.0309753,0.0115585,-0.0400925,0.0884628,0.0317001,0.0191498,-9.97986,0.0119781,-0.0126266,0.0233078,-0.249023,-0.0720215,-0.00240326,-0.0182724,0.0338364
32,5,7.72023,0.000305176,-0.00167847,-2.42684,0.0550706,-0.0747579,0.0544332,0.0706652,-0.0922309,0.143487,-0.124851,-0.0831808,0.0129318,0.0358582,0.02285,0.00808716,-0.051651,0.0774384,0.0333405,0.0247574,-9.97986,0.0128937,-0.0094223,0.0123596,-0.254097,-0.0681686,0.00118256,-0.00682831,0.0201797
32,6,9.2278,-0.0012207,0,-2.42653,0.0553758,-0.0747579,0.054128,0.0880602,-0.0919257,0.144403,-0.125461,-0.0837911,0.0107574,0.0398636,0.0172043,0.0100327,-0.064888,0.050087,0.0326157,0.0293732,-9.97986,0.0108337,-0.00839233,0.0110626,-0.25631,-0.0582504,0.000801086,0.00415802,0.0106812
32,7,10.0097,0.0012207,0.00228882,-2.42867,0.0535448,-0.0759786,0.0526021,0.0962999,-0.0931465,0.143182,-0.124851,-0.0862325,0.0104523,0.043335,0.018158,0.0130081,-0.0708008,0.0209808,0.0417709,0.0327301,-9.97986,0.0114059,-0.00644684,0.00595093,-0.256996,-0.052681,-0.000801086,0.0132751,0.0112152
32,8,10.0097,0.000305176,0.000610352,-2.42837,0.0526292,-0.0759786,0.0550435,0.0789049,-0.0965034,0.144098,-0.126987,-0.0865377,0.00679016,0.0387955,0.0159454,0.0125885,-0.0708771,0.0120163,0.0394058,0.0406265,-9.97986,0.00835419,-0.00961304,0.0104904,-0.252686,-0.0480652,0.0030899,0.029068,0.00522614
32,9,10.0097,0.000915527,-0.000152588,-2.42989,0.0541551,-0.0762837,0.0522969,0.0740221,-0.0952827,0.143792,-0.126987,-0.0862325,0.00823975,0.0391769,0.0221634,0.0163651,-0.0656509,-0.00263214,0.0462723,0.0410461,-9.97986,0.0106812,-0.00862122,0.0170517,-0.24662,-0.0382996,0.00663757,0.0456619,0.000228882
33,0,10.0097,0.000610352,-0.000610352,-2.42898,0.0529344,-0.0759786,0.0522969,0.07036,-0.0949775,0.142877,-0.127292,-0.0871481,0.0141525,0.0451279,0.0233078,0.0183487,-0.0494385,-0.0168228,0.0461578,0.0431442,-9.97986,0.0113297,-0.00389099,0.0140381,-0.249519,-0.0282669,0.00713348,0.0458145,0.0019455
33,1,10.0097,0,-0.000305176,-2.42928,0.0535448,-0.0762837,0.0550435,0.0682238,-0.0949775,0.144098,-0.127903,-0.0868429,0.0119019,0.0284958,0.0312805,0.0207138,-0.0410843,-0.026207,0.045433,0.0377655,-9.97986,0.0111771,-0.00343323,0.00823975,-0.246735,-0.0262451,0.0087738,0.0452805,-0.000648499
33,2,10.0097,0.00213623,-0.000915527,-2.42898,0.0547655,-0.0747579,0.0522969,0.0685289,-0.0937568,0.145318,-0.126987,-0.0865377,0.0104904,0.019989,0.0331497,0.0212479,-0.0378036,-0.0488663,0.0498962,0.0385666,-9.97986,0.00793457,-0.00144958,0.00518799,-0.250816,-0.0302124,0.00999451,0.0554657,0.00282288
33,3,10.0097,0.000610352,0,-2.42714,0.0538499,-0.0747579,0.0532125,0.0694445,-0.0934516,0.145013,-0.126682,-0.085317,0.0108719,0.0301361,0.0403976,0.0240326,-0.0265884,-0.0497818,0.0456619,0.0398254,-9.97986,0.0112915,-0.00709534,0.000762939,-0.247192,-0.039444,0.00984192,0.0500488,0.00507355
33,4,10.0097,0.000305176,0,-2.42776,0.0550706,-0.0747579,0.0565694,0.0697496,-0.0928413,0.146234,-0.126072,-0.0844015,0.0108337,0.0399017,0.0462341,0.0217056,-0.0234222,-0.0540161,0.044899,0.0330353,-9.97986,0.00537872,-0.00278473,-0.00686646,-0.244446,-0.0383759,0.0109863,0.0425339,0.00270844
33,5,10.0097,0.000915527,0.000152588,-2.42653,0.0544603,-0.0747579,0.054128,0.0700548,-0.0937568,0.144098,-0.124546,-0.0840963,0.0142288,0.0477982,0.0535583,0.019989,-0.0123215,-0.0635529,0.0470352,0.0179672,-9.97986,0.00255585,-7.62939e-005,-0.0174713,-0.246925,-0.0374985,0.0117111,0.032959,0.00389099
33,6,10.0097,0.000610352,0,-2.42684,0.0550706,-0.0741475,0.0526021,0.0700548,-0.0928413,0.145624,-0.124546,-0.0834859,0.017662,0.0456238,0.0562286,0.0192261,-0.00370026,-0.0688553,0.0465012,0.000534058,-9.97986,0.00305176,-0.00389099,-0.0340652,-0.240746,-0.0463867,0.0115585,0.0242615,0.00587463
33,7,10.0097,0,0.000762939,-2.42653,0.0559862,-0.075063,0.0587056,0.072191,-0.0910102,0.147149,-0.124546,-0.0822652,0.0148392,0.0640106,0.0706863,0.0153351,0.00759125,-0.0741577,0.0444031,-0.0063324,-9.97986,-0.0038147,0.00499725,-0.0494003,-0.232887,-0.0421906,0.0136185,0.0279999,0.00789642
33,8,10.0097,0.00213623,0.000305176,-2.42379,0.0562914,-0.0738423,0.0547383,0.0697496,-0.0919257,0.145929,-0.123325,-0.0813497,0.0105667,0.0650787,0.0749588,-0.000839233,0.0141144,-0.0842285,0.0479507,0.0030899,-9.97986,-0.000267029,0.00144958,-0.0551987,-0.231285,-0.0508881,0.00904083,0.0265884,0.010643
33,9,10.0097,0.000305176,0.000762939,-2.42501,0.0569017,-0.0741475,0.0547383,0.0715807,-0.0925361,0.146844,-0.123935,-0.0807394,0.0151825,0.0740433,0.0727844,-0.000648499,0.0252151,-0.0860977,0.0518036,0.00957489,-9.97986,-0.000267029,-0.00808716,-0.0556564,-0.225868,-0.049324,0.0130081,0.0348282,0.013504
34,0,10.0097,0.000305176,0.00152588,-2.42592,0.0565965,-0.0744527,0.0532125,0.0700548,-0.0913154,0.14776,-0.124241,-0.080129,0.0117874,0.0889206,0.0710297,-0.00347137,0.0296783,-0.0848007,0.0468445,0.0180435,-9.97986,-0.00228882,0.0018692,-0.0553894,-0.210533,-0.0537109,0.0101089,0.0344467,0.0144196
34,1,10.0097,-0.000915527,0,-2.42501,0.0559862,-0.0744527,0.0526021,0.0471666,-0.0949775,0.146234,-0.125766,-0.0819601,0.013237,0.0874329,0.0605774,0.00179291,0.0352478,-0.0884247,0.0504684,0.0111771,-9.97986,-0.00473022,0.00297546,-0.0537872,-0.200119,-0.0537491,0.00762939,0.0365067,0.0180435
34,2,8.84297,0,-0.000152588,-2.42653,0.0553758,-0.0741475,0.0547383,0.0428942,-0.0925361,0.147455,-0.126377,-0.0810445,0.0177383,0.0873184,0.0550842,0.00442505,0.0437927,-0.0876236,0.0450897,0.014801,-9.97986,-0.000495911,0.00953674,-0.048027,-0.180168,-0.0531006,0.00968933,0.0419235,0.0181961
34,3,7.67873,-0.000610352,0.000915527,-2.42562,0.055681,-0.0741475,0.0519917,0.0532701,-0.0928413,0.145013,-0.126072,-0.0822652,0.0198364,0.0409317,0.0438309,0.0037384,0.043335,-0.0843811,0.0548172,0.00923157,-9.97986,0.0037384,-0.00312805,-0.056572,-0.161896,-0.0520706,0.00869751,0.043602,0.018158
34,4,7.38698,0.0012207,0.0012207,-2.42592,0.0553758,-0.0735371,0.054128,0.0639513,-0.0928413,0.144708,-0.126682,-0.0822652,0.0157547,0.0112152,0.0253677,0.0110626,0.0535965,-0.0860596,0.0609207,0.0141144,-9.97986,0.00556946,-0.0191498,-0.0527573,-0.147247,-0.0507355,0.00705719,0.0455856,0.0169373
34,5,7.58199,0.000305176,0.00228882,-2.42623,0.0547655,-0.0747579,0.054128,0.0700548,-0.0925361,0.145929,-0.126377,-0.0822652,0.0138855,0.011673,0.0130463,0.0106812,0.0590515,-0.0787735,0.0629425,0.0202179,-9.97986,0.0152588,-0.0143051,-0.0551605,-0.125542,-0.0534439,0.00759125,0.0439835,0.0145721
34,6,9.13747,0.000610352,0.00305176,-2.42714,0.0544603,-0.0747579,0.0519917,0.0880602,-0.0903999,0.144403,-0.125461,-0.0837911,0.0147247,-0.0025177,-0.00499725,0.00858307,0.0597382,-0.0823593,0.0588608,0.0189209,-9.97986,0.0220871,-0.0112534,-0.0563049,-0.101204,-0.0445175,0.00854492,0.0473404,0.0154495
34,7,10.0097,-0.000610352,0.00411987,-2.42867,0.0535448,-0.0756734,0.0529073,0.0969103,-0.0928413,0.143182,-0.126682,-0.0850118,0.0123596,-0.0126266,-0.0195694,0.00576019,0.0671005,-0.0747299,0.0589752,0.0232697,-9.97986,0.0331879,-0.0163269,-0.062027,-0.0780106,-0.0485992,0.0118256,0.0460815,0.0163269
34,8,10.0097,0.000610352,0.00305176,-2.42959,0.0532396,-0.0744527,0.0516866,0.0795153,-0.0946723,0.143487,-0.126377,-0.0868429,0.011673,-0.0239182,-0.0355911,0.00812531,0.0596237,-0.080719,0.0549698,0.0191116,-9.97986,0.0380325,-0.010376,-0.0614166,-0.0577927,-0.0463486,0.0130844,0.0415802,0.0156021
34,9,10.0097,0,0.00183105,-2.42959,0.0535448,-0.0747579,0.050771,0.0740221,-0.0952827,0.143487,-0.126987,-0.0862325,0.0150681,-0.0285339,-0.0473404,0.00564575,0.0624466,-0.0782776,0.0471497,0.0265503,-9.97986,0.0358582,-0.00511169,-0.059166,-0.0382996,-0.0425339,0.0101089,0.0447464,0.0174713
35,0,10.0097,0.00183105,0.0012207,-2.42959,0.0535448,-0.0756734,0.0519917,0.0697496,-0.0946723,0.143792,-0.127598,-0.0871481,0.0121307,-0.0102997,-0.0486374,0.00843048,0.0683212,-0.0704193,0.0477982,0.0337601,-9.97986,0.0356674,-0.00392914,-0.0640869,-0.0192642,-0.0379181,0.0160599,0.0492477,0.0134659
35,1,10.0097,0.0012207,0.00183105,-2.4302,0.0544603,-0.075063,0.0513814,0.0694445,-0.0952827,0.142877,-0.128208,-0.0865377,0.013504,-0.0102234,-0.0555038,0.0123596,0.061264,-0.0677872,0.0440216,0.033493,-9.97986,0.0323868,0.000343323,-0.0618744,-0.00282288,-0.0332642,0.0131607,0.0511551,0.0114059
35,2,10.0097,0,0.000457764,-2.42898,0.0544603,-0.0759786,0.0513814,0.0691393,-0.0952827,0.144708,-0.126072,-0.0856222,0.0122833,-0.000267029,-0.0455856,0.0117493,0.0584412,-0.063858,0.0398636,0.0356293,-9.97986,0.0314331,-0.00236511,-0.061264,0.01194,-0.0271606,0.0189209,0.0505066,0.0125885
35,3,10.0097,0.000305176,0.00198364,-2.42806,0.0544603,-0.0741475,0.0538228,0.0688341,-0.094062,0.143182,-0.126682,-0.0856222,0.0138474,0.0119781,-0.0357819,0.00862122,0.0572968,-0.0553131,0.0398636,0.0376129,-9.97986,0.0254059,-0.00286102,-0.0615692,0.034523,-0.0257492,0.0172043,0.0481033,0.0088501
35,4,10.0097,0.00366211,0.00198364,-2.42776,0.055681,-0.0747579,0.0538228,0.0697496,-0.0943672,0.144708,-0.126987,-0.0840963,0.0168991,-0.0157166,-0.0302124,0.0128937,0.0537491,-0.0479889,0.0328445,0.0357437,-9.97986,0.0258255,-0.00682831,-0.0628281,0.05867,-0.0150299,0.0161743,0.0478745,0.00598907
35,5,10.0097,0.00152588,0.00244141,-2.42745,0.0553758,-0.0756734,0.0550435,0.0706652,-0.0931465,0.145013,-0.125766,-0.0847066,0.0101852,-0.0342941,-0.0247955,0.00953674,0.0501633,-0.0468063,0.0340271,0.0359344,-9.97986,0.0253296,-0.00347137,-0.0588226,0.0767136,-0.0113678,0.0162888,0.0495911,0.0062561
35,6,10.0097,0.000915527,0.00213623,-2.42592,0.0559862,-0.0738423,0.0538228,0.0700548,-0.0919257,0.145013,-0.126682,-0.0822652,0.00686646,-0.0284195,-0.0236893,0.00221252,0.0453186,-0.0386047,0.0393295,0.0380325,-9.97986,0.0267029,-0.00743866,-0.0609589,0.102844,0.000457764,0.0183105,0.04879,0.00457764
35,7,10.0097,0.00152588,0.00213623,-2.42531,0.0559862,-0.0735371,0.0544332,0.0712755,-0.0913154,0.146844,-0.124851,-0.0807394,0.0126266,-0.00968933,-0.0234985,0.00701904,0.0414658,-0.0279617,0.0489044,0.0347137,-9.97986,0.0240326,-0.0101471,-0.0586319,0.123329,0.00911713,0.0159836,0.0473785,0.00286102
35,8,10.0097,0.000915527,0.00244141,-2.4247,0.0559862,-0.0741475,0.0568746,0.0691393,-0.0903999,0.147149,-0.124546,-0.0807394,0.0112534,-0.00576019,-0.0172424,0.00930786,0.0405502,-0.00701904,0.0625992,0.0344467,-9.97986,0.0199127,-0.0144196,-0.0554657,0.139008,0.0180054,0.0154877,0.0498199,0.00263214
35,9,10.0097,-0.000305176,0.00152588,-2.42562,0.0562914,-0.0744527,0.0547383,0.0718859,-0.0910102,0.145929,-0.123325,-0.0810445,0.0165558,-0.0225067,-0.0214767,0.0109482,0.0318527,0.00354767,0.0662613,0.0307465,-9.97986,0.0217819,-0.0125122,-0.0587082,0.153732,0.0228882,0.0149155,0.0423431,0.00274658
36,0,10.0097,0.00213623,0.00137329,-2.42562,0.0559862,-0.0738423,0.0547383,0.0718859,-0.0903999,0.146234,-0.124241,-0.0807394,0.0122833,-0.0279236,-0.0187302,0.00892639,0.0299072,0.0148773,0.0413895,0.029335,-9.97986,0.0217438,-0.00785828,-0.0548553,0.163956,0.0317383,0.0164413,0.0465393,-0.00293732
36,1,10.0097,-0.000305176,0.000457764,-2.42562,0.0544603,-0.0744527,0.0544332,0.0465563,-0.0946723,0.146539,-0.125766,-0.0816549,0.0131989,-0.0203705,-0.00865936,0.010643,0.0271606,0.0251007,0.0166702,0.0272369,-9.97986,0.021019,-0.00953674,-0.0564957,0.178528,0.0434875,0.017128,0.044632,-0.00389099
36,2,8.82741,0,-0.000152588,-2.42653,0.0572069,-0.0738423,0.0544332,0.0459459,-0.0946723,0.146844,-0.126682,-0.0816549,0.0122833,-0.00858307,-0.000915527,0.0082016,0.0217819,0.0299835,-0.00747681,0.0279236,-9.97986,0.0151443,-0.0139618,-0.0460434,0.179482,0.0563049,0.0164795,0.0444794,-0.00816345
36,3,7.71901,0.000610352,-0.000457764,-2.42653,0.0550706,-0.0735371,0.0544332,0.0541857,-0.0928413,0.147149,-0.126377,-0.0819601,0.0130844,-0.00350952,0.00289917,0.0133133,0.00778198,0.0329208,-0.0289917,0.0234985,-9.97986,0.0176239,-0.0154114,-0.0442886,0.184326,0.0659943,0.0156403,0.0432968,-0.00881195
36,4,7.46266,0.00152588,0.000457764,-2.42653,0.0547655,-0.0753682,0.0535176,0.0642565,-0.0916206,0.147455,-0.125156,-0.0825704,0.00934601,0.00751495,0.0104523,0.00873566,0.00709534,0.0392151,-0.030098,0.0281906,-9.97986,0.015831,-0.0156021,-0.0418854,0.187454,0.0745773,0.0108337,0.0434113,-0.01297
36,5,7.67629,0.00152588,0.000610352,-2.42684,0.0553758,-0.075063,0.054128,0.0706652,-0.0931465,0.146234,-0.124851,-0.0831808,0.00873566,0.0173569,0.0213242,0.00679016,0.0031662,0.0520706,-0.0151443,0.0301743,-9.97986,0.0154495,-0.0204468,-0.0353241,0.18837,0.0897598,0.0146484,0.0357819,-0.0117493
36,6,9.23818,-0.000915527,0.00106812,-2.42714,0.0550706,-0.0753682,0.0544332,0.0883654,-0.0919257,0.145013,-0.125461,-0.0837911,0.0110626,0.0259018,0.0241089,0.00759125,-0.00141144,0.0599289,-0.0082016,0.0285721,-9.97986,0.0141144,-0.00976563,-0.0324249,0.189629,0.0966263,0.0168228,0.028801,-0.0123215
36,7,10.0097,0.00213623,0.000305176,-2.42867,0.0544603,-0.0756734,0.0535176,0.0959947,-0.0931465,0.143792,-0.125156,-0.0868429,0.00839233,0.0315857,0.0294876,0.00591278,-0.000991821,0.0699234,-0.0100327,0.0179291,-9.97986,0.0171661,-0.0038147,-0.0250626,0.182686,0.105438,0.0169754,0.030098,-0.0106812
36,8,10.0097,0.000915527,-0.000152588,-2.42867,0.0535448,-0.0765889,0.0519917,0.0776842,-0.0955879,0.143792,-0.126682,-0.0868429,0.00938416,0.0321198,0.0322342,0.00709534,-0.0056839,0.0786591,-0.0157547,0.0127792,-9.97986,0.0159073,-0.00988007,-0.015831,0.170593,0.121651,0.0170135,0.0214386,-0.01297
36,9,10.0097,0.000610352,-0.000762939,-2.42928,0.0538499,-0.075063,0.0516866,0.0728014,-0.0949775,0.144403,-0.126682,-0.0874532,0.0136185,0.0322342,0.0286484,0.00907898,-0.00839233,0.0915527,-0.0242615,0.0115967,-9.97986,0.015831,-0.0100327,-0.0175476,0.160446,0.134277,0.0200272,0.022583,-0.016861
37,0,10.0097,-0.000305176,-0.00137329,-2.42959,0.0526292,-0.0775044,0.0532125,0.0700548,-0.0949775,0.145318,-0.127598,-0.0880636,0.0122452,0.0269318,0.0206375,0.01091,-0.00499725,0.107002,-0.0301361,0.0196838,-9.97986,0.00923157,7.62939e-005,-0.0094223,0.14534,0.141563,0.0163651,0.0184631,-0.0182343
37,1,10.0097,0,-0.00152588,-2.4305,0.0529344,-0.0762837,0.0522969,0.0688341,-0.0937568,0.142877,-0.127903,-0.0871481,0.0140762,0.0255585,0.0136185,0.0191498,-0.00984192,0.116501,-0.0296402,0.0161362,-9.97986,0.0144196,0.00583649,-0.0050354,0.139008,0.151672,0.0167465,0.0164032,-0.0191116
37,2,10.0097,-0.000305176,-0.00152588,-2.42867,0.0544603,-0.0756734,0.0526021,0.0694445,-0.0943672,0.142877,-0.127903,-0.0868429,0.00801086,0.0135422,0.00968933,0.0179291,-0.0123215,0.123405,-0.0292587,0.0159454,-9.97986,0.01194,0.0163269,-0.0031662,0.128899,0.158386,0.0137329,0.00640869,-0.0226593
37,3,10.0097,0.0012207,-0.000152588,-2.42745,0.0547655,-0.0741475,0.0535176,0.0688341,-0.0943672,0.145013,-0.126682,-0.085317,0.0157928,0.00965118,0.0124359,0.0152969,-0.00637054,0.131531,-0.0254822,0.00606537,-9.97986,0.0106049,0.00976563,0.00331879,0.129013,0.173569,0.012207,0.00160217,-0.0211716
37,4,10.0097,0.00244141,0,-2.42837,0.0544603,-0.0756734,0.0522969,0.0700548,-0.0928413,0.144403,-0.126072,-0.0859274,0.0131226,0.0246048,0.00762939,0.0105286,-0.00423431,0.129776,-0.0304794,0.0100708,-9.97986,0.00892639,-0.00835419,0.0168991,0.123901,0.181961,0.00911713,0.000457764,-0.0202179
37,5,10.0097,0.000610352,-0.000610352,-2.42745,0.0541551,-0.0744527,0.0535176,0.0697496,-0.0931465,0.145929,-0.126682,-0.0831808,0.00911713,0.0357819,0.00297546,0.00465393,-0.00408173,0.13813,-0.0354385,0.00873566,-9.97986,0.00984192,-0.0224686,0.0222778,0.109711,0.191574,0.0132751,-0.00423431,-0.0203705
37,6,10.0097,0.000915527,-0.000762939,-2.42592,0.055681,-0.0744527,0.054128,0.0700548,-0.0910102,0.146234,-0.124546,-0.0822652,0.0115967,0.0184631,0.00629425,0.00640869,-0.0043869,0.144081,-0.0440979,0.00465393,-9.97986,0.0178146,-0.0103378,0.0381088,0.0965118,0.205116,0.014267,-0.00728607,-0.0164413
37,7,10.0097,0.000610352,-0.00167847,-2.42501,0.0572069,-0.0738423,0.054128,0.0712755,-0.0925361,0.147455,-0.124851,-0.0813497,0.0114441,0.0284958,0.00770569,0.00862122,-0.00335693,0.158348,-0.0428391,0.0173569,-9.97986,0.0164413,-0.000228882,0.0440216,0.0821304,0.206833,0.0125504,-0.00808716,-0.0179672
37,8,10.0097,0.00183105,-0.00137329,-2.42592,0.0559862,-0.0747579,0.0556539,0.0715807,-0.090705,0.146539,-0.124546,-0.0825704,0.01194,0.0307846,0.00743866,0.013237,0.00499725,0.158424,-0.0485611,0.0140381,-9.97986,0.0198364,0.0108337,0.05867,0.0672913,0.205917,0.0121307,-0.0100708,-0.0204849
37,9,10.0097,0.00152588,-0.00167847,-2.4244,0.0575121,-0.0741475,0.0538228,0.0709703,-0.0910102,0.146234,-0.122715,-0.0816549,0.00682831,0.0133133,-0.000991821,0.0109482,0.0038147,0.164566,-0.0530243,0.0177002,-9.97986,0.0149918,0.0139618,0.0745392,0.0484467,0.213776,0.0102997,-0.0148773,-0.0209427
38,0,10.0097,0.000610352,-0.00106812,-2.42623,0.0532396,-0.0729268,0.0556539,0.0709703,-0.0919257,0.147149,-0.124851,-0.0813497,0.00717163,0.00335693,-0.000724792,0.0101852,0.00530243,0.173187,-0.0539398,0.0169373,-9.97986,0.0226593,0.00953674,0.0853729,0.032692,0.21801,0.00968933,-0.0181198,-0.021286
38,1,10.0097,-0.000305176,-0.00228882,-2.42592,0.0559862,-0.0741475,0.0538228,0.0468614,-0.0937568,0.146234,-0.126072,-0.0831808,0.0110245,-0.0025177,0.00118256,0.0133133,0.00705719,0.177765,-0.0507736,0.0175476,-9.97986,0.0235748,-0.000839233,0.100288,0.00976563,0.221176,0.00598907,-0.0177002,-0.0262451
38,2,8.83199,0,-0.00411987,-2.42562,0.055681,-0.0738423,0.0556539,0.0456407,-0.094062,0.146844,-0.126072,-0.0822652,0.0104141,0.000534058,-0.000648499,0.0119019,0.00453949,0.171738,-0.0537109,0.0164032,-9.97986,0.0233841,-0.00606537,0.112648,-0.0128174,0.220528,0.00427246,-0.0231171,-0.0349045
38,3,7.63204,0.00213623,-0.00274658,-2.42653,0.0596483,-0.0744527,0.0547383,0.0544908,-0.0928413,0.145929,-0.126377,-0.0834859,0.0101089,0.011673,0.00640869,0.0140762,0.00324249,0.186005,-0.0548172,0.0188446,-9.97986,0.0229645,3.8147e-005,0.125237,-0.0353622,0.226402,0.0019455,-0.0235367,-0.0341415
38,4,7.37721,-0.0012207,-0.00137329,-2.42653,0.0535448,-0.0741475,0.054128,0.0618151,-0.090705,0.145624,-0.126072,-0.0834859,0.0101471,0.0174332,0.0106812,0.0114059,0.00717163,0.186157,-0.0559235,0.0139618,-9.97986,0.0178528,0.000724792,0.133972,-0.0445938,0.212975,0.00480652,-0.0175476,-0.0281906
38,5,7.57009,0.000915527,-0.00213623,-2.42684,0.0553758,-0.0747579,0.0538228,0.0712755,-0.0913154,0.146234,-0.126377,-0.0837911,0.0127792,0.0304031,0.0144196,0.0115967,0.00583649,0.176468,-0.0567627,0.0130463,-9.97986,0.0175858,0.0063324,0.136185,-0.0613785,0.200806,0.00530243,-0.0175476,-0.0171661
38,6,9.15853,0,-0.000152588,-2.42745,0.0559862,-0.0747579,0.0556539,0.0892809,-0.0903999,0.144098,-0.124851,-0.0844015,0.00865936,0.0288773,0.0181961,0.0137711,0.00743866,0.178757,-0.0499344,0.0139618,-9.97986,0.0183105,0.0056076,0.143585,-0.0733566,0.20195,-0.00038147,-0.0157928,-0.014267
38,7,10.0097,0.000305176,0.00106812,-2.42898,0.0535448,-0.0759786,0.0519917,0.0962999,-0.0900947,0.144098,-0.124241,-0.0865377,0.00930786,0.0289917,0.0221634,0.00801086,0.00827789,0.175743,-0.04776,0.0159454,-9.97986,0.0114822,0.0122452,0.147591,-0.0836182,0.193253,-0.00228882,-0.0183105,-0.00846863
38,8,10.0097,0.000915527,-0.000915527,-2.42959,0.0538499,-0.0759786,0.0522969,0.0782946,-0.0955879,0.144403,-0.126987,-0.0871481,0.00896454,0.0337982,0.0183105,0.0107574,0.0121689,0.180321,-0.0465012,0.0152588,-9.97986,0.017395,0.0136948,0.15316,-0.0946426,0.18013,-0.00442505,-0.0135803,-0.00530243
38,9,10.0097,-0.000305176,-0.00167847,-2.42837,0.0562914,-0.0756734,0.0510762,0.0728014,-0.095893,0.142877,-0.127292,-0.0871481,0.00770569,0.030899,0.022049,0.00816345,0.0104141,0.180855,-0.0408554,0.0125504,-9.97986,0.0137711,0.00976563,0.159492,-0.112343,0.164948,-0.00232697,-0.0156403,0.0012207
39,0,10.0097,0.000305176,-0.00152588,-2.42989,0.0535448,-0.0753682,0.0516866,0.0700548,-0.0968086,0.142267,-0.127292,-0.0874532,0.0107193,0.0325012,0.0257492,0.0138474,0.0177383,0.180779,-0.034256,0.0115585,-9.97986,0.015831,0.0108719,0.162659,-0.128708,0.141258,-0.0062561,-0.020752,0.00144958
39,1,10.0097,-0.000610352,-0.00213623,-2.42989,0.0538499,-0.0762837,0.0522969,0.07036,-0.0949775,0.143487,-0.126987,-0.0871481,0.00957489,0.0323486,0.0261688,0.0144958,0.0213623,0.175209,-0.0341034,0.0116348,-9.97986,0.0131607,0.00553131,0.164375,-0.145073,0.117569,0.000686646,-0.0175095,7.62939e-005
39,2,10.0097,-0.00152588,-0.00167847,-2.42837,0.0532396,-0.0762837,0.0522969,0.0691393,-0.095893,0.143792,-0.127598,-0.0868429,0.0069046,0.0330734,0.0242615,0.0126648,0.0172806,0.16983,-0.0356293,0.0115204,-9.97986,0.00984192,0.0122452,0.173683,-0.167465,0.0929642,-0.00183105,-0.0182724,0.00480652
39,3,10.0097,0.000610352,-0.00244141,-2.42714,0.0550706,-0.075063,0.0532125,0.0694445,-0.0949775,0.143792,-0.126072,-0.0856222,0.00812531,0.0325012,0.0231552,0.0122833,0.0193024,0.161819,-0.0406265,0.0145721,-9.97986,0.0069809,0.014534,0.180244,-0.176582,0.0721741,-0.00354767,-0.0194931,0.00522614
39,4,10.0097,-0.000305176,-0.00106812,-2.42776,0.0541551,-0.0753682,0.0526021,0.0697496,-0.094062,0.144098,-0.126072,-0.0850118,0.00102997,0.0337982,0.0236511,0.0139618,0.0165939,0.149651,-0.0419998,0.0146484,-9.97986,0.00743866,0.0109482,0.181046,-0.193481,0.0452805,-0.00514984,-0.0200272,0.00694275
39,5,10.0097,0.000610352,-0.00152588,-2.42714,0.0517137,-0.0744527,0.0529073,0.0697496,-0.0934516,0.144098,-0.124851,-0.0850118,-0.00270844,0.0275803,0.023613,0.0108719,0.017128,0.144348,-0.0429916,0.0122833,-9.97986,0.0104904,0.0108719,0.184593,-0.203133,0.0227737,-0.00553131,-0.0249481,0.00583649
39,6,10.0097,0.00152588,-0.00137329,-2.42684,0.0550706,-0.075063,0.054128,0.0694445,-0.090705,0.145318,-0.125766,-0.0822652,0.00339508,0.0308609,0.0255203,0.0114441,0.0185013,0.130501,-0.0434113,0.00923157,-9.97986,0.00797272,0.0111771,0.184555,-0.21801,0.0075531,-0.0104904,-0.0230408,0.00686646
39,7,10.0097,0.000305176,-0.000915527,-2.4244,0.0578172,-0.073232,0.0544332,0.0709703,-0.0922309,0.146844,-0.125156,-0.0819601,0.0121307,0.0335693,0.0298309,0.0133896,0.0171661,0.124474,-0.0381851,0.0121689,-9.97986,0.00667572,0.0123978,0.188446,-0.229568,-0.0138092,-0.00465393,-0.0257492,0.0038147
39,8,10.0097,-0.000305176,-0.00137329,-2.42623,0.0578172,-0.0735371,0.0535176,0.0712755,-0.0922309,0.145318,-0.124241,-0.0807394,0.0137329,0.0309753,0.0275421,0.00785828,0.0273895,0.120773,-0.0263977,0.0196838,-9.97986,0.0103378,0.0112152,0.185394,-0.233994,-0.031662,-0.0069809,-0.0261307,0.00404358
39,9,10.0097,-0.000610352,-0.00106812,-2.42684,0.0572069,-0.0735371,0.0547383,0.0706652,-0.0943672,0.146539,-0.123935,-0.0825704,0.019989,0.0338745,0.0289536,0.0102615,0.0234604,0.115585,-0.0231934,0.0151443,-9.97986,0.00980377,0.0181198,0.177193,-0.240479,-0.055809,-0.00240326,-0.0322723,0.00297546
40,0,10.0097,0.000915527,-0.00137329,-2.42409,0.0569017,-0.0729268,0.0544332,0.07036,-0.0900947,0.144098,-0.12363,-0.080129,0.0174713,0.0281906,0.0274277,0.0109482,0.0320053,0.107918,-0.0173569,0.0160599,-9.97986,0.0129318,0.00976563,0.1754,-0.250473,-0.0804901,0.000953674,-0.030632,0.00175476
40,1,10.0097,-0.000305176,-0.000915527,-2.42684,0.0547655,-0.0747579,0.0532125,0.0453356,-0.0949775,0.145318,-0.126072,-0.0813497,0.0187302,0.0335312,0.0313568,0.011673,0.0307846,0.0918961,-0.0110245,0.0140381,-9.97986,0.0154495,0.017395,0.176163,-0.255241,-0.10334,0.000724792,-0.0314331,0.00156403
40,2,8.69954,-0.000305176,-0.00183105,-2.42623,0.0575121,-0.0726216,0.054128,0.0450304,-0.0925361,0.145013,-0.125156,-0.0825704,0.0128174,0.0325012,0.0289917,0.0112915,0.0331497,0.0921631,0.00263214,0.0138092,-9.97986,0.0151443,0.0108337,0.165138,-0.257034,-0.124321,-0.00389099,-0.0297546,0.00408173
40,3,7.54476,-0.000305176,-0.0012207,-2.42653,0.0553758,-0.0738423,0.054128,0.0538805,-0.0934516,0.144403,-0.126377,-0.0816549,0.0109863,0.0280762,0.0301743,0.0119019,0.0319672,0.083313,0.00442505,0.0159454,-9.97986,0.0147247,0.0125504,0.167961,-0.257645,-0.150108,-0.00869751,-0.0304031,0.00270844
40,4,7.29878,0.000610352,-0.000305176,-2.42623,0.0605638,-0.0744527,0.0538228,0.0633409,-0.0928413,0.145624,-0.126072,-0.0847066,0.00873566,0.0272369,0.0284576,0.010643,0.033989,0.0626373,0.00656128,0.0120544,-9.97986,0.0122452,0.010376,0.158958,-0.254211,-0.171585,-0.0172043,-0.0346756,0.00297546
40,5,7.4822,-0.0012207,0.000457764,-2.42653,0.0550706,-0.0747579,0.0538228,0.0694445,-0.0882636,0.145013,-0.126072,-0.0825704,0.0136185,0.0297165,0.0297546,0.0115204,0.0325394,0.0592422,0.00720978,0.0179291,-9.97986,0.0127029,0.0120926,0.159302,-0.250511,-0.182419,-0.00881195,-0.0344849,0.00431061
