
Devices
1200
,,BP Load cell - Voltage,String Length - Voltage,Clutch Active - Voltage,#7 iPecs - Voltage,,,,,,,,,EMG 1-8 Left - Voltage,,,,,,,,Pylon Force - Voltage,EMG 9-16 Right - Voltage,,,,,,,,
Frame,Sub Frame,BP Load Cell,String Length,From Arduino Logic,A45,A135,A225,A315,S0,S90,S180,S270,ZSum,EMG 1 Glut Max,EMG 2 Glut Med,EMG 3 Biceps Femoris Long,EMG 4 Rectus Femoris,EMG 5 Vastus Medialis,EMG 6 Tib Ant,EMG 7 Med Gas,EMG 8 Soleus,Pylon volts,EMG 9 Glut Max,EMG 10 Glut Med,EMG 11 Biceps Femoris Long,EMG 12 Rectus Femoris,EMG 13 Vastus Medialis,EMG 14 Tib Ant,EMG 15 Med Gas,EMG 16 Soleus
,,V,V,V,V,V,V,V,V,V,V,V,V,V,V,V,V,V,V,V,V,V,V,V,V,V,V,V,V,V
1,0,10.0097,-0.000305176,0,-2.42898,0.0550706,-0.0753682,0.050771,0.0718859,-0.0952827,0.144708,-0.126377,-0.0862325,0.0133133,0.02388,0.0190353,0.0139999,0.0167465,0.0111389,0.0271606,0.0245285,-9.97986,0.0179291,-0.00358582,0.0108719,0.00808716,0.0147247,-0.0038147,0.014267,0.00915527
1,1,10.0097,0.000915527,0,-2.42714,0.0541551,-0.075063,0.0532125,0.0712755,-0.0934516,0.144708,-0.126377,-0.0850118,0.0125122,0.0218201,0.0178528,0.0152969,0.0157547,0.0115967,0.0220871,0.0275803,-9.97986,0.0211334,-0.00270844,0.0149536,0.0075531,0.0205612,-0.00652313,0.0152969,0.00915527
1,2,10.0097,0.000610352,0.000152588,-2.42684,0.055681,-0.0762837,0.0526021,0.0709703,-0.0937568,0.145013,-0.126377,-0.0844015,0.0111771,0.0213623,0.0175858,0.0108337,0.0149536,0.00991821,0.0240707,0.028801,-9.97986,0.0239182,0.00102997,0.017128,0.00598907,0.0196075,-0.00595093,0.0154114,0.0115585
1,3,10.0097,-0.00152588,0.000610352,-2.42592,0.0550706,-0.0759786,0.0529073,0.0709703,-0.0943672,0.145318,-0.125461,-0.0834859,0.0138474,0.0200653,0.019722,0.0114059,0.0188446,0.010376,0.0244904,0.0274277,-9.97986,0.0247192,-0.00331879,0.0163269,-0.000991821,0.0211716,-0.00335693,0.0141907,0.0147247
1,4,10.0097,-0.000610352,0,-2.42531,0.0569017,-0.0738423,0.0547383,0.0709703,-0.0913154,0.145624,-0.124546,-0.0822652,0.0147629,0.0225067,0.0196075,0.0115967,0.0157928,0.00965118,0.0226974,0.0251007,-9.97986,0.0210953,7.62939e-005,0.0102615,0.00686646,0.0178909,-0.000648499,0.0131989,0.0106049
1,5,10.0097,0,0.000610352,-2.42653,0.0559862,-0.073232,0.0544332,0.0718859,-0.0931465,0.146234,-0.124241,-0.0810445,0.00930786,0.0251007,0.0201416,0.0100708,0.0156021,0.0128555,0.0224686,0.0218964,-9.97986,0.0183868,-0.00492096,0.0132751,0.00537872,0.021553,-0.00499725,0.0139618,0.0131989
1,6,10.0097,0.000915527,0.000762939,-2.4244,0.0565965,-0.073232,0.0550435,0.0706652,-0.0910102,0.146539,-0.124241,-0.0810445,0.00976563,0.021553,0.0216293,0.00911713,0.0160217,0.0162888,0.019722,0.0174713,-9.97986,0.0130463,-0.00278473,0.0133133,0.00740051,0.0168228,-0.00354767,0.0137329,0.0107956
1,7,10.0097,-0.000305176,-0.00167847,-2.42745,0.0562914,-0.0759786,0.0504659,0.0175646,-0.0980293,0.144708,-0.127598,-0.0831808,0.0109482,0.0241089,0.0201416,0.0138092,0.0180435,0.0101089,0.0218582,0.0126648,-9.97986,0.00915527,0.000343323,0.0153351,0.00751495,0.0144577,-0.00370026,0.0117493,0.00679016
1,8,0.948687,0.000305176,-0.00442505,-2.42684,0.0575121,-0.0735371,0.0526021,-0.00257703,-0.0971137,0.146234,-0.129429,-0.0813497,0.00888824,0.0177383,0.0173187,0.014534,0.014534,0.0128937,0.0209427,0.0104523,-9.97986,0.0154495,-0.0019455,0.0119019,0.00736237,0.0170135,-0.00518799,0.0143814,0.00305176
1,9,-6.21318,0.000305176,-0.00396729,-2.42592,0.0569017,-0.0741475,0.0535176,-0.0144789,-0.095893,0.146539,-0.129734,-0.0819601,0.00682831,0.0208664,0.0182724,0.0069046,0.0119019,0.0104904,0.0246048,0.00530243,-9.97986,0.00797272,-0.00347137,0.0144958,0.00858307,0.0131607,-0.00576019,0.0149155,0.00564575
2,0,-9.99003,0.000610352,-0.00366211,-2.42501,0.055681,-0.0738423,0.0553487,0.0108507,-0.0934516,0.147455,-0.128513,-0.0810445,0.0094986,0.0208282,0.0184631,0.0108719,0.0185013,0.0128937,0.02285,0.0114822,-9.97986,0.0050354,-0.00476837,0.0110626,0.00328064,0.0141144,-0.00679016,0.0137329,0.00450134
2,1,-9.99003,0.000305176,-0.00152588,-2.42501,0.0559862,-0.0735371,0.0565694,0.0398424,-0.0913154,0.145318,-0.126682,-0.0816549,0.00724792,0.0254059,0.0165939,0.0109482,0.015831,0.0131607,0.0201416,0.0149536,-9.97986,0.0119781,-0.00499725,0.0132751,0.00789642,-0.00637054,-0.00255585,0.0152206,0.0050354
2,2,-9.99003,0.000915527,0.000152588,-2.42531,0.0553758,-0.0747579,0.0550435,0.0578478,-0.090705,0.145318,-0.125766,-0.0834859,0.0087738,0.0242996,0.0193787,0.0108337,0.019989,0.0123978,0.0219727,0.0144577,-9.97986,0.0151443,-0.00286102,0.0130463,0.0102997,-0.00240326,0.00102997,0.0172806,0.00389099
2,3,-9.99003,-0.000305176,-0.000457764,-2.42684,0.0559862,-0.0738423,0.0562642,0.0798204,-0.0897895,0.145624,-0.125156,-0.0816549,0.0115967,0.0251389,0.0179291,0.0126648,0.0167465,0.00751495,0.0207138,0.0136185,-9.97986,0.0135803,-7.62939e-005,0.0177002,0.00507355,0.0162506,-0.00255585,0.0146484,0.00297546
2,4,-8.3961,0.000610352,0.00274658,-2.42531,0.0547655,-0.0756734,0.0568746,0.132921,-0.0852119,0.145318,-0.121799,-0.0819601,0.00789642,0.0242615,0.019722,0.0119019,0.0178528,0.0109482,0.0235748,0.0160217,-9.97986,0.0157166,0.00102997,0.0160599,0.00812531,0.0164795,-0.00267029,0.0148392,0.00324249
2,5,-0.333662,0.0012207,0.00274658,-2.42776,0.0550706,-0.0747579,0.054128,0.146044,-0.0882636,0.143792,-0.121494,-0.0850118,0.0133514,0.0224304,0.0177002,0.0110245,0.0142288,0.0133133,0.0278091,0.0134659,-9.97986,0.0136185,-0.00343323,0.0146103,0.00305176,0.0157166,-0.00541687,0.0206375,0.00492096
2,6,7.68941,0.0012207,0.00442505,-2.42806,0.0535448,-0.0756734,0.0538228,0.153978,-0.0882636,0.143792,-0.121799,-0.0850118,0.0137329,0.0227737,0.0202179,0.0162888,0.0199509,0.0128937,0.0233841,0.0155258,-9.97986,0.017662,-0.00347137,0.0152588,0.00713348,0.0173187,-0.00347137,0.0151825,0.00682831
2,7,10.0097,0,0.00350952,-2.43111,0.0526292,-0.0765889,0.0498555,0.120104,-0.0961982,0.143792,-0.125461,-0.0889791,0.00782013,0.0229263,0.0186157,0.0150681,0.0193787,0.00980377,0.0218582,0.0168991,-9.97986,0.014801,-0.00232697,0.0115967,0.00816345,0.0169754,-0.00213623,0.0145721,0.00640869
2,8,10.0097,0.0012207,0.000610352,-2.42928,0.0532396,-0.0765889,0.0510762,0.0889757,-0.0971137,0.143487,-0.126072,-0.0880636,0.00862122,0.0221252,0.0190735,0.01297,0.0226974,0.0115585,0.0221634,0.0175095,-9.97986,0.0152969,-0.000572205,0.014534,0.00640869,0.0174332,-0.00228882,0.0182724,0.00564575
2,9,10.0097,-0.000305176,0,-2.4302,0.0526292,-0.0762837,0.0516866,0.0770738,-0.0965034,0.143792,-0.126072,-0.0883688,0.0109863,0.0267792,0.0202942,0.013504,0.0208282,0.0082016,0.0234985,0.0222397,-9.97986,0.0154114,0.000457764,0.0106812,0.00656128,0.0205612,-0.0031662,0.0192261,0.00774384
3,0,10.0097,-0.000610352,0.000152588,-2.42898,0.0544603,-0.075063,0.0522969,0.0734117,-0.0943672,0.143792,-0.127292,-0.0868429,0.0142288,0.0237656,0.0222397,0.0143433,0.0194168,0.0130463,0.0240707,0.0291443,-9.97986,0.0205231,-0.00667572,0.0111771,0.00511169,0.0169373,-0.00175476,0.0147629,0.00659943
3,1,10.0097,-0.000305176,0.000305176,-2.42714,0.0550706,-0.073232,0.0532125,0.0715807,-0.0937568,0.144708,-0.126377,-0.0856222,0.0127792,0.0214386,0.0172806,0.0128174,0.0209427,0.0130463,0.0231171,0.031929,-9.97986,0.0252914,-0.000991821,0.0166321,0.00354767,0.0192261,-0.00400543,0.0158691,0.0082016
3,2,10.0097,-0.000305176,0.000457764,-2.42653,0.0550706,-0.0747579,0.0538228,0.0706652,-0.0931465,0.144098,-0.125156,-0.0847066,0.0112534,0.0185013,0.0180817,0.0104523,0.0197983,0.00988007,0.0235748,0.0298309,-9.97986,0.0214005,-0.00236511,0.0147247,0.00743866,0.020752,-0.00148773,0.0147247,0.00854492
3,3,10.0097,0.000915527,0.000915527,-2.42745,0.0559862,-0.0747579,0.0538228,0.0709703,-0.0946723,0.145624,-0.124851,-0.0831808,0.0119781,0.0244141,0.0178146,0.0126648,0.0183487,0.00984192,0.0239944,0.0221252,-9.97986,0.0170135,-0.00221252,0.0107574,0.00823975,0.0181961,-0.00228882,0.0153351,0.00785828
3,4,10.0097,0.0012207,0.0012207,-2.42531,0.0569017,-0.0738423,0.0538228,0.07036,-0.0913154,0.146234,-0.124241,-0.0822652,0.0141525,0.0208282,0.0217056,0.0107956,0.0180817,0.0130463,0.0230789,0.025177,-9.97986,0.0217819,-0.001297,0.0141907,0.00686646,0.0185013,-0.00282288,0.0118256,0.0111771
3,5,10.0097,0.000305176,0,-2.4247,0.0562914,-0.0729268,0.0547383,0.0718859,-0.090705,0.146234,-0.124546,-0.0810445,0.0122452,0.0229645,0.0235748,0.0119781,0.0160599,0.0110626,0.0245667,0.019722,-9.97986,0.0165176,-0.00225067,0.00946045,0.00938416,0.014534,-0.0062561,0.0145721,0.0115967
3,6,10.0097,-0.000305176,0,-2.42592,0.0553758,-0.0747579,0.0544332,0.072191,-0.0928413,0.147455,-0.124241,-0.0813497,0.0110245,0.0244904,0.0194931,0.00812531,0.0162125,0.01194,0.021553,0.0170898,-9.97986,0.0125504,-0.00427246,0.0126648,0.00766754,0.014801,-0.00450134,0.0173187,0.00694275
3,7,10.0091,0,-0.00152588,-2.42684,0.0562914,-0.0744527,0.0519917,0.0172594,-0.0983344,0.145318,-0.127903,-0.0831808,0.00648499,0.0212479,0.017395,0.0104904,0.0114822,0.00991821,0.0197983,0.0103378,-9.97986,0.0110626,-0.00144958,0.0135803,0.00705719,0.017662,-0.00267029,0.0166321,0.00720978
3,8,0.825091,0.000610352,-0.00442505,-2.42592,0.0569017,-0.0729268,0.0535176,-0.00410291,-0.0971137,0.147149,-0.129429,-0.0822652,0.01194,0.0199127,0.019722,0.0160599,0.0161362,0.0104141,0.0205231,0.00854492,-9.97986,0.00720978,-0.00274658,0.0165939,0.00766754,0.018158,-0.00606537,0.0131607,0.00377655
3,9,-6.2852,0.000610352,-0.00442505,-2.42653,0.0572069,-0.0735371,0.0547383,-0.0150892,-0.0971137,0.145624,-0.129734,-0.0822652,0.010376,0.0209808,0.019722,0.0109482,0.0186157,0.00770569,0.0228882,0.0104523,-9.97986,0.00923157,-0.00358582,0.0151062,0.00926971,0.0166321,-0.00259399,0.0159073,0.00709534
4,0,-9.99003,0,-0.00259399,-2.42409,0.0569017,-0.0738423,0.0535176,0.0129869,-0.0931465,0.146234,-0.127903,-0.0816549,0.00934601,0.0255203,0.0183105,0.0106812,0.0202179,0.0108337,0.0240707,0.00354767,-9.97986,0.00881195,-0.00190735,0.0167084,0.00976563,0.0178528,-0.00209808,0.017395,0.0044632
4,1,-9.99003,0.00152588,-0.00183105,-2.42623,0.0559862,-0.0735371,0.055959,0.0395372,-0.0919257,0.146234,-0.126377,-0.0810445,0.0105667,0.0254822,0.0188446,0.0164413,0.0160599,0.00888824,0.0197601,0.0125122,-9.97986,0.00534058,-0.00396729,0.0159836,0.00938416,-0.000152588,-0.00549316,0.0148392,0.00286102
4,2,-9.99003,0.00152588,-0.000152588,-2.42501,0.0553758,-0.0741475,0.0556539,0.0563219,-0.0910102,0.145013,-0.126377,-0.0822652,0.00762939,0.0198746,0.0147247,0.0130081,0.0173569,0.00858307,0.0191498,0.0104904,-9.97986,0.0125122,-0.00423431,0.01194,0.0043869,-0.00583649,-0.00179291,0.0127029,0.00694275
4,3,-9.99003,-0.0012207,0.000152588,-2.42531,0.0553758,-0.0735371,0.0544332,0.0810411,-0.0894843,0.145318,-0.125461,-0.0825704,0.0094223,0.0257492,0.0179672,0.016861,0.0165176,0.0109482,0.0230408,0.0138092,-9.97986,0.0102615,-0.00282288,0.0113297,0.00564575,0.0132751,-0.000686646,0.0172806,0.0062561
4,4,-8.52305,0.000915527,0.00289917,-2.42592,0.0547655,-0.0741475,0.0571797,0.132616,-0.0852119,0.144708,-0.121494,-0.0822652,0.014267,0.0212479,0.0178528,0.0104523,0.0182343,0.00961304,0.0238037,0.018158,-9.97986,0.0141525,-3.8147e-005,0.0160217,0.00583649,0.0141144,-0.00160217,0.0167084,0.00415802
4,5,-0.430402,0.0012207,0.0038147,-2.42806,0.0541551,-0.0747579,0.0550435,0.147569,-0.0873481,0.143792,-0.120884,-0.0847066,0.0110245,0.024147,0.0203323,0.0106812,0.0164413,0.00888824,0.0226593,0.0167465,-9.97986,0.0136566,0.00141144,0.0165176,0.00888824,0.0149918,-0.00240326,0.0159836,0.00434875
4,6,7.54903,0,0.00473022,-2.42928,0.0529344,-0.0762837,0.0526021,0.154894,-0.0894843,0.141961,-0.121189,-0.085317,0.00804901,0.0203705,0.0159454,0.0119019,0.015831,0.00747681,0.0271988,0.0175476,-9.97986,0.0145721,0.00110626,0.0165176,0.0062561,0.0195694,-0.00152588,0.018692,0.00434875
4,7,10.0097,-0.000610352,0.0038147,-2.4305,0.0526292,-0.0765889,0.0504659,0.119493,-0.0946723,0.142572,-0.125766,-0.0889791,0.00976563,0.0193787,0.0193405,0.0126266,0.0165558,0.00892639,0.0210571,0.014267,-9.97986,0.0155258,-0.00217438,0.0172043,0.00389099,0.0205994,-0.000572205,0.018692,0.0075531
4,8,10.0097,0.000915527,0.000457764,-2.42989,0.0535448,-0.0762837,0.0513814,0.0895861,-0.0974189,0.143487,-0.126072,-0.0889791,0.0128174,0.0211334,0.0138092,0.0151825,0.0167465,0.0134277,0.0235367,0.0191879,-9.97986,0.0149536,0.00152588,0.0152206,0.00579834,0.0170135,-0.00587463,0.0173187,0.00507355
4,9,10.0097,0.000610352,0,-2.4305,0.0535448,-0.0765889,0.0513814,0.077379,-0.0968086,0.144403,-0.126072,-0.0877584,0.0112534,0.026474,0.0123978,0.0134277,0.0179291,0.0104141,0.0254822,0.0235748,-9.97986,0.018692,0.00282288,0.0175476,0.00827789,0.0197983,-0.00843048,0.0146484,0.00782013
5,0,10.0097,0.00244141,-0.000457764,-2.42837,0.0547655,-0.0759786,0.0529073,0.0731066,-0.0946723,0.142572,-0.126072,-0.0859274,0.00938416,0.0229645,0.0204849,0.00965118,0.0209808,0.012207,0.025444,0.0265503,-9.97986,0.0195313,-0.00175476,0.0167465,0.00602722,0.0178528,0.00038147,0.0177002,0.00644684
5,1,10.0097,-0.000915527,0,-2.42745,0.0559862,-0.0759786,0.0522969,0.0724962,-0.0943672,0.144708,-0.126987,-0.085317,0.0144196,0.0250244,0.0203323,0.0131989,0.0163651,0.00789642,0.0224686,0.0313187,-9.97986,0.0241852,-0.000152588,0.0136566,0.00701904,0.0190353,-0.00247955,0.0168991,0.00751495
5,2,10.0097,-0.0012207,0.000762939,-2.42745,0.0544603,-0.0762837,0.0538228,0.072191,-0.0934516,0.145318,-0.126072,-0.085317,0.0130463,0.0258636,0.0125504,0.0163269,0.019722,0.010643,0.0242615,0.0267029,-9.97986,0.0269699,0.00289917,0.0156403,0.00865936,0.0186539,-0.00198364,0.0163651,0.0108719
5,3,10.0097,-0.000305176,-0.000152588,-2.42592,0.0559862,-0.0747579,0.0544332,0.07036,-0.0937568,0.144098,-0.125766,-0.0837911,0.0138474,0.0209427,0.0222397,0.0104904,0.0185394,0.00957489,0.0217819,0.0268173,-9.97986,0.0184631,0.00240326,0.0183868,0.00816345,0.0199509,-0.000801086,0.0170898,0.0118637
5,4,10.0097,0.000610352,0.000610352,-2.42562,0.0562914,-0.0744527,0.0547383,0.0724962,-0.0925361,0.145318,-0.124851,-0.0819601,0.0103378,0.0257111,0.0190353,0.0109482,0.0203323,0.0133514,0.0235367,0.0273132,-9.97986,0.0161362,0.000190735,0.0156403,0.00453949,0.0203705,-0.00293732,0.0186539,0.0107193
5,5,10.0097,0.00183105,0.000152588,-2.42348,0.0565965,-0.0744527,0.0547383,0.0718859,-0.0922309,0.146539,-0.124241,-0.0810445,0.00770569,0.020256,0.0183487,0.0130081,0.0192261,0.010376,0.019455,0.0229645,-9.97986,0.0156021,0.00205994,0.015831,0.00602722,0.0211334,-0.00114441,0.015564,0.00873566
5,6,10.0097,0.00152588,0.000152588,-2.42501,0.0565965,-0.0738423,0.0535176,0.0715807,-0.0922309,0.146844,-0.123935,-0.0813497,0.00988007,0.0227737,0.0189972,0.0123978,0.01194,0.0118256,0.0218582,0.016098,-9.97986,0.0149155,-0.00255585,0.0112534,0.0111771,0.0157928,-0.0025177,0.0169373,0.00850677
5,7,10.0097,0.000305176,-0.00183105,-2.42745,0.0572069,-0.0753682,0.0519917,0.0181749,-0.0977241,0.145624,-0.128208,-0.0834859,0.00846863,0.0201797,0.0166702,0.00812531,0.0135803,0.00991821,0.0196838,0.0136948,-9.97986,0.0102234,-0.00221252,0.0141907,0.00255585,0.0160599,-0.00732422,0.0206375,0.00541687
5,8,1.04085,0.000610352,-0.00396729,-2.42623,0.0575121,-0.0738423,0.0526021,-0.00257703,-0.0961982,0.147149,-0.129123,-0.0825704,0.010643,0.0212097,0.0163269,0.00793457,0.0165558,0.00598907,0.0212479,0.0126266,-9.97986,0.00621796,-0.000724792,0.0146103,0.00846863,0.0157166,-0.0043869,0.0172806,0.00255585
5,9,-6.14055,0,-0.00457764,-2.42592,0.055681,-0.0741475,0.0547383,-0.0150892,-0.0968086,0.14776,-0.130649,-0.0804342,0.0112534,0.02285,0.0153351,0.0119781,0.0174332,0.00976563,0.0239563,0.00827789,-9.97986,0.00427246,-0.00205994,0.0178146,0.00827789,0.0163269,-0.00648499,0.0225067,-0.000419617
6,0,-9.99003,0,-0.00274658,-2.4244,0.055681,-0.0741475,0.0556539,0.0129869,-0.0928413,0.146234,-0.128208,-0.0816549,0.00984192,0.021019,0.0196075,0.0122452,0.016861,0.00804901,0.0227356,0.00862122,-9.97986,0.00778198,0.00225067,0.0189209,0.00595093,0.0153732,-0.00476837,0.0222015,0.000610352
6,1,-9.99003,0.0012207,-0.00167847,-2.42562,0.0559862,-0.0735371,0.0547383,0.0392321,-0.0919257,0.146234,-0.126072,-0.0816549,0.0101089,0.021286,0.0176239,0.00846863,0.0161362,0.0094223,0.0197983,0.0124359,-9.97986,0.00652313,-0.00602722,0.0188446,0.00637054,0.00419617,-0.00637054,0.0134659,0.00301361
6,2,-9.99003,0.000610352,-0.000305176,-2.42562,0.0550706,-0.0735371,0.0553487,0.0575426,-0.090705,0.145318,-0.125766,-0.0822652,0.0123215,0.0271988,0.0200653,0.00911713,0.0188828,0.00759125,0.0204468,0.0162125,-9.97986,0.00934601,-0.00102997,0.0158691,0.00469208,-0.00133514,-0.00183105,0.0185013,0.00659943
6,3,-9.99003,0.000305176,0.000305176,-2.42531,0.0550706,-0.0738423,0.055959,0.0804308,-0.0894843,0.146234,-0.124241,-0.0822652,0.0100708,0.0242615,0.0153351,0.0132751,0.0183487,0.00900269,0.0215149,0.0139236,-9.97986,0.00812531,-0.00209808,0.014534,0.00839233,0.0156403,-0.00358582,0.0157166,0.00217438
6,4,-8.52366,0.00335693,0.00244141,-2.42592,0.0544603,-0.0747579,0.0565694,0.132005,-0.0858222,0.144403,-0.122104,-0.0819601,0.0115967,0.0295639,0.0170135,0.00617981,0.0183487,0.00892639,0.0195313,0.0160217,-9.97986,0.012207,0.00106812,0.0160599,0.00305176,0.0159073,-0.00179291,0.0177002,0.00354767
6,5,-0.455122,0.000610352,0.00350952,-2.42714,0.0541551,-0.0765889,0.054128,0.148485,-0.0873481,0.145318,-0.121494,-0.085317,0.0114822,0.0206375,0.0182724,0.00991821,0.0177765,0.00850677,0.0195694,0.0155258,-9.97986,0.0168228,-0.000457764,0.0154114,0.00679016,0.0178909,-0.000953674,0.0153351,0.00728607
6,6,7.59328,0.00274658,0.00411987,-2.42898,0.0538499,-0.0747579,0.0538228,0.154588,-0.088874,0.144098,-0.121189,-0.0850118,0.00926971,0.0219727,0.0165939,0.01091,0.0167847,0.0135803,0.0245667,0.0180817,-9.97986,0.0138474,3.8147e-005,0.0147629,0.00598907,0.0163651,-0.000610352,0.0170517,0.00465393
6,7,10.0097,-0.000305176,0.00305176,-2.43142,0.0538499,-0.0765889,0.0504659,0.120409,-0.0961982,0.142877,-0.124851,-0.0880636,0.00804901,0.0239563,0.0205994,0.0143051,0.0141144,0.0106812,0.0203705,0.0183487,-9.97986,0.0177002,0.00614166,0.017128,0.00770569,0.0156403,-0.00392914,0.0174713,0.00656128
6,8,10.0097,-0.000610352,0.000610352,-2.42989,0.0538499,-0.0762837,0.0504659,0.0889757,-0.0968086,0.141961,-0.127292,-0.0886739,0.00881195,0.0268936,0.018425,0.0134277,0.0170517,0.0123978,0.0187683,0.0226212,-9.97986,0.0171661,0.00209808,0.014267,0.00953674,0.0188828,-0.00202179,0.0148773,0.0069809
6,9,10.0097,0.000305176,0,-2.4302,0.0541551,-0.0753682,0.0504659,0.0785997,-0.0965034,0.144098,-0.126377,-0.0877584,0.0123978,0.0256729,0.0199509,0.00984192,0.0155258,0.0122833,0.0226212,0.0204849,-9.97986,0.0166321,-0.00114441,0.0118637,0.00602722,0.0172806,-0.00370026,0.0146103,0.0062561
7,0,10.0097,0.00152588,-0.000152588,-2.42745,0.0526292,-0.075063,0.0529073,0.0737169,-0.0946723,0.144708,-0.126377,-0.0865377,0.0152969,0.0203705,0.019722,0.00923157,0.018959,0.00591278,0.0185394,0.0222778,-9.97986,0.0171661,0.000495911,0.0161743,0.0044632,0.0200653,-7.62939e-005,0.018692,0.0100327
7,1,10.0097,-0.000610352,-0.000610352,-2.42776,0.0544603,-0.0747579,0.0519917,0.0731066,-0.0928413,0.145318,-0.126072,-0.085317,0.0121689,0.023613,0.017395,0.00846863,0.018158,0.0133133,0.0203323,0.0332642,-9.97986,0.019455,7.62939e-005,0.0144577,0.0087738,0.0197601,-0.00156403,0.0157166,0.00869751
7,2,10.0097,-0.000305176,0.000152588,-2.42745,0.0553758,-0.075063,0.0538228,0.07036,-0.0934516,0.145013,-0.126682,-0.0844015,0.0128174,0.0262451,0.0167084,0.00774384,0.0167465,0.0131226,0.0209427,0.0283432,-9.97986,0.0228882,0.00152588,0.0177383,0.00919342,0.0220871,-0.00205994,0.0180054,0.00965118
7,3,10.0097,0,0.000152588,-2.42623,0.0559862,-0.0747579,0.0547383,0.0718859,-0.0913154,0.145624,-0.124546,-0.0840963,0.0117493,0.0229645,0.0175095,0.0123978,0.0182343,0.0115204,0.0203705,0.0249481,-9.97986,0.0206375,-0.00175476,0.0175095,0.00598907,0.0217056,-0.00205994,0.018692,0.0108337
7,4,10.0097,-0.00152588,0,-2.42684,0.055681,-0.0741475,0.054128,0.0718859,-0.0928413,0.145929,-0.125461,-0.0816549,0.0104904,0.0205994,0.0136185,0.00988007,0.0159454,0.00579834,0.0235367,0.0247192,-9.97986,0.0168228,-0.00259399,0.0134277,0.00991821,0.0204086,-0.000839233,0.0129318,0.0101852
7,5,10.0097,-0.000305176,0,-2.42287,0.0550706,-0.0735371,0.0544332,0.0715807,-0.0925361,0.146539,-0.124851,-0.0810445,0.00961304,0.0243759,0.0180435,0.0110626,0.0190353,0.00888824,0.0235367,0.0217438,-9.97986,0.0202942,-0.000495911,0.0118256,0.00976563,0.0244141,0.000610352,0.0179672,0.013504
7,6,10.0097,-0.000610352,-0.000152588,-2.42562,0.0569017,-0.073232,0.0547383,0.0709703,-0.0919257,0.145929,-0.124851,-0.0813497,0.0087738,0.0212097,0.0175476,0.00915527,0.0175476,0.0101471,0.0209427,0.0130463,-9.97986,0.0158691,-0.00328064,0.0165176,0.0063324,0.0161362,-0.00606537,0.0162888,0.00946045
7,7,10.0097,0.0012207,-0.00183105,-2.42745,0.055681,-0.0744527,0.0516866,0.014818,-0.0980293,0.145624,-0.129429,-0.0837911,0.0110626,0.0255966,0.0231552,0.00972748,0.0179672,0.0075531,0.0212479,0.0150681,-9.97986,0.00976563,-0.00366211,0.0145721,0.00579834,0.0206375,-0.00350952,0.0154877,0.00816345
7,8,0.914812,0.000305176,-0.00366211,-2.42623,0.0562914,-0.0738423,0.0538228,-0.00440808,-0.0955879,0.146844,-0.127598,-0.0819601,0.00671387,0.0239563,0.0204849,0.0105667,0.0146103,0.012207,0.0191879,0.0131607,-9.97986,0.00759125,0.000419617,0.0165558,0.00953674,0.0185394,-0.00328064,0.0153732,0.00793457
7,9,-6.25865,-0.000915527,-0.00411987,-2.42623,0.055681,-0.0729268,0.0544332,-0.0147841,-0.0955879,0.147455,-0.13126,-0.0816549,0.00793457,0.0211716,0.0200653,0.0160217,0.0155258,0.0164032,0.0170517,0.0101471,-9.97986,0.0108719,-0.00255585,0.0163651,0.0104523,0.0151443,-0.00164032,0.0151443,0.00576019
8,0,-9.99003,0.00244141,-0.00350952,-2.4244,0.0553758,-0.0744527,0.0547383,0.0123766,-0.0925361,0.147455,-0.128208,-0.0807394,0.00961304,0.0217056,0.0183868,0.0114441,0.0171661,0.00556946,0.0193405,0.00793457,-9.97986,0.00900269,-0.00286102,0.0168228,0.00728607,0.0194168,-0.00507355,0.0163269,0.00595093
8,1,-9.99003,0.000915527,-0.00198364,-2.42501,0.0550706,-0.0741475,0.0556539,0.0386217,-0.0910102,0.145929,-0.126682,-0.0825704,0.00617981,0.0247192,0.0161743,0.00812531,0.0162506,0.00831604,0.0220871,0.0137329,-9.97986,0.0105286,-0.000610352,0.0156403,0.00743866,-0.00312805,0.00110626,0.0161743,0.00335693
8,2,-9.99003,0.0012207,-0.000915527,-2.42592,0.055681,-0.0738423,0.0553487,0.0572374,-0.0913154,0.145318,-0.126377,-0.0819601,0.0100327,0.0252151,0.0183868,0.00743866,0.0154495,0.00827789,0.0185776,0.0114822,-9.97986,0.0103378,0.000991821,0.0125504,0.00583649,-0.00282288,-0.000267029,0.0182724,0.00297546
8,3,-9.99003,-0.000610352,0.000915527,-2.42592,0.0541551,-0.0756734,0.0556539,0.0795153,-0.0882636,0.146539,-0.125766,-0.0822652,0.0102997,0.0234222,0.0203705,0.0120544,0.0162888,0.014534,0.019722,0.0150681,-9.97986,0.0148773,-0.00164032,0.0165558,0.00659943,0.0165939,0.000152588,0.0125885,0.00473022
8,4,-8.60759,0.000915527,0.00228882,-2.42592,0.0547655,-0.0753682,0.0562642,0.132921,-0.0842964,0.145318,-0.121494,-0.0819601,0.0101471,0.0204468,0.0206375,0.0094986,0.0180054,0.0132751,0.0166702,0.0159454,-9.97986,0.0181961,-0.00289917,0.0131989,0.0112534,0.0160599,-0.00038147,0.0125885,0.00709534
8,5,-0.532331,-0.000305176,0.00350952,-2.42837,0.0547655,-0.0759786,0.0550435,0.147264,-0.0879585,0.144098,-0.121189,-0.0844015,0.00843048,0.0231171,0.0163651,0.0110626,0.0211334,0.013504,0.0203705,0.0161362,-9.97986,0.0137711,-0.00202179,0.0136185,0.00221252,0.0178146,-0.000915527,0.0137711,0.00614166
8,6,7.51271,0.00213623,0.00427246,-2.42898,0.0535448,-0.0759786,0.0535176,0.153368,-0.0894843,0.143792,-0.121494,-0.0859274,0.0139618,0.0294113,0.0201416,0.0126266,0.0144958,0.0110626,0.0201416,0.0209427,-9.97986,0.0161362,-0.00148773,0.014534,0.00400543,0.0161743,-0.00495911,0.0144958,0.00610352
8,7,10.0097,-0.000610352,0.00350952,-2.43111,0.0526292,-0.0759786,0.0498555,0.12163,-0.095893,0.141961,-0.125156,-0.0877584,0.0100708,0.0231552,0.0183487,0.0110245,0.0179291,0.0126648,0.022316,0.0183487,-9.97986,0.0138855,-0.00354767,0.0146866,0.00694275,0.0207138,-0.00377655,0.015831,0.00675201
8,8,10.0097,-0.015564,0.000610352,-2.4302,0.0541551,-0.0759786,0.0498555,0.0883654,-0.0974189,0.133722,-0.125461,-0.0880636,0.00617981,0.0273895,0.0187302,0.0102615,0.0141144,0.00881195,0.0198364,0.016861,-9.97986,0.0169754,-0.00415802,0.0148773,0.0104904,0.0161743,0.00171661,0.0151062,0.00801086
8,9,10.0097,-0.000305176,-0.000305176,-2.43081,0.0541551,-0.0759786,0.050771,0.0779894,-0.0955879,0.137994,-0.125766,-0.0877584,0.00774384,0.0260544,0.017395,0.0118637,0.016861,0.00896454,0.0194168,0.0195694,-9.97986,0.0164032,-0.000457764,0.0117493,0.00598907,0.0176239,-0.00171661,0.0162506,0.0121689
9,0,10.0097,-0.000610352,-0.000152588,-2.42806,0.0526292,-0.075063,0.0529073,0.0728014,-0.095893,0.142877,-0.126377,-0.0871481,0.0104904,0.0280762,0.0214767,0.0127411,0.0191116,0.0104904,0.0209045,0.0227356,-9.97986,0.0203323,-0.00339508,0.0127029,0.00843048,0.0184631,0.000610352,0.0162506,0.00518799
9,1,10.0097,0.000305176,0,-2.42806,0.0553758,-0.075063,0.0532125,0.072191,-0.0949775,0.144098,-0.126377,-0.0837911,0.0109863,0.024147,0.0229645,0.0104523,0.019722,0.00968933,0.0227356,0.0279236,-9.97986,0.0270844,-0.000114441,0.0170898,0.00846863,0.0207901,0.00148773,0.0187683,0.00968933
9,2,10.0097,0.00213623,-0.000152588,-2.42653,0.0553758,-0.0762837,0.054128,0.0712755,-0.0943672,0.144098,-0.126377,-0.0850118,0.0124741,0.0259781,0.0201416,0.0133514,0.0178146,0.0130844,0.0167465,0.0286484,-9.97986,0.0214386,-0.00106812,0.0123215,0.0019455,0.0206757,-0.00217438,0.0147629,0.01297
9,3,10.0097,0.000305176,0.000305176,-2.42623,0.0550706,-0.0759786,0.0538228,0.07036,-0.0919257,0.144708,-0.125461,-0.0844015,0.0148392,0.0248337,0.0162888,0.00988007,0.0178146,0.00801086,0.0183105,0.0297165,-9.97986,0.0222778,-0.000801086,0.0151062,0.00621796,0.0185776,-0.00209808,0.0151443,0.0143814
9,4,10.0097,-0.0012207,0.000610352,-2.42531,0.0559862,-0.0741475,0.0550435,0.0724962,-0.0910102,0.146844,-0.125766,-0.0822652,0.0143433,0.0243759,0.0216675,0.0133896,0.0231934,0.00808716,0.0234985,0.0261307,-9.97986,0.0193787,-0.00156403,0.0128555,0.00370026,0.0202942,0.00411987,0.017128,0.0123215
9,5,10.0097,0.000915527,0.000305176,-2.42562,0.0562914,-0.0735371,0.0550435,0.0709703,-0.0922309,0.147455,-0.125156,-0.0813497,0.0127411,0.0233841,0.017395,0.00923157,0.0180435,0.00839233,0.0210953,0.0227737,-9.97986,0.0193787,-0.00297546,0.0107956,0.00576019,0.0167465,-0.0012207,0.0150299,0.00617981
9,6,10.0097,0.000610352,0.000762939,-2.42531,0.0565965,-0.0735371,0.0547383,0.0709703,-0.0903999,0.145318,-0.124241,-0.0813497,0.00995636,0.0216675,0.0164032,0.00934601,0.0144958,0.0069046,0.0192261,0.0214767,-9.97986,0.017662,0.000305176,0.0151825,0.00961304,0.018425,3.8147e-005,0.0146866,0.00614166
9,7,10.0097,-0.000915527,-0.00228882,-2.42806,0.055681,-0.0735371,0.0510762,0.016649,-0.100471,0.145318,-0.129123,-0.0840963,0.00782013,0.0235748,0.0151443,0.0122452,0.017395,0.00774384,0.0209427,0.00988007,-9.97986,0.0107193,-0.00156403,0.0146866,0.00659943,0.0203705,-0.00526428,0.0151443,0.00553131
9,8,1.06343,-0.000610352,-0.00396729,-2.42653,0.0575121,-0.0741475,0.0532125,-0.00318738,-0.0961982,0.146539,-0.128513,-0.0825704,0.0102234,0.0217056,0.0138092,0.00995636,0.0148392,0.00789642,0.0272751,0.0141144,-9.97986,0.00984192,-0.000686646,0.0117111,0.00465393,0.0188065,0.00396729,0.0156021,0.0069046
9,9,-5.97636,-0.000915527,-0.00427246,-2.42501,0.0562914,-0.0726216,0.0529073,-0.0147841,-0.0965034,0.145624,-0.130039,-0.0816549,0.00919342,0.0227737,0.014534,0.0109863,0.0152588,0.00656128,0.0230026,0.00823975,-9.97986,0.0112915,0.00160217,0.0102234,0.00911713,0.0166321,-0.000534058,0.0146866,0.00679016
10,0,-9.99003,0.00244141,-0.00244141,-2.42592,0.0569017,-0.0744527,0.0544332,0.0123766,-0.0934516,0.146844,-0.128818,-0.0819601,0.00606537,0.0189209,0.0141144,0.00938416,0.0178909,0.00743866,0.0187302,0.00717163,-9.97986,0.00965118,0.000343323,0.0121689,0.00652313,0.0137711,-7.62939e-005,0.0135422,-7.62939e-005
10,1,-9.99003,0.000915527,-0.0012207,-2.42623,0.055681,-0.075063,0.0556539,0.0410631,-0.0903999,0.146234,-0.126377,-0.0810445,0.00965118,0.0174713,0.0205231,0.00961304,0.0181198,0.0144958,0.0199127,0.0117493,-9.97986,0.0104523,0.00087738,0.0146484,0.0102997,0.00488281,0.00644684,0.0165176,0.00522614
10,2,-9.99003,0.00183105,-0.0012207,-2.42562,0.0550706,-0.0738423,0.054128,0.0587633,-0.0919257,0.144708,-0.126072,-0.0816549,0.0136948,0.0255203,0.0167084,0.00972748,0.0160599,0.01091,0.0206757,0.0156403,-9.97986,0.00888824,-0.00164032,0.01194,0.00640869,0.000305176,-0.000572205,0.0148773,0.00289917
10,3,-9.99003,0,0.000457764,-2.42501,0.0547655,-0.0741475,0.0562642,0.0798204,-0.0897895,0.146234,-0.126072,-0.0816549,0.0115585,0.0195694,0.0191498,0.0147629,0.0185013,0.010643,0.0223541,0.0124359,-9.97986,0.0133896,-0.00457764,0.014801,0.00579834,0.0143051,0.00244141,0.0135422,0.00183105
10,4,-8.17271,0,0.00228882,-2.42501,0.0550706,-0.0747579,0.0568746,0.132005,-0.0864326,0.144708,-0.121799,-0.0825704,0.010643,0.0228882,0.0232315,0.00865936,0.0163269,0.0082016,0.0218201,0.0156784,-9.97986,0.0150299,-0.00358582,0.0141525,0.00801086,0.0179672,-0.00190735,0.0153351,0.00720978
10,5,-0.186872,-0.000305176,0.00366211,-2.42806,0.0535448,-0.0762837,0.054128,0.14818,-0.0870429,0.144403,-0.122104,-0.0850118,0.0122452,0.0214767,0.0196075,0.0102997,0.0177383,0.00907898,0.0226212,0.0171661,-9.97986,0.0112152,-0.00461578,0.0150299,0.00759125,0.0115204,-0.00137329,0.0180435,0.00488281
10,6,7.82491,0.0012207,0.00473022,-2.42867,0.0535448,-0.0747579,0.0535176,0.153978,-0.0885688,0.143182,-0.121799,-0.0856222,0.0154495,0.0221634,0.0196075,0.0114822,0.0212097,0.0139999,0.0228119,0.0189209,-9.97986,0.0137711,-0.00564575,0.0132751,0.00411987,0.0126648,-0.00133514,0.0153732,0.00572205
10,7,10.0097,-0.000305176,0.0038147,-2.43142,0.0526292,-0.0771993,0.0501607,0.117662,-0.0955879,0.142572,-0.125156,-0.0889791,0.0119781,0.0189972,0.0180435,0.0110245,0.0115967,0.0149918,0.022316,0.0171661,-9.97986,0.0185776,-0.00370026,0.0136185,0.00858307,0.0157928,-0.0019455,0.0112534,0.00507355
10,8,10.0097,0,0.000457764,-2.4302,0.0529344,-0.0765889,0.0495503,0.0883654,-0.0977241,0.142877,-0.126682,-0.0886739,0.00793457,0.022316,0.0208282,0.0150299,0.0160599,0.0104904,0.0191116,0.0156784,-9.97986,0.0144958,-0.000762939,0.0112534,0.00812531,0.0158691,-0.00110626,0.0146103,0.00652313
10,9,10.0097,0.000610352,-0.000610352,-2.42928,0.0532396,-0.0759786,0.0510762,0.0785997,-0.0955879,0.142877,-0.126377,-0.0874532,0.0102234,0.0245667,0.0189209,0.0122452,0.0141525,0.0125504,0.0247574,0.0164413,-9.97986,0.0163269,-0.00514984,0.0136185,0.00488281,0.0131607,-0.00377655,0.0134277,0.00370026
11,0,10.0097,-0.00183105,-0.000762939,-2.42806,0.0529344,-0.0762837,0.0513814,0.0728014,-0.0946723,0.144403,-0.125461,-0.0862325,0.0133133,0.0244522,0.019989,0.0124359,0.0164795,0.0069046,0.0226593,0.0254822,-9.97986,0.019989,-0.00167847,0.0138092,0.00431061,0.0154114,-0.00225067,0.0165176,0.00511169
11,1,10.0097,0.000610352,-0.000610352,-2.42898,0.0547655,-0.075063,0.0522969,0.0715807,-0.0931465,0.143792,-0.126072,-0.0847066,0.0117493,0.0259018,0.0225067,0.0159454,0.0213242,0.0136948,0.0218582,0.0231552,-9.97986,0.0226212,-0.000953674,0.0187302,0.00747681,0.0180817,-0.00442505,0.0164413,0.00656128
11,2,10.0097,0.000305176,-0.000305176,-2.42806,0.0547655,-0.0747579,0.0538228,0.0715807,-0.0943672,0.144708,-0.126072,-0.0850118,0.010376,0.024147,0.0194168,0.014801,0.0192261,0.0120163,0.0233459,0.0295639,-9.97986,0.0214386,-0.00324249,0.0145721,0.00762939,0.0178146,-0.00125885,0.0168228,0.00701904
11,3,10.0097,-0.000305176,0,-2.42714,0.055681,-0.0762837,0.054128,0.0709703,-0.0943672,0.145318,-0.126377,-0.0828756,0.0111008,0.0243378,0.0216675,0.00991821,0.0163651,0.00999451,0.0241852,0.0243759,-9.97986,0.0218201,-0.00148773,0.0162125,0.00732422,0.0183487,-0.0043869,0.0158691,0.0125885
11,4,10.0097,0.00152588,0.000610352,-2.42531,0.0562914,-0.0723164,0.0544332,0.0706652,-0.0913154,0.145318,-0.12363,-0.0810445,0.0094986,0.0232697,0.0175476,0.0108337,0.0182343,0.0107193,0.0211334,0.0202179,-9.97986,0.0190735,0.00240326,0.0161743,0.00736237,0.0195694,-0.000572205,0.0178909,0.0112915
11,5,10.0097,0.000610352,-0.000152588,-2.42501,0.0575121,-0.0729268,0.054128,0.0706652,-0.0916206,0.145929,-0.124546,-0.080129,0.00896454,0.0203323,0.0168991,0.00999451,0.0171661,0.0102615,0.0227356,0.018692,-9.97986,0.0179672,-0.000114441,0.01297,0.00720978,0.0205612,-0.000267029,0.0138855,0.00705719
11,6,10.0097,0.000610352,0.000762939,-2.42592,0.0581224,-0.073232,0.0553487,0.072191,-0.0910102,0.146844,-0.124546,-0.0807394,0.0114441,0.0231552,0.0209045,0.0124359,0.0191116,0.0173569,0.020752,0.0151443,-9.97986,0.0144958,-0.0018692,0.0104523,0.00637054,0.0179291,-0.000686646,0.0152969,0.00621796
11,7,10.0097,-0.000305176,-0.00213623,-2.42684,0.0553758,-0.0744527,0.050771,0.0154283,-0.0989448,0.145624,-0.128208,-0.0837911,0.0107574,0.0218201,0.0208282,0.0152588,0.0150681,0.0127411,0.023613,0.0105667,-9.97986,0.00934601,-0.00209808,0.0136948,0.00640869,0.0125885,-0.00118256,0.0191116,0.00556946
11,8,0.851946,-0.000305176,-0.00427246,-2.42531,0.0587328,-0.0735371,0.0513814,-0.00440808,-0.0977241,0.146539,-0.130039,-0.0816549,0.00469208,0.0222015,0.0195694,0.0122452,0.0149155,0.00915527,0.0241089,0.00915527,-9.97986,0.00495911,-0.00232697,0.0189209,0.00328064,0.0135422,-0.00213623,0.0181961,0.00682831
11,9,-6.27177,0.00244141,-0.00442505,-2.4247,0.0572069,-0.0744527,0.0544332,-0.0141737,-0.0965034,0.146234,-0.130039,-0.0816549,0.00812531,0.0239563,0.0178528,0.0101471,0.0170898,0.0118256,0.0193024,0.00648499,-9.97986,0.00907898,0.0018692,0.0181961,0.0019455,0.0168991,-0.00160217,0.0164413,0.00473022
12,0,-9.99003,0,-0.00350952,-2.42501,0.0572069,-0.0741475,0.0538228,0.0123766,-0.0928413,0.147149,-0.129123,-0.0810445,0.00988007,0.0228119,0.0184631,0.0117874,0.0161743,0.00743866,0.022316,0.0111389,-9.97986,0.0113297,-0.00175476,0.0174332,0.00362396,0.0141144,0.000534058,0.0146866,0.00419617
12,1,-9.99003,0.00213623,-0.00183105,-2.42837,0.0562914,-0.0738423,0.0568746,0.0401476,-0.0897895,0.146844,-0.127903,-0.0807394,0.00919342,0.0236893,0.019722,0.0131607,0.0151825,0.0075531,0.0186539,0.00869751,-9.97986,0.012207,-0.00156403,0.0161362,0.00400543,-0.00213623,-0.00385284,0.0187302,0.00366211
12,2,-9.99003,0.00213623,-0.000152588,-2.42592,0.0547655,-0.0738423,0.0553487,0.0575426,-0.0919257,0.145013,-0.125461,-0.0819601,0.0106812,0.0209808,0.0172043,0.0131607,0.0157547,0.0110245,0.0221634,0.0165176,-9.97986,0.0120926,-0.00488281,0.0163269,0.00701904,-0.00926971,0.000228882,0.0154114,0.00797272
12,3,-9.99003,0.00244141,-0.000305176,-2.42531,0.0550706,-0.0741475,0.0553487,0.0810411,-0.088874,0.146844,-0.125156,-0.0825704,0.00934601,0.0242233,0.0169754,0.0130463,0.0187302,0.0128555,0.0239944,0.0170135,-9.97986,0.0142288,-0.00411987,0.0157928,0.00679016,0.0123596,-0.00419617,0.0189972,0.00518799
12,4,-8.70036,0.00183105,0.00320435,-2.42501,0.0544603,-0.0753682,0.0571797,0.13109,-0.0849067,0.145013,-0.121799,-0.0825704,0.0102234,0.0239182,0.0199509,0.0116348,0.0191879,0.0139618,0.0262451,0.0180435,-9.97986,0.0154877,-0.0019455,0.0181961,0.00846863,0.00972748,-0.000610352,0.0196075,0.00514984
12,5,-0.647688,-0.000305176,0.0038147,-2.42745,0.0550706,-0.0747579,0.0547383,0.148485,-0.0879585,0.143182,-0.121494,-0.0847066,0.0108337,0.0245285,0.0231171,0.0118256,0.0190353,0.012207,0.0228119,0.0190735,-9.97986,0.015564,-0.00228882,0.0169754,0.00499725,0.0145721,-0.00110626,0.018158,0.00457764
12,6,7.41902,-0.00274658,0.00427246,-2.42867,0.0538499,-0.0753682,0.0535176,0.154588,-0.0894843,0.142877,-0.121799,-0.085317,0.0118637,0.02491,0.0186157,0.0104523,0.0168991,0.0108719,0.0235367,0.0168228,-9.97986,0.016098,-0.0043869,0.0159073,0.00579834,0.0135803,-0.00106812,0.0128555,0.00602722
12,7,10.0097,0.0012207,0.00411987,-2.43081,0.0523241,-0.0768941,0.0510762,0.12285,-0.0949775,0.142877,-0.124851,-0.0883688,0.0145721,0.0218964,0.0191879,0.0127029,0.0198364,0.0134659,0.0260162,0.0184631,-9.97986,0.0185394,-0.00598907,0.0158691,0.0082016,0.0183868,-0.000152588,0.0192261,0.00705719
12,8,10.0097,-0.000915527,0.00106812,-2.42989,0.0535448,-0.0762837,0.0498555,0.0905016,-0.0989448,0.142572,-0.127598,-0.0883688,0.00812531,0.0201416,0.0188065,0.00804901,0.0156021,0.00801086,0.0216293,0.0176239,-9.97986,0.0150299,-0.00770569,0.0104523,0.00324249,0.0164032,-0.0043869,0.0150299,0.00385284
12,9,10.0097,0.0012207,0.000610352,-2.4302,0.0541551,-0.0765889,0.050771,0.077379,-0.0977241,0.143487,-0.126682,-0.0880636,0.0184631,0.0342941,0.0201797,0.0188065,0.0228119,0.0131989,0.0267792,0.0273132,-9.97986,0.0171661,0.00102997,0.0153351,0.00858307,0.0209427,0.000190735,0.0210953,0.0105667
13,0,10.0097,0.000610352,-0.000610352,-2.42837,0.0544603,-0.0756734,0.050771,0.0737169,-0.0943672,0.144098,-0.126072,-0.0871481,0.0104904,0.0163651,0.017128,0.00709534,0.0134659,0.0082016,0.0141907,0.0196838,-9.97986,0.0181961,-0.0044632,0.0119019,0.00339508,0.014801,-0.00675201,0.0142288,0.00854492
13,1,10.0097,0.000610352,0.000305176,-2.42806,0.0544603,-0.0753682,0.0532125,0.072191,-0.0955879,0.144708,-0.126682,-0.0844015,0.0164795,0.0257874,0.0224686,0.01194,0.0164795,0.0119781,0.0222778,0.0301361,-9.97986,0.0239563,-0.00305176,0.0162125,0.00534058,0.0168228,-0.000267029,0.0167847,0.00537872
13,2,10.0097,0.000915527,0.000610352,-2.42745,0.0550706,-0.0759786,0.0532125,0.0718859,-0.0937568,0.144098,-0.125461,-0.0837911,0.0135803,0.0235748,0.0204468,0.0103378,0.0165176,0.00583649,0.023613,0.0289154,-9.97986,0.0239182,-0.000114441,0.0148773,0.00602722,0.0192261,-0.00228882,0.0174332,0.0101852
13,3,10.0097,0.000610352,0.000610352,-2.42714,0.0547655,-0.0747579,0.0522969,0.0712755,-0.0922309,0.145624,-0.126377,-0.0840963,0.0132751,0.0217438,0.0204086,0.00907898,0.0177383,0.0109863,0.0236511,0.0250244,-9.97986,0.022049,-0.00144958,0.0151443,0.00453949,0.0163651,-0.00217438,0.0156021,0.00621796
13,4,10.0097,0.0012207,0.000457764,-2.42501,0.0565965,-0.0747579,0.0544332,0.0706652,-0.0928413,0.146234,-0.124546,-0.0810445,0.0124741,0.0242233,0.0173569,0.0177383,0.0174332,0.00904083,0.0247955,0.0239182,-9.97986,0.0193787,-0.00267029,0.0151062,0.00572205,0.0180817,-0.00232697,0.0156021,0.0122833
13,5,10.0097,0.000305176,0,-2.42531,0.0565965,-0.073232,0.0550435,0.0706652,-0.0910102,0.146234,-0.124241,-0.0810445,0.0163651,0.0217056,0.0164413,0.0117874,0.0137329,0.0125504,0.0210571,0.0183487,-9.97986,0.0200272,-0.00759125,0.0145721,0.00831604,0.018425,-0.00267029,0.014534,0.00785828
13,6,10.0097,0.000305176,0,-2.42562,0.0569017,-0.073232,0.0547383,0.0715807,-0.090705,0.146539,-0.125156,-0.0816549,0.0138092,0.0247192,0.0215912,0.0117874,0.0191116,0.0114441,0.0223923,0.0152969,-9.97986,0.0144958,-0.000686646,0.0150681,0.00484467,0.0173569,-0.00492096,0.0188446,0.00709534
13,7,10.0097,0.000610352,-0.00152588,-2.42806,0.0553758,-0.0747579,0.0526021,0.0172594,-0.0998603,0.145013,-0.129429,-0.0831808,0.00957489,0.0216675,0.0214386,0.00858307,0.0163651,0.00728607,0.0235748,0.0117874,-9.97986,0.0133896,0.00167847,0.0166702,0.00484467,0.0150681,-0.00263214,0.0151062,0.0050354
13,8,0.8492,0.00183105,-0.00457764,-2.42531,0.0572069,-0.073232,0.0532125,-0.00257703,-0.0971137,0.146234,-0.130344,-0.0816549,0.00930786,0.021019,0.0189972,0.0116348,0.0138092,0.01091,0.0241089,0.0106812,-9.97986,0.00411987,0.000610352,0.0138855,0.00770569,0.017128,-0.00263214,0.016098,0.00259399
13,9,-6.24919,0.000610352,-0.00457764,-2.42562,0.0565965,-0.0735371,0.054128,-0.0147841,-0.0961982,0.146234,-0.129429,-0.0822652,0.0087738,0.0195694,0.0177765,0.00961304,0.014534,0.0112152,0.0214386,0.00904083,-9.97986,0.00938416,-0.00133514,0.014267,0.00926971,0.0129318,-0.00465393,0.0146484,0.00526428
14,0,-9.99003,0.000610352,-0.00396729,-2.42501,0.0569017,-0.0738423,0.0550435,0.0114611,-0.0922309,0.145929,-0.127903,-0.0807394,0.00900269,0.0231552,0.0192261,0.00793457,0.0151443,0.01091,0.0230408,0.00637054,-9.97986,0.0104141,-0.0050354,0.0163269,0.00793457,0.0144196,-0.00282288,0.0149918,0.00587463
14,1,-9.99003,0.000610352,-0.00213623,-2.42653,0.0553758,-0.0744527,0.055959,0.0401476,-0.0910102,0.146234,-0.127903,-0.0813497,0.00907898,0.0217819,0.0192261,0.0102234,0.0182724,0.0115204,0.0246811,0.0123596,-9.97986,0.00968933,-0.00202179,0.0126266,0.00778198,-0.00476837,-0.00236511,0.0142288,0.00514984
14,2,-9.99003,-0.000305176,-0.00106812,-2.42531,0.0559862,-0.0735371,0.0550435,0.0563219,-0.0900947,0.144403,-0.125156,-0.0813497,0.00808716,0.0213623,0.0244141,0.0146866,0.0139999,0.00640869,0.0207901,0.0127411,-9.97986,0.0117111,0.00125885,0.0162125,0.0044632,-0.0115585,-0.000572205,0.0146103,0.00507355
14,3,-9.99003,0.000915527,0,-2.42531,0.0559862,-0.0747579,0.0562642,0.0782946,-0.0897895,0.146844,-0.124851,-0.0828756,0.0094223,0.0230408,0.0185394,0.00747681,0.0177383,0.00843048,0.0196838,0.0188446,-9.97986,0.0139618,0.0012207,0.0155258,0.0112152,0.0117874,-0.000228882,0.0174713,0.00389099
14,4,-8.75865,-0.000305176,0.00289917,-2.42714,0.0553758,-0.0744527,0.0577901,0.1317,-0.0861274,0.145624,-0.121494,-0.0816549,0.0101471,0.0224304,0.0227737,0.0135422,0.0164795,0.00854492,0.0143433,0.0184631,-9.97986,0.011673,-0.00297546,0.0139618,0.00720978,0.0119781,-0.00152588,0.019989,0.00614166
14,5,-0.705366,-0.00183105,0.00305176,-2.42684,0.0541551,-0.075063,0.0547383,0.146654,-0.0870429,0.144098,-0.12241,-0.0840963,0.0113297,0.0207901,0.0233459,0.0143051,0.0212097,0.0126648,0.0222015,0.0168991,-9.97986,0.0164032,-0.00366211,0.0163651,0.00686646,0.0187683,-0.000190735,0.0150299,0.00347137
14,6,7.30153,0.000915527,0.00442505,-2.42745,0.0550706,-0.0756734,0.0538228,0.154588,-0.0900947,0.143182,-0.122104,-0.0856222,0.0136185,0.0230789,0.0220871,0.00778198,0.0136948,0.0144196,0.0235367,0.0188065,-9.97986,0.016098,-0.00648499,0.0111389,0.00637054,0.0159454,-0.00236511,0.0196075,0.00366211
14,7,10.0097,0,0.00366211,-2.42928,0.0520189,-0.0765889,0.0516866,0.121935,-0.0952827,0.143182,-0.124241,-0.0877584,0.0123596,0.0223923,0.0195694,0.0104904,0.0183868,0.00862122,0.0247574,0.0187683,-9.97986,0.0160217,-0.00473022,0.0161743,0.00572205,0.0171661,-0.00305176,0.0178909,0.00740051
14,8,10.0097,-0.000915527,0.0012207,-2.43111,0.0532396,-0.0768941,0.0501607,0.0895861,-0.0968086,0.142572,-0.125766,-0.0877584,0.00976563,0.0192642,0.0157928,0.00831604,0.0152969,0.00789642,0.0209427,0.0185013,-9.97986,0.017128,0.000419617,0.0157928,0.00629425,0.0148392,-0.00209808,0.0161743,0.00602722
14,9,10.0097,0.000610352,-0.000305176,-2.4302,0.0541551,-0.0756734,0.0504659,0.0785997,-0.0965034,0.144098,-0.126072,-0.0883688,0.0082016,0.0175095,0.0186539,0.0119781,0.0169754,0.00839233,0.0224686,0.0192642,-9.97986,0.0191116,-3.8147e-005,0.0109482,0.00831604,0.0163269,0.000534058,0.0185394,0.00595093
15,0,10.0097,0.00183105,0,-2.42837,0.0538499,-0.0759786,0.0526021,0.0740221,-0.0946723,0.143487,-0.126682,-0.0862325,0.00915527,0.0210953,0.0186539,0.0112915,0.0210571,0.0062561,0.0220871,0.0215149,-9.97986,0.0251389,0.000495911,0.0166321,0.00835419,0.0154114,-0.00640869,0.0159073,0.00556946
15,1,10.0097,0.0012207,0.000305176,-2.42806,0.0538499,-0.0747579,0.054128,0.0712755,-0.094062,0.144708,-0.126377,-0.0850118,0.0137329,0.0218582,0.0135422,0.0114441,0.0171661,0.0122833,0.0230026,0.0310898,-9.97986,0.0222015,0.00125885,0.0163269,0.00671387,0.0171661,-0.00213623,0.0154114,0.00576019
15,2,10.0097,-0.000610352,0.000305176,-2.42745,0.0562914,-0.0756734,0.0529073,0.0715807,-0.0931465,0.145624,-0.125156,-0.0847066,0.0125885,0.0258255,0.0203705,0.0127029,0.0156021,0.0112152,0.022049,0.0304794,-9.97986,0.025177,-0.00232697,0.0153351,0.0043869,0.0206757,-0.00377655,0.0173569,0.00835419
15,3,10.0097,0.00152588,-0.000457764,-2.42562,0.0547655,-0.0738423,0.054128,0.0712755,-0.0925361,0.144708,-0.126682,-0.0834859,0.0107574,0.0197601,0.0173569,0.00881195,0.0157547,0.00881195,0.0197601,0.0283051,-9.97986,0.0231552,0.000419617,0.0153351,0.00785828,0.0194931,-0.0038147,0.0154877,0.00980377
15,4,10.0097,0.000610352,-0.000457764,-2.4247,0.0562914,-0.0747579,0.0538228,0.0718859,-0.0919257,0.145624,-0.125156,-0.0816549,0.00972748,0.0212479,0.0230789,0.0108719,0.0209808,0.0147629,0.0202179,0.0299072,-9.97986,0.0151443,-7.62939e-005,0.0164413,0.00946045,0.0209427,-0.000839233,0.0144958,0.00667572
15,5,10.0097,0.000610352,0.000457764,-2.42409,0.0553758,-0.0744527,0.0544332,0.0712755,-0.0916206,0.14776,-0.124546,-0.0813497,0.0135803,0.0259781,0.021286,0.0146484,0.0180054,0.00686646,0.0201416,0.0235367,-9.97986,0.0157547,0.00038147,0.0175858,0.0069046,0.0178146,-0.00312805,0.0110245,0.00522614
15,6,10.0097,0.000915527,0.000305176,-2.42531,0.0559862,-0.0741475,0.0544332,0.0718859,-0.0916206,0.146234,-0.12302,-0.0816549,0.011673,0.0222778,0.0222778,0.00858307,0.015564,0.00984192,0.0256729,0.0164413,-9.97986,0.0151062,-0.00328064,0.0175476,0.00926971,0.0194168,-0.00133514,0.0167084,0.0088501
15,7,10.0097,-0.000915527,-0.00213623,-2.42714,0.0562914,-0.0753682,0.0516866,0.0163439,-0.0998603,0.146234,-0.128513,-0.0831808,0.0119019,0.0270844,0.0189972,0.0125885,0.0141144,0.0088501,0.0223923,0.0106049,-9.97986,0.0129318,0.00087738,0.0146866,0.00495911,0.017662,-0.00221252,0.0147247,0.00583649
15,8,0.792742,0.00152588,-0.00427246,-2.42501,0.0562914,-0.073232,0.0544332,-0.0028822,-0.0955879,0.146539,-0.129123,-0.0816549,0.0107193,0.0244522,0.0192261,0.0104141,0.0183868,0.00972748,0.0248718,0.013504,-9.97986,0.0101471,3.8147e-005,0.0183868,0.0094223,0.0148773,-0.00423431,0.0148392,0.00457764
15,9,-6.28184,-0.0012207,-0.00427246,-2.42562,0.0562914,-0.0741475,0.0553487,-0.0147841,-0.095893,0.148065,-0.130954,-0.0816549,0.00930786,0.0257111,0.0167084,0.0117111,0.0110626,0.0114822,0.0238037,0.0101089,-9.97986,0.0117874,0.00209808,0.0138855,0.0101089,0.0161743,-0.00709534,0.0172806,0.00362396
16,0,-9.99003,0.000915527,-0.00289917,-2.42501,0.055681,-0.0738423,0.0553487,0.0126818,-0.0925361,0.147149,-0.127598,-0.0813497,0.0124741,0.0250244,0.0194168,0.0114059,0.0132751,0.00797272,0.0200653,0.00881195,-9.97986,0.00984192,0.000801086,0.0165176,0.00617981,0.0170517,0.00312805,0.0156021,0.00392914
16,1,-9.99003,0.00152588,-0.00198364,-2.42501,0.0553758,-0.0738423,0.0553487,0.0404528,-0.0925361,0.145624,-0.126987,-0.0816549,0.00907898,0.0213242,0.0191116,0.0121689,0.0157547,0.0115204,0.0175095,0.0119781,-9.97986,0.00865936,0.0025177,0.0116348,0.00888824,-0.00144958,-0.00198364,0.0151062,0.000801086
16,2,-9.99003,0.000305176,-0.00106812,-2.42623,0.0550706,-0.0744527,0.0550435,0.0566271,-0.090705,0.146234,-0.126682,-0.0813497,0.00797272,0.0236893,0.0187683,0.0128937,0.0139618,0.00785828,0.0221252,0.0134277,-9.97986,0.0113297,0.00511169,0.0144577,0.00850677,-0.00236511,-0.00125885,0.0175858,0.00411987
16,3,-9.99003,-0.000610352,0.000457764,-2.4244,0.0562914,-0.075063,0.0553487,0.0792101,-0.0882636,0.146234,-0.125156,-0.0825704,0.00926971,0.025444,0.0182724,0.0136185,0.0120163,0.0142288,0.0228882,0.0151825,-9.97986,0.0131989,-0.000839233,0.0159454,0.00915527,0.0165176,-0.0018692,0.0153351,0.0062561
16,4,-8.81236,0,0.00244141,-2.42531,0.0550706,-0.075063,0.0562642,0.13109,-0.0849067,0.143792,-0.121494,-0.0819601,0.0128174,0.0263214,0.017128,0.011673,0.0131607,0.0111389,0.0199509,0.014534,-9.97986,0.0114441,0.000801086,0.0136948,0.00743866,0.0137329,-0.000228882,0.0161743,0.00465393
16,5,-0.702314,0.00335693,0.00320435,-2.42653,0.0541551,-0.0747579,0.0550435,0.146654,-0.0879585,0.143182,-0.122715,-0.0837911,0.00995636,0.0225449,0.0168228,0.0136566,0.0168228,0.00762939,0.0218201,0.0177383,-9.97986,0.0198364,0.00946045,0.0127792,0.00926971,0.016098,-0.00312805,0.0175095,0.00144958
16,6,7.28261,0.000915527,0.00457764,-2.42806,0.0538499,-0.0756734,0.054128,0.153673,-0.0897895,0.144098,-0.122104,-0.0865377,0.0105286,0.0214386,0.0148773,0.0114822,0.0178909,0.0124741,0.019989,0.0157166,-9.97986,0.0163651,0.00396729,0.0115204,0.00827789,0.0170135,-0.00213623,0.018959,0.00656128
16,7,10.0097,0.000305176,0.00320435,-2.43081,0.0532396,-0.0765889,0.0501607,0.123155,-0.0968086,0.142877,-0.124546,-0.0874532,0.0102234,0.0270844,0.0165176,0.0125122,0.0130844,0.0137711,0.0193787,0.0156403,-9.97986,0.0152588,0.00240326,0.0153732,0.0100708,0.0188446,-0.0019455,0.0164032,0.00785828
16,8,10.0097,0.000915527,0.000762939,-2.4302,0.0535448,-0.0765889,0.0495503,0.0892809,-0.0971137,0.142877,-0.126072,-0.0889791,0.0107574,0.0246048,0.0182724,0.00865936,0.0182724,0.0120163,0.0253677,0.0141144,-9.97986,0.0173569,-0.00175476,0.0150299,0.00873566,0.0205231,-0.000190735,0.0167084,0.00709534
16,9,10.0097,-0.000305176,0.000152588,-2.42989,0.0538499,-0.0759786,0.0513814,0.0770738,-0.0965034,0.142572,-0.126377,-0.0880636,0.0131226,0.0270462,0.0219345,0.00862122,0.0152206,0.0109482,0.0239182,0.0171661,-9.97986,0.0179291,0.00495911,0.0175476,0.00919342,0.0169754,-0.00118256,0.0151443,0.00492096
17,0,10.0097,-0.000610352,-0.000152588,-2.42837,0.0535448,-0.0756734,0.0519917,0.0737169,-0.0946723,0.145318,-0.126377,-0.0874532,0.0124741,0.0194931,0.0187683,0.00892639,0.0188828,0.00953674,0.0281143,0.0226974,-9.97986,0.0210953,0.0025177,0.016861,0.00396729,0.0146866,-7.62939e-005,0.0121307,0.00762939
17,1,10.0097,-0.0012207,-0.000152588,-2.42745,0.0541551,-0.0747579,0.054128,0.072191,-0.0931465,0.144708,-0.126682,-0.085317,0.0159073,0.0263596,0.0160217,0.0119019,0.0144196,0.0133896,0.0224686,0.0288391,-9.97986,0.0208282,0.00354767,0.0142288,0.00965118,0.0201416,-0.00423431,0.0162506,0.00995636
17,2,10.0097,0.000915527,0.000152588,-2.42776,0.0550706,-0.0741475,0.0538228,0.0718859,-0.0925361,0.145624,-0.126377,-0.0850118,0.0139236,0.0257492,0.0185394,0.0109482,0.0221252,0.00701904,0.0214005,0.0297546,-9.97986,0.025177,0.000953674,0.0152206,0.0113678,0.0218964,0.000419617,0.0148392,0.0104141
17,3,10.0097,0,0.000152588,-2.42745,0.0559862,-0.0735371,0.0544332,0.0718859,-0.0931465,0.145624,-0.126072,-0.0840963,0.0139999,0.0247192,0.0225067,0.0101471,0.018158,0.00785828,0.0180817,0.0240326,-9.97986,0.0218201,-0.00205994,0.0141525,0.0105286,0.0216675,-0.00347137,0.0190353,0.00892639
17,4,10.0097,0.000305176,0.000915527,-2.4244,0.0569017,-0.0738423,0.0538228,0.0712755,-0.0919257,0.147149,-0.125766,-0.0813497,0.0156403,0.0204086,0.016861,0.0128555,0.0164413,0.00900269,0.0215149,0.0227356,-9.97986,0.0215912,0.000419617,0.0109863,0.00595093,0.0187683,3.8147e-005,0.0152969,0.00720978
17,5,10.0097,0.00152588,0.000610352,-2.42501,0.0553758,-0.0747579,0.0556539,0.0724962,-0.0928413,0.146844,-0.124241,-0.0813497,0.0118637,0.025177,0.0148773,0.0134277,0.020256,0.0108337,0.0233078,0.0214005,-9.97986,0.0153351,-7.62939e-005,0.0126648,0.00980377,0.0189209,0.0019455,0.0178528,0.00999451
17,6,10.0097,0,-0.000152588,-2.42562,0.0562914,-0.073232,0.0547383,0.0712755,-0.0910102,0.146844,-0.125156,-0.0804342,0.00682831,0.0242996,0.0173569,0.0139618,0.0214005,0.0104904,0.0209045,0.0206375,-9.97986,0.0139236,-0.00179291,0.00846863,0.00858307,0.0202942,0.000572205,0.0154114,0.00926971
17,7,10.0097,-0.000915527,-0.00244141,-2.42837,0.0565965,-0.0744527,0.0522969,0.0178697,-0.0995551,0.146539,-0.129123,-0.0828756,0.00873566,0.0253296,0.0168228,0.00858307,0.0179672,0.01297,0.0234985,0.0110626,-9.97986,0.0109482,-0.00213623,0.0144577,0.00423431,0.0194931,-0.00175476,0.0133133,0.00484467
17,8,0.991412,0.0012207,-0.00442505,-2.42501,0.0572069,-0.073232,0.0535176,-0.00318738,-0.0965034,0.146234,-0.127598,-0.0822652,0.00785828,0.0244522,0.0144196,0.0116348,0.0164032,0.0131226,0.0201035,0.0139999,-9.97986,0.0124359,-0.00278473,0.0132751,0.00766754,0.0163651,-0.00320435,0.0135803,0.00347137
17,9,-6.13017,-0.000915527,-0.00488281,-2.42592,0.0581224,-0.073232,0.0538228,-0.0144789,-0.095893,0.147149,-0.129429,-0.0816549,0.01297,0.0249863,0.0162125,0.00923157,0.0192642,0.0119781,0.0203323,0.00812531,-9.97986,0.00907898,-0.000648499,0.0141525,0.00827789,0.0146866,-0.00255585,0.015564,0.00148773
18,0,-9.99003,0.00183105,-0.00289917,-2.4244,0.055681,-0.0741475,0.055959,0.0108507,-0.0919257,0.147149,-0.127903,-0.080129,0.011673,0.0229645,0.0158691,0.0127411,0.0187683,0.00991821,0.0210571,0.0069046,-9.97986,0.00846863,-0.000915527,0.0178528,0.00740051,0.016861,-0.00205994,0.0159073,0.00179291
18,1,-9.99003,0.000305176,-0.00213623,-2.42501,0.0559862,-0.0741475,0.0550435,0.0395372,-0.0900947,0.145624,-0.126682,-0.0816549,0.00850677,0.0192261,0.0181961,0.0131607,0.018425,0.0125504,0.0191116,0.0106812,-9.97986,0.0122452,-0.00301361,0.0149536,0.012207,0.00171661,-0.00518799,0.0133514,0.00236511
18,2,-9.99003,0.000610352,-0.000915527,-2.42592,0.0553758,-0.075063,0.0562642,0.0575426,-0.0925361,0.145624,-0.126072,-0.0819601,0.00667572,0.0203323,0.0144577,0.00854492,0.0163651,0.0100327,0.022049,0.0142288,-9.97986,0.013504,-0.001297,0.0124741,0.0088501,-0.000762939,-0.00164032,0.0134659,0.00156403
18,3,-9.99003,0.000610352,0.000915527,-2.42592,0.0547655,-0.075063,0.0556539,0.0792101,-0.0891792,0.145929,-0.125461,-0.0819601,0.00965118,0.0246048,0.0170517,0.0109482,0.0166321,0.0104141,0.0237656,0.0135803,-9.97986,0.0127411,-0.000190735,0.0146866,0.00686646,0.0160599,0.00228882,0.0130844,0.00465393
18,4,-8.57249,-0.000915527,0.00244141,-2.42562,0.0553758,-0.0753682,0.0571797,0.131395,-0.0858222,0.145013,-0.121799,-0.0810445,0.00953674,0.0235748,0.0165939,0.0122833,0.0172806,0.0117493,0.02388,0.0139236,-9.97986,0.0154495,-0.000991821,0.0159836,0.00881195,0.0114059,-0.00209808,0.0174332,0.00278473
18,5,-0.376692,0.000305176,0.00396729,-2.42745,0.0541551,-0.0753682,0.0547383,0.147569,-0.0882636,0.144708,-0.120884,-0.0844015,0.0075531,0.0199509,0.0167847,0.0121689,0.0185394,0.0156403,0.0206375,0.018425,-9.97986,0.0151825,-0.00171661,0.0148773,0.00740051,0.0149536,-0.00514984,0.0131607,0.00450134
18,6,7.6296,0.000915527,0.00473022,-2.42776,0.0541551,-0.0756734,0.0529073,0.153673,-0.0885688,0.143182,-0.121494,-0.0859274,0.0124741,0.0209045,0.0157928,0.0101471,0.0187302,0.00911713,0.0231552,0.016861,-9.97986,0.00686646,0.00282288,0.0157928,0.00610352,0.0141907,-0.0037384,0.0126648,0.00667572
18,7,10.0097,0.0012207,0.00350952,-2.43081,0.0529344,-0.0759786,0.0510762,0.120409,-0.0971137,0.143182,-0.124241,-0.0880636,0.00656128,0.0181961,0.0125504,0.01091,0.0161362,0.0141144,0.0186157,0.0162125,-9.97986,0.0107574,0.00202179,0.0154495,0.00591278,0.0138855,0.00087738,0.0148392,0.00453949
18,8,10.0097,0.000610352,0.00106812,-2.4305,0.0535448,-0.0759786,0.0504659,0.0883654,-0.0968086,0.142572,-0.126377,-0.0880636,0.00572205,0.0243378,0.0188828,0.00968933,0.0160217,0.0121307,0.0208282,0.0172806,-9.97986,0.0156784,-0.00137329,0.0144577,0.00747681,0.0142288,-0.00347137,0.0151062,0.00530243
18,9,10.0097,0.000305176,0.000152588,-2.42989,0.0547655,-0.075063,0.0519917,0.077379,-0.0955879,0.143487,-0.126987,-0.0880636,0.0161743,0.0273132,0.0146866,0.0069809,0.0188065,0.0114059,0.02388,0.0211334,-9.97986,0.0183105,-0.00213623,0.0126648,0.0075531,0.0125122,-0.00488281,0.0138092,0.00782013
19,0,10.0097,0.000915527,0.000305176,-2.42837,0.0538499,-0.075063,0.0532125,0.0740221,-0.0952827,0.145318,-0.125766,-0.0862325,0.0114441,0.0222015,0.0183487,0.00915527,0.0172043,0.00946045,0.0204086,0.0276947,-9.97986,0.0147629,0.00225067,0.0162506,0.00400543,0.0231171,-0.00404358,0.012207,0.00911713
19,1,10.0097,-0.000610352,-0.000610352,-2.42837,0.0550706,-0.0756734,0.0535176,0.0734117,-0.0931465,0.144403,-0.126072,-0.0850118,0.00934601,0.0213242,0.0177383,0.0101852,0.0208282,0.0111389,0.0230408,0.0310898,-9.97986,0.022316,-0.000495911,0.0176239,0.00648499,0.0172424,-0.00648499,0.0143433,0.00831604
19,2,10.0097,-0.000305176,-0.000305176,-2.42806,0.0541551,-0.075063,0.0532125,0.0718859,-0.0928413,0.145013,-0.126682,-0.0840963,0.013504,0.0266647,0.0185013,0.0137711,0.0230408,0.0109482,0.022049,0.0309753,-9.97986,0.0256729,-0.0056076,0.0139618,0.00148773,0.0188065,-0.00164032,0.0167084,0.0118637
19,3,10.0097,-0.00183105,0.000610352,-2.42653,0.0541551,-0.0744527,0.0532125,0.0709703,-0.0943672,0.144708,-0.126377,-0.0840963,0.0125504,0.0226974,0.0214005,0.0138092,0.0210571,0.0116348,0.0238037,0.027771,-9.97986,0.0197983,0.00228882,0.0142288,0.00358582,0.0156021,-0.00156403,0.0164032,0.00976563
19,4,10.0097,-0.000915527,0.000305176,-2.4244,0.0565965,-0.0744527,0.054128,0.0724962,-0.0919257,0.147149,-0.123935,-0.0819601,0.0106812,0.022583,0.018692,0.010376,0.0165939,0.00747681,0.020256,0.0278473,-9.97986,0.0159073,-0.000495911,0.0152588,0.00572205,0.0229263,-0.00484467,0.0180435,0.00988007
19,5,10.0097,0.000305176,-0.000610352,-2.42623,0.0565965,-0.0738423,0.0544332,0.0728014,-0.0910102,0.146539,-0.125156,-0.0813497,0.00881195,0.0206375,0.0200653,0.01091,0.018959,0.0107193,0.0206757,0.0254059,-9.97986,0.0167084,-0.00144958,0.013504,0.00671387,0.0162506,-0.00526428,0.0144577,0.0111008
19,6,10.0097,0.000305176,-0.000152588,-2.42562,0.0553758,-0.0735371,0.0538228,0.07036,-0.0903999,0.146539,-0.12363,-0.0804342,0.0113678,0.0259781,0.0215149,0.0156021,0.0216675,0.0138092,0.02491,0.0188446,-9.97986,0.0117111,0.00293732,0.015831,0.00411987,0.018425,-0.00450134,0.0155258,0.00579834
19,7,10.0097,-0.000915527,-0.00198364,-2.42745,0.0547655,-0.0744527,0.050771,0.0169542,-0.0986396,0.145318,-0.129734,-0.0837911,0.00854492,0.0236893,0.0195313,0.0109482,0.0117874,0.0125122,0.018692,0.0104141,-9.97986,0.0142288,0.00183105,0.0156403,0.0100327,0.0203323,-0.00450134,0.0187302,0.00652313
19,8,1.01369,0.000610352,-0.00427246,-2.42592,0.0559862,-0.0738423,0.0532125,-0.00410291,-0.0968086,0.146844,-0.128818,-0.0813497,0.00415802,0.0258636,0.0207138,0.0141907,0.0181961,0.0127792,0.0229645,0.00816345,-9.97986,0.00789642,-0.00137329,0.0126266,0.00675201,0.0161362,-0.00789642,0.0199127,0.00293732
19,9,-6.10423,0.000915527,-0.00427246,-2.42531,0.0572069,-0.075063,0.0526021,-0.0141737,-0.0971137,0.147455,-0.128818,-0.0816549,0.00686646,0.0208664,0.017662,0.0117111,0.016861,0.0101471,0.0233459,0.00530243,-9.97986,0.0094223,-0.0019455,0.0125885,0.00545502,0.0156784,-0.00499725,0.017395,0.00347137
20,0,-9.99003,-0.000610352,-0.00305176,-2.42562,0.0559862,-0.0747579,0.0553487,0.0135973,-0.0928413,0.147149,-0.128818,-0.0813497,0.00659943,0.023613,0.0201416,0.0151062,0.0177383,0.0133896,0.0193024,0.00713348,-9.97986,0.0100327,0.000495911,0.0114059,0.00659943,0.0156403,-0.00267029,0.0159836,0.00476837
20,1,-9.99003,0.000305176,-0.00137329,-2.42501,0.0562914,-0.0741475,0.0574849,0.0398424,-0.090705,0.145929,-0.127292,-0.0813497,0.00976563,0.0242615,0.0208282,0.0125885,0.0166702,0.0101471,0.0250626,0.011673,-9.97986,0.00831604,0.00205994,0.018692,0.00282288,0.00179291,-0.00312805,0.0162125,0.00339508
20,2,-9.99003,-0.000305176,-0.000610352,-2.42623,0.055681,-0.0744527,0.0550435,0.0572374,-0.0903999,0.146844,-0.126377,-0.0813497,0.0127029,0.0258636,0.0187302,0.0125504,0.0148392,0.00541687,0.0254822,0.0107193,-9.97986,0.0105286,0.000534058,0.0133133,0.00507355,-0.00148773,-0.00629425,0.0135803,0.00385284
20,3,-9.99003,0.0012207,0.000152588,-2.42623,0.0569017,-0.075063,0.0556539,0.0798204,-0.090705,0.145318,-0.126377,-0.0828756,0.00934601,0.0236893,0.0205994,0.0128937,0.016861,0.00995636,0.0239944,0.0162506,-9.97986,0.0122833,0.000267029,0.0156403,0.00556946,0.0134659,-0.00320435,0.020752,0.00587463
20,4,-8.52214,0.000915527,0.00228882,-2.42592,0.0547655,-0.0744527,0.0565694,0.132005,-0.0864326,0.144403,-0.121189,-0.0828756,0.0124359,0.0245667,0.0178146,0.00804901,0.0163269,0.00717163,0.0229263,0.0140381,-9.97986,0.0152969,-0.00164032,0.0131607,0.00751495,0.015831,-0.00335693,0.0152206,0.00598907
20,5,-0.385236,0.000305176,0.00396729,-2.42684,0.0541551,-0.0759786,0.0553487,0.148485,-0.0867378,0.144098,-0.121494,-0.0844015,0.0109863,0.0216675,0.0178528,0.0134277,0.0180435,0.0144958,0.0236893,0.019455,-9.97986,0.0164032,0.00209808,0.0180054,0.00358582,0.0112152,-0.000114441,0.0193024,0.00679016
20,6,7.66255,-0.0012207,0.00427246,-2.42867,0.0544603,-0.0765889,0.054128,0.153368,-0.0900947,0.143487,-0.120273,-0.0856222,0.0116348,0.0237656,0.017662,0.0105286,0.0160599,0.0100708,0.0208664,0.0165939,-9.97986,0.0183105,-0.00171661,0.0106812,0.0108337,0.0152206,-0.000991821,0.0151062,0.00518799
20,7,10.0097,0.000915527,0.00335693,-2.43142,0.0523241,-0.0768941,0.0504659,0.119188,-0.0952827,0.142572,-0.124851,-0.0886739,0.0110626,0.0195694,0.0201035,0.0146866,0.0188446,0.0126648,0.0233841,0.0201797,-9.97986,0.0146866,-3.8147e-005,0.0142288,0.00465393,0.0169373,-0.00404358,0.0139618,0.0063324
20,8,10.0097,0.000610352,0.000610352,-2.42928,0.0532396,-0.0765889,0.0492452,0.0886705,-0.0977241,0.142572,-0.125766,-0.0883688,0.0110245,0.0240707,0.0201035,0.0146866,0.0205231,0.00953674,0.0228119,0.0182343,-9.97986,0.0141525,0.00110626,0.0181198,0.00694275,0.0191498,-0.00389099,0.0186539,0.0063324
20,9,10.0097,0.000610352,0.000152588,-2.42837,0.0526292,-0.0753682,0.0519917,0.0770738,-0.0977241,0.143487,-0.127903,-0.0889791,0.0150681,0.0227356,0.0177383,0.0131607,0.0138474,0.00984192,0.0276947,0.0234222,-9.97986,0.0172424,0.000915527,0.0142288,0.00671387,0.0167465,-0.00286102,0.0162125,0.00961304
21,0,10.0097,0.000915527,0,-2.42837,0.0547655,-0.0744527,0.0535176,0.0728014,-0.0949775,0.145318,-0.126377,-0.0871481,0.0125504,0.0245285,0.0193024,0.0148773,0.0161362,0.00896454,0.0232315,0.0255966,-9.97986,0.0215149,0.000915527,0.0141525,0.00782013,0.0131989,-0.00564575,0.0161362,0.00762939
21,1,10.0097,0,0.000457764,-2.42867,0.0547655,-0.075063,0.0529073,0.072191,-0.094062,0.146844,-0.126682,-0.085317,0.0130463,0.0237274,0.0206375,0.0125885,0.0186157,0.0114441,0.0253296,0.0300598,-9.97986,0.0222015,-0.000991821,0.0151443,0.00411987,0.0169373,-0.00259399,0.0185776,0.00892639
21,2,10.0097,0.000305176,0,-2.42714,0.0547655,-0.0735371,0.0538228,0.0706652,-0.0937568,0.145929,-0.125156,-0.0847066,0.0127411,0.0201035,0.0185776,0.0141907,0.0159454,0.00926971,0.0230789,0.0296783,-9.97986,0.0214386,-0.00255585,0.0170517,0.00980377,0.017662,-0.0043869,0.0179291,0.0123215
21,3,10.0097,-0.000610352,-0.000457764,-2.42684,0.0550706,-0.075063,0.0526021,0.0728014,-0.0934516,0.146539,-0.124851,-0.0825704,0.014801,0.0222015,0.0192642,0.0114441,0.0187683,0.00915527,0.0221634,0.0247955,-9.97986,0.0253677,-0.00534058,0.0136566,0.00827789,0.0166702,-0.0056076,0.0142288,0.00793457
21,4,10.0097,0.000610352,0.000457764,-2.42501,0.0562914,-0.0741475,0.0550435,0.0715807,-0.0913154,0.146844,-0.124546,-0.0828756,0.0126648,0.0277328,0.0171661,0.012207,0.0155258,0.00865936,0.0241852,0.0225067,-9.97986,0.0195694,0.001297,0.0160599,0.00637054,0.0174713,-0.00743866,0.0146866,0.00667572
21,5,10.0097,-0.000610352,0,-2.4247,0.0565965,-0.0747579,0.0550435,0.072191,-0.0928413,0.145318,-0.12302,-0.0828756,0.0151062,0.0237274,0.0194931,0.0101089,0.0139236,0.0123978,0.0236511,0.0189209,-9.97986,0.018425,-0.00312805,0.0147629,0.00801086,0.0177383,-0.00175476,0.0135803,0.00896454
21,6,10.0097,-0.000610352,0.000305176,-2.42531,0.0575121,-0.0744527,0.0544332,0.0712755,-0.0922309,0.146539,-0.124851,-0.0813497,0.0110245,0.0266266,0.0199509,0.0137329,0.0153351,0.00961304,0.0215912,0.0192642,-9.97986,0.0154114,-0.00495911,0.0150299,0.00354767,0.017395,-0.0025177,0.0172424,0.00938416
21,7,10.0097,0.000305176,-0.00167847,-2.42867,0.0541551,-0.0744527,0.0513814,0.0169542,-0.0983344,0.145013,-0.128818,-0.0831808,0.0110626,0.0235367,0.0198364,0.0127411,0.0185394,0.00965118,0.0252533,0.0159073,-9.97986,0.00968933,-0.00102997,0.0134277,0.0102615,0.0159454,-0.00522614,0.0154495,0.00709534
21,8,0.941363,-0.0012207,-0.00411987,-2.4244,0.0562914,-0.0735371,0.0550435,-0.00318738,-0.0974189,0.145624,-0.129123,-0.0822652,0.00766754,0.026207,0.0178909,0.0134277,0.0141144,0.00595093,0.0244522,0.00652313,-9.97986,0.00980377,0.000762939,0.00892639,0.00808716,0.0137329,-0.00396729,0.0138474,0.00518799
21,9,-6.19212,0.00152588,-0.00442505,-2.42592,0.0562914,-0.0741475,0.0547383,-0.0153944,-0.095893,0.146539,-0.129734,-0.0816549,0.00534058,0.0226593,0.0209045,0.0131226,0.017395,0.0114441,0.0246429,0.0108719,-9.97986,0.00904083,-0.00286102,0.0174332,0.00415802,0.0153732,-0.0025177,0.0177765,0.00484467
22,0,-9.99003,0.000305176,-0.00305176,-2.4244,0.0553758,-0.0738423,0.0550435,0.0111559,-0.0910102,0.146234,-0.128208,-0.0810445,0.00827789,0.02491,0.0163269,0.0113297,0.0188446,0.0105286,0.0220871,0.0117493,-9.97986,0.00621796,-0.00415802,0.0114059,0.00728607,0.0146484,-0.00106812,0.0172043,0.0050354
22,1,-9.99003,0.000305176,-0.00137329,-2.42562,0.0553758,-0.0747579,0.0550435,0.0389269,-0.0919257,0.146539,-0.127292,-0.0816549,0.0123215,0.0231171,0.0169373,0.0138092,0.01091,0.0116348,0.0214767,0.01091,-9.97986,0.0107574,0.000228882,0.0182343,0.00431061,-0.00976563,-0.00473022,0.0162125,0.00457764
22,2,-9.99003,0.000915527,-0.000152588,-2.42592,0.055681,-0.0744527,0.0556539,0.0560167,-0.0910102,0.145013,-0.126987,-0.0822652,0.0111389,0.0265884,0.0188065,0.013237,0.0208664,0.00999451,0.0273895,0.0144196,-9.97986,0.0122452,-0.00377655,0.0146103,0.00892639,-0.00823975,-0.00736237,0.0158691,0.0043869
22,3,-9.99003,0.00152588,-0.000152588,-2.42562,0.0547655,-0.0744527,0.055959,0.0801256,-0.088874,0.145624,-0.124241,-0.0825704,0.011673,0.0210953,0.0165558,0.0120926,0.0139618,0.0108719,0.0261688,0.0132751,-9.97986,0.00850677,0.00137329,0.0162888,0.00728607,0.0106049,-0.0038147,0.018692,0.00476837
22,4,-8.89354,0.000610352,0.00137329,-2.42562,0.0544603,-0.0744527,0.0562642,0.130785,-0.0861274,0.144403,-0.120578,-0.0825704,0.0031662,0.0225449,0.0209427,0.0120926,0.0167465,0.0108337,0.0210953,0.0206375,-9.97986,0.0173187,-0.000648499,0.0163651,0.00324249,0.0115204,-0.00358582,0.0184631,0.00694275
22,5,-0.771589,0.000305176,0.00335693,-2.42623,0.0559862,-0.0753682,0.0550435,0.146654,-0.0885688,0.144098,-0.121189,-0.0844015,0.0104523,0.022316,0.0212097,0.0119019,0.0164413,0.00793457,0.018158,0.0141907,-9.97986,0.014534,-0.00286102,0.0118256,0.00629425,0.0178528,-0.00347137,0.0149536,0.0056839
22,6,7.1697,0.000610352,0.00427246,-2.42867,0.0538499,-0.0756734,0.0532125,0.154894,-0.0894843,0.143182,-0.120578,-0.0859274,0.0109863,0.0230408,0.0157166,0.0164795,0.0168991,0.0108337,0.0229645,0.0128174,-9.97986,0.0150299,-0.00102997,0.0133514,0.00606537,0.0148392,-0.00419617,0.017128,0.00587463
22,7,10.0097,-0.000915527,0.00350952,-2.4305,0.0541551,-0.0759786,0.0498555,0.124071,-0.0949775,0.142267,-0.124546,-0.0880636,0.00915527,0.0205994,0.0185776,0.0161362,0.0183868,0.00938416,0.020752,0.0169754,-9.97986,0.0163269,-0.00389099,0.0141144,0.00522614,0.0178146,0.00225067,0.0153351,0.00694275
22,8,10.0097,-0.00152588,0.000915527,-2.42959,0.0544603,-0.0762837,0.050771,0.0898912,-0.0968086,0.142267,-0.126682,-0.0889791,0.013504,0.0212479,0.0192261,0.0132751,0.018158,0.0131607,0.0230789,0.0181198,-9.97986,0.017128,-0.00659943,0.0124359,0.00370026,0.0152588,-0.00232697,0.0157166,0.00423431
22,9,10.0097,0.000610352,0.000457764,-2.43081,0.0529344,-0.0747579,0.0510762,0.0782946,-0.0968086,0.144098,-0.126987,-0.0880636,0.0126266,0.0217056,0.013504,0.00915527,0.0196457,0.00961304,0.0218201,0.0199127,-9.97986,0.0140381,-0.0019455,0.0174332,0.00793457,0.017395,-0.000534058,0.015831,0.0063324
23,0,10.0097,-0.000610352,0,-2.42837,0.0535448,-0.0753682,0.0529073,0.0734117,-0.0952827,0.144098,-0.127598,-0.0862325,0.0133133,0.0211334,0.019722,0.0104904,0.0164032,0.00881195,0.0241089,0.0239182,-9.97986,0.0166702,-0.00366211,0.0136185,0.00545502,0.0174332,-0.00114441,0.0144958,0.00751495
23,1,10.0097,0.000610352,-0.000305176,-2.42653,0.0541551,-0.0762837,0.0513814,0.0715807,-0.0937568,0.145318,-0.126072,-0.0859274,0.0115204,0.022049,0.0159454,0.0114059,0.0151443,0.00740051,0.0187302,0.0270844,-9.97986,0.0237274,-0.00450134,0.00968933,0.00862122,0.0149155,-0.0018692,0.0153732,0.00743866
23,2,10.0097,-0.000610352,-0.000305176,-2.42653,0.055681,-0.075063,0.0535176,0.0697496,-0.0937568,0.145013,-0.126377,-0.085317,0.0107956,0.0209045,0.0185013,0.0111771,0.0188065,0.0102615,0.0217438,0.0255203,-9.97986,0.0233078,-0.00324249,0.0144196,0.0044632,0.0193405,-0.0050354,0.0201797,0.00980377
23,3,10.0097,0,0.000457764,-2.42684,0.0541551,-0.0741475,0.0547383,0.0709703,-0.094062,0.145624,-0.125156,-0.0847066,0.0126648,0.0222778,0.0161362,0.00995636,0.0173187,0.00751495,0.0169373,0.0247574,-9.97986,0.0214386,-0.00694275,0.0164413,0.00614166,0.0170135,-0.0056076,0.0143433,0.00988007
23,4,10.0097,0.000915527,0.000305176,-2.42501,0.0569017,-0.0747579,0.0547383,0.0715807,-0.0919257,0.146234,-0.124241,-0.0822652,0.0129318,0.0242996,0.0175095,0.0123215,0.0177765,0.0103378,0.0201797,0.0281525,-9.97986,0.0200272,-0.00236511,0.0123978,0.00572205,0.0164032,-0.00236511,0.0159073,0.00587463
23,5,10.0097,-0.000610352,0.000305176,-2.42562,0.0559862,-0.0726216,0.0550435,0.0709703,-0.0919257,0.147149,-0.124241,-0.0810445,0.0104904,0.02388,0.0191879,0.0121307,0.0141525,0.0125122,0.0188065,0.017128,-9.97986,0.0208282,-0.00434875,0.011673,0.00331879,0.0164795,-0.00301361,0.0150299,0.0109863
23,6,10.0097,0.0012207,0.000457764,-2.42531,0.0559862,-0.0738423,0.054128,0.0718859,-0.0919257,0.146234,-0.124241,-0.0810445,0.00507355,0.0202942,0.0206375,0.0125885,0.0226593,0.014267,0.022583,0.0197983,-9.97986,0.0190735,-0.0063324,0.0196075,0.00766754,0.0190735,-0.000495911,0.0167847,0.00900269
23,7,9.97731,-0.000305176,-0.00244141,-2.42684,0.055681,-0.0741475,0.0532125,0.0172594,-0.0974189,0.146539,-0.127903,-0.0825704,0.00980377,0.0187683,0.0162888,0.00812531,0.0190735,0.0113297,0.0206375,0.00785828,-9.97986,0.00770569,-0.00736237,0.0157166,0.00457764,0.0163269,-0.00663757,0.0157547,0.00598907
23,8,0.788775,0.000915527,-0.00457764,-2.42623,0.0562914,-0.073232,0.0532125,-0.00501844,-0.0965034,0.146539,-0.128818,-0.0825704,0.00747681,0.0161362,0.0170135,0.0120926,0.0138474,0.010376,0.0204468,0.0120544,-9.97986,0.0104523,0.00350952,0.0131607,0.00862122,0.014534,-0.00278473,0.0153351,0.00728607
23,9,-6.34868,0,-0.00427246,-2.42592,0.0559862,-0.0738423,0.0535176,-0.0141737,-0.0955879,0.146539,-0.130344,-0.0810445,0.00972748,0.0228882,0.0215912,0.0115585,0.0200653,0.0161743,0.0226974,0.0115204,-9.97986,0.0115967,0.000534058,0.0177002,0.00801086,0.0161362,-0.00133514,0.0170517,0.00762939
24,0,-9.99003,0,-0.00335693,-2.42531,0.0559862,-0.073232,0.0565694,0.0114611,-0.0925361,0.146234,-0.128513,-0.0813497,0.00736237,0.0203705,0.0163651,0.00804901,0.010376,0.00812531,0.0173569,0.00476837,-9.97986,0.00427246,-0.00110626,0.0141907,0.00202179,0.0104141,-0.00835419,0.013504,0.00228882
24,1,-9.99003,-0.000305176,-0.00183105,-2.42592,0.0562914,-0.0741475,0.0550435,0.0395372,-0.0916206,0.145929,-0.126987,-0.0813497,0.0128555,0.024147,0.0187302,0.0167847,0.0181961,0.0123215,0.021019,0.0133896,-9.97986,0.00617981,-0.00297546,0.0165939,0.0044632,-0.00118256,-0.00583649,0.0176239,0.00312805
24,2,-9.99003,0.000305176,0,-2.42562,0.0538499,-0.0747579,0.0550435,0.0563219,-0.0925361,0.145929,-0.126682,-0.0825704,0.0120544,0.0228882,0.0173187,0.0113297,0.0150299,0.00747681,0.0176239,0.00999451,-9.97986,0.0133514,0.000839233,0.0144577,0.00473022,-0.00793457,-0.00453949,0.0159836,0.00537872
24,3,-9.99003,-0.000915527,0.000610352,-2.42531,0.0559862,-0.0747579,0.0547383,0.0795153,-0.0891792,0.144403,-0.125156,-0.0819601,0.011673,0.0241852,0.0214386,0.0136948,0.0188446,0.0088501,0.021286,0.0140762,-9.97986,0.0141525,0.00114441,0.0152588,0.0043869,0.00911713,-0.00671387,0.0172806,0.00488281
24,4,-8.90819,0.000610352,0.00244141,-2.42592,0.0553758,-0.0747579,0.0547383,0.1317,-0.0867378,0.145929,-0.122715,-0.0822652,0.0101471,0.0224686,0.0215149,0.0102615,0.0143051,0.0108719,0.0223541,0.0143051,-9.97986,0.0163269,-0.00225067,0.0162506,0.00526428,0.0129318,-0.00293732,0.016098,0.00564575
24,5,-0.771894,0.00366211,0.00427246,-2.42714,0.0538499,-0.075063,0.0553487,0.146959,-0.0879585,0.145013,-0.122715,-0.0844015,0.013237,0.0257111,0.0214386,0.0132751,0.017128,0.00896454,0.0240707,0.0167847,-9.97986,0.0132751,-0.000991821,0.0154114,0.00595093,0.0180054,-0.00537872,0.0164413,0.00495911
24,6,7.19686,-0.000610352,0.0038147,-2.42837,0.0532396,-0.0756734,0.0529073,0.153673,-0.090705,0.142877,-0.119968,-0.0847066,0.0110245,0.0257111,0.0193405,0.0133514,0.0197983,0.0172424,0.0214386,0.0154877,-9.97986,0.014534,-0.00270844,0.0104904,0.00679016,0.0174332,-0.00785828,0.0162506,0.00766754
24,7,10.0097,0,0.00427246,-2.43203,0.0541551,-0.0768941,0.0504659,0.12285,-0.0965034,0.142572,-0.123935,-0.0880636,0.0113678,0.0254822,0.0185776,0.00881195,0.0172806,0.0141144,0.0235748,0.0188828,-9.97986,0.0185013,-0.0025177,0.0131226,0.00720978,0.015831,-0.00328064,0.014534,0.00595093
24,8,10.0097,0.0012207,0.00152588,-2.42989,0.0523241,-0.0756734,0.0501607,0.0895861,-0.0971137,0.142572,-0.126072,-0.0883688,0.0118256,0.0239182,0.0192261,0.0147629,0.0197601,0.01297,0.025177,0.0178146,-9.97986,0.0142288,-0.00114441,0.00938416,0.00804901,0.0152588,-0.0037384,0.0152969,0.00469208
24,9,10.0097,0.000305176,0.000305176,-2.42959,0.0535448,-0.0768941,0.0510762,0.0776842,-0.0974189,0.143792,-0.127903,-0.0886739,0.01194,0.0246048,0.0180435,0.0124741,0.0180817,0.01297,0.022583,0.0201035,-9.97986,0.0183487,0.00152588,0.0161362,0.00595093,0.016098,-0.00297546,0.0174713,0.00354767
25,0,10.0097,0.00183105,0.000762939,-2.42837,0.0544603,-0.075063,0.0529073,0.0734117,-0.0946723,0.144098,-0.125766,-0.0868429,0.0156021,0.0237274,0.0179291,0.0114441,0.0164413,0.00770569,0.0183105,0.0236511,-9.97986,0.0199127,0.00171661,0.0135803,0.00518799,0.0150681,-0.00366211,0.014801,0.0087738
25,1,10.0097,-0.00244141,-0.000152588,-2.42837,0.0541551,-0.075063,0.0529073,0.0712755,-0.0937568,0.143792,-0.126987,-0.085317,0.0140381,0.0233459,0.0191879,0.00789642,0.0195694,0.00835419,0.0201797,0.0302124,-9.97986,0.0179291,-0.00312805,0.0138474,0.00747681,0.0179291,-0.00518799,0.0169754,0.00774384
25,2,10.0097,0.00152588,0.000610352,-2.42714,0.0559862,-0.0747579,0.0535176,0.07036,-0.0934516,0.144708,-0.125461,-0.0847066,0.0170135,0.0266647,0.025444,0.00995636,0.0205231,0.0173569,0.026207,0.0358582,-9.97986,0.026741,0.000724792,0.017128,0.0111389,0.0239563,-0.00171661,0.0208282,0.0120926
25,3,10.0097,0.000610352,0,-2.42776,0.0562914,-0.0756734,0.0535176,0.07036,-0.0931465,0.146234,-0.125461,-0.0840963,0.0082016,0.0167465,0.0182724,0.00652313,0.0148392,0.00663757,0.016861,0.0206757,-9.97986,0.0142288,-0.000610352,0.00614166,0.00614166,0.0162125,-0.00621796,0.0139236,0.00511169
25,4,10.0097,-0.000305176,0.000305176,-2.42562,0.0559862,-0.0741475,0.0538228,0.072191,-0.0925361,0.145624,-0.124546,-0.0816549,0.0145721,0.022583,0.021553,0.0125504,0.0194168,0.0126266,0.0214386,0.027504,-9.97986,0.020752,-0.000839233,0.0169373,0.0105286,0.0186157,-0.00209808,0.0170135,0.0118637
25,5,10.0097,0.00213623,0.000152588,-2.42562,0.055681,-0.0741475,0.0553487,0.0709703,-0.0922309,0.146539,-0.123325,-0.0819601,0.0144958,0.02388,0.0211716,0.0118256,0.0210953,0.0136185,0.0249863,0.0245285,-9.97986,0.0194931,0.00274658,0.017395,0.00629425,0.0194168,-0.00164032,0.0182343,0.00759125
25,6,10.0097,0,-0.000457764,-2.42379,0.0562914,-0.0735371,0.054128,0.0718859,-0.0916206,0.145624,-0.123935,-0.0810445,0.0128937,0.0225067,0.0179291,0.0123978,0.0180435,0.0111771,0.0192642,0.0185394,-9.97986,0.0147247,-0.00404358,0.0133514,0.0094223,0.0177002,7.62939e-005,0.0163269,0.0082016
25,7,10.0097,0.000610352,-0.00228882,-2.42776,0.0559862,-0.0741475,0.050771,0.0178697,-0.0995551,0.146234,-0.128208,-0.0840963,0.0100708,0.0271606,0.0214386,0.0114822,0.0188828,0.010643,0.0201035,0.00896454,-9.97986,0.00537872,0.000991821,0.0124359,0.00915527,0.0163651,-0.00514984,0.0135422,0.00450134
25,8,0.910235,0.000305176,-0.00411987,-2.42653,0.0559862,-0.0735371,0.0535176,-0.00349256,-0.095893,0.146844,-0.128513,-0.0816549,0.00953674,0.0212097,0.0225449,0.0069046,0.0186539,0.0124359,0.0212479,0.00972748,-9.97986,0.0101852,-0.00213623,0.0104523,0.00888824,0.0156021,-0.00556946,0.0151062,0.00518799
25,9,-6.24827,0.000305176,-0.00457764,-2.42592,0.0569017,-0.075063,0.0538228,-0.0153944,-0.095893,0.146844,-0.130649,-0.0816549,0.010643,0.0213623,0.020256,0.0126648,0.0154114,0.00896454,0.0201035,0.00759125,-9.97986,0.00453949,-0.00152588,0.0104904,0.00679016,0.0141525,-0.0030899,0.0136948,0.00232697
26,0,-9.99003,0.000305176,-0.00259399,-2.42623,0.055681,-0.0735371,0.0550435,0.0111559,-0.0931465,0.147149,-0.129123,-0.0807394,0.00846863,0.0222015,0.0159073,0.0109863,0.0127792,0.00953674,0.0260925,0.00938416,-9.97986,0.0136185,0.00244141,0.0148392,0.00892639,0.0132751,0.000228882,0.0127792,0.001297
26,1,-9.99003,0.00183105,-0.00183105,-2.42409,0.0550706,-0.0744527,0.0550435,0.0395372,-0.0900947,0.145624,-0.126987,-0.0816549,0.0111008,0.0236511,0.0166702,0.0112152,0.0166702,0.0108337,0.0227356,0.0108337,-9.97986,0.00679016,0.0018692,0.0113297,0.00846863,-0.00507355,-0.00301361,0.0148773,0.00278473
26,2,-9.99003,0.000305176,-0.00106812,-2.42562,0.0565965,-0.0753682,0.0553487,0.0563219,-0.090705,0.145318,-0.125156,-0.0813497,0.00926971,0.0238419,0.0164795,0.0104523,0.020752,0.0128555,0.0226212,0.0094223,-9.97986,0.0120544,-0.00110626,0.0112152,0.00576019,-0.0114441,-0.0044632,0.014801,0.00232697
26,3,-9.99003,0.000915527,0.000305176,-2.42592,0.0547655,-0.0744527,0.055959,0.0798204,-0.0894843,0.147149,-0.12302,-0.0822652,0.0102615,0.0227356,0.0193024,0.0132751,0.0177383,0.00797272,0.021019,0.0126648,-9.97986,0.0139236,-0.000228882,0.0114059,0.00514984,0.00751495,0.000495911,0.0113678,0.0019455
26,4,-8.95946,0.0012207,0.00259399,-2.42592,0.0541551,-0.0744527,0.0553487,0.13048,-0.0855171,0.144403,-0.122104,-0.0828756,0.00850677,0.0228882,0.0200653,0.0110245,0.0146484,0.0106812,0.0204086,0.0145721,-9.97986,0.0139236,-0.00160217,0.0144196,0.00896454,0.0157547,0.00255585,0.0163269,0.00495911
26,5,-0.848798,0.000915527,0.00411987,-2.42745,0.0547655,-0.0756734,0.0544332,0.146654,-0.0879585,0.143792,-0.121494,-0.0840963,0.0101471,0.02388,0.0169373,0.00644684,0.0182343,0.0111389,0.0211716,0.0174332,-9.97986,0.0148773,-0.000457764,0.0147629,0.00579834,0.0167847,0.00240326,0.0161743,0.00827789
26,6,7.15657,0.000610352,0.00488281,-2.42837,0.0529344,-0.0762837,0.0532125,0.154283,-0.0897895,0.141656,-0.121494,-0.0856222,0.0102997,0.0210571,0.0194168,0.0113297,0.0191116,0.00938416,0.0210953,0.0156021,-9.97986,0.0187683,-0.00423431,0.0171661,0.00999451,0.0142288,-0.00209808,0.0164795,0.00442505
26,7,10.0097,0,0.00457764,-2.43081,0.0532396,-0.0768941,0.050771,0.123766,-0.0965034,0.142877,-0.125461,-0.0889791,0.0111008,0.0263596,0.0139236,0.0139618,0.0190735,0.00995636,0.0229645,0.0163651,-9.97986,0.0153351,-0.00164032,0.0174713,0.00827789,0.00988007,-0.00408173,0.0206375,0.00720978
26,8,10.0097,0.0012207,0.000457764,-2.42989,0.0532396,-0.0759786,0.0498555,0.0905016,-0.0977241,0.142877,-0.125766,-0.0880636,0.0106049,0.0244904,0.020752,0.012207,0.0196457,0.0126648,0.0200653,0.0180817,-9.97986,0.0156784,-0.000152588,0.0140381,0.00278473,0.0159454,-0.00244141,0.0151825,0.00396729
26,9,10.0097,0.000915527,0,-2.42989,0.0532396,-0.0759786,0.0519917,0.077379,-0.095893,0.142877,-0.126682,-0.0874532,0.0130844,0.0227737,0.022049,0.0125122,0.022049,0.0105667,0.0191879,0.021286,-9.97986,0.0182343,0.00221252,0.0160217,0.00766754,0.0148392,0.00213623,0.0182724,0.0088501
27,0,10.0097,0.000610352,-0.000305176,-2.42928,0.0541551,-0.0768941,0.0519917,0.0734117,-0.0949775,0.143792,-0.126682,-0.0859274,0.00827789,0.0209808,0.0210571,0.0128174,0.0163651,0.0111771,0.0268555,0.0238037,-9.97986,0.0201035,-0.0043869,0.0182343,0.00518799,0.0198364,0.00171661,0.0164413,0.0087738
27,1,10.0097,0.000305176,-0.000457764,-2.42776,0.0541551,-0.0744527,0.0535176,0.0712755,-0.0943672,0.145624,-0.127292,-0.0840963,0.0147247,0.0256729,0.0236511,0.00972748,0.018959,0.00980377,0.017395,0.0265121,-9.97986,0.0267792,0.00209808,0.0126266,0.0094223,0.0207901,-0.00198364,0.0186157,0.00904083
27,2,10.0097,0.000305176,0.000152588,-2.42623,0.0547655,-0.0759786,0.0522969,0.07036,-0.0931465,0.146234,-0.125766,-0.0847066,0.0138474,0.0214005,0.0166321,0.0143433,0.017662,0.0124359,0.0243378,0.0263977,-9.97986,0.0255966,0.00183105,0.0153732,0.00782013,0.0186539,-0.00404358,0.0143051,0.0149918
27,3,10.0097,-0.000305176,0.000610352,-2.42776,0.0562914,-0.0738423,0.0538228,0.0700548,-0.0931465,0.146539,-0.126682,-0.0828756,0.0124741,0.020752,0.0189972,0.0114441,0.0200272,0.0133514,0.0215912,0.0239182,-9.97986,0.0208664,-0.00038147,0.0128174,0.00659943,0.020256,-0.00167847,0.0138092,0.00991821
27,4,10.0097,0.000305176,0.000762939,-2.42409,0.0553758,-0.0735371,0.0553487,0.0715807,-0.0922309,0.146234,-0.124241,-0.0822652,0.0105286,0.0178528,0.0226593,0.0141907,0.0154495,0.0115967,0.0223923,0.026741,-9.97986,0.0217056,0.000534058,0.0124741,0.0075531,0.0196075,-0.000419617,0.0183105,0.00804901
27,5,10.0097,-0.000305176,-0.000152588,-2.42501,0.0565965,-0.0744527,0.0553487,0.0712755,-0.0928413,0.147455,-0.124241,-0.0810445,0.00999451,0.0253296,0.0227737,0.0106812,0.0197983,0.0129318,0.0212479,0.0201797,-9.97986,0.0228119,0.000305176,0.0150681,0.00324249,0.0184631,-0.00205994,0.0195694,0.0063324
27,6,10.0097,-0.0012207,0.000457764,-2.42501,0.0569017,-0.0735371,0.0553487,0.0706652,-0.0916206,0.145929,-0.123935,-0.0813497,0.00938416,0.021286,0.0147629,0.0120926,0.0145721,0.0108337,0.019722,0.0162506,-9.97986,0.013237,-0.00255585,0.0139236,0.00480652,0.0185394,0.00125885,0.0134659,0.00717163
27,7,10.0097,-0.000610352,-0.00167847,-2.42806,0.0559862,-0.0744527,0.0513814,0.0181749,-0.0998603,0.145318,-0.128513,-0.0831808,0.0130081,0.0233841,0.0193024,0.0111389,0.0166702,0.00934601,0.0239563,0.013504,-9.97986,0.0126648,-0.00198364,0.0123978,0.00881195,0.0163269,-0.00473022,0.0172043,0.00717163
27,8,1.00453,0,-0.00488281,-2.42623,0.0550706,-0.0741475,0.0547383,-0.00410291,-0.0955879,0.146539,-0.129123,-0.0813497,0.00598907,0.0205231,0.0174713,0.0124359,0.0164032,0.00759125,0.0213242,0.00957489,-9.97986,0.0082016,-0.00389099,0.0111389,0.00701904,0.0153732,-0.00225067,0.0154495,0.00682831
27,9,-6.11674,0.000610352,-0.00473022,-2.42501,0.0565965,-0.0738423,0.0538228,-0.0153944,-0.095893,0.147455,-0.129734,-0.0816549,0.0108337,0.0229263,0.0216675,0.00968933,0.0154495,0.0112152,0.0230026,0.0121689,-9.97986,0.00671387,-0.000724792,0.0178909,0.0062561,0.011673,-0.00431061,0.0148392,0.00640869
28,0,-9.99003,0.000305176,-0.00305176,-2.42531,0.0559862,-0.073232,0.0556539,0.0111559,-0.0931465,0.147149,-0.128818,-0.0819601,0.0114441,0.0247574,0.0157547,0.0134277,0.0133896,0.0144577,0.0238419,0.0118637,-9.97986,0.0112915,-0.00148773,0.016098,0.00793457,0.0170135,-0.00152588,0.0145721,0.00610352
28,1,-9.99003,0,-0.00152588,-2.42531,0.0550706,-0.0738423,0.0565694,0.0404528,-0.0897895,0.145318,-0.126682,-0.0810445,0.00957489,0.0218582,0.0151825,0.0110626,0.0175476,0.0102997,0.0237274,0.0144958,-9.97986,0.00980377,-0.00175476,0.0180817,0.0075531,0.000190735,-0.0019455,0.0109482,0.00480652
28,2,-9.99003,0,-0.000152588,-2.42562,0.0559862,-0.0756734,0.0556539,0.0563219,-0.0891792,0.144098,-0.126682,-0.0828756,0.0107956,0.0198746,0.0203705,0.0123978,0.0118256,0.014267,0.0166702,0.0136185,-9.97986,0.00892639,-0.00274658,0.0141907,0.0105667,-0.00434875,-0.000724792,0.0140762,0.00167847
28,3,-9.99003,-0.000915527,0.000457764,-2.42653,0.0572069,-0.0744527,0.0556539,0.0789049,-0.0903999,0.145929,-0.125461,-0.0819601,0.00904083,0.017662,0.018425,0.0146103,0.0124741,0.0136185,0.0217056,0.0152588,-9.97986,0.0148773,-0.001297,0.014267,0.00583649,0.0123978,0.000267029,0.0164795,0.00370026
28,4,-8.77177,-0.000610352,0.00274658,-2.4247,0.0547655,-0.0729268,0.0574849,0.130174,-0.0833808,0.145318,-0.12241,-0.0822652,0.0129318,0.017128,0.0186539,0.00747681,0.0123596,0.00816345,0.0215149,0.0151062,-9.97986,0.0123215,-0.0038147,0.0155258,0.0056839,0.0152969,-0.00125885,0.0167847,0.00541687
28,5,-0.618696,-0.000610352,0.00335693,-2.42745,0.0532396,-0.0756734,0.054128,0.146349,-0.0879585,0.144403,-0.12302,-0.0840963,0.0138092,0.02491,0.0161743,0.0110626,0.0208664,0.0115585,0.0174332,0.0143814,-9.97986,0.0102615,-0.00450134,0.0134277,0.00686646,0.0152969,-0.000953674,0.0151443,0.00419617
28,6,7.35982,0.00183105,0.00427246,-2.42837,0.0544603,-0.0753682,0.0538228,0.153063,-0.0900947,0.143487,-0.122104,-0.0856222,0.0140762,0.0217819,0.0166702,0.0147629,0.0175858,0.0106049,0.0186539,0.0139618,-9.97986,0.0166321,-0.00198364,0.0125885,0.00167847,0.0165176,-0.00343323,0.0150681,0.00537872
28,7,10.0097,-0.000305176,0.00427246,-2.4302,0.0526292,-0.0771993,0.0504659,0.122545,-0.0946723,0.142877,-0.124546,-0.0883688,0.0131989,0.0227356,0.0198364,0.0136566,0.0208282,0.0140381,0.0235367,0.0174713,-9.97986,0.0140762,-0.000152588,0.0138092,0.00598907,0.0172043,-0.00347137,0.0145721,0.00770569
28,8,10.0097,0,0.000305176,-2.42928,0.0538499,-0.0762837,0.0492452,0.0905016,-0.0977241,0.143182,-0.126682,-0.0877584,0.00938416,0.0259018,0.0197601,0.0135803,0.0151062,0.0121689,0.0250244,0.0173569,-9.97986,0.0165176,-0.00152588,0.0180435,0.0062561,0.0144196,-0.000953674,0.0167084,0.00667572
28,9,10.0097,0.000610352,0.000457764,-2.4302,0.0538499,-0.0762837,0.0513814,0.0782946,-0.0968086,0.142877,-0.126682,-0.0874532,0.0094223,0.0154114,0.0196457,0.0113678,0.016861,0.00881195,0.0258636,0.0183868,-9.97986,0.0156403,-0.00480652,0.0110245,0.00526428,0.0169754,-0.00553131,0.0170517,0.00499725
29,0,10.0097,-0.0012207,-0.000305176,-2.42745,0.0544603,-0.0747579,0.0526021,0.0734117,-0.0943672,0.144708,-0.126987,-0.0868429,0.011673,0.0186157,0.0175476,0.0113678,0.0156021,0.0112915,0.0228119,0.0253677,-9.97986,0.0215149,-0.00160217,0.0124359,0.0101089,0.0170898,-0.00133514,0.0164032,0.0069809
29,1,10.0097,0.000610352,0.000152588,-2.42806,0.0547655,-0.0756734,0.0535176,0.0712755,-0.0943672,0.145318,-0.126987,-0.0850118,0.00682831,0.0190353,0.0205994,0.00865936,0.0186539,0.00881195,0.0261307,0.0271606,-9.97986,0.0241852,-3.8147e-005,0.0128555,0.00526428,0.0178909,-0.0030899,0.0164032,0.0116348
29,2,10.0097,0,0.000457764,-2.42714,0.0550706,-0.0744527,0.0532125,0.0709703,-0.0937568,0.144403,-0.126682,-0.0850118,0.0145721,0.0255966,0.0141525,0.0127029,0.0160599,0.0112152,0.0218201,0.0335693,-9.97986,0.0226212,-0.000419617,0.0116348,0.00289917,0.0178146,-0.00164032,0.0175476,0.0123215
29,3,10.0097,0.00152588,-0.000152588,-2.42837,0.0553758,-0.075063,0.0526021,0.0709703,-0.0934516,0.146234,-0.124546,-0.0834859,0.0117111,0.0318146,0.0190735,0.0102234,0.0209808,0.0105286,0.0230408,0.0252151,-9.97986,0.0214386,0.00038147,0.0172806,0.00965118,0.0167465,-0.00190735,0.014801,0.0119781
29,4,10.0097,0.00213623,0.000305176,-2.42531,0.0562914,-0.0744527,0.0547383,0.0718859,-0.0913154,0.145929,-0.123935,-0.0813497,0.0111389,0.0347519,0.0191498,0.0106812,0.0171661,0.0088501,0.0199127,0.0233078,-9.97986,0.0240326,-0.00175476,0.0164032,0.0056839,0.0186157,-0.00156403,0.0139236,0.00926971
29,5,10.0097,0,0,-2.42501,0.0569017,-0.0738423,0.0556539,0.0724962,-0.0934516,0.146539,-0.123935,-0.0816549,0.0139236,0.0340271,0.0152969,0.0118256,0.0191498,0.0102234,0.0220108,0.0204849,-9.97986,0.0178146,-0.00255585,0.0127029,0.00835419,0.0178909,0.000495911,0.0159454,0.00740051
29,6,10.0097,0.0012207,-0.000152588,-2.42592,0.0562914,-0.073232,0.0544332,0.0718859,-0.0900947,0.146234,-0.124241,-0.0819601,0.00812531,0.0233459,0.0157166,0.0108337,0.0137329,0.0110626,0.0244141,0.0170898,-9.97986,0.0173569,-0.00255585,0.0154495,0.00785828,0.0178528,-0.000305176,0.0135422,0.0109482
29,7,10.0097,0.00305176,-0.00152588,-2.42745,0.0562914,-0.0744527,0.0526021,0.0169542,-0.0989448,0.145013,-0.127598,-0.0834859,0.00873566,0.0210953,0.014801,0.00793457,0.0230789,0.0129318,0.0256348,0.0107574,-9.97986,0.0135422,-0.00282288,0.0146103,0.0088501,0.0163651,-0.000419617,0.01297,0.00629425
29,8,0.829363,0.000305176,-0.00457764,-2.42592,0.0562914,-0.0729268,0.054128,-0.00532361,-0.0961982,0.148065,-0.128818,-0.0819601,0.00911713,0.0287628,0.0165176,0.0128937,0.0144196,0.0127029,0.0238419,0.0102234,-9.97986,0.00774384,-0.00598907,0.0130844,0.00511169,0.0127029,-0.00682831,0.014267,0.00259399
29,9,-6.27025,0.000915527,-0.00411987,-2.4244,0.0572069,-0.0735371,0.054128,-0.0147841,-0.0968086,0.147149,-0.129429,-0.0819601,0.0129318,0.0228882,0.0196075,0.0104523,0.0160599,0.0123215,0.0251389,0.00957489,-9.97986,0.0069809,-0.00228882,0.013504,0.00656128,0.0136566,-3.8147e-005,0.0154114,0.00312805
30,0,-9.99003,0.000610352,-0.00274658,-2.4244,0.0562914,-0.0741475,0.055959,0.0102404,-0.0925361,0.146539,-0.128818,-0.0813497,0.00968933,0.0271606,0.0182724,0.00991821,0.0167465,0.00812531,0.0212479,0.00789642,-9.97986,0.0107956,-0.0031662,0.0155258,0.00667572,0.0159073,-0.00366211,0.0130081,0.00476837
30,1,-9.99003,0.000610352,-0.00183105,-2.4244,0.0572069,-0.0735371,0.0571797,0.0401476,-0.0900947,0.145318,-0.126682,-0.0798238,0.00995636,0.0226593,0.0173569,0.00892639,0.0183868,0.0117111,0.0247574,0.0146103,-9.97986,0.00854492,-0.00156403,0.0141907,0.00766754,-0.00419617,-0.00396729,0.0147247,0.00118256
30,2,-9.99003,0.000305176,-0.000305176,-2.42501,0.0553758,-0.0756734,0.0538228,0.0563219,-0.0910102,0.145624,-0.126072,-0.0825704,0.014801,0.0233841,0.0172043,0.0126648,0.017662,0.0120926,0.0261688,0.0114059,-9.97986,0.00995636,0.000572205,0.0106812,0.00732422,-0.0141144,-0.00305176,0.015831,0.00602722
30,3,-9.99003,-0.000305176,0.000152588,-2.42592,0.0547655,-0.0729268,0.0556539,0.0779894,-0.0897895,0.146234,-0.125461,-0.0825704,0.00953674,0.02491,0.0201035,0.00576019,0.0202942,0.00911713,0.0256348,0.01194,-9.97986,0.00926971,-0.00358582,0.0156784,0.00473022,0.0117874,-0.000839233,0.0179672,0.00495911
30,4,-9.0623,0.00183105,0.00289917,-2.42531,0.0541551,-0.0747579,0.0568746,0.130785,-0.0849067,0.145929,-0.121494,-0.0825704,0.00808716,0.0223923,0.0162888,0.00865936,0.0162506,0.00846863,0.0247955,0.0169373,-9.97986,0.0165558,-0.00370026,0.0113678,0.0108719,0.0170135,-0.00217438,0.017395,0.00335693
30,5,-0.951643,0.000915527,0.0038147,-2.42806,0.0541551,-0.075063,0.055959,0.143297,-0.0873481,0.145624,-0.121189,-0.0840963,0.00972748,0.0203705,0.0232697,0.0133514,0.0141525,0.0131989,0.0220871,0.0167847,-9.97986,0.0144958,-0.00305176,0.0153732,0.00713348,0.0150299,-0.0018692,0.0148773,0.00289917
30,6,6.9518,0.000305176,0.00427246,-2.42745,0.0541551,-0.0756734,0.054128,0.153978,-0.0894843,0.143182,-0.122104,-0.0859274,0.0125504,0.02285,0.017395,0.0122833,0.0185776,0.0134277,0.0226593,0.0152969,-9.97986,0.0105667,-0.00358582,0.0111008,0.00724792,0.0195694,-0.00602722,0.0170517,0.00495911
30,7,10.0097,-0.000610352,0.00427246,-2.4305,0.0520189,-0.0775044,0.0492452,0.124681,-0.0955879,0.142572,-0.123935,-0.0877584,0.0148773,0.0239182,0.0215149,0.0108337,0.0161362,0.00984192,0.0219727,0.0180435,-9.97986,0.0164795,-0.00457764,0.0127029,0.00469208,0.0138855,-0.00202179,0.0164795,0.00717163
30,8,10.0097,0.000610352,0.00137329,-2.42989,0.0532396,-0.0762837,0.0498555,0.0911119,-0.0968086,0.143792,-0.127598,-0.0886739,0.0118637,0.0245667,0.0143433,0.0136566,0.0200272,0.0113678,0.0253677,0.0190735,-9.97986,0.0170898,-0.00293732,0.0152969,0.00255585,0.0188065,0.00152588,0.0179291,0.00606537
30,9,10.0097,0.00152588,0.000457764,-2.42989,0.0535448,-0.0759786,0.0519917,0.0782946,-0.0974189,0.143182,-0.126987,-0.0880636,0.0121307,0.0244904,0.0173569,0.0112152,0.0150681,0.00934601,0.0241852,0.0210571,-9.97986,0.0167084,-0.00244141,0.0160599,0.00957489,0.0156021,-0.000228882,0.0165939,0.00354767
31,0,10.0097,0.00152588,-0.000762939,-2.42806,0.0547655,-0.0747579,0.0522969,0.0740221,-0.0946723,0.144403,-0.127292,-0.0868429,0.0130844,0.0204468,0.0177765,0.0114059,0.0173187,0.00827789,0.0259018,0.0254059,-9.97986,0.018692,-0.0018692,0.0128937,0.00709534,0.013237,-0.00442505,0.0149918,0.00816345
31,1,10.0097,0.00152588,0,-2.42837,0.0547655,-0.075063,0.0522969,0.0718859,-0.0949775,0.144708,-0.127903,-0.0856222,0.00961304,0.0234222,0.0203323,0.0111771,0.0162506,0.00854492,0.0226974,0.0235367,-9.97986,0.0193405,-0.00404358,0.0136948,0.0056839,0.0178528,-0.00377655,0.0171661,0.00530243
31,2,10.0097,0.00213623,0.000610352,-2.42776,0.055681,-0.0753682,0.054128,0.0718859,-0.0934516,0.144098,-0.125766,-0.0859274,0.0158691,0.0198746,0.0200653,0.0088501,0.0160217,0.010643,0.02388,0.0300217,-9.97986,0.021553,-0.00305176,0.0180054,0.00205994,0.0185394,-0.00530243,0.018959,0.0108719
31,3,10.0097,-0.000305176,-0.000305176,-2.42623,0.0550706,-0.0744527,0.054128,0.0700548,-0.0919257,0.143182,-0.125766,-0.0837911,0.0102615,0.0221634,0.0165939,0.0114822,0.0158691,0.00740051,0.0232697,0.0318146,-9.97986,0.0193787,-0.000228882,0.0129318,0.00434875,0.015564,-0.00202179,0.0156403,0.00812531
31,4,10.0097,-0.000915527,0.000762939,-2.42562,0.0569017,-0.0738423,0.0538228,0.0709703,-0.0913154,0.146844,-0.125156,-0.0810445,0.010643,0.0243378,0.0153732,0.0119781,0.016861,0.0133133,0.0266266,0.0214767,-9.97986,0.0170898,0.000228882,0.0102997,0.00476837,0.0208664,-0.000534058,0.017662,0.00869751
31,5,10.0097,0.000915527,0.000152588,-2.42531,0.0569017,-0.0738423,0.0547383,0.072191,-0.0925361,0.145318,-0.12363,-0.0813497,0.0122452,0.0305557,0.0188065,0.0156403,0.019722,0.0115585,0.0268936,0.0248337,-9.97986,0.0151443,0.000305176,0.0149155,0.00442505,0.0123215,-0.00255585,0.0165558,0.00804901
31,6,10.0097,-0.0012207,-0.000152588,-2.42501,0.0569017,-0.0738423,0.054128,0.0724962,-0.0913154,0.145624,-0.12363,-0.0813497,0.0056839,0.0231171,0.0171661,0.00934601,0.0144577,0.00984192,0.0241089,0.0141144,-9.97986,0.0160599,-0.001297,0.0156784,0.00358582,0.0152588,-0.00164032,0.0191498,0.00957489
31,7,10.0097,0.00183105,-0.00137329,-2.42714,0.0553758,-0.073232,0.0519917,0.0175646,-0.0974189,0.145929,-0.129123,-0.0837911,0.00938416,0.0273514,0.0156403,0.0138855,0.0167847,0.0125122,0.0276184,0.0146866,-9.97986,0.0124741,0.00328064,0.0144577,0.00541687,0.0143814,-0.00606537,0.0131989,0.00465393
31,8,0.880022,0.0012207,-0.00411987,-2.42653,0.0572069,-0.0738423,0.0538228,-0.00410291,-0.0974189,0.146234,-0.128208,-0.0822652,0.0094986,0.0238419,0.0169754,0.0100708,0.0152588,0.0118256,0.0239944,0.00663757,-9.97986,0.00694275,0.0019455,0.014534,0.00854492,0.0123215,-0.00282288,0.0159454,0.00144958
31,9,-6.21928,0.000610352,-0.00411987,-2.4247,0.0575121,-0.0738423,0.054128,-0.0138685,-0.0971137,0.146844,-0.130039,-0.0819601,0.0104904,0.0240326,0.0209427,0.0104141,0.0139618,0.0101471,0.0267792,0.00934601,-9.97986,0.00896454,0.000686646,0.0164413,0.00953674,0.014801,-0.00431061,0.0163269,0.00282288
32,0,-9.99003,0.00152588,-0.00320435,-2.4247,0.0562914,-0.075063,0.0556539,0.0117662,-0.0934516,0.146539,-0.127903,-0.0810445,0.0111389,0.0232315,0.0144196,0.00888824,0.0144577,0.00865936,0.0212097,0.0110626,-9.97986,0.00926971,0.000572205,0.0177002,0.00411987,0.0126266,-0.00190735,0.0160217,0.00556946
32,1,-9.99003,0.00152588,-0.00183105,-2.4247,0.0559862,-0.0741475,0.0562642,0.0395372,-0.090705,0.146234,-0.127903,-0.0810445,0.0110245,0.0236511,0.0188828,0.0141525,0.014267,0.00705719,0.0275803,0.0114822,-9.97986,0.0094986,0.00102997,0.0120926,0.00728607,-0.00556946,-0.00297546,0.0168228,0.00556946
32,2,-9.99003,0,-0.0012207,-2.42501,0.0559862,-0.0744527,0.0547383,0.0572374,-0.090705,0.146234,-0.126072,-0.0822652,0.0102234,0.0257111,0.0182343,0.0137711,0.0112915,0.0100708,0.0237274,0.00804901,-9.97986,0.0109482,0.00270844,0.0137711,0.00686646,-0.00553131,-0.00320435,0.0173569,0.00492096
32,3,-9.99003,0.00152588,0.000762939,-2.42653,0.055681,-0.0744527,0.0544332,0.0779894,-0.0900947,0.144708,-0.124851,-0.0816549,0.0114822,0.0247574,0.0167084,0.0094223,0.0141525,0.00682831,0.0224304,0.0142288,-9.97986,0.014267,0.00217438,0.015831,0.0088501,0.00923157,-0.0031662,0.0165939,0.00682831
32,4,-8.95732,0.000610352,0.00228882,-2.42653,0.0547655,-0.0744527,0.0571797,0.13048,-0.0852119,0.145624,-0.121494,-0.0831808,0.0101852,0.0257111,0.0187683,0.00793457,0.0152969,0.0106812,0.0236511,0.0170898,-9.97986,0.0157547,-0.00125885,0.0130463,0.0056076,0.014267,-0.00587463,0.0149536,0.00511169
32,5,-0.701399,0.000610352,0.00396729,-2.42806,0.0544603,-0.0753682,0.0547383,0.142687,-0.0882636,0.142877,-0.121799,-0.0847066,0.00965118,0.0261307,0.0170135,0.0104904,0.0136185,0.0133133,0.0213242,0.0207901,-9.97986,0.0148392,3.8147e-005,0.0111389,0.00782013,0.0147629,-0.00480652,0.020752,0.00732422
32,6,7.11537,0.000610352,0.00396729,-2.42837,0.0541551,-0.0756734,0.0532125,0.154283,-0.0903999,0.143487,-0.120884,-0.0865377,0.0132751,0.0306702,0.0205231,0.0128937,0.0162506,0.00995636,0.0212097,0.0143051,-9.97986,0.0167465,0.00305176,0.0104904,0.0101471,0.00923157,-0.00347137,0.0163651,0.00328064
32,7,10.0097,0.000610352,0.00411987,-2.43111,0.0535448,-0.0768941,0.0498555,0.124681,-0.095893,0.141961,-0.124851,-0.0883688,0.00930786,0.0289917,0.0182343,0.010643,0.0157547,0.00911713,0.0197601,0.0146484,-9.97986,0.0121689,0.000991821,0.0130844,0.0044632,0.0177383,0.000267029,0.0136948,0.00293732
32,8,10.0097,-0.000915527,0.00106812,-2.4305,0.0520189,-0.0756734,0.0504659,0.0895861,-0.0968086,0.142572,-0.126072,-0.0880636,0.01091,0.0276947,0.0178528,0.0175476,0.0162506,0.0120544,0.0183105,0.0197601,-9.97986,0.0156784,-0.00480652,0.0148773,0.00774384,0.0175858,-0.00217438,0.0182343,0.00541687
32,9,10.0097,-0.000610352,-0.000305176,-2.42989,0.0541551,-0.0765889,0.050771,0.0779894,-0.0961982,0.143182,-0.126377,-0.0874532,0.0106049,0.0311279,0.0203705,0.0140762,0.0193405,0.0105667,0.0260544,0.0193405,-9.97986,0.0186157,0.00232697,0.0113297,0.00976563,0.0159073,-0.00564575,0.0197601,0.00827789
33,0,10.0097,-0.000305176,0.000457764,-2.42867,0.0535448,-0.0753682,0.0526021,0.0731066,-0.0946723,0.144098,-0.126682,-0.0871481,0.0123596,0.0287628,0.0208664,0.0129318,0.0139236,0.0133514,0.0218964,0.0261307,-9.97986,0.015831,-0.00301361,0.0117111,0.00839233,0.0170517,-0.0050354,0.0185013,0.00782013
33,1,10.0097,-0.000305176,-0.000915527,-2.42837,0.0550706,-0.075063,0.0538228,0.0718859,-0.0946723,0.144098,-0.126377,-0.0847066,0.0122833,0.0308228,0.0199509,0.0147247,0.0168991,0.0107193,0.0208664,0.0297165,-9.97986,0.0215149,-0.00473022,0.0121689,0.0094223,0.0161743,-0.00473022,0.0168991,0.00869751
33,2,10.0097,0.00183105,0,-2.42684,0.0547655,-0.0753682,0.0532125,0.07036,-0.0934516,0.145013,-0.126682,-0.0837911,0.01194,0.0265884,0.0209427,0.00896454,0.0196457,0.00984192,0.0196457,0.026741,-9.97986,0.0261307,-0.00156403,0.0117874,0.00549316,0.0190735,-0.00801086,0.0170898,0.00984192
33,3,10.0097,-0.000305176,-0.000152588,-2.42501,0.0553758,-0.075063,0.0532125,0.0700548,-0.0925361,0.144098,-0.126072,-0.0831808,0.0075531,0.0224686,0.0178528,0.00762939,0.0141907,0.00988007,0.0196457,0.026741,-9.97986,0.0144196,-0.00171661,0.0151825,0.00644684,0.0159073,-0.0044632,0.0187683,0.00881195
33,4,10.0097,0.000305176,-0.000610352,-2.42653,0.0565965,-0.0735371,0.0544332,0.0724962,-0.0931465,0.145318,-0.123935,-0.0822652,0.0113297,0.0257874,0.0224304,0.0138855,0.018959,0.0094986,0.0230408,0.0260544,-9.97986,0.0206757,-0.00354767,0.0123978,0.00751495,0.0197983,-0.00385284,0.0191116,0.0069046
33,5,10.0097,-0.000915527,0.000610352,-2.42501,0.0578172,-0.073232,0.0544332,0.0731066,-0.0919257,0.145318,-0.123935,-0.0816549,0.0102615,0.0236511,0.0222778,0.00907898,0.0151062,0.0122452,0.0213623,0.0218964,-9.97986,0.0222778,0.000152588,0.0157547,0.0069809,0.0214767,-0.00331879,0.0154877,0.00934601
33,6,10.0097,0.00183105,0.000305176,-2.4247,0.055681,-0.0744527,0.0550435,0.0715807,-0.0922309,0.147455,-0.124241,-0.0816549,0.00705719,0.0236893,0.0170135,0.0135803,0.0101089,0.0109482,0.020752,0.0194168,-9.97986,0.0151825,-0.00160217,0.0193787,0.00659943,0.0167084,-0.00385284,0.0205612,0.00778198
33,7,10.0097,-0.000610352,-0.00198364,-2.42684,0.0569017,-0.0744527,0.0529073,0.0203112,-0.0968086,0.145318,-0.128208,-0.0831808,0.00370026,0.0242233,0.018425,0.00659943,0.0160599,0.01091,0.0183487,0.0149536,-9.97986,0.00961304,-0.00320435,0.0151062,0.00526428,0.0193405,-0.00320435,0.0188446,0.00762939
33,8,0.976763,-0.000305176,-0.00473022,-2.42531,0.0559862,-0.0729268,0.0529073,-0.00318738,-0.095893,0.147455,-0.129123,-0.0810445,0.0104141,0.0233841,0.020256,0.0138855,0.0119019,0.0139999,0.0174332,0.0115204,-9.97986,0.00667572,0.00152588,0.0183868,0.00736237,0.0183105,-0.00301361,0.0157166,0.00553131
33,9,-6.13627,0.0012207,-0.00457764,-2.42592,0.0562914,-0.0741475,0.0538228,-0.0141737,-0.0977241,0.147149,-0.129429,-0.0822652,0.00827789,0.0220108,0.0170898,0.0101471,0.0130081,0.00682831,0.0172043,0.00614166,-9.97986,0.0075531,0.00198364,0.0159836,0.00762939,0.0144196,-0.00610352,0.0141144,0.00110626
34,0,-9.99003,0.0012207,-0.00320435,-2.42531,0.0572069,-0.0747579,0.0562642,0.0111559,-0.0913154,0.145624,-0.129123,-0.0813497,0.0102997,0.0225449,0.0214005,0.0103378,0.0111389,0.0102997,0.0169373,0.0113297,-9.97986,0.00427246,0.00247955,0.0127029,0.00480652,0.0143051,-0.00362396,0.0149536,0.0012207
34,1,-9.99003,0.000610352,-0.00137329,-2.42531,0.0562914,-0.073232,0.0571797,0.0395372,-0.0910102,0.145318,-0.126682,-0.0810445,0.0115585,0.0236893,0.0214386,0.0131989,0.0177002,0.00923157,0.0164413,0.0140381,-9.97986,0.00434875,0.00144958,0.0155258,0.0131607,-0.00274658,-0.00457764,0.0144577,0.00183105
34,2,-9.99003,0.0012207,-0.000305176,-2.42592,0.0559862,-0.0744527,0.0544332,0.058153,-0.0910102,0.145929,-0.126377,-0.0810445,0.0128937,0.0246429,0.0202179,0.0140762,0.0162506,0.0111389,0.0203323,0.0120926,-9.97986,0.0107193,-0.00415802,0.0144577,0.00907898,-0.00396729,-0.000839233,0.016861,0.0056076
34,3,-9.99003,-0.000305176,0.000457764,-2.42562,0.0553758,-0.0741475,0.0562642,0.0789049,-0.0897895,0.144403,-0.124546,-0.0825704,0.0113678,0.0247192,0.0219345,0.0126648,0.016861,0.0112534,0.0217056,0.0111771,-9.97986,0.013504,-0.0025177,0.0132751,0.0102997,0.0102997,-0.0019455,0.0165558,0.00205994
34,4,-9.01256,0.00274658,0.00198364,-2.42623,0.0544603,-0.0741475,0.0562642,0.13109,-0.0852119,0.144708,-0.121189,-0.0831808,0.0108719,0.0238419,0.0165176,0.0127029,0.0169754,0.00827789,0.0186539,0.00999451,-9.97986,0.0130081,-0.00545502,0.0172806,0.0063324,0.0180435,-0.00640869,0.0162888,0.0043869
34,5,-0.615339,0.000305176,0.00366211,-2.42745,0.0550706,-0.0756734,0.054128,0.145128,-0.0885688,0.143182,-0.120578,-0.0844015,0.0129318,0.0210953,0.0236893,0.0102234,0.0171661,0.0110245,0.0207901,0.0167084,-9.97986,0.0150299,-0.00347137,0.0162888,0.0056839,0.0162888,0.00141144,0.0160599,0.00751495
34,6,7.34212,0.000610352,0.00457764,-2.42867,0.0553758,-0.0759786,0.0532125,0.153368,-0.0897895,0.144403,-0.121189,-0.0859274,0.0131607,0.0185013,0.0183487,0.0112152,0.0168991,0.00793457,0.0221252,0.0178528,-9.97986,0.014534,0.000343323,0.0137711,0.00320435,0.0138474,-0.00247955,0.0153732,0.00480652
34,7,10.0097,-0.000305176,0.00396729,-2.43111,0.0526292,-0.0762837,0.050771,0.121935,-0.0961982,0.142572,-0.125156,-0.0880636,0.0117874,0.0230408,0.0177765,0.00770569,0.0196838,0.00526428,0.0194168,0.0214767,-9.97986,0.0135422,-0.001297,0.0164413,0.00793457,0.0146103,0.000419617,0.0150681,0.00537872
34,8,10.0097,-0.000915527,0.000915527,-2.42989,0.0535448,-0.0775044,0.0519917,0.0892809,-0.095893,0.142877,-0.125461,-0.0874532,0.00835419,0.0230789,0.0192261,0.0110245,0.0139618,0.0104904,0.019455,0.0219345,-9.97986,0.0159454,-0.00205994,0.0168991,0.0063324,0.0178909,0.000915527,0.0141525,0.00431061
34,9,10.0097,0.000915527,0.000152588,-2.42837,0.0538499,-0.0759786,0.0510762,0.077379,-0.0968086,0.143487,-0.127292,-0.0883688,0.0107574,0.0225067,0.0194168,0.0159073,0.0167465,0.0100708,0.0185394,0.021286,-9.97986,0.0167465,-0.000305176,0.0183105,0.0087738,0.0150299,0.000953674,0.0156403,0.00675201
35,0,10.0097,0.000305176,0.000305176,-2.42837,0.0547655,-0.0747579,0.0522969,0.0740221,-0.0952827,0.145013,-0.127598,-0.0859274,0.0160217,0.0245667,0.0202942,0.0150681,0.0168228,0.00740051,0.0200653,0.0234222,-9.97986,0.0213623,-0.000152588,0.0147247,0.00492096,0.0187302,0.00118256,0.0152206,0.00770569
35,1,10.0097,0.000915527,-0.000152588,-2.42745,0.0550706,-0.0753682,0.0516866,0.0728014,-0.0955879,0.145013,-0.125766,-0.0850118,0.0146103,0.0236893,0.0159836,0.0143814,0.0168991,0.0105286,0.0178909,0.0316238,-9.97986,0.0217438,0.000534058,0.0101089,0.00926971,0.02285,-0.000724792,0.0177002,0.0107956
35,2,10.0097,0.000610352,-0.000762939,-2.42745,0.0547655,-0.075063,0.0519917,0.0718859,-0.0946723,0.145318,-0.126682,-0.0844015,0.0132751,0.0253677,0.0179672,0.0111389,0.0197983,0.0140762,0.022049,0.0295639,-9.97986,0.018158,-0.00495911,0.0162888,0.00667572,0.018959,-0.00225067,0.015564,0.00823975
35,3,10.0097,-0.000305176,0,-2.42562,0.0559862,-0.0747579,0.0544332,0.0712755,-0.0931465,0.144403,-0.125461,-0.0834859,0.0136185,0.0229263,0.0207138,0.00888824,0.0202942,0.0104523,0.0207138,0.029068,-9.97986,0.0182343,-0.000228882,0.0118637,0.00514984,0.0214767,-0.00240326,0.013504,0.01091
35,4,10.0097,-0.000915527,0.000305176,-2.42684,0.0559862,-0.0729268,0.0544332,0.0728014,-0.0925361,0.146234,-0.12302,-0.0822652,0.0154877,0.0202179,0.0185013,0.0122833,0.0106812,0.0108719,0.0246048,0.0268173,-9.97986,0.017662,-0.00450134,0.0115967,0.00377655,0.0169373,-0.00545502,0.0146103,0.00873566
35,5,10.0097,0.000610352,0.000457764,-2.42592,0.0575121,-0.0738423,0.0535176,0.072191,-0.0919257,0.147455,-0.124546,-0.0819601,0.0104904,0.0208282,0.0183105,0.0100708,0.0135422,0.00789642,0.0185394,0.0217438,-9.97986,0.0172806,-0.00553131,0.0153351,0.00404358,0.0164413,-0.00205994,0.0169373,0.00617981
35,6,10.0097,-0.000305176,-0.000152588,-2.42531,0.055681,-0.0735371,0.0544332,0.07036,-0.0913154,0.145318,-0.123325,-0.0807394,0.0114822,0.021553,0.0214767,0.0138092,0.0194931,0.00999451,0.0208664,0.0191498,-9.97986,0.0138855,0.00171661,0.0141907,0.00579834,0.0180817,0.000267029,0.0158691,0.00869751
35,7,10.0097,0.000305176,-0.00198364,-2.42653,0.0559862,-0.0744527,0.0519917,0.0187853,-0.0986396,0.145318,-0.127903,-0.0828756,0.00930786,0.0209427,0.0172043,0.0154114,0.0173569,0.0102615,0.0239563,0.0152969,-9.97986,0.0126266,-0.000610352,0.0170517,0.00728607,0.0157166,-0.00263214,0.0181198,0.00766754
35,8,0.909014,0.00152588,-0.00350952,-2.42592,0.0565965,-0.0744527,0.0535176,-0.0016615,-0.0965034,0.14776,-0.128818,-0.0819601,0.00946045,0.0219345,0.0191879,0.016861,0.018692,0.00686646,0.0224686,0.0123215,-9.97986,0.00720978,0.000305176,0.0167465,0.00614166,0.0141144,0.000228882,0.0154877,0.00740051
35,9,-6.09599,-0.000305176,-0.00473022,-2.42592,0.0569017,-0.0735371,0.0535176,-0.0160048,-0.0952827,0.145624,-0.129734,-0.0816549,0.0037384,0.0220108,0.015564,0.0118637,0.0181198,0.00499725,0.0207138,0.00476837,-9.97986,0.00785828,-0.00278473,0.0152206,0.00793457,0.0148773,-0.00190735,0.0149155,0.00396729
36,0,-9.99003,0.00152588,-0.00305176,-2.42531,0.0565965,-0.0747579,0.0553487,0.0126818,-0.0928413,0.146844,-0.127903,-0.0810445,0.00915527,0.0220108,0.0165176,0.0151062,0.0191879,0.00865936,0.0228119,0.0111008,-9.97986,0.00980377,-0.00267029,0.013237,0.00778198,0.0153351,0.000801086,0.0185394,0.00488281
36,1,-9.99003,0.000305176,-0.00198364,-2.4247,0.0553758,-0.0738423,0.0565694,0.0401476,-0.0919257,0.145624,-0.127292,-0.0813497,0.0112534,0.0222015,0.0194931,0.00923157,0.0203323,0.00843048,0.021019,0.00980377,-9.97986,0.0120544,-0.00282288,0.0160217,0.00785828,-0.00495911,0.000991821,0.0139999,0.00522614
36,2,-9.99003,0.0012207,-0.000457764,-2.42684,0.055681,-0.0741475,0.0544332,0.0566271,-0.0916206,0.145013,-0.126987,-0.0822652,0.0104141,0.0194168,0.0177765,0.0115967,0.0198746,0.00675201,0.0187683,0.0111008,-9.97986,0.0107956,-0.00198364,0.0125885,0.00705719,-0.00598907,-0.00171661,0.0148392,0.00297546
36,3,-9.99003,0.000610352,0,-2.42592,0.0569017,-0.0744527,0.055959,0.0782946,-0.0894843,0.145624,-0.124546,-0.0825704,0.00808716,0.0266647,0.0173187,0.0179672,0.0101471,0.00934601,0.0214005,0.0167465,-9.97986,0.0117111,-0.00408173,0.0130844,0.00587463,0.0118256,-0.00167847,0.0151825,0.00202179
36,4,-8.67229,-0.000610352,0.00198364,-2.42348,0.0547655,-0.0744527,0.0574849,0.130174,-0.0846015,0.143792,-0.121494,-0.0819601,0.00865936,0.0250244,0.0209045,0.0143433,0.018692,0.0111008,0.0214767,0.0185394,-9.97986,0.0141525,-0.00106812,0.0150681,0.00579834,0.0114441,-0.00102997,0.0156021,0.00659943
36,5,-0.507917,-0.000305176,0.00350952,-2.42684,0.0544603,-0.0756734,0.054128,0.145433,-0.088874,0.144403,-0.121799,-0.0840963,0.0114059,0.0228882,0.0204468,0.0160217,0.0162125,0.00244141,0.0251007,0.0146866,-9.97986,0.0154877,-0.00190735,0.0147629,0.00385284,0.0171661,-0.00175476,0.0174332,0.00480652
36,6,7.4471,0.0012207,0.0050354,-2.42898,0.0541551,-0.0762837,0.054128,0.153368,-0.0897895,0.143182,-0.121799,-0.0856222,0.0143433,0.0246811,0.0217056,0.0153732,0.0191498,0.0088501,0.0184631,0.0157547,-9.97986,0.0181961,-0.000419617,0.015564,0.00728607,0.0189209,-0.00118256,0.0140381,0.00286102
36,7,10.0097,0.000305176,0.00350952,-2.43172,0.0526292,-0.0768941,0.0504659,0.12163,-0.0952827,0.142877,-0.124241,-0.0886739,0.0151062,0.0223541,0.0171661,0.0131989,0.0203323,0.00991821,0.0238037,0.0147247,-9.97986,0.0130081,0.00476837,0.0119781,0.00556946,0.0194168,-0.000228882,0.0172806,0.000915527
36,8,10.0097,0.000915527,0.00137329,-2.42959,0.0535448,-0.0762837,0.0513814,0.0892809,-0.0980293,0.143792,-0.125766,-0.0886739,0.0102997,0.0247192,0.0209427,0.0130844,0.015831,0.00900269,0.0180817,0.0167084,-9.97986,0.0151062,0.000801086,0.0172043,0.00507355,0.0156784,0.00156403,0.0138474,0.00534058
36,9,10.0097,0.000915527,0.000305176,-2.43081,0.0538499,-0.0762837,0.0516866,0.0770738,-0.0968086,0.142877,-0.127292,-0.0874532,0.0145721,0.0259399,0.0216675,0.0165939,0.0208664,0.0120163,0.0230026,0.0217819,-9.97986,0.0128555,-0.00225067,0.0129318,0.00553131,0.018692,0.00396729,0.0124359,0.00507355
37,0,10.0097,0.000305176,0.000152588,-2.42928,0.0535448,-0.0762837,0.0522969,0.0737169,-0.0955879,0.144708,-0.126682,-0.085317,0.01297,0.019455,0.0165939,0.0127029,0.0147629,0.00965118,0.0224686,0.0222778,-9.97986,0.0202179,-0.00110626,0.0127792,0.00659943,0.0175095,0.00225067,0.0172806,0.00576019
37,1,10.0097,0.000610352,-0.000152588,-2.42776,0.0550706,-0.075063,0.0522969,0.07036,-0.0943672,0.144403,-0.125156,-0.085317,0.0148773,0.0226212,0.0183868,0.0135803,0.0181961,0.0100708,0.0189209,0.023613,-9.97986,0.0233459,-0.000686646,0.0178528,0.0075531,0.0188446,-0.00167847,0.0183487,0.0069046
37,2,10.0097,0.000305176,0.000915527,-2.42653,0.0541551,-0.0753682,0.0532125,0.0715807,-0.0931465,0.143182,-0.126072,-0.0850118,0.0162506,0.0232315,0.020256,0.0139618,0.0198746,0.01091,0.0214386,0.0245285,-9.97986,0.0247955,7.62939e-005,0.0180817,0.0102234,0.0235748,-0.000228882,0.0180817,0.0119781
37,3,10.0097,0.000305176,0.000305176,-2.42623,0.0553758,-0.075063,0.0532125,0.0724962,-0.0934516,0.144708,-0.126072,-0.0844015,0.00862122,0.0195313,0.0177383,0.00598907,0.0185394,0.0117111,0.0239182,0.0281906,-9.97986,0.0230408,-0.0012207,0.0158691,0.00694275,0.0204468,0.00259399,0.017395,0.0111389
37,4,10.0097,0,0.000457764,-2.42501,0.0565965,-0.0735371,0.0544332,0.07036,-0.0919257,0.145318,-0.124546,-0.0822652,0.0104904,0.0229645,0.0190735,0.013504,0.022316,0.0144577,0.0213242,0.0306702,-9.97986,0.019989,-0.000610352,0.0125885,0.00488281,0.0173187,-0.00278473,0.0133133,0.00919342
37,5,10.0097,0.000305176,0.000152588,-2.42562,0.0572069,-0.0726216,0.0550435,0.0718859,-0.0910102,0.146844,-0.12363,-0.0813497,0.00846863,0.021286,0.0123596,0.00999451,0.0177765,0.01194,0.0172806,0.0212097,-9.97986,0.0213623,-0.00293732,0.0133896,0.00652313,0.0179672,0.00141144,0.015831,0.0112534
37,6,10.0097,0.000610352,0.000305176,-2.42501,0.0559862,-0.0735371,0.0553487,0.0712755,-0.0913154,0.14776,-0.124546,-0.0810445,0.0133896,0.0244904,0.0215912,0.013504,0.019722,0.0123978,0.0188065,0.0122452,-9.97986,0.0174332,0.00255585,0.0147629,0.0107574,0.0191498,-0.000419617,0.0163269,0.00896454
37,7,10.0097,-0.000305176,-0.00198364,-2.42653,0.0550706,-0.0738423,0.0526021,0.0184801,-0.0983344,0.146234,-0.128818,-0.0834859,0.010643,0.022316,0.0208664,0.0113678,0.0185013,0.0125885,0.0201416,0.00946045,-9.97986,0.0082016,0.00114441,0.0174332,0.0101471,0.0196457,0.000762939,0.0140762,0.0082016
37,8,0.913897,0,-0.00427246,-2.42623,0.0584276,-0.073232,0.0532125,-0.00349256,-0.0968086,0.145624,-0.129123,-0.0819601,0.010376,0.021019,0.0163651,0.0144958,0.0189972,0.00526428,0.0204086,0.00801086,-9.97986,0.0082016,-0.000762939,0.0111008,0.00549316,0.0169754,0.00114441,0.0170898,0.0063324
37,9,-6.13322,-0.000305176,-0.00427246,-2.42623,0.0584276,-0.0738423,0.0547383,-0.0141737,-0.0965034,0.145318,-0.129429,-0.0819601,0.0069809,0.0249863,0.0163651,0.0143814,0.0134277,0.00831604,0.021553,0.00801086,-9.97986,0.00919342,-0.00400543,0.0138092,0.00793457,0.0169373,0.00087738,0.0152969,0.0063324
38,0,-9.99003,-0.000610352,-0.00274658,-2.42379,0.0559862,-0.073232,0.0553487,0.0117662,-0.0925361,0.146234,-0.129123,-0.0810445,0.0103378,0.0224686,0.018158,0.0102234,0.0138474,0.0094223,0.01297,0.00957489,-9.97986,0.0131607,-0.00278473,0.0149918,0.00835419,0.0166702,-0.00183105,0.017395,0.00400543
38,1,-9.99003,0.000915527,-0.00228882,-2.42501,0.0559862,-0.0735371,0.0568746,0.0386217,-0.0925361,0.146234,-0.127598,-0.0810445,0.00782013,0.02388,0.0181198,0.00995636,0.0165939,0.00904083,0.0240326,0.0105667,-9.97986,0.00953674,-0.00362396,0.0125122,0.00564575,-0.00175476,-0.00476837,0.0146103,0.00637054
38,2,-9.99003,0.000915527,-0.000457764,-2.42653,0.0553758,-0.0735371,0.0562642,0.0560167,-0.0903999,0.144403,-0.126072,-0.0813497,0.0121307,0.0218201,0.0189972,0.00873566,0.0162888,0.0120926,0.0195313,0.0130081,-9.97986,0.0160217,-0.000686646,0.0129318,0.0031662,-0.00259399,-0.0043869,0.0157928,0.00579834
38,3,-9.99003,0.00183105,0.000457764,-2.42623,0.0559862,-0.075063,0.0556539,0.0789049,-0.0882636,0.145929,-0.125461,-0.0825704,0.0133133,0.0224686,0.0142288,0.0147629,0.0159454,0.00823975,0.016861,0.013504,-9.97986,0.0143051,-0.00312805,0.01194,0.00816345,0.0101089,-0.00457764,0.0153351,0.0050354
38,4,-8.95305,0.000610352,0.00198364,-2.42592,0.0550706,-0.0747579,0.0584004,0.13109,-0.0855171,0.145318,-0.122715,-0.0825704,0.0123978,0.0257111,0.0208664,0.0142288,0.0117111,0.0109482,0.0185013,0.0137711,-9.97986,0.011673,-0.000648499,0.0130463,0.00968933,0.0162506,0.00232697,0.0152206,0.00553131
38,5,-0.734968,0.000915527,0.0038147,-2.42776,0.0538499,-0.0759786,0.0544332,0.145128,-0.0885688,0.143487,-0.121189,-0.0850118,0.00999451,0.0196457,0.0188446,0.0115204,0.018692,0.00865936,0.0200653,0.0169754,-9.97986,0.0146103,-0.00110626,0.0137711,0.00930786,0.0120163,-0.00312805,0.0157166,0.000648499
38,6,7.09035,0.00213623,0.00488281,-2.42837,0.0538499,-0.0768941,0.0538228,0.153978,-0.0894843,0.143792,-0.121799,-0.085317,0.0104904,0.0256348,0.020256,0.0180435,0.0202179,0.00911713,0.019722,0.018959,-9.97986,0.0117874,-0.00305176,0.016098,0.00801086,0.0146484,-0.00171661,0.0169373,0.00743866
38,7,10.0097,0.000305176,0.00396729,-2.43111,0.0541551,-0.0771993,0.0504659,0.123155,-0.0955879,0.141046,-0.12363,-0.0883688,0.00904083,0.0220871,0.0172806,0.0165558,0.0156403,0.00831604,0.0204468,0.0156021,-9.97986,0.0112915,-0.00511169,0.0104141,0.00606537,0.0117111,-0.000190735,0.0137711,0.00652313
38,8,10.0097,-0.000305176,0.000915527,-2.42989,0.0532396,-0.0768941,0.0498555,0.0908068,-0.0974189,0.142877,-0.125461,-0.0886739,0.00724792,0.0210953,0.0151062,0.0117874,0.018959,0.0143814,0.0191116,0.0154495,-9.97986,0.0108719,-0.00038147,0.0128174,0.00377655,0.0160599,-0.00442505,0.0133514,0.00354767
38,9,10.0097,-0.000305176,0.000457764,-2.42959,0.0532396,-0.0753682,0.0519917,0.0779894,-0.0968086,0.143182,-0.127598,-0.0877584,0.00892639,0.0230789,0.0195694,0.0177383,0.0190735,0.0056839,0.0214386,0.0173569,-9.97986,0.0182343,-0.00392914,0.0104523,0.00492096,0.0175858,-0.0018692,0.0137711,0.00675201
39,0,10.0097,0,-0.000305176,-2.42837,0.0547655,-0.075063,0.0519917,0.0728014,-0.0949775,0.143487,-0.127292,-0.0871481,0.0138855,0.0213623,0.0167465,0.00995636,0.0159454,0.00762939,0.0203705,0.0238419,-9.97986,0.0233459,-0.00289917,0.0146866,0.00762939,0.0141525,-0.00576019,0.015564,0.00782013
39,1,10.0097,0.000610352,0.000305176,-2.42653,0.0550706,-0.075063,0.0526021,0.0712755,-0.0949775,0.145013,-0.126072,-0.0859274,0.0102234,0.0231171,0.0194931,0.0141907,0.0180054,0.0123978,0.0278473,0.028801,-9.97986,0.0232315,-0.00240326,0.0167465,0.00720978,0.0178146,-0.000991821,0.0177765,0.00816345
39,2,10.0097,-0.000610352,-0.000457764,-2.42714,0.0541551,-0.0747579,0.0529073,0.0715807,-0.0922309,0.144403,-0.126682,-0.0847066,0.0128555,0.0236893,0.0177002,0.00751495,0.0177383,0.0102997,0.02388,0.0261307,-9.97986,0.0240326,-0.00286102,0.0161743,0.00473022,0.0179672,-0.00350952,0.0146484,0.00980377
39,3,10.0097,0.000915527,0.000762939,-2.42684,0.0544603,-0.0747579,0.0547383,0.0706652,-0.094062,0.145929,-0.125461,-0.0847066,0.0107956,0.025444,0.0194931,0.0141907,0.019455,0.00915527,0.0239944,0.0223541,-9.97986,0.0228119,-0.00171661,0.0124741,0.00617981,0.0164032,-0.00144958,0.0137711,0.0100327
39,4,10.0097,-0.0012207,0.000610352,-2.4244,0.0559862,-0.0744527,0.0544332,0.0715807,-0.0931465,0.145624,-0.125461,-0.0819601,0.0124741,0.0241852,0.0182343,0.0150681,0.0232697,0.00377655,0.024147,0.0229645,-9.97986,0.0179291,-0.00141144,0.018959,0.00640869,0.0187683,-0.000839233,0.0172043,0.0100708
39,5,10.0097,0.00213623,0.000610352,-2.42592,0.0575121,-0.0738423,0.0550435,0.0724962,-0.0916206,0.147149,-0.124851,-0.0813497,0.011673,0.0230026,0.0196838,0.0162506,0.0209808,0.00686646,0.0223541,0.0242996,-9.97986,0.0178909,0.000267029,0.0143433,0.00377655,0.0142288,-0.00156403,0.015831,0.00911713
39,6,10.0097,-0.000610352,0.000305176,-2.4244,0.0565965,-0.0738423,0.054128,0.0700548,-0.0928413,0.147149,-0.124851,-0.0804342,0.0111389,0.0263977,0.0210571,0.015564,0.018425,0.0135422,0.0255203,0.0189972,-9.97986,0.0120163,0.00202179,0.0150681,0.0056076,0.0149536,-0.00205994,0.0137329,0.00961304
39,7,10.0097,0.000610352,-0.00213623,-2.42653,0.0565965,-0.0744527,0.0513814,0.020006,-0.0974189,0.145013,-0.128513,-0.0831808,0.00865936,0.0212479,0.0188065,0.00984192,0.0154495,0.00968933,0.0249481,0.00835419,-9.97986,0.0106049,-0.0018692,0.017395,0.00705719,0.0179672,-0.00293732,0.0130463,0.0100708
39,8,1.03597,0.000610352,-0.0038147,-2.42501,0.0572069,-0.0726216,0.0535176,-0.00257703,-0.0961982,0.147149,-0.129123,-0.0828756,0.0075531,0.0185013,0.0181198,0.0119781,0.0134277,0.00827789,0.0230026,0.00751495,-9.97986,0.00324249,0.000953674,0.0155258,0.00869751,0.0149536,0.000343323,0.017128,0.00694275
39,9,-6.11339,0.000305176,-0.00427246,-2.42562,0.0575121,-0.0738423,0.0544332,-0.0160048,-0.0968086,0.146539,-0.130039,-0.0810445,0.0075531,0.0218201,0.0165939,0.0123215,0.0157547,0.0115204,0.0265884,0.00812531,-9.97986,0.00972748,-0.000991821,0.0185776,0.00759125,0.0153351,-0.00362396,0.012207,0.00583649
40,0,-9.99003,-0.0012207,-0.00335693,-2.42501,0.0553758,-0.0726216,0.0562642,0.0120714,-0.0919257,0.146234,-0.128818,-0.0813497,0.00980377,0.02388,0.017395,0.0135422,0.0181961,0.0124359,0.0234604,0.010376,-9.97986,0.00919342,0.000610352,0.0118637,0.00404358,0.0111389,0.000534058,0.0135422,0.00514984
40,1,-9.99003,0,-0.00198364,-2.42562,0.055681,-0.0744527,0.055959,0.0398424,-0.0919257,0.147149,-0.127598,-0.0816549,0.0062561,0.0244904,0.0185013,0.00988007,0.0181198,0.00671387,0.0208664,0.01194,-9.97986,0.0101089,-3.8147e-005,0.0154114,0.00751495,-0.00102997,0.000190735,0.0167847,0.00595093
40,2,-9.99003,0,-0.000610352,-2.42623,0.055681,-0.0735371,0.0553487,0.0563219,-0.0910102,0.144403,-0.126987,-0.0813497,0.00980377,0.0249863,0.0154495,0.0121307,0.0164032,0.0101852,0.0217819,0.018425,-9.97986,0.0143051,0.000762939,0.015564,0.00450134,-0.00640869,-0.00324249,0.0114822,0.0056076
40,3,-9.99003,0,0,-2.4247,0.0541551,-0.0744527,0.0553487,0.0789049,-0.0903999,0.145013,-0.124851,-0.0831808,0.010376,0.0258255,0.0166702,0.00995636,0.0143051,0.0143051,0.0212097,0.0187302,-9.97986,0.0123596,0.000152588,0.0153732,0.00629425,0.00762939,-0.00274658,0.0140762,0.00190735
40,4,-8.85844,0.000915527,0.00259399,-2.42501,0.055681,-0.0735371,0.0565694,0.129564,-0.0858222,0.144098,-0.121189,-0.0825704,0.0133896,0.0276184,0.0213242,0.0128937,0.0199127,0.0088501,0.0215149,0.0110626,-9.97986,0.0152588,0.00160217,0.0157928,0.00495911,0.0184631,-0.00488281,0.0156021,0.00572205
40,5,-0.63487,0.00152588,0.00366211,-2.42745,0.0532396,-0.075063,0.0553487,0.146654,-0.0879585,0.143792,-0.122104,-0.0844015,0.0107956,0.0246811,0.0189209,0.0142288,0.0146484,0.0110626,0.0249481,0.0177002,-9.97986,0.015564,-0.00217438,0.0171661,0.00171661,0.0137329,-0.00450134,0.016098,0.00614166
