
Devices
1200
,,BP Load cell - Voltage,String Length - Voltage,Clutch Active - Voltage,#7 iPecs - Voltage,,,,,,,,,EMG 1-8 Left - Voltage,,,,,,,,Pylon Force - Voltage,EMG 9-16 Right - Voltage,,,,,,,,
Frame,Sub Frame,BP Load Cell,String Length,From Arduino Logic,A45,A135,A225,A315,S0,S90,S180,S270,ZSum,EMG 1 Glut Max,EMG 2 Glut Med,EMG 3 Biceps Femoris Long,EMG 4 Rectus Femoris,EMG 5 Vastus Medialis,EMG 6 Tib Ant,EMG 7 Med Gas,EMG 8 Soleus,Pylon volts,EMG 9 Glut Max,EMG 10 Glut Med,EMG 11 Biceps Femoris Long,EMG 12 Rectus Femoris,EMG 13 Vastus Medialis,EMG 14 Tib Ant,EMG 15 Med Gas,EMG 16 Soleus
,,V,V,V,V,V,V,V,V,V,V,V,V,V,V,V,V,V,V,V,V,V,V,V,V,V,V,V,V,V
1,0,7.80812,0.0012207,-0.000762939,-2.42623,0.055681,-0.0744527,0.0544332,0.0438097,-0.0937568,0.146539,-0.126682,-0.0810445,0.0105286,0.0248337,0.0177383,0.0281143,0.00915527,0.0262451,0.0146866,0.0150299,-9.97986,0.0130844,0.00267029,0.0238419,0.0166702,0.0268936,-0.0180054,0.0236893,0.0145721
1,1,6.64418,0.000610352,-0.000457764,-2.42592,0.0553758,-0.0738423,0.0538228,0.054796,-0.0919257,0.145929,-0.126682,-0.0831808,0.00473022,0.0218964,0.0183105,0.0303268,0.0134659,0.0304413,0.018425,0.0200272,-9.97986,0.0161362,0.00118256,0.0219345,0.0167465,0.0240326,-0.0104141,0.0264359,0.0123978
1,2,6.53859,0.000305176,0.000305176,-2.42653,0.055681,-0.0759786,0.0538228,0.0645616,-0.0922309,0.144403,-0.125156,-0.0831808,0.00595093,0.0101471,0.0166702,0.0437546,0.00988007,0.0266266,0.0240707,0.0123215,-9.97986,0.0133896,0.00213623,0.0191498,0.0218582,0.0236511,-0.00205994,0.0270844,0.0136948
1,3,6.92586,0.0012207,0.000762939,-2.42653,0.055681,-0.0753682,0.0544332,0.0767687,-0.0913154,0.145318,-0.124851,-0.0831808,0.00644684,0.000839233,0.0201797,0.0366592,0.0124741,0.033226,0.0247192,0.0161362,-9.97986,0.0163269,0.00225067,0.0203323,0.021019,0.0279617,-0.00541687,0.0283051,0.0134659
1,4,9.23879,0.000610352,0.0012207,-2.4244,0.0553758,-0.0738423,0.0544332,0.103929,-0.0891792,0.143792,-0.124241,-0.0840963,0.0082016,0.00576019,0.016098,0.0391006,0.0101471,0.0263977,0.0272369,0.0118637,-9.97986,0.0186539,0.00576019,0.0152588,0.0195313,0.0273895,-0.00637054,0.0295639,0.0122833
1,5,10.0097,0.00183105,0.00198364,-2.42867,0.0526292,-0.0762837,0.0526021,0.0956896,-0.0943672,0.143182,-0.125156,-0.0868429,0.0105286,0.0173569,0.0281143,0.0511932,0.0138092,0.030365,0.0249481,0.0075531,-9.97986,0.0157547,0.00370026,0.0183105,0.0228119,0.0249481,-0.00289917,0.0295639,0.00946045
1,6,10.0097,0.000610352,0.000915527,-2.42928,0.0538499,-0.0765889,0.0532125,0.0789049,-0.0943672,0.143487,-0.126682,-0.0871481,0.0109863,0.0111008,0.0270081,0.0559616,0.0106049,0.0354385,0.0252533,0.0116348,-9.97986,0.0170517,0.000457764,0.018692,0.0191116,0.0223923,-0.00713348,0.029068,0.0106049
1,7,10.0097,0.000305176,0,-2.43081,0.0547655,-0.0762837,0.0513814,0.0724962,-0.0955879,0.144708,-0.127292,-0.0871481,0.0123596,0.0148773,0.025444,0.0561905,0.0128555,0.031929,0.0259018,0.0101471,-9.97986,0.011673,-0.00137329,0.0120926,0.0212097,0.0218964,-0.0056839,0.0328445,0.00988007
1,8,10.0097,-0.000610352,0.000762939,-2.42959,0.0535448,-0.0753682,0.0519917,0.07036,-0.0943672,0.142877,-0.127903,-0.0871481,0.00812531,0.0130081,0.0249481,0.043869,0.00892639,0.0331879,0.0213242,0.0125885,-9.97986,0.0123215,-0.00160217,0.017662,0.026474,0.015831,-0.00823975,0.0310516,0.0062561
1,9,10.0097,-0.000305176,-0.000457764,-2.42898,0.0550706,-0.0762837,0.0522969,0.0697496,-0.094062,0.144098,-0.128208,-0.0877584,0.00278473,0.0121689,0.0222015,0.0360107,0.00968933,0.0312042,0.0199127,0.0172424,-9.97986,0.0200272,-0.00419617,0.0168991,0.0270844,0.025444,-0.00583649,0.0321579,0.00709534
2,0,10.0097,-0.000610352,0.000305176,-2.42989,0.0547655,-0.0753682,0.0526021,0.0697496,-0.0952827,0.144098,-0.127903,-0.085317,0.00751495,0.00965118,0.0204468,0.0361252,0.00980377,0.0292587,0.0212097,0.0143051,-9.97986,0.0169754,-0.000610352,0.0201797,0.0315475,0.0268936,-0.00915527,0.0305557,0.00759125
2,1,10.0097,0.000610352,0.000305176,-2.42776,0.0544603,-0.0741475,0.054128,0.0706652,-0.0946723,0.144403,-0.125461,-0.0840963,0.00587463,0.00736237,0.0179672,0.0291443,0.00827789,0.0319672,0.0138474,0.00946045,-9.97986,0.0131607,-0.00221252,0.0175858,0.0247955,0.024147,-0.00534058,0.0321198,0.00991821
2,2,10.0097,-0.000915527,-0.000305176,-2.42684,0.0550706,-0.0744527,0.0526021,0.0697496,-0.0931465,0.145013,-0.126072,-0.0844015,0.00827789,0.0113678,0.0139999,0.0277328,0.010376,0.0313187,0.00411987,0.00926971,-9.97986,0.0162506,3.8147e-005,0.0225067,0.0310898,0.0186539,-0.00324249,0.0354385,0.00938416
2,3,10.0097,-0.00213623,0.000152588,-2.42623,0.0547655,-0.0753682,0.0544332,0.07036,-0.094062,0.145929,-0.124851,-0.0840963,0.00541687,0.0178909,-0.000991821,0.0240326,0.00854492,0.0279617,-0.000534058,0.0162888,-9.97986,0.0200653,-0.00190735,0.0185394,0.0357819,0.018425,-0.00648499,0.0325775,0.00774384
2,4,10.0097,0.00213623,0.000305176,-2.42653,0.0553758,-0.0744527,0.0547383,0.0706652,-0.0925361,0.14776,-0.124241,-0.0819601,0.00648499,0.015564,-0.00450134,0.0180817,0.00961304,0.0229645,0.0062561,0.0159073,-9.97986,0.0148392,-0.00411987,0.0147629,0.0344849,0.021553,-0.00564575,0.0296021,0.0125885
2,5,10.0097,0.000305176,0.000305176,-2.42348,0.0578172,-0.0747579,0.0568746,0.0718859,-0.0928413,0.147149,-0.124546,-0.0813497,0.00919342,0.017662,-0.00453949,0.0210953,0.0114822,0.0317383,-0.000801086,0.0144196,-9.97986,0.0140762,-0.00423431,0.0153351,0.0373077,0.0216675,-0.011673,0.0298691,0.0142288
2,6,10.0097,-0.000915527,0.000305176,-2.4247,0.0565965,-0.0738423,0.054128,0.07036,-0.0919257,0.145929,-0.12302,-0.0813497,0.00431061,0.018959,-0.00530243,0.0152588,0.0149536,0.0297165,-0.0019455,0.0146484,-9.97986,0.00934601,-0.00385284,0.0168991,0.0338745,0.019455,-0.00873566,0.0283813,0.0164795
2,7,10.0097,-0.000610352,0.000152588,-2.42501,0.0572069,-0.0741475,0.0556539,0.0709703,-0.0913154,0.146844,-0.123935,-0.0804342,0.00652313,0.0173569,-0.00572205,0.0175858,0.0100708,0.0287628,0.00442505,0.0164032,-9.97986,0.010643,-0.00427246,0.0180817,0.0341797,0.0212479,-0.0121307,0.0260162,0.0146103
2,8,10.0097,0.000610352,0.000915527,-2.42623,0.0575121,-0.0744527,0.0535176,0.0654772,-0.0925361,0.146539,-0.124241,-0.080129,0.0121307,0.020256,-0.00137329,0.0169754,0.0130463,0.0298309,0.0120544,0.016861,-9.97986,0.01297,-0.00087738,0.0186539,0.0426865,0.0209427,-0.0193024,0.0278854,0.0118637
2,9,10.0097,-0.000915527,-0.000610352,-2.42592,0.0569017,-0.0741475,0.0532125,0.0383165,-0.0937568,0.145929,-0.126682,-0.0822652,0.00713348,0.0165558,-0.00225067,0.0137329,0.00297546,0.0287628,0.0293732,0.0176239,-9.97986,0.0114822,-0.00205994,0.0128937,0.0455093,0.0217056,-0.0249481,0.0276947,0.0100327
3,0,7.77547,0.000610352,-0.00137329,-2.42562,0.0572069,-0.0747579,0.0547383,0.0438097,-0.0946723,0.145624,-0.126682,-0.0810445,0.00907898,0.0179672,0.00587463,0.0140381,0.00228882,0.0311279,0.029335,0.0154495,-9.97986,0.0101089,0.000915527,0.0131607,0.0400543,0.0196838,-0.0186157,0.0247574,0.00431061
3,1,6.59352,0.000915527,-0.000457764,-2.42592,0.0550706,-0.0744527,0.0544332,0.0566271,-0.0922309,0.14776,-0.126377,-0.0822652,0.00900269,0.0210953,0.01091,0.0145721,-0.00286102,0.029335,0.0370026,0.0131989,-9.97986,0.0115204,0.000534058,0.00789642,0.0409698,0.022049,-0.0190735,0.0242996,-0.00267029
3,2,6.48061,0.000915527,0.000152588,-2.42623,0.0562914,-0.0735371,0.0547383,0.0657823,-0.0925361,0.145013,-0.125156,-0.0825704,0.0107574,0.0231171,0.0127411,0.0108337,-0.00282288,0.0302887,0.0511169,0.0108337,-9.97986,0.018158,-0.000991821,0.00610352,0.0449753,0.0240326,-0.0182724,0.0264359,-0.00961304
3,3,6.89473,-0.000610352,0.000457764,-2.42714,0.0559862,-0.0738423,0.054128,0.0767687,-0.0928413,0.145318,-0.124851,-0.0822652,0.0139236,0.0197983,0.0164413,0.00953674,-0.00400543,0.0302505,0.0528717,0.0105286,-9.97986,0.012207,-0.00118256,0.00919342,0.0457001,0.0311279,-0.015564,0.0250626,-0.00507355
3,4,9.26442,0.00305176,0.00106812,-2.42501,0.0547655,-0.075063,0.0562642,0.103624,-0.0894843,0.143792,-0.12363,-0.0831808,0.0101471,0.023613,0.0157928,0.0118256,-0.00286102,0.0299072,0.0480652,0.0150299,-9.97986,0.0122833,0.000610352,0.00823975,0.0374603,0.0239944,-0.0174332,0.0217056,-0.00572205
3,5,10.0097,-0.000305176,0.00183105,-2.42989,0.0529344,-0.0771993,0.0516866,0.0938585,-0.0946723,0.144098,-0.125156,-0.0859274,0.0110626,0.0251007,0.0192261,0.00869751,-0.00190735,0.0281906,0.0409698,0.0120544,-9.97986,0.0131607,0.00377655,0.00816345,0.0450516,0.0251007,-0.00865936,0.0249863,-0.0056839
3,6,10.0097,0.000610352,0.000610352,-2.43081,0.0523241,-0.0765889,0.0526021,0.0776842,-0.0946723,0.145013,-0.126377,-0.0862325,0.0117493,0.022316,0.0191116,-0.00141144,0.000495911,0.0302887,0.0397491,0.0094223,-9.97986,0.0107956,-0.00175476,0.00411987,0.0444412,0.0236893,-0.0148773,0.0216675,-0.00629425
3,7,10.0097,-0.0012207,0.000152588,-2.42989,0.0523241,-0.0768941,0.0510762,0.0718859,-0.0925361,0.142572,-0.126682,-0.0874532,0.0116348,0.0227356,0.0167084,-0.00644684,0.000495911,0.0272369,0.0374222,0.00827789,-9.97986,0.00907898,0.000724792,0.00289917,0.0427246,0.0283813,-0.0138092,0.0229263,7.62939e-005
3,8,10.0097,0.000915527,0,-2.42928,0.0523241,-0.075063,0.0526021,0.0709703,-0.0955879,0.143792,-0.127903,-0.0868429,0.0110626,0.0232697,0.0165558,-0.0151825,0.00377655,0.0220871,0.0336075,0.0134277,-9.97986,0.00873566,0.000953674,0.00743866,0.0431824,0.02388,-0.0230026,0.0218201,0.000228882
3,9,10.0097,-0.00183105,0,-2.42898,0.0547655,-0.0765889,0.0516866,0.0697496,-0.0946723,0.143792,-0.127598,-0.0865377,0.00957489,0.0252533,0.0176239,-0.0196457,0.00190735,0.022049,0.0239944,0.0118256,-9.97986,0.0136948,0.00278473,0.00694275,0.041008,0.0254822,-0.0213242,0.0206757,0.000915527
4,0,10.0097,-0.000610352,-0.000457764,-2.42928,0.0547655,-0.0762837,0.0532125,0.0688341,-0.0961982,0.144098,-0.126682,-0.085317,0.0152206,0.0252151,0.0205231,-0.025444,0.00320435,0.0229263,0.02491,0.0142288,-9.97986,0.0173569,-0.00328064,0.00461578,0.0409698,0.018158,-0.0208664,0.0194931,0.0062561
4,1,10.0097,0.00305176,-0.000305176,-2.42653,0.0544603,-0.0753682,0.0532125,0.0700548,-0.095893,0.144098,-0.126682,-0.0862325,0.00621796,0.0255585,0.0220871,-0.0265884,0.00946045,0.0248718,0.0242996,0.0156784,-9.97986,0.0115585,-0.00110626,0.0037384,0.0359726,0.0195313,-0.0204468,0.0177002,0.0056839
4,2,10.0097,0.000915527,0.000610352,-2.42714,0.0544603,-0.0747579,0.0538228,0.0694445,-0.094062,0.145013,-0.126987,-0.0844015,0.016098,0.0265884,0.0281906,-0.0217438,0.00896454,0.0248718,0.0251007,0.016861,-9.97986,0.0119019,0.00198364,0.00465393,0.0377274,0.0250626,-0.0145721,0.0160217,0.00640869
4,3,10.0097,-0.000610352,-0.000610352,-2.42623,0.0553758,-0.0744527,0.0535176,0.0709703,-0.0916206,0.145624,-0.126377,-0.0844015,0.00530243,0.028038,0.0240326,-0.0128937,0.00995636,0.0263214,0.0219345,0.0137329,-9.97986,0.0102615,0.00324249,0.00579834,0.0345612,0.0234222,-0.014534,0.0187683,0.00434875
4,4,10.0097,-0.000305176,0.000152588,-2.42531,0.0562914,-0.073232,0.0538228,0.07036,-0.0928413,0.145013,-0.124851,-0.0825704,0.0124359,0.0286865,0.0245667,0.00396729,0.0104141,0.0313568,0.0214005,0.0121307,-9.97986,0.00812531,-0.00228882,0.00591278,0.0378799,0.0217056,-0.0104141,0.0134659,0.0082016
4,5,10.0097,0.000610352,-0.000610352,-2.42562,0.0562914,-0.0738423,0.0544332,0.0715807,-0.0919257,0.14837,-0.12363,-0.0813497,0.00911713,0.0235748,0.0218964,-0.00579834,0.0100327,0.0274658,0.021553,0.0133896,-9.97986,0.00999451,-0.000152588,0.000534058,0.0295258,0.0219345,-0.0104141,0.0135422,0.00423431
4,6,10.0097,0.000610352,0,-2.42501,0.0547655,-0.0744527,0.055959,0.0709703,-0.0925361,0.146539,-0.123935,-0.0807394,0.0151062,0.0254822,0.0251007,-0.00526428,0.0128937,0.0233841,0.0247955,0.0128555,-9.97986,0.00915527,0.00179291,0.00289917,0.0336075,0.0193405,-0.00976563,0.0156403,0.00411987
4,7,10.0097,0.000610352,0.000762939,-2.42592,0.0572069,-0.0735371,0.0553487,0.07036,-0.0943672,0.146539,-0.124241,-0.0816549,0.0123215,0.0296021,0.0300598,0.00995636,0.0137329,0.0252533,0.0250626,0.0117874,-9.97986,0.0105286,0.0056839,0.00579834,0.0354767,0.0255585,-0.00896454,0.0164032,0.0062561
4,8,10.0097,-0.000610352,0.000305176,-2.42501,0.0572069,-0.0735371,0.0553487,0.0691393,-0.0919257,0.147149,-0.124546,-0.0810445,0.00991821,0.0261688,0.0350189,0.0135422,0.016098,0.0227737,0.0214005,0.0130463,-9.97986,0.0132751,-0.00114441,0.00553131,0.0337601,0.0223923,-0.0119019,0.0146103,0.00400543
4,9,10.0097,-0.000305176,-0.0012207,-2.42592,0.0520189,-0.0738423,0.0526021,0.0383165,-0.0955879,0.146234,-0.126987,-0.0825704,0.0118256,0.0308609,0.0305557,0.043335,0.0203323,0.02388,0.0191116,0.0128174,-9.97986,0.0114059,0.00415802,0.0056076,0.0287628,0.0208282,-0.0171661,0.0144577,0.00118256
5,0,7.86214,-0.000610352,-0.00167847,-2.42592,0.0562914,-0.0744527,0.0538228,0.0431993,-0.0934516,0.145318,-0.125766,-0.0807394,0.0128555,0.0271988,0.0330734,0.0523758,0.017395,0.0218582,0.0224686,0.0134277,-9.97986,0.014267,0.00183105,0.00694275,0.0233459,0.0214767,-0.0174332,0.0134659,0.00492096
5,1,6.71956,0.000305176,-0.000610352,-2.42714,0.055681,-0.075063,0.0544332,0.0578478,-0.0922309,0.145318,-0.126377,-0.0822652,0.0101852,0.028801,0.0336456,0.0479126,0.0203705,0.0224686,0.0205231,0.00934601,-9.97986,0.011673,0.00240326,0.0056076,0.0259781,0.0170135,-0.0203705,0.0105667,0.00324249
5,2,6.60115,0,-0.000915527,-2.42592,0.0572069,-0.0735371,0.0544332,0.0654772,-0.0894843,0.145624,-0.125461,-0.0831808,0.0121307,0.0295639,0.0365829,0.0387573,0.0164032,0.0231552,0.0207901,0.0144196,-9.97986,0.0115967,0.00370026,0.00728607,0.022049,0.0182724,-0.0181198,0.00957489,0.000190735
5,3,6.98995,-0.00183105,-0.000457764,-2.42745,0.0550706,-0.0738423,0.054128,0.0761583,-0.0922309,0.146539,-0.124851,-0.0831808,0.0115585,0.0267792,0.0350571,0.0298691,0.0206375,0.0163651,0.015564,0.010376,-9.97986,0.011673,-0.00133514,0.00789642,0.0212479,0.0189972,-0.0189972,0.00812531,0.00537872
5,4,9.37886,0.0012207,0.00152588,-2.42623,0.0547655,-0.0747579,0.0553487,0.103624,-0.0891792,0.145624,-0.124241,-0.0831808,0.0103378,0.0276566,0.0318527,0.0299454,0.0269699,0.0186539,0.0151062,0.0102234,-9.97986,0.0102997,-0.000648499,0.0122833,0.0188828,0.0173187,-0.0199127,0.0107193,0.00354767
5,5,10.0097,-0.000305176,0.00183105,-2.4305,0.0569017,-0.0759786,0.0519917,0.0932482,-0.0943672,0.144098,-0.125766,-0.0868429,0.0101089,0.0261307,0.0242996,0.0236511,0.0254822,0.0194168,0.0188446,0.0139999,-9.97986,0.0119019,0.00411987,0.00366211,0.0152969,0.0188446,-0.0221634,0.0069809,0.00705719
5,6,10.0097,0.000610352,0.000762939,-2.42959,0.0541551,-0.075063,0.0516866,0.0795153,-0.0977241,0.143792,-0.126377,-0.0862325,0.014267,0.0244904,0.0180054,0.0211334,0.0246048,0.017395,0.0185394,0.0165176,-9.97986,0.0121689,0.00171661,0.00255585,0.0185394,0.0230026,-0.020752,0.0113297,0.00331879
5,7,10.0097,0.000305176,0.000152588,-2.42867,0.0541551,-0.0762837,0.0522969,0.0728014,-0.0949775,0.142572,-0.127292,-0.0868429,0.0116348,0.0304413,0.0157928,0.0232315,0.0286484,0.0211334,0.0207901,0.0117874,-9.97986,0.0117111,0.000495911,0.00831604,0.0168228,0.0209045,-0.018425,0.00953674,0.00255585
5,8,10.0097,0.00152588,-0.000305176,-2.42928,0.0575121,-0.0768941,0.0526021,0.0706652,-0.0955879,0.143487,-0.127903,-0.0865377,0.010643,0.0264359,0.0113678,0.0178909,0.0318527,0.0183868,0.0188065,0.0158691,-9.97986,0.0118256,-0.00118256,0.00576019,0.0154114,0.0242996,-0.0159836,0.0107956,0.00419617
5,9,10.0097,0.000915527,-0.000457764,-2.42867,0.0541551,-0.0768941,0.0526021,0.0691393,-0.0934516,0.143487,-0.127292,-0.0868429,0.00926971,0.0176239,0.0156021,0.0156403,0.0295258,0.0162506,0.0222015,0.0159836,-9.97986,0.0125885,0.00427246,0.00709534,0.00659943,0.0210953,-0.0200653,0.00507355,0.00255585
6,0,10.0097,0.000305176,-0.000610352,-2.42776,0.0538499,-0.0753682,0.0519917,0.0697496,-0.0946723,0.141961,-0.126987,-0.0847066,0.0100708,0.0205994,0.0128937,0.0183105,0.029335,0.0157166,0.0185776,0.0165558,-9.97986,0.0121307,0.00171661,0.00850677,0.00835419,0.0203705,-0.014534,0.00961304,0.00312805
6,1,10.0097,0.00152588,-0.000457764,-2.42776,0.0538499,-0.0756734,0.054128,0.0700548,-0.0934516,0.144098,-0.126377,-0.0844015,0.00938416,0.0244141,0.0127411,0.0113297,0.0297928,0.0143814,0.0146866,0.0156403,-9.97986,0.0135803,-0.00087738,0.00823975,0.00801086,0.0197983,-0.0120926,0.0056076,0.00232697
6,2,10.0097,0,0.000762939,-2.42745,0.0550706,-0.0765889,0.0535176,0.0700548,-0.0925361,0.145318,-0.126682,-0.0837911,0.0128937,0.0204468,0.0181961,0.0111389,0.0269699,0.0114441,0.0226593,0.0164413,-9.97986,0.0148773,-0.00362396,0.00545502,0.00576019,0.018959,-0.0118637,0.00701904,-0.000419617
6,3,10.0097,-0.000305176,0.000457764,-2.42745,0.055681,-0.0753682,0.0553487,0.0709703,-0.0934516,0.144708,-0.125156,-0.0834859,0.00999451,0.0191116,0.0157166,0.0147247,0.0286865,0.00812531,0.0203323,0.0163651,-9.97986,0.0117493,0.0030899,0.0103378,0.00476837,0.0183868,-0.0207138,0.0105286,0.00263214
6,4,10.0097,0.000305176,0.000305176,-2.42623,0.0596483,-0.0738423,0.0556539,0.0706652,-0.0913154,0.146234,-0.126072,-0.0822652,0.0152969,0.0206757,0.0150299,0.0120544,0.0309753,0.0123978,0.0254059,0.0201416,-9.97986,0.015564,0.00495911,0.0117493,0.00328064,0.0186539,-0.0180435,0.00701904,0.00606537
6,5,10.0097,0.000610352,0.000305176,-2.42592,0.0569017,-0.0747579,0.054128,0.07036,-0.0919257,0.147149,-0.124546,-0.0813497,0.0118256,0.0241852,0.0167847,0.0114059,0.0350952,0.0115967,0.0242996,0.0163269,-9.97986,0.0110626,0.00473022,0.00831604,0.00644684,0.0188828,-0.0187302,0.00164032,0.00312805
6,6,10.0097,0.000305176,0.000152588,-2.42531,0.0562914,-0.0744527,0.0547383,0.0712755,-0.0922309,0.14776,-0.124851,-0.0819601,0.00831604,0.0238037,0.0178909,0.00953674,0.0344849,0.00564575,0.0216675,0.0216675,-9.97986,0.00789642,0.00453949,0.0106049,0.000457764,0.0143051,-0.0116348,0.00389099,0.00431061
6,7,10.0097,-0.000305176,0.000305176,-2.42501,0.0569017,-0.0744527,0.0553487,0.07036,-0.0922309,0.145929,-0.12363,-0.0810445,0.0117493,0.0209045,0.0141144,0.00366211,0.030098,0.00549316,0.0263214,0.0169373,-9.97986,0.00938416,0.00514984,0.010376,-0.00133514,0.0112534,-0.0118637,0.00423431,0.00492096
6,8,10.0097,-0.000915527,0,-2.42562,0.0569017,-0.0744527,0.0547383,0.0663927,-0.0931465,0.146539,-0.124241,-0.0807394,0.013504,0.0199509,0.018959,0.00549316,0.0330353,0.00526428,0.0378036,0.0184631,-9.97986,0.0152206,0.00328064,0.00751495,0.00240326,0.0139999,-0.0107574,0.00396729,0.00469208
6,9,10.0097,0.00213623,-0.00213623,-2.42623,0.0559862,-0.0744527,0.0529073,0.0370958,-0.0952827,0.146844,-0.127292,-0.0816549,0.0123596,0.0231552,0.019722,0.00659943,0.035553,-0.000572205,0.0384903,0.0178146,-9.97986,0.0154114,0.00205994,0.0108719,-0.000152588,0.018425,-0.00686646,0.00434875,0.00396729
7,0,7.72054,-0.0012207,-0.00152588,-2.42531,0.0565965,-0.0738423,0.0538228,0.042589,-0.0931465,0.145624,-0.126072,-0.0813497,0.0131989,0.0276184,0.0176239,0.00720978,0.0352859,-0.00164032,0.0424957,0.0184631,-9.97986,0.0159836,0.000267029,0.00892639,-0.000801086,0.0137329,-0.00808716,0.00572205,0.00427246
7,1,6.53737,0.00213623,-0.00106812,-2.42592,0.0544603,-0.0753682,0.0550435,0.0569322,-0.0928413,0.145624,-0.125766,-0.0822652,0.0115204,0.0248718,0.0136566,0.00591278,0.0327682,0.00152588,0.0396347,0.0196075,-9.97986,0.0143051,0.00518799,0.00366211,-0.00343323,0.0162888,-0.0130844,0.00385284,0.00396729
7,2,6.37837,0.000610352,-0.000152588,-2.42653,0.0541551,-0.0747579,0.054128,0.0654772,-0.0916206,0.145013,-0.126682,-0.0816549,0.00804901,0.0274277,0.0157166,0.00846863,0.0287628,0.000915527,0.0340271,0.0155258,-9.97986,0.0112534,0.00106812,0.00629425,-0.0120544,0.0143051,-0.0170517,0.00270844,0.00450134
7,3,6.70796,0.00183105,-0.000457764,-2.42592,0.0535448,-0.0744527,0.0550435,0.0737169,-0.090705,0.146539,-0.126072,-0.0828756,0.00869751,0.0239944,0.017662,0.00556946,0.0339127,-0.0043869,0.0265503,0.013237,-9.97986,0.0175095,-0.000953674,0.00679016,-0.00808716,0.0141144,-0.0169373,0.00881195,0.00648499
7,4,9.01479,0.0012207,0.000915527,-2.42714,0.0550706,-0.0759786,0.0550435,0.103319,-0.0882636,0.145624,-0.123935,-0.0844015,0.0136185,0.0252151,0.0179672,0.00362396,0.0344849,-0.000305176,0.0272369,0.0174713,-9.97986,0.0179672,0.00701904,0.0123978,-0.0131226,0.0138855,-0.0156021,0.00541687,0.00366211
7,5,10.0097,0.000915527,0.00167847,-2.43081,0.0526292,-0.0765889,0.0532125,0.0959947,-0.0931465,0.143487,-0.126072,-0.0859274,0.0166702,0.0236893,0.0164795,0.00740051,0.0273132,-0.00141144,0.0311661,0.0181961,-9.97986,0.0160599,0.000762939,0.00770569,-0.0191116,0.0126648,-0.0180817,0.00423431,0.00404358
7,6,10.0097,-0.000610352,0,-2.4305,0.0535448,-0.0759786,0.0519917,0.0795153,-0.0949775,0.143792,-0.126987,-0.0865377,0.0117493,0.0232697,0.0185013,0.00598907,0.0295258,-0.00598907,0.0404358,0.0193024,-9.97986,0.0108337,0.00160217,0.00930786,-0.017395,0.0115967,-0.0187302,0.00595093,0.00537872
7,7,10.0097,0.0012207,-0.000762939,-2.42959,0.0535448,-0.0765889,0.0516866,0.0728014,-0.0955879,0.143182,-0.127903,-0.0868429,0.0110626,0.0217438,0.0195313,0.00263214,0.0323486,-0.0104141,0.0416946,0.0172424,-9.97986,0.0164413,0.000305176,0.00965118,-0.0252914,0.014801,-0.0195694,0.00183105,0.00408173
7,8,10.0097,-0.0012207,-0.000610352,-2.42959,0.0541551,-0.0759786,0.0519917,0.0709703,-0.0937568,0.143487,-0.127598,-0.0874532,0.0109482,0.0276184,0.0167465,0.00534058,0.0356674,-0.00858307,0.0377274,0.0164413,-9.97986,0.0152588,0.00427246,0.00705719,-0.0191498,0.0149155,-0.0167847,0.0063324,0.00534058
7,9,10.0097,-0.000305176,-0.000305176,-2.42928,0.0532396,-0.0762837,0.0513814,0.0691393,-0.0943672,0.143792,-0.127292,-0.0868429,0.0120926,0.0240707,0.0197983,0.0062561,0.0337219,-0.00854492,0.0391388,0.0160599,-9.97986,0.0170517,0.0043869,0.0142288,-0.0196838,0.0144958,-0.0154495,0.00751495,0.00480652
8,0,10.0097,-0.000305176,-0.000915527,-2.42684,0.0517137,-0.0762837,0.0532125,0.0694445,-0.0931465,0.143792,-0.127292,-0.0859274,0.0120544,0.0266647,0.0154877,0.000267029,0.0342941,-0.00957489,0.0263214,0.0133896,-9.97986,0.0153732,0.00350952,0.013504,-0.0246048,0.0119781,-0.0112915,0.00747681,0.00434875
8,1,10.0097,0,-0.000305176,-2.42684,0.0547655,-0.0744527,0.0547383,0.0688341,-0.0937568,0.145318,-0.126987,-0.0859274,0.00904083,0.0226593,0.017395,0.00488281,0.0367737,-0.0088501,0.0241852,0.0172424,-9.97986,0.0139236,0.000915527,0.0135803,-0.0196457,0.0139236,-0.00862122,0.0123596,0.00419617
8,2,10.0097,-0.000610352,-0.000152588,-2.42776,0.0553758,-0.0747579,0.054128,0.0694445,-0.0943672,0.146539,-0.126377,-0.0844015,0.014267,0.0225449,0.0180817,0.0018692,0.0361633,-0.0130463,0.0268555,0.0166321,-9.97986,0.0151443,-0.000915527,0.00797272,-0.0202942,0.0130463,-0.00492096,0.0101471,0.00396729
8,3,10.0097,0.000305176,0.000305176,-2.42592,0.0562914,-0.0744527,0.0535176,0.0700548,-0.0919257,0.145929,-0.126377,-0.0834859,0.0101471,0.0206757,0.0201416,0.00152588,0.0394058,-0.00995636,0.0237274,0.0124741,-9.97986,0.0125504,0.00335693,0.011673,-0.0210571,0.0161362,-0.00499725,0.0117111,0.0037384
8,4,10.0097,-0.0012207,0.000152588,-2.42592,0.055681,-0.0738423,0.0550435,0.0697496,-0.0916206,0.146234,-0.124546,-0.0816549,0.0109482,0.02388,0.0182724,0.00392914,0.0343323,-0.0112534,0.0255203,0.0162506,-9.97986,0.0177383,0.00217438,0.00774384,-0.0144196,0.0125122,-0.00808716,0.0166702,0.00160217
8,5,10.0097,0.00183105,-0.000152588,-2.42562,0.0559862,-0.0741475,0.0544332,0.0697496,-0.0919257,0.14776,-0.123935,-0.0813497,0.0110245,0.025177,0.0192261,0.00392914,0.0335312,-0.00907898,0.024147,0.0216293,-9.97986,0.0186539,0.00183105,0.0125122,-0.0242233,0.0164413,-0.00358582,0.0113678,0.0025177
8,6,10.0097,0,-0.000305176,-2.42531,0.0544603,-0.0747579,0.0550435,0.0715807,-0.0922309,0.146844,-0.124241,-0.0810445,0.0114441,0.0254822,0.0212479,0.00804901,0.030365,-0.0124741,0.0233459,0.0130463,-9.97986,0.0165558,0.00202179,0.0128555,-0.0150681,0.0172043,-0.00717163,0.0141525,-7.62939e-005
8,7,10.0097,0.000915527,-0.000457764,-2.42531,0.0562914,-0.0744527,0.0553487,0.0706652,-0.0913154,0.146539,-0.124241,-0.0804342,0.00843048,0.0260544,0.020256,0.00537872,0.0299454,-0.00659943,0.0237274,0.01297,-9.97986,0.0182724,0.00152588,0.0128555,-0.0133896,0.0172806,-0.013237,0.00896454,-0.00221252
8,8,10.0097,0,-0.000152588,-2.42562,0.0569017,-0.0741475,0.0556539,0.0682238,-0.0916206,0.145624,-0.124241,-0.0816549,0.0109863,0.0239182,0.0205994,0.00404358,0.0328445,-0.0063324,0.0268555,0.0164032,-9.97986,0.0155258,-0.000152588,0.00762939,-0.0183868,0.015564,-0.0122452,0.0104904,0.00289917
8,9,10.0097,0.00183105,-0.0012207,-2.42653,0.0562914,-0.0747579,0.0535176,0.0401476,-0.0952827,0.146234,-0.127292,-0.0816549,0.00682831,0.0266647,0.0193787,0.00747681,0.030098,-0.00911713,0.0279236,0.0188828,-9.97986,0.0146103,-0.00160217,0.0129318,-0.0165939,0.0122833,-0.0140381,0.0106049,0.00572205
9,0,7.87007,0.000305176,-0.00152588,-2.42653,0.0565965,-0.0744527,0.0553487,0.0441149,-0.0925361,0.147149,-0.126377,-0.0819601,0.0109863,0.0271606,0.0231552,0.00209808,0.0307846,-0.00984192,0.0285339,0.020256,-9.97986,0.0123978,0.000267029,0.0146103,-0.0181961,0.00892639,-0.0194931,0.0104904,0.00350952
9,1,6.69606,-0.000610352,-0.000610352,-2.42562,0.0553758,-0.0753682,0.0553487,0.058153,-0.0916206,0.145013,-0.125461,-0.0810445,0.0105667,0.0260162,0.0223541,0.00770569,0.0321198,-0.00793457,0.018425,0.0174713,-9.97986,0.0151443,0.00221252,0.0111389,-0.020256,0.010376,-0.0161362,0.0129318,0.00865936
9,2,6.58986,0.0012207,0.000152588,-2.42623,0.055681,-0.0744527,0.055959,0.065172,-0.0937568,0.145624,-0.125156,-0.0828756,0.0146103,0.031929,0.021553,0.000686646,0.0339508,-0.00946045,0.0163269,0.0186157,-9.97986,0.0145721,-0.000724792,0.0120926,-0.0215149,0.0100708,-0.0154114,0.0125122,0.00553131
9,3,6.98781,0.000305176,0.000610352,-2.42684,0.055681,-0.0747579,0.055959,0.0761583,-0.0916206,0.146234,-0.125461,-0.0828756,0.0140762,0.025444,0.022583,0.0123215,0.0329208,-0.0100327,0.0206757,0.0189972,-9.97986,0.0196838,0.00110626,0.016098,-0.0137711,0.0196838,-0.0123978,0.0157928,0.0106812
9,4,9.33858,0,0.000610352,-2.42684,0.0559862,-0.0744527,0.0553487,0.104845,-0.0894843,0.143182,-0.123325,-0.0850118,0.0115585,0.0210571,0.0191498,0.00640869,0.0270462,-0.0123978,0.00980377,0.0118256,-9.97986,0.00961304,-0.00640869,0.00835419,-0.0248718,0.0113297,-0.0150681,0.00926971,0.00240326
9,5,10.0097,0.000610352,0.00213623,-2.42867,0.0538499,-0.0765889,0.0513814,0.0938585,-0.0946723,0.144708,-0.126072,-0.0859274,0.013237,0.0266266,0.0198746,0.00892639,0.0355911,-0.00270844,0.0208282,0.0218964,-9.97986,0.0163651,0.00385284,0.0173187,-0.0159836,0.0226974,-0.010376,0.0131226,0.00846863
9,6,10.0097,0.000915527,0.000152588,-2.4302,0.0526292,-0.0756734,0.0513814,0.0779894,-0.0949775,0.142877,-0.126987,-0.0871481,0.00915527,0.0212479,0.0158691,0.00488281,0.0243759,-0.00953674,0.0185776,0.0144196,-9.97986,0.0162125,-0.00259399,0.0128555,-0.0181961,0.0230408,-0.0131226,0.0122452,0.00663757
9,7,10.0097,0.000915527,-0.000152588,-2.42989,0.0547655,-0.0765889,0.0516866,0.07036,-0.095893,0.142877,-0.127292,-0.0871481,0.0110245,0.0210571,0.0175858,0.00919342,0.0220108,-0.00232697,0.0270844,0.0151062,-9.97986,0.0178909,0.000152588,0.0115967,-0.0201416,0.0231552,-0.00671387,0.0129318,-0.000495911
9,8,10.0097,-0.00244141,-0.000305176,-2.42928,0.0535448,-0.075063,0.0529073,0.0697496,-0.0946723,0.143182,-0.127292,-0.0862325,0.0113678,0.0221634,0.0196838,0.00812531,0.0189209,-0.00682831,0.0216675,0.0149918,-9.97986,0.0109863,0.000495911,0.0114822,-0.0160217,0.0265503,-0.00167847,0.016098,-0.00732422
9,9,10.0097,0.000610352,-0.000610352,-2.4302,0.0538499,-0.0762837,0.0516866,0.0694445,-0.0946723,0.142572,-0.127903,-0.0871481,0.00938416,0.0222778,0.021019,0.00682831,0.0183868,-0.00339508,0.0240326,0.0115967,-9.97986,0.0117111,0.00209808,0.00823975,-0.018158,0.0240707,-0.00873566,0.0170517,-0.00770569
10,0,10.0097,0.0012207,-0.000915527,-2.42867,0.0544603,-0.0762837,0.0526021,0.0663927,-0.0934516,0.143487,-0.126987,-0.0856222,0.00720978,0.0242233,0.0230789,0.00556946,0.0230408,-0.00511169,0.0228882,0.0151443,-9.97986,0.0144958,-0.000228882,0.00675201,-0.0170135,0.021019,-0.00881195,0.0128174,-0.00896454
10,1,10.0097,-0.000610352,-0.000457764,-2.42745,0.0547655,-0.075063,0.0526021,0.0700548,-0.094062,0.143792,-0.126377,-0.0856222,0.0094986,0.0197983,0.0222397,0.00530243,0.0210953,-0.00282288,0.0196075,0.0160599,-9.97986,0.0139236,0.00564575,0.0101852,-0.017128,0.0192261,-0.00980377,0.0133514,-0.00499725
10,2,10.0097,-0.000610352,0,-2.42806,0.0550706,-0.0744527,0.0532125,0.0700548,-0.0928413,0.145013,-0.126682,-0.0844015,0.00915527,0.0181961,0.0228119,0.00911713,0.023613,-0.00579834,0.0183105,0.0173569,-9.97986,0.0146103,0.000228882,0.00564575,-0.0187302,0.0167084,-0.0129318,0.0131226,-0.00331879
10,3,10.0097,0.00152588,0.000152588,-2.42592,0.0553758,-0.075063,0.0535176,0.0645616,-0.0937568,0.145929,-0.126072,-0.0837911,0.0111389,0.0232315,0.0222778,0.00850677,0.0271225,-0.00160217,0.0180817,0.015831,-9.97986,0.0145721,-0.000762939,0.0127411,-0.0152206,0.0202942,-0.0160599,0.0142288,0.00431061
10,4,10.0097,-0.000305176,-0.000305176,-2.42562,0.0550706,-0.073232,0.0547383,0.0715807,-0.0919257,0.147149,-0.124851,-0.0795187,0.0130463,0.0226593,0.0219345,0.00385284,0.0219345,0.00144958,0.0147629,0.0156784,-9.97986,0.014801,0.000724792,0.0105286,-0.0185394,0.0214386,-0.0149536,0.0150681,0.00453949
10,5,10.0097,-0.000305176,-0.000915527,-2.42592,0.0565965,-0.0726216,0.0544332,0.0715807,-0.0919257,0.145624,-0.123935,-0.0822652,0.0101471,0.0224304,0.0201035,0.00576019,0.0233841,-0.000457764,0.0172806,0.0169373,-9.97986,0.0130081,-0.000648499,0.0104523,-0.0198746,0.0193405,-0.0202942,0.0149536,-0.000953674
10,6,10.0097,0.000915527,0.000152588,-2.4244,0.0559862,-0.0744527,0.0547383,0.0706652,-0.0913154,0.144403,-0.124241,-0.0807394,0.00541687,0.0205994,0.0194931,0.00450134,0.0224304,0.000534058,0.0208282,0.0172043,-9.97986,0.0149536,-0.000228882,0.0140381,-0.0228119,0.0186539,-0.0233078,0.0164795,0.00236511
10,7,10.0097,0.000610352,0.000305176,-2.4244,0.055681,-0.0741475,0.0538228,0.0712755,-0.0913154,0.147149,-0.124241,-0.080129,0.00839233,0.0175476,0.0180817,0.00648499,0.024147,0.00659943,0.0147247,0.0156784,-9.97986,0.0127792,-0.000839233,0.0119019,-0.0201035,0.0210953,-0.0231171,0.015564,0.00205994
10,8,10.0097,0.000610352,0.000305176,-2.42592,0.0559862,-0.0735371,0.0553487,0.0682238,-0.0934516,0.146539,-0.123935,-0.0819601,0.00614166,0.017128,0.0209427,0.00671387,0.0185394,0.00453949,0.0154114,0.0122452,-9.97986,0.0119781,7.62939e-005,0.0109482,-0.0174713,0.0237656,-0.0165939,0.0205994,0.00164032
10,9,10.0097,-0.000915527,-0.00137329,-2.42684,0.0569017,-0.0744527,0.0529073,0.0364855,-0.0952827,0.145624,-0.126377,-0.0816549,0.0107574,0.0170135,0.0257111,0.00915527,0.0213242,0.0056076,0.00907898,0.0190735,-9.97986,0.0177765,0.00236511,0.0147247,-0.0191498,0.0188828,-0.0166321,0.0140381,0.00354767
11,0,7.99672,0.00183105,-0.000915527,-2.42623,0.0569017,-0.0747579,0.0532125,0.0404528,-0.0943672,0.145929,-0.126682,-0.0810445,0.00934601,0.0183487,0.0232315,0.0094986,0.0207901,0.00141144,0.0122833,0.0172043,-9.97986,0.0102997,0.000152588,0.0107574,-0.0171661,0.0218582,-0.0180435,0.0178146,0.00179291
11,1,6.81172,0.000915527,-0.000152588,-2.42653,0.0553758,-0.0735371,0.0547383,0.0575426,-0.0919257,0.145318,-0.125461,-0.0822652,0.00999451,0.0151443,0.0183487,0.0109482,0.025444,0.00335693,0.00946045,0.017128,-9.97986,0.0111389,-0.000228882,0.0122833,-0.0137711,0.0110245,-0.0157166,0.0190735,0.00274658
11,2,6.7217,0.000915527,-0.000610352,-2.42531,0.0550706,-0.0744527,0.0550435,0.0694445,-0.0919257,0.145624,-0.125766,-0.0828756,0.0088501,0.0201035,0.0194168,0.0109482,0.0208282,0.00087738,0.00392914,0.0138855,-9.97986,0.0155258,-0.00171661,0.00896454,-0.0148773,0.0125504,-0.0133133,0.0168228,0.00225067
11,3,7.12483,-0.0012207,0.000457764,-2.42653,0.0550706,-0.0753682,0.0547383,0.0776842,-0.0913154,0.145318,-0.125461,-0.0816549,0.00995636,0.0197983,0.0202179,0.0102997,0.021286,0.00495911,0.00415802,0.0165176,-9.97986,0.0122452,0.00156403,0.016861,-0.0117493,0.0162506,-0.0160217,0.0213242,0.00392914
11,4,9.5226,0,0.000915527,-2.42592,0.0538499,-0.0747579,0.0556539,0.103624,-0.088874,0.145013,-0.123935,-0.0847066,0.0115967,0.0217056,0.0189209,0.0123978,0.0205994,0.00419617,0.00087738,0.0127411,-9.97986,0.0125885,-0.0019455,0.017395,-0.0150681,0.011673,-0.0159836,0.0217438,0.00282288
11,5,10.0097,0.00244141,0.000915527,-2.42837,0.0535448,-0.0756734,0.0526021,0.0880602,-0.0934516,0.144403,-0.126377,-0.0865377,0.00911713,0.0209045,0.0206757,0.0138855,0.0203705,0.00736237,0.00717163,0.0188828,-9.97986,0.0139618,-0.000762939,0.0181961,-0.0192261,0.0130844,-0.0134277,0.0208664,-0.000343323
11,6,10.0097,-0.000305176,0.000457764,-2.42959,0.0529344,-0.0759786,0.0532125,0.0785997,-0.0955879,0.145318,-0.126682,-0.0901998,0.00862122,0.020256,0.0212479,0.0108337,0.0226593,0.00247955,0.00965118,0.0175476,-9.97986,0.0147629,-0.00125885,0.0133133,-0.0118637,0.0196075,-0.0113297,0.0174713,0.00175476
11,7,10.0097,0,0.000305176,-2.43142,0.0529344,-0.0756734,0.0522969,0.072191,-0.095893,0.142877,-0.126987,-0.0865377,0.00846863,0.0176239,0.0195694,0.0116348,0.0200272,0.00728607,0.0144577,0.017395,-9.97986,0.0131226,-0.00213623,0.0165176,-0.00629425,0.0165176,-0.0125504,0.019722,-0.00114441
11,8,10.0097,-0.000305176,-0.000305176,-2.42928,0.0535448,-0.0759786,0.0519917,0.0740221,-0.095893,0.143792,-0.127292,-0.0862325,0.0105286,0.0222778,0.0207901,0.01091,0.0202179,0.00694275,0.0204849,0.0164413,-9.97986,0.0144577,3.8147e-005,0.0151825,-0.00362396,0.0204086,-0.00480652,0.0189972,0.00267029
11,9,10.0097,0,0,-2.42898,0.0541551,-0.0753682,0.0526021,0.07036,-0.0946723,0.143487,-0.127598,-0.0877584,0.00701904,0.0210953,0.0181961,0.0115967,0.0221634,0.0117874,0.0167465,0.0118637,-9.97986,0.0108719,-0.00228882,0.0187683,-0.00556946,0.0170135,-0.00728607,0.0179291,0.00164032
12,0,10.0097,0.00183105,-0.00106812,-2.43264,0.0538499,-0.0762837,0.0535176,0.0694445,-0.0943672,0.144403,-0.126377,-0.0865377,0.0127411,0.0197601,0.0207138,0.0120163,0.0181198,0.0129318,0.0125504,0.0151443,-9.97986,0.0130844,-0.00270844,0.0146866,-0.00507355,0.0163651,-0.00595093,0.0190353,0.00114441
12,1,10.0097,0.000610352,-0.000152588,-2.42776,0.0550706,-0.0753682,0.0526021,0.0706652,-0.0946723,0.143182,-0.126072,-0.085317,0.0111008,0.0177002,0.0209427,0.0132751,0.0182724,0.00789642,0.0141525,0.0149536,-9.97986,0.0133896,-0.00179291,0.0204468,-0.00988007,0.015564,-0.0069809,0.0201035,0.00656128
12,2,10.0097,0.0012207,-0.000152588,-2.42653,0.0544603,-0.075063,0.054128,0.07036,-0.0925361,0.141351,-0.126072,-0.0865377,0.0143433,0.0214386,0.0220871,0.0148773,0.020752,0.00812531,0.00801086,0.0165558,-9.97986,0.0118256,-0.00305176,0.0199509,-0.00484467,0.01194,-0.00133514,0.0198364,0.00442505
12,3,10.0097,-0.00152588,0.00106812,-2.4302,0.0544603,-0.0759786,0.0547383,0.0697496,-0.0931465,0.144708,-0.125461,-0.0834859,0.0164032,0.0212479,0.0183868,0.0115967,0.0146484,0.0106049,0.00408173,0.0176239,-9.97986,0.00823975,-0.00278473,0.0216293,-0.00514984,0.0125504,-0.00213623,0.021286,0.000762939
12,4,10.0097,0,0.000305176,-2.42531,0.0547655,-0.0729268,0.0544332,0.0688341,-0.0910102,0.146844,-0.124851,-0.0816549,0.0117874,0.0242233,0.0157166,0.0134277,0.0134277,0.013504,0.0117874,0.0172424,-9.97986,0.0140381,-0.0018692,0.0212479,-0.00423431,0.00915527,-0.00205994,0.0180054,0.00267029
12,5,10.0097,0.00152588,0.000152588,-2.42653,0.055681,-0.0738423,0.0547383,0.0706652,-0.0919257,0.149286,-0.124851,-0.080129,0.0104523,0.0242996,0.0160599,0.0118637,0.0138855,0.0115967,0.0180817,0.0162125,-9.97986,0.0164413,-0.00167847,0.0183868,-0.00614166,0.0111008,0.00038147,0.0196457,0.00511169
12,6,10.0097,0.000610352,0.000762939,-2.42013,0.0559862,-0.0741475,0.0556539,0.0712755,-0.0913154,0.147455,-0.123935,-0.0810445,0.0129318,0.0286102,0.0182343,0.0124359,0.0143433,0.0115204,0.015831,0.0191879,-9.97986,0.0120926,0,0.0246048,-0.00946045,0.0150681,0.00125885,0.0208282,0.00389099
12,7,10.0097,0.00274658,-0.000152588,-2.4247,0.0565965,-0.0704854,0.0553487,0.07036,-0.0913154,0.146234,-0.124851,-0.0810445,0.0101471,0.0278091,0.0193405,0.0107193,0.0180054,0.0104523,0.0220108,0.0173187,-9.97986,0.0152969,-0.00415802,0.0248337,-0.00869751,0.0123215,0.00343323,0.0190353,0.00545502
12,8,10.0097,0.00183105,0,-2.42592,0.0569017,-0.0741475,0.054128,0.0673082,-0.0922309,0.146539,-0.124851,-0.0847066,0.01297,0.022316,0.0165176,0.014801,0.0136566,0.0127411,0.0247955,0.0197601,-9.97986,0.0124741,-0.00156403,0.0227737,-0.00808716,0.0177002,0.00133514,0.0202179,0.00499725
12,9,10.0097,-0.0012207,-0.00106812,-2.42928,0.0569017,-0.0744527,0.0529073,0.0380113,-0.0961982,0.147455,-0.126072,-0.0822652,0.014267,0.0295258,0.0183868,0.0123596,0.0123215,0.00873566,0.0253677,0.0184631,-9.97986,0.0127411,0.00263214,0.0198364,-0.00793457,0.0135803,0.00392914,0.02285,0.00431061
13,0,7.76967,0.000610352,-0.00167847,-2.42592,0.0572069,-0.0756734,0.0544332,0.0450304,-0.0934516,0.145318,-0.127292,-0.0816549,0.00873566,0.0273514,0.0159836,0.00801086,0.0124359,0.0122833,0.0213623,0.0186157,-9.97986,0.01194,7.62939e-005,0.0220108,-0.00709534,0.0153732,0.0069046,0.0222778,0.00675201
13,1,6.6393,0.000305176,-0.000457764,-2.42623,0.0562914,-0.0735371,0.0550435,0.0566271,-0.0928413,0.143792,-0.126682,-0.0834859,0.0109482,0.0229263,0.0210571,0.0069046,0.0148773,0.0115585,0.0186157,0.0154495,-9.97986,0.0123215,0.00106812,0.0263977,-0.00694275,0.0157928,0.00740051,0.0212097,0.00244141
13,2,6.51143,0.00152588,-0.0012207,-2.42959,0.0544603,-0.0738423,0.0535176,0.065172,-0.0919257,0.145929,-0.126377,-0.0828756,0.0132751,0.0284958,0.0177383,0.00545502,0.0138092,0.0110626,0.0151825,0.0187683,-9.97986,0.0183868,0.000495911,0.0257111,-0.00606537,0.012207,0.00610352,0.0216293,0.00511169
13,3,6.88954,0.000305176,0.000305176,-2.42684,0.055681,-0.0781148,0.0553487,0.072191,-0.0910102,0.146234,-0.125156,-0.0831808,0.00976563,0.0232315,0.0210571,0.00972748,0.0149536,0.0162506,0.0167084,0.0164795,-9.97986,0.0148392,-0.00160217,0.0251007,-0.00396729,0.00812531,0.00961304,0.02491,0.00617981
13,4,9.29646,0.000915527,0.00137329,-2.42684,0.0547655,-0.0753682,0.0568746,0.103014,-0.0903999,0.143182,-0.125156,-0.0844015,0.0102234,0.0223541,0.0178909,0.0130463,0.0124741,0.0127029,0.0139618,0.0156784,-9.97986,0.0120163,0.00183105,0.0224304,-0.00457764,0.0170135,0.0126266,0.0175476,0.00766754
13,5,10.0097,-0.000610352,0.00152588,-2.42592,0.0535448,-0.0771993,0.0522969,0.094774,-0.0934516,0.143182,-0.126682,-0.0868429,0.0115585,0.0260544,0.0195313,0.00431061,0.00652313,0.0107956,0.0139236,0.0174713,-9.97986,0.0109863,0.000457764,0.0229645,0.000267029,0.0118256,0.00988007,0.016098,0.00267029
13,6,10.0097,-0.000915527,0.000610352,-2.42989,0.0547655,-0.0793355,0.0519917,0.0776842,-0.0965034,0.143182,-0.126377,-0.0871481,0.0118637,0.0229645,0.0231934,0.00343323,0.0100327,0.00915527,0.0133133,0.00862122,-9.97986,0.00938416,0.000457764,0.0219727,0.000305176,0.0151443,0.0114441,0.0195313,0.00385284
13,7,10.0097,0.000305176,0.000762939,-2.42867,0.0520189,-0.0759786,0.0522969,0.0728014,-0.0946723,0.143182,-0.127292,-0.0871481,0.0120544,0.022049,0.0212479,0.0113678,0.00984192,0.0119019,0.013237,0.0151825,-9.97986,0.0110245,-0.000534058,0.0234222,0.00247955,0.0159454,0.00968933,0.0172043,0.00476837
13,8,10.0097,0.00152588,-0.000610352,-2.42684,0.0538499,-0.0771993,0.0522969,0.0712755,-0.0952827,0.141046,-0.128513,-0.0871481,0.0112152,0.026741,0.0190735,0.0136185,0.0132751,0.0146103,0.0151062,0.0177765,-9.97986,0.0142288,0.000801086,0.0207138,0.00362396,0.0135803,0.0106049,0.018692,0.00484467
13,9,10.0097,-0.000305176,-0.000457764,-2.42989,0.0541551,-0.0787251,0.0526021,0.0718859,-0.0961982,0.143792,-0.126682,-0.0874532,0.00888824,0.0278473,0.0204849,0.010376,0.0133514,0.0153351,0.0126648,0.0125504,-9.97986,0.0118637,-0.000343323,0.0263596,0.00583649,0.0144196,0.00953674,0.0162125,0.0031662
14,0,10.0097,-0.000610352,-0.000152588,-2.42898,0.0532396,-0.0756734,0.0532125,0.0691393,-0.0937568,0.142267,-0.126072,-0.0862325,0.0155258,0.0228119,0.0204849,0.00419617,0.0102997,0.0169754,0.0172806,0.016861,-9.97986,0.0158691,-0.000724792,0.0251389,0.0119781,0.0183105,0.00984192,0.0168991,0.0043869
14,1,10.0097,0.0012207,-0.000152588,-2.42745,0.0538499,-0.0747579,0.0535176,0.0676134,-0.0931465,0.144403,-0.126377,-0.0850118,0.00862122,0.0251389,0.0190735,-0.014801,0.0132751,0.0148773,0.0177765,0.0121689,-9.97986,0.0111771,0.00358582,0.0246811,0.00595093,0.0143814,0.00411987,0.0144577,0.00156403
14,2,10.0097,0.000305176,0.000305176,-2.42684,0.0544603,-0.0778096,0.0544332,0.0676134,-0.0922309,0.145318,-0.126682,-0.0844015,0.0123596,0.0273132,0.0192261,-0.0162125,0.0157547,0.0171661,0.0227356,0.0188446,-9.97986,0.0149155,-0.00171661,0.0231934,0.0124741,0.0177383,0.010643,0.0209045,0.00514984
14,3,10.0097,0.00213623,0.000305176,-2.42745,0.0553758,-0.0756734,0.0538228,0.0700548,-0.0931465,0.145624,-0.125156,-0.0847066,0.00869751,0.026474,0.0211334,-0.000534058,0.0152588,0.0140762,0.0202942,0.0176239,-9.97986,0.0123215,-0.000267029,0.0246048,0.0113297,0.0161743,0.00827789,0.0191116,0.00339508
14,4,10.0097,-0.000305176,0.000305176,-2.4244,0.0553758,-0.0744527,0.0556539,0.07036,-0.0928413,0.145624,-0.125461,-0.0819601,0.0151443,0.0265884,0.0182724,0.0367737,0.0128937,0.0164413,0.0241852,0.0159073,-9.97986,0.0104141,0.00267029,0.022316,0.00492096,0.017395,-7.62939e-005,0.0176239,0.00511169
14,5,10.0097,0.000305176,0.000457764,-2.4244,0.0553758,-0.075063,0.0550435,0.0709703,-0.0919257,0.145318,-0.12363,-0.0810445,0.00785828,0.0229263,0.016861,0.0499725,0.017662,0.0159454,0.0259781,0.0190353,-9.97986,0.016861,-0.00179291,0.0263214,0.00541687,0.0179672,-0.00167847,0.0179672,-0.000305176
14,6,10.0097,0,0.000152588,-2.42623,0.055681,-0.0753682,0.0547383,0.0712755,-0.0916206,0.148675,-0.12363,-0.0804342,0.0094986,0.026741,0.0167847,0.0544357,0.0180435,0.0154877,0.0253677,0.017395,-9.97986,0.015831,-0.00190735,0.0227737,0.00705719,0.0152206,0.00141144,0.0162888,0.00461578
14,7,10.0097,0.000305176,-0.000457764,-2.42348,0.0572069,-0.0738423,0.0550435,0.0712755,-0.0925361,0.146234,-0.123325,-0.0813497,0.0107574,0.0255966,0.0197601,0.0476074,0.016098,0.0172806,0.0224304,0.0156403,-9.97986,0.0148773,-0.000419617,0.0214767,0.00610352,0.0188446,0.00385284,0.0162888,0.00457764
14,8,10.0097,0.000610352,-0.000305176,-2.42501,0.0562914,-0.0723164,0.0550435,0.0694445,-0.0925361,0.146539,-0.124241,-0.0807394,0.0120926,0.0249481,0.0195313,0.0449371,0.0174713,0.0160599,0.0177765,0.0149155,-9.97986,0.0128937,0.00583649,0.0167847,0.00629425,0.0194168,0.00801086,0.0177765,0.00442505
14,9,10.0097,0.00152588,-0.00106812,-2.42623,0.0562914,-0.0726216,0.054128,0.0389269,-0.095893,0.147149,-0.126987,-0.0816549,0.00923157,0.0258636,0.0194931,0.0383759,0.0158691,0.014267,0.016861,0.0183105,-9.97986,0.00995636,0.00720978,0.021286,0.0075531,0.0141525,0.0130844,0.0152969,0.00900269
15,0,7.90456,0.000610352,-0.000457764,-2.42287,0.0553758,-0.0729268,0.0544332,0.0435045,-0.0925361,0.145318,-0.125766,-0.0819601,0.013504,0.0262451,0.0208664,0.030098,0.018158,0.0181198,0.0180054,0.0150681,-9.97986,0.0128174,-0.00171661,0.0196075,0.0037384,0.01194,0.014267,0.0150299,0.00541687
15,1,6.78334,0.000305176,-0.000610352,-2.42562,0.055681,-0.0759786,0.0544332,0.0612047,-0.0891792,0.145929,-0.125156,-0.0816549,0.01194,0.0246811,0.0197601,0.0257492,0.0185394,0.0177765,0.018692,0.0154495,-9.97986,0.0134659,0.00278473,0.0254822,0.00785828,0.0168228,0.0138855,0.0186539,0.00652313
15,2,6.69728,0.000915527,0.000305176,-2.42653,0.0550706,-0.075063,0.0550435,0.0648668,-0.0919257,0.145624,-0.125766,-0.0822652,0.0110245,0.0189209,0.018692,0.0154877,0.0168991,0.0143051,0.015831,0.0156403,-9.97986,0.0114441,0.000572205,0.0226593,0.00522614,0.0165558,0.0173187,0.0170135,0.00797272
15,3,7.08425,0.000610352,0,-2.42623,0.0559862,-0.0747579,0.0547383,0.075548,-0.0922309,0.145318,-0.124851,-0.0834859,0.0111771,0.0193405,0.0243759,0.0146866,0.0169373,0.0179291,0.0134659,0.0136948,-9.97986,0.0144196,0.00102997,0.0219345,0.0069809,0.0135422,0.016098,0.0175858,0.00640869
15,4,9.47438,0.00152588,0.000915527,-2.42745,0.0550706,-0.0741475,0.0550435,0.102403,-0.0894843,0.145624,-0.123935,-0.0837911,0.00587463,0.0162888,0.021553,0.0230408,0.0186539,0.0127411,0.0162506,0.0155258,-9.97986,0.0150299,0.00202179,0.0237656,0.00598907,0.0102615,0.0153732,0.018158,0.00617981
15,5,10.0097,-0.000305176,0.00167847,-2.42928,0.0538499,-0.0759786,0.0532125,0.0926378,-0.0937568,0.143182,-0.124851,-0.0883688,0.00965118,0.0170517,0.0205994,0.0253677,0.0167465,0.00995636,0.0142288,0.015831,-9.97986,0.0106812,-0.000953674,0.0216293,0.00652313,0.0145721,0.0218201,0.0172806,0.00675201
15,6,10.0097,0,0.000457764,-2.43081,0.0520189,-0.0756734,0.0519917,0.0767687,-0.0961982,0.143487,-0.126377,-0.0874532,0.00881195,0.0231934,0.018692,0.0273132,0.0165558,0.0124741,0.0191879,0.016098,-9.97986,0.0119781,-0.00312805,0.02491,0.0102234,0.0138092,0.0239182,0.0169373,0.00724792
15,7,10.0097,-0.000305176,0.000610352,-2.42867,0.0547655,-0.0762837,0.0519917,0.0728014,-0.0952827,0.143487,-0.128513,-0.0865377,0.0116348,0.0238037,0.0222397,0.022316,0.0170135,0.0166702,0.0227737,0.0137711,-9.97986,0.0125122,0.00598907,0.0170135,0.00999451,0.0135803,0.0271606,0.0160217,0.00583649
15,8,10.0097,-0.00152588,-0.000610352,-2.42989,0.0532396,-0.0753682,0.0526021,0.0697496,-0.0952827,0.142877,-0.127598,-0.0868429,0.0118637,0.02388,0.0206375,0.0204849,0.0207901,0.0127792,0.0186157,0.019989,-9.97986,0.011673,0.00549316,0.0183868,0.00911713,0.0160599,0.0261307,0.0168228,0.00724792
15,9,10.0097,0.000915527,-0.000152588,-2.42745,0.0535448,-0.0744527,0.0526021,0.0688341,-0.0937568,0.143487,-0.127598,-0.0868429,0.0117874,0.0217819,0.0197983,0.0214767,0.0207138,0.0119019,0.0230408,0.0162888,-9.97986,0.00953674,0.00148773,0.022583,0.0113297,0.0185776,0.0257874,0.0153732,0.00701904
16,0,10.0097,0.000610352,-0.000152588,-2.42806,0.0544603,-0.0744527,0.0522969,0.0685289,-0.094062,0.142877,-0.127598,-0.0862325,0.00953674,0.0253677,0.0188446,0.015564,0.0154495,0.0122833,0.0247574,0.021019,-9.97986,0.0109482,0.00102997,0.018425,0.00961304,0.0159454,0.0247574,0.0141525,0.00751495
16,1,10.0097,0.000610352,-0.000457764,-2.42745,0.0544603,-0.0756734,0.0529073,0.0697496,-0.0931465,0.144098,-0.127292,-0.085317,0.0107956,0.0169754,0.0189972,0.014534,0.0139618,0.0107956,0.0199127,0.0192642,-9.97986,0.0100708,0.00289917,0.0191498,0.0130081,0.0149536,0.0239563,0.0159073,0.00556946
16,2,10.0097,-0.000305176,0.000610352,-2.42684,0.0544603,-0.0753682,0.0538228,0.0700548,-0.0934516,0.143792,-0.126072,-0.0840963,0.0115204,0.0256729,0.0152969,0.0140762,0.0183487,0.0120926,0.0271225,0.0171661,-9.97986,0.0160217,-0.00171661,0.0196075,0.00915527,0.0151443,0.0248337,0.0171661,0.00732422
16,3,10.0097,-0.000610352,0.000610352,-2.42653,0.0541551,-0.0738423,0.0526021,0.07036,-0.0931465,0.145318,-0.126377,-0.0847066,0.0111389,0.0193405,0.0161743,0.0103378,0.0226974,0.0136948,0.0172806,0.0180435,-9.97986,0.0175476,-0.00427246,0.0169373,0.00999451,0.017662,0.0267792,0.0137329,0.00640869
16,4,10.0097,0,-0.000305176,-2.42592,0.0562914,-0.0729268,0.0550435,0.0712755,-0.0931465,0.145318,-0.125461,-0.0813497,0.0121307,0.0193787,0.018158,0.0129318,0.0196838,0.00984192,0.0217819,0.0194931,-9.97986,0.0170135,0.00148773,0.0188065,0.0130463,0.0142288,0.025444,0.0162125,0.00759125
16,5,10.0097,-0.000305176,0.000305176,-2.42501,0.0559862,-0.0738423,0.0550435,0.0694445,-0.0910102,0.145318,-0.12363,-0.0819601,0.00854492,0.0202942,0.0167847,0.0088501,0.0164413,0.0112534,0.0241852,0.0217819,-9.97986,0.0125885,-0.00320435,0.0102234,0.0105286,0.0171661,0.0193024,0.0148392,0.00427246
16,6,10.0097,0,0.000457764,-2.42562,0.055681,-0.0723164,0.0553487,0.07036,-0.0919257,0.146844,-0.124241,-0.0816549,0.0117111,0.0209427,0.0221634,0.00801086,0.021553,0.0173569,0.0333786,0.0175476,-9.97986,0.0174332,-0.00164032,0.0177765,0.0127411,0.0191498,0.0200653,0.0147629,0.00915527
16,7,10.0097,-0.000610352,0.000152588,-2.4244,0.0572069,-0.0729268,0.0532125,0.0709703,-0.0922309,0.147455,-0.124851,-0.0810445,0.0114059,0.0189972,0.0194168,0.00217438,0.0152206,0.014534,0.0330353,0.0120544,-9.97986,0.0104141,0.000534058,0.015831,0.0123978,0.0126266,0.0154877,0.0136566,0.00862122
16,8,10.0097,0.000305176,0.000457764,-2.42531,0.0550706,-0.0735371,0.0550435,0.0679186,-0.0919257,0.146234,-0.124851,-0.0810445,0.0117493,0.021019,0.0204849,0.0056076,0.0162506,0.0128937,0.0331879,0.0174332,-9.97986,0.0120926,-0.00240326,0.0128937,0.0136948,0.0145721,0.0137711,0.0111771,0.00694275
16,9,10.0097,-0.00152588,-0.00167847,-2.42562,0.0562914,-0.0738423,0.0544332,0.0422838,-0.0952827,0.145624,-0.126987,-0.0819601,0.011673,0.0223541,0.0191879,0.00644684,0.0231552,0.00991821,0.025177,0.0177765,-9.97986,0.0121689,-0.00530243,0.0130844,0.0161743,0.0188446,0.00957489,0.0141907,0.00850677
17,0,7.98787,0.000915527,-0.000915527,-2.42714,0.0569017,-0.0747579,0.0544332,0.0438097,-0.0946723,0.146234,-0.126377,-0.0825704,0.0069046,0.0224686,0.0183868,0.00587463,0.0169754,0.0159836,0.018692,0.0226212,-9.97986,0.0156403,0,0.0187302,0.0157928,0.0203705,0.0132751,0.0133514,0.00896454
17,1,6.84011,0.000305176,-0.00106812,-2.42409,0.0565965,-0.0753682,0.0550435,0.0584581,-0.0922309,0.147149,-0.126072,-0.0822652,0.0115967,0.0183105,0.017128,0.00125885,0.0162888,0.0173187,0.0159073,0.0233459,-9.97986,0.0120163,-0.00358582,0.0120926,0.017128,0.0117493,0.0125885,0.0151443,0.0038147
17,2,6.7162,0.000610352,-0.000610352,-2.42592,0.0562914,-0.075063,0.0550435,0.0645616,-0.0922309,0.145013,-0.125461,-0.0819601,0.0125504,0.0261307,0.0170898,0.00679016,0.0175858,0.0175858,0.0175858,0.0249863,-9.97986,0.0173569,-0.00286102,0.0154877,0.0166702,0.0128937,0.0128937,0.0150299,0.00968933
17,3,7.13155,-0.000305176,0.000305176,-2.42623,0.0553758,-0.0756734,0.0547383,0.075548,-0.0913154,0.146539,-0.125766,-0.0837911,0.0114441,0.0241089,0.0171661,-0.000686646,0.0162125,0.0144958,0.0216293,0.0259781,-9.97986,0.00953674,0.00190735,0.0144577,0.016861,0.0162888,0.0148392,0.0154877,0.00762939
17,4,9.53359,0.00152588,0.00152588,-2.42867,0.0541551,-0.0753682,0.0550435,0.104845,-0.0897895,0.145013,-0.125156,-0.0840963,0.00930786,0.0255203,0.0186157,-0.00408173,0.0115967,0.0144196,0.0291061,0.0247574,-9.97986,0.0120544,-0.00484467,0.00923157,0.0181198,0.0165558,0.0115585,0.0115967,0.00511169
17,5,10.0097,-0.000610352,0.00183105,-2.42989,0.0535448,-0.0771993,0.0532125,0.0923326,-0.0934516,0.144708,-0.126377,-0.0856222,0.00907898,0.0231934,0.0165176,0.00747681,0.0150299,0.0175476,0.0290298,0.0191116,-9.97986,0.0113678,0.00228882,0.0121307,0.0180817,0.0207901,0.0130081,0.0146103,0.00747681
17,6,10.0097,0,0.000762939,-2.42959,0.0541551,-0.0759786,0.0513814,0.077379,-0.0946723,0.145013,-0.127598,-0.0883688,0.0132751,0.0221634,0.0177383,0.00263214,0.0110626,0.0198364,0.0266266,0.026207,-9.97986,0.0135422,-0.0043869,0.00862122,0.0179291,0.0193024,0.0162506,0.013504,0.00896454
17,7,10.0097,0.000305176,0.000305176,-2.42898,0.0529344,-0.0762837,0.0522969,0.0724962,-0.0955879,0.142877,-0.126987,-0.0868429,0.0112152,0.0249481,0.021019,-0.0151825,0.0151825,0.016861,0.027504,0.0222778,-9.97986,0.014267,-0.00171661,0.0133896,0.0231934,0.0163651,0.0115204,0.0134277,0.0115204
17,8,10.0097,0.0012207,-0.000457764,-2.42928,0.0532396,-0.075063,0.0529073,0.0694445,-0.095893,0.143182,-0.127598,-0.0862325,0.0121307,0.0238419,0.0191116,-0.00785828,0.0143051,0.0161362,0.021553,0.0227737,-9.97986,0.0117874,-0.00167847,0.00934601,0.0224686,0.0180817,0.00587463,0.0118256,0.0137329
17,9,10.0097,-0.00152588,-0.000610352,-2.42989,0.0526292,-0.0756734,0.0526021,0.0700548,-0.0955879,0.143792,-0.127903,-0.085317,0.00957489,0.0223541,0.0233841,0.0247955,0.0100708,0.0139236,0.0179672,0.0227356,-9.97986,0.0123215,-0.00335693,0.00564575,0.0174713,0.0205994,0.00217438,0.0128174,0.0119019
18,0,10.0097,0.000305176,-0.000305176,-2.42776,0.0547655,-0.0759786,0.0522969,0.0697496,-0.0949775,0.143792,-0.126377,-0.085317,0.0103378,0.023613,0.0185776,0.0314713,0.00946045,0.0135803,0.0143433,0.0254059,-9.97986,0.0128937,-0.00415802,0.010643,0.0209808,0.0202942,0.0126266,0.0138855,0.0137329
18,1,10.0097,0.000610352,-0.000305176,-2.42776,0.0538499,-0.0753682,0.0544332,0.0709703,-0.0934516,0.144098,-0.125766,-0.0856222,0.0112534,0.0205994,0.0199509,0.0207901,0.0101852,0.0168991,0.0194168,0.0172806,-9.97986,0.0177765,-0.000610352,0.0117874,0.0190353,0.0197983,0.0107193,0.00873566,0.0120163
18,2,10.0097,0.00244141,-0.000305176,-2.42714,0.0547655,-0.0747579,0.0526021,0.0728014,-0.094062,0.145013,-0.126377,-0.0837911,0.00804901,0.021286,0.0174332,0.0104141,0.00770569,0.0138855,0.0149155,0.0187683,-9.97986,0.0138855,-0.00370026,0.00827789,0.0190735,0.0206375,0.0113678,0.0111008,0.014534
18,3,10.0097,-0.000915527,0.000610352,-2.42684,0.0553758,-0.075063,0.0550435,0.0700548,-0.0922309,0.143792,-0.126377,-0.0831808,0.00869751,0.022049,0.021019,0.00751495,0.00785828,0.019989,0.0169373,0.0139618,-9.97986,0.0148392,-0.00141144,0.00507355,0.0185776,0.0199127,0.0172806,0.0142288,0.0127792
18,4,10.0097,0.000915527,-0.000610352,-2.42592,0.0562914,-0.0735371,0.0553487,0.0715807,-0.0903999,0.146234,-0.124241,-0.0822652,0.0129318,0.0240707,0.0175858,0.011673,0.00846863,0.0128555,0.018692,0.00926971,-9.97986,0.0199509,0.00171661,0.0120926,0.0205994,0.0189209,0.0206375,0.011673,0.0150681
18,5,10.0097,0.000610352,0.000457764,-2.42562,0.0572069,-0.0738423,0.0550435,0.0718859,-0.0916206,0.146844,-0.123935,-0.0822652,0.00465393,0.0218201,0.0153351,0.0133514,0.0120163,0.0120544,0.0142288,0.00545502,-9.97986,0.0165176,0.000572205,0.00591278,0.0183868,0.0163269,0.0174713,0.0114441,0.0148773
18,6,10.0097,0.0012207,-0.000152588,-2.42562,0.0569017,-0.0738423,0.0538228,0.0697496,-0.0916206,0.147455,-0.123935,-0.0816549,0.00873566,0.0166702,0.0174713,0.0112152,0.0128555,0.0152969,0.0141144,0.00953674,-9.97986,0.0146103,-0.00411987,0.00801086,0.0218582,0.0163269,0.0223541,0.0103378,0.0133514
18,7,10.0097,0.000610352,0.000152588,-2.4247,0.0550706,-0.0726216,0.0550435,0.0712755,-0.0925361,0.145318,-0.124241,-0.0810445,0.00709534,0.0114441,0.0125122,0.000991821,0.0101852,0.0151443,0.0160599,0.0149918,-9.97986,0.016861,0.00190735,0.0101471,0.022583,0.0178146,0.0219345,0.0124741,0.0154495
18,8,10.0097,0.000915527,-0.000152588,-2.42409,0.0553758,-0.0747579,0.054128,0.0673082,-0.0928413,0.14837,-0.12363,-0.080129,0.00892639,0.0149918,0.0126648,-0.0102234,0.00919342,0.0108337,0.0139236,0.0131226,-9.97986,0.0170135,0.000343323,0.00762939,0.0213242,0.0165176,0.0179291,0.00984192,0.0105667
18,9,10.0097,-0.000305176,-0.0012207,-2.42623,0.0562914,-0.0744527,0.0535176,0.0380113,-0.0952827,0.145013,-0.126377,-0.0810445,0.0109482,0.018959,0.0195313,-0.0117111,0.0102615,0.0164795,0.0237656,0.0194931,-9.97986,0.0176239,0.00232697,0.00801086,0.0245667,0.0156021,0.0110626,0.00663757,0.0147247
19,0,7.83193,0.000915527,-0.00152588,-2.42562,0.0565965,-0.075063,0.054128,0.0453356,-0.0946723,0.146844,-0.126987,-0.0816549,0.00598907,0.0140762,0.0161362,-0.0223541,0.00480652,0.00808716,0.0291824,0.0136948,-9.97986,0.0182343,-0.000228882,0.00511169,0.0202942,0.019455,0.00576019,0.00915527,0.00873566
19,1,6.6512,0.000305176,-0.000610352,-2.42592,0.0550706,-0.0747579,0.0550435,0.0551012,-0.0928413,0.146844,-0.126682,-0.0813497,0.0102234,0.0296783,0.0209808,-0.0329971,0.00976563,0.0115204,0.0356674,0.0149918,-9.97986,0.0160217,-0.000343323,0.00732422,0.0257492,0.0191498,0.00606537,0.0136948,0.00999451
19,2,6.53615,0.00183105,-0.000610352,-2.42623,0.055681,-0.075063,0.0550435,0.0666979,-0.0919257,0.145318,-0.124546,-0.0828756,0.00965118,0.0196457,0.0159073,-0.0225067,0.00896454,0.0120544,0.029335,0.0205231,-9.97986,0.0157166,0.00164032,0.0075531,0.0241089,0.0157166,0.0038147,0.0131989,0.0114441
19,3,6.91884,0.000305176,0.000457764,-2.42714,0.0550706,-0.075063,0.0550435,0.0746324,-0.090705,0.144403,-0.124546,-0.0828756,0.0109863,0.0240707,0.0137329,-0.0116348,0.00637054,0.0125885,0.0310516,0.021019,-9.97986,0.019722,-0.00297546,0.00621796,0.0204468,0.0127411,0.000724792,0.0137329,0.0125122
19,4,9.34224,0,0.00106812,-2.42745,0.0541551,-0.0765889,0.0535176,0.103624,-0.0903999,0.144708,-0.12363,-0.0847066,0.014267,0.0203323,0.00587463,-0.00801086,0.0119781,0.00843048,0.0232315,0.0210571,-9.97986,0.0139618,-0.001297,0.00415802,0.0239563,0.0175858,-0.00038147,0.0131607,0.0153351
19,5,10.0097,0.00305176,0.0012207,-2.42928,0.0529344,-0.0756734,0.0516866,0.0944689,-0.0949775,0.143182,-0.126377,-0.085317,0.0111008,0.0200272,0.00362396,0.0159836,0.0148392,0.012207,0.0225067,0.0226212,-9.97986,0.0119781,0.0030899,0.00865936,0.0274277,0.012207,0.00434875,0.0122833,0.0110626
19,6,10.0097,-0.000305176,0.000152588,-2.42867,0.0541551,-0.0759786,0.0516866,0.0785997,-0.0949775,0.142877,-0.127292,-0.0877584,0.0123596,0.0148392,0.00171661,0.0284576,0.00972748,0.0104141,0.022316,0.0196838,-9.97986,0.0104904,0.000686646,0.00572205,0.0241089,0.011673,0.00259399,0.00984192,0.0145721
19,7,10.0097,-0.000305176,-0.000152588,-2.42959,0.0544603,-0.0762837,0.0513814,0.0740221,-0.0955879,0.143792,-0.128513,-0.0871481,0.0135422,0.0154114,0.000724792,0.00461578,0.00980377,0.00644684,0.0213623,0.0225449,-9.97986,0.0127029,0.00190735,0.00564575,0.0220108,0.0133133,0.00740051,0.0104141,0.0166321
19,8,10.0097,0.000610352,-0.000457764,-2.42837,0.0532396,-0.0768941,0.0522969,0.0706652,-0.0946723,0.144403,-0.126682,-0.0859274,0.0112915,0.0190735,0.00286102,-0.0114441,0.0126266,0.0122452,0.0221252,0.0231552,-9.97986,0.0121689,0.00442505,0.0087738,0.0252151,0.0156021,0.0114441,0.0134277,0.0158691
19,9,10.0097,0.0012207,-0.000457764,-2.42928,0.0535448,-0.0762837,0.050771,0.0712755,-0.0946723,0.141656,-0.126987,-0.0865377,0.00713348,0.0128937,0.00873566,-0.0205612,0.00614166,0.0111008,0.0275421,0.022049,-9.97986,0.00957489,0.00358582,0.00778198,0.0244141,0.0148773,0.00728607,0.00827789,0.0161743
20,0,10.0097,0.0012207,-0.000152588,-2.42867,0.0535448,-0.0768941,0.0538228,0.0700548,-0.0931465,0.143792,-0.127903,-0.0856222,0.0124741,0.0094986,0.00961304,-0.0347137,0.00782013,0.00930786,0.0272751,0.016861,-9.97986,0.00988007,0.00240326,0.00305176,0.0199127,0.0205231,0.0062561,0.00915527,0.0130463
20,1,10.0097,-0.000610352,-0.000457764,-2.42714,0.0547655,-0.0759786,0.054128,0.0697496,-0.0928413,0.142877,-0.127292,-0.0850118,0.0149536,0.0104523,0.0152206,-0.0408936,0.0101852,0.00995636,0.0284958,0.0144958,-9.97986,0.00938416,0.00331879,0.00499725,0.0212479,0.0206375,0.00835419,0.0108719,0.0104904
20,2,10.0097,0.0012207,-0.00106812,-2.42684,0.0544603,-0.0753682,0.0538228,0.0706652,-0.0928413,0.144708,-0.125766,-0.0834859,0.011673,0.0132751,0.0197601,-0.0409698,0.0100708,0.0112534,0.0340271,0.0123978,-9.97986,0.0104904,0.00427246,0.00465393,0.0197983,0.0188828,0.00782013,0.00961304,0.00667572
20,3,10.0097,0.00305176,-0.000305176,-2.42714,0.0550706,-0.0744527,0.054128,0.0712755,-0.0928413,0.146234,-0.126377,-0.0828756,0.0125504,0.0106812,0.0396347,-0.0421524,0.0101089,0.0161362,0.0352478,0.022316,-9.97986,0.00576019,-0.00328064,0.00686646,0.0169373,0.0193024,0.0115585,0.00888824,0.00900269
20,4,10.0097,0.000610352,0,-2.42592,0.0562914,-0.073232,0.0547383,0.0694445,-0.0919257,0.146234,-0.124546,-0.0825704,0.0121307,0.0164795,0.0543976,-0.0319672,0.0122833,0.0124741,0.0368118,0.0262833,-9.97986,0.00686646,-0.000495911,0.00240326,0.0136185,0.0147629,0.00961304,0.0100327,0.00797272
20,5,10.0097,0.000610352,-0.000305176,-2.42501,0.0575121,-0.0735371,0.0532125,0.0712755,-0.0931465,0.146539,-0.124546,-0.0822652,0.00999451,0.026474,0.0653076,-0.0440979,0.0120926,0.0107574,0.0317764,0.0212479,-9.97986,0.00499725,0.000724792,0.00205994,0.0156021,0.0168991,0.00621796,0.0094223,0.00930786
20,6,10.0097,0.000610352,-0.000152588,-2.4247,0.0572069,-0.0744527,0.0556539,0.0706652,-0.0913154,0.147455,-0.125461,-0.0816549,0.0110626,0.0304031,0.0744629,-0.071907,0.0135803,0.0126648,0.0209808,0.0213623,-9.97986,0.00904083,0.00610352,0.00278473,0.0158691,0.0149536,0.0056839,0.00801086,0.00850677
20,7,10.0097,0.0012207,-0.000915527,-2.42592,0.0559862,-0.073232,0.0538228,0.0724962,-0.0922309,0.145929,-0.123935,-0.0810445,0.013504,0.0308609,0.0802612,-0.0502777,0.0118637,0.00736237,0.0175476,0.0199127,-9.97986,0.00938416,0.00591278,0.00705719,0.0166702,0.0185776,0.00465393,0.0111008,0.0113297
20,8,10.0097,0.000915527,0.000457764,-2.42653,0.0559862,-0.0741475,0.0510762,0.0648668,-0.0922309,0.146844,-0.125766,-0.0813497,0.0117493,0.0320435,0.0864029,-0.0268173,0.0196457,0.0152969,0.0188828,0.0191116,-9.97986,0.00991821,-0.00087738,0.00522614,0.0143433,0.0187683,-7.62939e-005,0.0119781,0.0112152
20,9,10.0097,0.00213623,-0.00152588,-2.42684,0.0569017,-0.073232,0.0535176,0.0370958,-0.0943672,0.146539,-0.126072,-0.0819601,0.010376,0.0392914,0.0909042,-0.0159073,0.0144577,0.010376,0.0187683,0.0127029,-9.97986,0.00904083,0.00167847,0.00732422,0.014534,0.0153351,-0.000495911,0.0122833,0.00816345
21,0,7.66469,-0.000305176,-0.000762939,-2.42562,0.0553758,-0.0738423,0.0556539,0.0441149,-0.0946723,0.146539,-0.125461,-0.0819601,0.0104904,0.0371552,0.0844574,0.00976563,0.013237,0.0109482,0.0182724,0.00892639,-9.97986,0.0152206,0.000228882,0.00495911,0.0161743,0.0134659,-0.00289917,0.0114059,0.00904083
21,1,6.48183,0.000610352,-0.000762939,-2.42562,0.055681,-0.0738423,0.0568746,0.0569322,-0.0916206,0.147149,-0.127598,-0.0825704,0.00930786,0.0246429,0.0685883,0.0726318,0.019989,0.00709534,0.026741,0.00457764,-9.97986,0.0137711,0.00236511,0.00324249,0.0170898,0.0134277,-0.00728607,0.0119781,0.00694275
21,2,6.39913,0.000610352,0,-2.42623,0.0565965,-0.0735371,0.0553487,0.0654772,-0.0913154,0.145013,-0.124851,-0.0822652,0.00797272,0.0274658,0.0539017,0.129623,0.0197983,0.0120926,0.0225067,0.00518799,-9.97986,0.0153732,0.00179291,0.00999451,0.0139999,0.0145721,-0.00190735,0.0148773,0.0104904
21,3,6.80257,0.00244141,0.000152588,-2.42653,0.0553758,-0.0741475,0.0547383,0.0764635,-0.0910102,0.145318,-0.125156,-0.0822652,0.0121689,0.0451279,0.0288773,0.107956,0.0209808,0.0109482,0.0164032,0.00343323,-9.97986,0.0267029,0.000343323,0.00774384,0.0104904,0.014801,-0.00259399,0.00888824,0.00808716
21,4,9.19454,-0.0012207,0.000915527,-2.42714,0.0544603,-0.0747579,0.0584004,0.10454,-0.088874,0.145929,-0.124851,-0.0831808,0.0056839,0.0678253,0.0166702,0.0899506,0.0175476,0.00709534,0.0140381,0.00141144,-9.97986,0.0226593,0.00164032,0.00114441,0.0104904,0.0167465,-0.00507355,0.00995636,0.01091
21,5,10.0097,0.000610352,0.00152588,-2.42837,0.0529344,-0.0765889,0.0526021,0.0953844,-0.0937568,0.144098,-0.126377,-0.0865377,0.00583649,0.0875854,0.00923157,0.124817,0.0169373,0.00930786,0.0154877,0.00797272,-9.97986,0.0294113,-0.000801086,0.00736237,0.0140762,0.0118637,-0.0131226,0.0109482,0.0118256
21,6,10.0097,0.000305176,0.0012207,-2.42959,0.0532396,-0.0759786,0.0519917,0.0779894,-0.0946723,0.143487,-0.126377,-0.0865377,0.00728607,0.084343,0.00114441,0.13607,0.0192642,0.00850677,0.0175858,0.0115204,-9.97986,0.0268555,0.00148773,0.00495911,0.0123978,0.0134277,-0.00850677,0.00751495,0.0114059
21,7,10.0097,-0.000305176,-0.000152588,-2.42867,0.0541551,-0.075063,0.0532125,0.0724962,-0.0949775,0.141656,-0.126377,-0.0868429,0.00637054,0.0793839,-0.0141144,0.122147,0.0189972,0.0111771,0.0165176,0.0153351,-9.97986,0.0242615,0.00328064,0.00770569,0.00972748,0.0141144,-0.00835419,0.0094223,0.0147629
21,8,10.0097,-0.000610352,-0.000762939,-2.42806,0.0535448,-0.0762837,0.0526021,0.0706652,-0.0949775,0.142572,-0.127598,-0.0871481,0.00209808,0.0575638,-0.030899,0.103683,0.0130081,0.00991821,0.0111008,0.0185776,-9.97986,0.0302505,0.00160217,0.00923157,0.00526428,0.0115204,-0.00675201,0.0114822,0.0123596
21,9,10.0097,-0.000305176,-0.000610352,-2.42837,0.0538499,-0.0765889,0.0532125,0.0688341,-0.0955879,0.144098,-0.127598,-0.0871481,0.00537872,0.0356674,-0.047226,0.0956726,0.00980377,0.0114822,0.0141144,0.0201416,-9.97986,0.0303268,0.00392914,0.00923157,0.00701904,0.0131989,-0.00385284,0.00907898,0.0115204
22,0,10.0097,0,0,-2.42867,0.0541551,-0.0753682,0.0532125,0.0715807,-0.094062,0.144403,-0.126987,-0.0862325,0.00801086,0.0222015,-0.06073,0.0905991,0.0130081,0.0122452,0.018692,0.018158,-9.97986,0.0288773,0.00530243,0.0144196,0.0111389,0.0127029,-0.00362396,0.0101852,0.01194
22,1,10.0097,-0.000305176,0,-2.42806,0.0553758,-0.0759786,0.0529073,0.0694445,-0.094062,0.144403,-0.127292,-0.0856222,0.00846863,0.00926971,-0.0631714,0.0762177,0.0150299,0.0104523,0.010376,0.0222397,-9.97986,0.0325012,0.00152588,0.00835419,0.0143433,0.00873566,-0.000457764,0.0120926,0.0087738
22,2,10.0097,0.000305176,0.000152588,-2.42684,0.0541551,-0.075063,0.054128,0.07036,-0.0928413,0.144098,-0.126682,-0.0837911,0.00778198,-0.00305176,-0.0629807,0.0670242,0.00995636,0.0101471,0.00766754,0.0206375,-9.97986,0.0314713,0.00389099,0.0132751,0.0154877,0.0128555,-0.00370026,0.00911713,0.0125885
22,3,10.0097,0.00152588,0.000305176,-2.42684,0.0544603,-0.0756734,0.0553487,0.0697496,-0.0925361,0.145929,-0.125766,-0.0834859,0.00785828,-0.00545502,-0.055542,0.0542068,0.00865936,0.0133514,0.00823975,0.0177765,-9.97986,0.0270844,0.00450134,0.0113297,0.00984192,0.0111008,-0.0050354,0.00907898,0.0107956
22,4,10.0097,0,0.000305176,-2.42592,0.0565965,-0.075063,0.055959,0.0718859,-0.0919257,0.145624,-0.125156,-0.0825704,0.0102615,0.000495911,-0.0502014,0.0484085,0.0178146,0.0136185,0.0167084,0.0177765,-9.97986,0.0294113,0.00556946,0.0114059,0.0122452,0.0147247,-0.00389099,0.0136185,0.0131989
22,5,10.0097,0.000915527,-0.000305176,-2.4244,0.0565965,-0.073232,0.054128,0.07036,-0.0913154,0.14776,-0.124851,-0.0804342,0.0102997,0.00476837,-0.0388336,0.0525284,0.0146103,0.0135422,0.0155258,0.0175095,-9.97986,0.0264359,0.00835419,0.0109482,0.0118637,0.0119781,-0.00411987,0.0094223,0.00892639
22,6,10.0097,0.0012207,0.000152588,-2.42562,0.055681,-0.0726216,0.0538228,0.0715807,-0.094062,0.147149,-0.124851,-0.0822652,0.0094986,0.00587463,-0.031662,0.0468826,0.0113678,0.00858307,0.0185394,0.0168228,-9.97986,0.0254059,0.00419617,0.0153351,0.0088501,0.0109482,-0.00770569,0.0127792,0.00930786
22,7,10.0097,0.00213623,0.000305176,-2.42501,0.0559862,-0.0735371,0.0544332,0.0718859,-0.090705,0.146539,-0.124546,-0.0810445,0.00854492,0.00377655,-0.0284195,0.0380325,0.0181198,0.00930786,0.0189972,0.0182724,-9.97986,0.0276184,0.00469208,0.0143814,0.00686646,0.0157928,-0.00999451,0.0180435,0.00881195
22,8,10.0097,0.000915527,0.000152588,-2.42684,0.0562914,-0.0753682,0.0544332,0.0679186,-0.0925361,0.146539,-0.124241,-0.0816549,0.00999451,0.00835419,-0.0200653,0.0426865,0.0216675,0.00953674,0.0210571,0.0193024,-9.97986,0.0219727,0.00324249,0.0122452,0.0087738,0.0149918,-0.00965118,0.0165176,0.00854492
22,9,10.0097,-0.0012207,-0.00137329,-2.42531,0.0569017,-0.0753682,0.0538228,0.0370958,-0.0946723,0.147455,-0.125766,-0.0816549,0.0102234,0.0094986,-0.0164413,0.047493,0.0158691,0.00858307,0.0214767,0.0140381,-9.97986,0.0243759,0.00278473,0.0136566,0.00751495,0.0153351,-0.0111771,0.0144196,0.00785828
23,0,7.86794,0.00152588,-0.00137329,-2.42592,0.0565965,-0.0747579,0.054128,0.0441149,-0.0931465,0.146844,-0.126987,-0.0825704,0.0118256,0.00644684,-0.00583649,0.0357056,0.0141144,0.00610352,0.0164795,0.0161362,-9.97986,0.0231171,0.00289917,0.0136566,0.00747681,0.0128555,-0.0151825,0.0121307,0.0104523
23,1,6.66097,0.000610352,-0.00106812,-2.42562,0.0565965,-0.0744527,0.0544332,0.0572374,-0.0922309,0.147149,-0.126072,-0.0831808,0.0114059,0.00938416,-0.00442505,0.0247574,0.0217819,0.00900269,0.0175095,0.0169373,-9.97986,0.0217056,0.00423431,0.0146103,0.0094986,0.010643,-0.0131607,0.0135803,0.00804901
23,2,6.53951,0.000305176,-0.000305176,-2.42714,0.0562914,-0.0747579,0.0565694,0.0639513,-0.0919257,0.146234,-0.125461,-0.0831808,0.0134277,0.0107956,-0.000724792,0.0246811,0.0167847,0.0111008,0.0185013,0.0193787,-9.97986,0.0190353,0.00152588,0.0173569,0.00812531,0.0141525,-0.0138474,0.0138855,0.00694275
23,3,6.91915,0.000915527,0.000457764,-2.42562,0.0565965,-0.0741475,0.0547383,0.077379,-0.0916206,0.146234,-0.123935,-0.0834859,0.00911713,0.0106049,0.00305176,0.0175858,0.0263596,0.0114822,0.0172424,0.0188446,-9.97986,0.0206375,0.00728607,0.0165939,0.0120926,0.00785828,-0.0180817,0.0157547,0.00812531
23,4,9.28151,0.00213623,0.0012207,-2.42562,0.0550706,-0.0744527,0.0550435,0.103624,-0.0891792,0.144708,-0.12363,-0.0831808,0.0137711,0.0115204,0.00312805,0.0141525,0.0246048,0.00896454,0.0193787,0.0201035,-9.97986,0.0219727,0.00675201,0.0141907,0.00339508,0.0103378,-0.0209808,0.011673,0.00350952
23,5,10.0097,0.000305176,0.00183105,-2.42806,0.0538499,-0.0765889,0.0526021,0.0935533,-0.0937568,0.144403,-0.126072,-0.0868429,0.0151062,0.0120163,0.0133896,0.0111008,0.0212097,0.0125504,0.0193405,0.0196457,-9.97986,0.0200272,0.00717163,0.0132751,-0.000305176,0.0107574,-0.0214005,0.0129318,0.00545502
23,6,10.0097,0.00152588,-0.000457764,-2.42867,0.0538499,-0.0762837,0.0516866,0.0770738,-0.0961982,0.143792,-0.127598,-0.0877584,0.0101852,0.0151825,0.0166702,0.0044632,0.0252533,0.0143433,0.0207138,0.0230789,-9.97986,0.0196457,0.00797272,0.0159836,0.00282288,0.015564,-0.0143433,0.0162888,0.00293732
23,7,10.0097,0.0012207,-0.000762939,-2.42867,0.0538499,-0.0771993,0.050771,0.0712755,-0.0955879,0.142877,-0.126682,-0.0862325,0.00968933,0.016098,0.017128,0.00240326,0.0222778,0.0136948,0.0273132,0.0187683,-9.97986,0.0163651,0.00640869,0.0152588,0.00484467,0.0144196,-0.0126648,0.0166321,0.00793457
23,8,10.0097,0.000610352,-0.000610352,-2.42867,0.0541551,-0.0756734,0.0510762,0.0697496,-0.0949775,0.143182,-0.127292,-0.0859274,0.00801086,0.00881195,0.0176239,-0.00144958,0.0190353,0.0102997,0.0211716,0.0216675,-9.97986,0.0143051,0.00411987,0.0128555,-0.0025177,0.0134659,-0.0161743,0.0181961,0.00534058
23,9,10.0097,0.000305176,-0.000305176,-2.42989,0.0544603,-0.0771993,0.0526021,0.0691393,-0.0961982,0.143792,-0.127903,-0.0865377,0.0144196,0.0198364,0.0234604,0.000724792,0.0214005,0.0120163,0.0222397,0.0156021,-9.97986,0.0157928,0.0069046,0.0167847,0.000190735,0.0177765,-0.010376,0.0203323,0.0069046
24,0,10.0097,0.00183105,-0.000610352,-2.42806,0.0532396,-0.0765889,0.0526021,0.0676134,-0.0952827,0.143792,-0.126682,-0.0865377,0.00701904,0.0148392,0.0241852,-0.0075531,0.0202179,0.0131607,0.0173569,0.0142288,-9.97986,0.0163651,-0.000305176,0.0157547,-0.0038147,0.0150681,-0.0122452,0.0175095,0.00370026
24,1,10.0097,-0.000305176,-0.000457764,-2.42684,0.0535448,-0.0753682,0.0547383,0.0688341,-0.0937568,0.143487,-0.127598,-0.0847066,0.00850677,0.0106049,0.0252914,-0.00537872,0.0230026,0.0122833,0.0211716,0.0203323,-9.97986,0.0150299,0.000419617,0.0156784,-0.00419617,0.0159454,-0.00724792,0.021286,0.00717163
24,2,10.0097,0.00274658,0,-2.42714,0.0553758,-0.075063,0.0519917,0.0688341,-0.0931465,0.145013,-0.126072,-0.0834859,0.0136185,0.0173187,0.0236893,-0.00995636,0.0249863,0.0141144,0.0174332,0.0233459,-9.97986,0.0161362,0.00400543,0.0170517,0.00164032,0.0194168,-0.00328064,0.0215912,0.00282288
24,3,10.0097,0.00152588,0.000152588,-2.42623,0.0550706,-0.0741475,0.0538228,0.0694445,-0.0919257,0.144708,-0.126682,-0.085317,0.012207,0.0199127,0.0253677,-0.00377655,0.026741,0.0126648,0.0216293,0.0205612,-9.97986,0.0164413,0.000114441,0.0152588,0.000839233,0.0110626,-0.00297546,0.0230026,0.00453949
24,4,10.0097,0.000610352,0.000152588,-2.42592,0.0581224,-0.0741475,0.0553487,0.0724962,-0.0925361,0.146539,-0.124241,-0.0825704,0.0112915,0.0171661,0.0327682,-0.00728607,0.0238419,0.0130081,0.0221252,0.0236893,-9.97986,0.0108719,0.000801086,0.0180817,0.00087738,0.0141144,-0.0075531,0.020752,0.00576019
24,5,10.0097,0,-0.000305176,-2.42562,0.0562914,-0.073232,0.055959,0.0715807,-0.0903999,0.145318,-0.125156,-0.0804342,0.00846863,0.0100327,0.0305939,-0.0110626,0.0157547,0.00972748,0.0241852,0.0255966,-9.97986,0.0134659,0.000991821,0.0147629,-0.000915527,0.0202179,-0.00843048,0.0211334,0.00694275
24,6,10.0097,0.000610352,0.000305176,-2.4247,0.0565965,-0.0738423,0.0550435,0.0712755,-0.0913154,0.146844,-0.125156,-0.0816549,0.00900269,0.0131989,0.0333405,-0.00907898,0.0159836,0.0104523,0.0307083,0.0263214,-9.97986,0.00900269,0.000724792,0.0167465,0.00125885,0.0204468,-0.00518799,0.0214386,0.00629425
24,7,10.0097,0.000610352,-0.000152588,-2.42348,0.0572069,-0.0747579,0.0547383,0.0712755,-0.0919257,0.145624,-0.125156,-0.0810445,0.0100708,0.0180435,0.0316238,-0.0101471,0.0161362,0.00843048,0.0244141,0.0251389,-9.97986,0.00812531,0.00240326,0.0189972,-3.8147e-005,0.016861,-0.00919342,0.022049,0.00682831
24,8,10.0097,0.000305176,-0.000305176,-2.42653,0.0569017,-0.0738423,0.0556539,0.0676134,-0.0928413,0.146844,-0.12363,-0.0810445,0.0101852,0.0142288,0.0354767,-0.0170135,0.0158691,0.00900269,0.0202942,0.026474,-9.97986,0.0153351,-0.000610352,0.0177002,-0.00301361,0.0207138,-0.014534,0.0239563,0.00801086
24,9,10.0097,0,-0.00137329,-2.42592,0.0562914,-0.0738423,0.0538228,0.0383165,-0.0946723,0.145929,-0.125766,-0.0825704,0.0110626,0.0185013,0.0384521,-0.0171661,0.021553,0.00965118,0.02285,0.0205994,-9.97986,0.00984192,0.00289917,0.0153351,0.00152588,0.0180817,-0.0167847,0.0203323,0.00564575
25,0,7.97261,0.00152588,-0.00152588,-2.42562,0.0581224,-0.0747579,0.0544332,0.0435045,-0.0937568,0.145929,-0.126377,-0.0822652,0.00926971,0.021019,0.0386429,-0.0216293,0.0206375,0.00751495,0.0267792,0.0269699,-9.97986,0.00873566,-0.00274658,0.020752,0.00427246,0.0181198,-0.0199127,0.019989,0.00507355
25,1,6.77236,0.000610352,0,-2.42531,0.0559862,-0.075063,0.0547383,0.054796,-0.0919257,0.146234,-0.126682,-0.0822652,0.0146484,0.0209808,0.0428009,-0.0150681,0.0187683,0.0133896,0.0275421,0.0263596,-9.97986,0.0105286,-0.00156403,0.0154877,0.00453949,0.0167465,-0.0232315,0.0191116,0.00453949
25,2,6.66097,0.000915527,0.000152588,-2.42684,0.0565965,-0.0747579,0.054128,0.0648668,-0.0910102,0.146234,-0.125461,-0.0822652,0.0102997,0.0274658,0.0435257,-0.0102997,0.0180817,0.0118637,0.0296021,0.0205994,-9.97986,0.00602722,0.000495911,0.0138092,0.00476837,0.0175095,-0.0222397,0.0185013,0.00793457
25,3,7.06166,0.000305176,0.000152588,-2.42623,0.0559862,-0.0744527,0.0553487,0.0758531,-0.0925361,0.145318,-0.125766,-0.0834859,0.0127411,0.0215912,0.0406265,-0.0132751,0.0229263,0.0144958,0.026474,0.0225067,-9.97986,0.00793457,0.00144958,0.0185776,0.0056076,0.0190353,-0.0209808,0.0212097,0.00816345
25,4,9.50459,0.00152588,0.000915527,-2.42776,0.0541551,-0.0738423,0.0547383,0.103319,-0.0897895,0.145318,-0.124241,-0.0837911,0.0134277,0.0314713,0.0378799,-0.0172043,0.0229645,0.0101852,0.0266647,0.020752,-9.97986,0.00770569,0.00255585,0.0200653,0.00389099,0.0246048,-0.0177002,0.0238037,0.00598907
25,5,10.0097,0.00183105,0.00152588,-2.42959,0.0541551,-0.075063,0.0535176,0.092943,-0.0943672,0.144098,-0.126682,-0.0868429,0.0183105,0.0383759,0.0427628,-0.0172424,0.0144577,0.0131226,0.0267029,0.0170135,-9.97986,0.0112152,-0.0019455,0.0139618,-0.0019455,0.022049,-0.0131989,0.0201797,0.0094986
25,6,10.0097,-0.000610352,-0.000152588,-2.42867,0.0538499,-0.0747579,0.0522969,0.0782946,-0.0949775,0.144403,-0.126682,-0.0871481,0.0128174,0.043869,0.0460052,-0.0112152,0.0183868,0.0112915,0.0222015,0.0131226,-9.97986,0.00434875,-0.00396729,0.0128174,0.000267029,0.0224686,-0.0217056,0.0234985,0.00522614
25,7,10.0097,0,-0.000610352,-2.42928,0.0541551,-0.0765889,0.0519917,0.0737169,-0.0955879,0.144403,-0.126377,-0.0874532,0.0111771,0.0417328,0.0414276,-0.0151062,0.0157166,0.0137329,0.0215149,0.00694275,-9.97986,0.00938416,-0.00656128,0.0150681,-0.00190735,0.0204086,-0.023613,0.0234604,0.00392914
25,8,10.0097,0.00183105,0.000152588,-2.42898,0.0532396,-0.0759786,0.0516866,0.07036,-0.0949775,0.142877,-0.127292,-0.0865377,0.0139236,0.0413132,0.0361633,-0.0143814,0.0161743,0.0152969,0.0153351,0.00968933,-9.97986,0.0114059,-0.00904083,0.0172043,0.00255585,0.0200653,-0.0259399,0.022583,0.00431061
25,9,10.0097,0.000610352,-0.000457764,-2.42959,0.0535448,-0.0762837,0.0526021,0.0688341,-0.0943672,0.143182,-0.127903,-0.0871481,0.0136948,0.0382614,0.027504,-0.0174332,0.0164032,0.0133133,0.0186157,0.00305176,-9.97986,0.0105667,-0.00343323,0.0165176,0.00621796,0.0209427,-0.0215912,0.0233078,0.00465393
26,0,10.0097,0.000610352,-0.000610352,-2.42867,0.0544603,-0.0753682,0.0522969,0.0688341,-0.0946723,0.144098,-0.126987,-0.0859274,0.012207,0.0347137,0.0253677,-0.0168991,0.015831,0.0152206,0.0218201,0.00160217,-9.97986,0.0131607,-0.00423431,0.0196838,0.00114441,0.0176239,-0.0185776,0.0203705,0.0069809
26,1,10.0097,-0.000305176,0.000152588,-2.42745,0.0544603,-0.0747579,0.0522969,0.0706652,-0.0937568,0.141961,-0.126987,-0.0847066,0.016861,0.0198364,0.0255203,-0.0207138,0.0209045,0.0129318,0.0190735,0.00507355,-9.97986,0.0123978,-0.00205994,0.0191116,0.00331879,0.0175476,-0.016098,0.0203323,0.00595093
26,2,10.0097,0.00183105,0.000610352,-2.42684,0.0547655,-0.0753682,0.0538228,0.0706652,-0.0937568,0.145318,-0.125156,-0.0837911,0.00957489,0.0222397,0.0190353,-0.0189972,0.016861,0.0170517,0.0203323,0.00354767,-9.97986,0.0147247,-0.00152588,0.0159454,0.0102234,0.0172806,-0.0122833,0.0244904,0.00488281
26,3,10.0097,0.00244141,0.000152588,-2.42714,0.0538499,-0.0747579,0.0544332,0.0706652,-0.0931465,0.145013,-0.126377,-0.0840963,0.00759125,0.0215912,0.019722,-0.0125885,0.0187683,0.016861,0.02285,0.0069046,-9.97986,0.0173569,-0.00427246,0.0110245,0.00965118,0.0164413,-0.0127411,0.0216675,0.00724792
26,4,10.0097,0.00183105,0.000457764,-2.42592,0.0559862,-0.0744527,0.0550435,0.0715807,-0.0919257,0.145624,-0.124241,-0.0822652,0.0125122,0.0112915,0.0214005,-0.0107574,0.014534,0.0167847,0.022316,0.0157928,-9.97986,0.022049,-0.00175476,0.0121307,0.00476837,0.0175858,-0.00789642,0.0211334,0.0069046
26,5,10.0097,0.000305176,-0.000152588,-2.4244,0.0559862,-0.0744527,0.0556539,0.0709703,-0.0925361,0.145929,-0.124241,-0.0810445,0.01297,0.00354767,0.0219345,-0.00793457,0.018158,0.0193405,0.0310898,0.013237,-9.97986,0.0189209,-0.00293732,0.0134277,0.00854492,0.0154114,-0.00419617,0.021286,0.00888824
26,6,10.0097,-0.00183105,0.000915527,-2.42501,0.055681,-0.0753682,0.0535176,0.07036,-0.0913154,0.147149,-0.124851,-0.0804342,0.00850677,0.00396729,0.0233841,-0.00442505,0.0211334,0.0204086,0.0201416,0.0128937,-9.97986,0.0152969,-0.00102997,0.0143051,0.00915527,0.0196838,-0.00270844,0.0243378,0.0056076
26,7,10.0097,0.00274658,-0.000152588,-2.42562,0.0581224,-0.0747579,0.0535176,0.0706652,-0.0922309,0.146844,-0.123325,-0.0807394,0.0102234,0.0180817,0.0238419,-0.00289917,0.017395,0.0165939,0.0246429,0.0136948,-9.97986,0.0216293,-0.00530243,0.0145721,0.00930786,0.0245285,-0.00408173,0.0231552,0.00759125
26,8,10.0097,0,0.000152588,-2.42623,0.0550706,-0.0744527,0.0547383,0.0654772,-0.094062,0.145624,-0.124851,-0.0813497,0.0123978,0.0226593,0.0175476,0.0025177,0.022316,0.0177765,0.0268173,0.0181961,-9.97986,0.0188065,-0.00492096,0.0107574,0.00751495,0.016861,-0.00648499,0.0240707,0.0075531
26,9,10.0097,0.00152588,-0.00152588,-2.42562,0.0572069,-0.0735371,0.054128,0.0389269,-0.0949775,0.146844,-0.126377,-0.0819601,0.0101471,0.0292969,0.026741,0.0050354,0.0198364,0.0203323,0.0233841,0.0209427,-9.97986,0.0136566,-0.00434875,0.0122452,0.00812531,0.0185013,-0.00408173,0.0217056,0.00843048
27,0,7.72786,0.000305176,-0.000915527,-2.42562,0.0565965,-0.0741475,0.0532125,0.0456407,-0.0928413,0.146539,-0.127292,-0.0819601,0.0125885,0.0310135,0.0257874,0.00423431,0.019455,0.0117493,0.0213242,0.016098,-9.97986,0.014267,-0.00587463,0.0160599,0.00102997,0.0190735,0.00232697,0.0209427,0.00904083
27,1,6.56575,-0.000610352,-0.000762939,-2.42379,0.0559862,-0.0744527,0.0538228,0.0578478,-0.0925361,0.145929,-0.124546,-0.0816549,0.0107574,0.0229263,0.0223541,-0.00236511,0.0158691,0.0138092,0.0180054,0.0235748,-9.97986,0.0181961,-0.00495911,0.0131989,0.00389099,0.0165558,0.00106812,0.0214767,0.0107574
27,2,6.4742,0,0.000305176,-2.42653,0.055681,-0.075063,0.0538228,0.065172,-0.0913154,0.144403,-0.125461,-0.0844015,0.0110626,0.0269699,0.0224686,-0.0063324,0.0178146,0.013504,0.0157166,0.0198746,-9.97986,0.00965118,-0.00915527,0.0135803,0.00663757,0.0178528,0.0043869,0.0233459,0.00770569
27,3,6.82241,0.00152588,0.000610352,-2.42592,0.0550706,-0.075063,0.0547383,0.0761583,-0.0919257,0.146234,-0.126072,-0.0834859,0.0131989,0.0255585,0.0242996,-0.0094223,0.016098,0.0135422,0.0144958,0.0288773,-9.97986,0.0100708,-0.00244141,0.0163269,0.00190735,0.0174713,0.00244141,0.0266266,0.0108719
27,4,9.25954,0.00152588,0.000915527,-2.42837,0.0550706,-0.0744527,0.0535176,0.103624,-0.088874,0.144403,-0.124241,-0.0840963,0.0117111,0.0205231,0.0239944,-0.0213242,0.0148773,0.0131607,0.0159073,0.0351715,-9.97986,0.0104523,0.000495911,0.0121307,-0.00423431,0.0131226,-0.00148773,0.0244904,0.00793457
27,5,10.0097,-0.0012207,0.00167847,-2.42867,0.0538499,-0.0759786,0.0519917,0.0944689,-0.0946723,0.141961,-0.125766,-0.0844015,0.0127411,0.0228119,0.0204849,-0.0287628,0.01297,0.0147247,0.0187302,0.0299454,-9.97986,0.00812531,0.00137329,0.0128555,0.00118256,0.0128174,-0.011673,0.0210953,0.00793457
27,6,10.0097,0.000610352,0.000915527,-2.4305,0.0535448,-0.0762837,0.0532125,0.0782946,-0.0952827,0.144098,-0.126377,-0.0856222,0.0120544,0.0172043,0.0205231,-0.0372696,0.00957489,0.0147629,0.019455,0.0319672,-9.97986,0.00637054,0.000305176,0.0146866,0.00164032,0.0120926,-0.0183868,0.0242996,0.0100708
27,7,10.0097,0.000915527,-0.000610352,-2.42928,0.0538499,-0.0765889,0.0510762,0.0728014,-0.0971137,0.144708,-0.127903,-0.0862325,0.0172043,0.0167847,0.0271225,-0.0475311,0.0123215,0.016861,0.0201416,0.0274277,-9.97986,0.00286102,-0.00114441,0.016098,0.00133514,0.0116348,-0.024147,0.0249481,0.0044632
27,8,10.0097,0,0.000305176,-2.42867,0.0538499,-0.0759786,0.0522969,0.0712755,-0.0946723,0.143792,-0.126377,-0.0883688,0.0102997,0.00999451,0.0211716,-0.0697327,0.0120926,0.0147247,0.0233078,0.0252151,-9.97986,0.00679016,-0.00873566,0.0146866,-0.000953674,0.0114441,-0.0143433,0.02285,0.00907898
27,9,10.0097,0,-0.000152588,-2.42623,0.0553758,-0.0759786,0.0519917,0.0694445,-0.0955879,0.143487,-0.127903,-0.0871481,0.0148392,0.0166702,0.0220108,-0.0885391,0.0157928,0.0156784,0.0278473,0.0229263,-9.97986,0.00205994,-0.00812531,0.0134659,0.00473022,0.0118256,-0.0102997,0.0244141,0.00507355
28,0,10.0097,0.000610352,0.000305176,-2.42837,0.0547655,-0.0759786,0.0535176,0.0676134,-0.0946723,0.144403,-0.127598,-0.0862325,0.013504,0.0119019,0.0271225,-0.0971985,0.0131989,0.0160217,0.026741,0.0130463,-9.97986,0.00263214,-0.00991821,0.0134277,0.00705719,0.016098,0.00354767,0.021553,0.00709534
28,1,10.0097,0.000610352,0,-2.42745,0.0559862,-0.0765889,0.0529073,0.0697496,-0.0934516,0.144403,-0.126377,-0.0850118,0.015831,0.00999451,0.0291443,-0.101929,0.00831604,0.0128174,0.0311661,0.00827789,-9.97986,0.00125885,-0.00923157,0.0128174,0.00801086,0.0167847,0.0122833,0.0169373,0.00701904
28,2,10.0097,-0.000610352,0.000762939,-2.42959,0.0553758,-0.0747579,0.0538228,0.0700548,-0.0943672,0.143182,-0.125156,-0.0847066,0.0144958,0.00888824,0.0289917,-0.0562286,0.0175095,0.0141907,0.031929,0.00423431,-9.97986,0.00411987,-0.00915527,0.0147247,0.00621796,0.0199509,0.0208664,0.0216293,0.00419617
28,3,10.0097,0.000610352,0.000152588,-2.42684,0.0544603,-0.0747579,0.0550435,0.0709703,-0.0931465,0.145013,-0.126377,-0.0825704,0.0107574,0.00610352,0.0348663,-0.00736237,0.0154495,0.018692,0.0321579,0.00591278,-9.97986,0.00144958,-0.00507355,0.0094223,0.00804901,0.015564,0.0257874,0.02285,0.00549316
28,4,10.0097,0.000915527,0.000152588,-2.4244,0.0562914,-0.0744527,0.0547383,0.0697496,-0.0910102,0.146844,-0.124851,-0.0807394,0.0142288,0.00663757,0.0392532,0.0191498,0.0140762,0.0157166,0.0323105,0.00953674,-9.97986,0.00431061,0.00160217,0.0137329,0.0094986,0.0160217,0.0172806,0.0221634,0.00640869
28,5,10.0097,0.000610352,-0.000152588,-2.42287,0.0575121,-0.0735371,0.0544332,0.0709703,-0.0925361,0.146539,-0.124241,-0.0816549,0.0181961,0.0310516,0.0482941,0.000190735,0.0208282,0.00919342,0.0328827,0.00461578,-9.97986,0.00289917,0.00572205,0.0164413,0.00541687,0.0167465,0.0106049,0.0249863,0.00324249
28,6,10.0097,0.000305176,-0.000152588,-2.42531,0.0578172,-0.0729268,0.0547383,0.0706652,-0.0919257,0.146539,-0.124851,-0.0810445,0.0114822,0.0543213,0.054512,-0.0683212,0.0148392,0.0161362,0.0363922,0.00911713,-9.97986,0.00358582,0.00350952,0.0118637,0.00396729,0.0112915,0.00888824,0.0203705,0.00522614
28,7,10.0097,0.000610352,0.000152588,-2.42501,0.0559862,-0.0741475,0.054128,0.0724962,-0.0900947,0.147455,-0.123935,-0.0822652,0.0146103,0.0582123,0.0627899,-0.0899506,0.0179672,0.0166702,0.0331116,0.0109482,-9.97986,0.0119019,0.000686646,0.0134659,0.00713348,0.0117493,0.00663757,0.0216293,0.00663757
28,8,10.0097,0,0.000152588,-2.42531,0.0562914,-0.0741475,0.0535176,0.0645616,-0.0946723,0.146539,-0.124851,-0.0810445,0.0130081,0.06073,0.0622559,-0.067215,0.0153732,0.0122452,0.0376511,0.00812531,-9.97986,0.00961304,0.000495911,0.0152206,0.00736237,0.0118637,0.00232697,0.018692,0.00469208
28,9,10.0097,-0.000610352,-0.00137329,-2.42592,0.0562914,-0.0738423,0.0532125,0.0349596,-0.0952827,0.146539,-0.125766,-0.0816549,0.0139236,0.0671005,0.0659561,-0.00835419,0.0174713,0.00923157,0.0270844,0.0101471,-9.97986,0.0120544,-0.00423431,0.0191116,0.00713348,0.00892639,-0.00209808,0.0186157,0.00396729
29,0,7.65828,-0.00152588,-0.00167847,-2.42531,0.0565965,-0.0738423,0.0550435,0.042589,-0.0937568,0.146539,-0.126377,-0.0831808,0.0125885,0.0385284,0.0580597,0.0792694,0.0197601,0.0108337,0.0148392,0.0132751,-9.97986,0.00759125,-0.00679016,0.0162506,0.00133514,0.0112534,-0.00343323,0.0196838,0.00602722
29,1,6.51021,0.000305176,-0.0012207,-2.42592,0.0569017,-0.0741475,0.0547383,0.0569322,-0.0916206,0.145318,-0.125461,-0.0822652,0.00606537,0.0119781,0.0535202,0.125504,0.0181961,0.0109482,0.00816345,0.0161743,-9.97986,0.0172424,-0.00434875,0.0173569,0.00247955,0.0134277,0.000114441,0.0219727,0.00862122
29,2,6.39272,-0.00183105,-0.000610352,-2.42592,0.055681,-0.075063,0.0532125,0.059984,-0.0925361,0.145624,-0.125766,-0.0819601,0.00865936,0.0149155,0.0515747,0.15583,0.0174713,0.0113297,0.0152588,0.0218964,-9.97986,0.0272369,-0.00450134,0.015831,-0.00164032,0.010376,0.00228882,0.0189972,0.00938416
29,3,6.73421,-0.00274658,0.000305176,-2.42745,0.0547655,-0.0747579,0.054128,0.0758531,-0.0925361,0.145013,-0.125766,-0.0822652,0.00495911,0.0288391,0.0440979,0.173416,0.0208664,0.0111008,0.0111008,0.0253296,-9.97986,0.0245667,-0.00320435,0.0138092,0.00274658,0.0125885,0.000457764,0.0187302,0.00862122
29,4,9.15334,0.000915527,0.000915527,-2.42745,0.0541551,-0.0753682,0.0556539,0.103624,-0.0879585,0.144403,-0.124241,-0.0837911,0.00476837,0.0452042,0.0424194,0.156517,0.0170898,0.0106812,0.0149155,0.0311279,-9.97986,0.0274658,-0.00331879,0.0129318,3.8147e-005,0.0126648,0.000991821,0.0164032,0.00816345
29,5,10.0097,0.00244141,0.00183105,-2.42867,0.0532396,-0.0759786,0.0529073,0.092943,-0.090705,0.143487,-0.126682,-0.0859274,0.00404358,0.0608444,0.0332642,0.145683,0.0163651,0.00679016,0.0146103,0.0299454,-9.97986,0.0296783,-0.00343323,0.0166702,-0.00431061,0.0146866,0.00499725,0.0196838,0.00667572
29,6,10.0097,-0.000915527,0.000152588,-2.42928,0.0538499,-0.0753682,0.0522969,0.0795153,-0.0949775,0.144098,-0.126987,-0.0859274,0.00492096,0.0662994,0.0266647,0.126343,0.0147247,0.00629425,0.0172806,0.0349808,-9.97986,0.0282669,-0.00564575,0.0168991,-0.00644684,0.0116348,0.00141144,0.0196075,0.00770569
29,7,10.0097,0.00152588,-0.000305176,-2.42959,0.0532396,-0.0759786,0.0516866,0.0728014,-0.0946723,0.144403,-0.127292,-0.0865377,0.00541687,0.0611877,0.0141907,0.114861,0.017395,0.00782013,0.0205612,0.0380707,-9.97986,0.028801,-0.0012207,0.0162506,-0.00648499,0.0167847,0.000190735,0.0188828,0.00759125
29,8,10.0097,0.0012207,-0.000152588,-2.4305,0.0541551,-0.0762837,0.0535176,0.0743273,-0.0965034,0.143487,-0.126377,-0.0859274,0.00358582,0.0577545,0.000991821,0.104256,0.0217819,0.00728607,0.0182343,0.0415039,-9.97986,0.0267792,-0.00305176,0.0151062,-0.00171661,0.0187302,-0.00427246,0.0152206,0.00518799
29,9,10.0097,0.000610352,-0.000457764,-2.42867,0.0550706,-0.0762837,0.0526021,0.0700548,-0.0943672,0.142572,-0.128208,-0.0877584,0.00728607,0.058403,-0.00240326,0.0921249,0.0522614,0.00762939,0.0223541,0.0397873,-9.97986,0.0253677,0.000610352,0.0167847,-0.00278473,0.0148392,-0.00339508,0.0179672,0.0069809
30,0,10.0097,-0.000915527,-0.000610352,-2.42776,0.0550706,-0.0744527,0.0526021,0.0688341,-0.0955879,0.142877,-0.127292,-0.0862325,0.00324249,0.0525665,-0.00663757,0.0831985,0.0640488,0.00747681,0.0196457,0.0442123,-9.97986,0.0260925,0.00450134,0.0152588,-0.00164032,0.0128555,-0.00366211,0.0219727,0.00564575
30,1,10.0097,-0.000915527,0.000152588,-2.42867,0.0559862,-0.075063,0.0535176,0.0728014,-0.0980293,0.144098,-0.126072,-0.0844015,0.0104904,0.0402069,-0.0242233,0.0796127,0.0699234,0.00759125,0.0214386,0.0460815,-9.97986,0.0206375,-0.00236511,0.0197601,-0.000839233,0.0145721,-0.00213623,0.0197601,0.00862122
30,2,10.0097,-0.000305176,-0.000457764,-2.42745,0.0550706,-0.0753682,0.0526021,0.0694445,-0.0922309,0.144403,-0.125461,-0.0850118,0.0101089,0.0265121,-0.0393295,0.0704575,0.0640869,0.00854492,0.0207138,0.0468826,-9.97986,0.0238419,0.000305176,0.0151825,0.00267029,0.014267,-0.00213623,0.021019,0.00926971
30,3,10.0097,0,0.000457764,-2.42745,0.0559862,-0.0735371,0.0538228,0.0697496,-0.0934516,0.145013,-0.126377,-0.0828756,0.00984192,0.0250626,-0.0433731,0.0665665,0.069809,0.00312805,0.0233078,0.040741,-9.97986,0.0208282,0.00156403,0.0106812,-0.000228882,0.0123596,-0.00587463,0.0157928,0.00606537
30,4,10.0097,0.000305176,0.000610352,-2.42562,0.0572069,-0.0735371,0.0553487,0.0724962,-0.095893,0.145929,-0.12363,-0.0816549,0.0088501,0.0246048,-0.0348282,0.0527573,0.0688553,0.00274658,0.0191116,0.031929,-9.97986,0.0181961,-0.00453949,0.0139236,-0.0031662,0.0114441,-0.00488281,0.0185394,0.00480652
30,5,10.0097,0.000915527,-0.000305176,-2.42379,0.0572069,-0.0738423,0.0547383,0.0706652,-0.0919257,0.146234,-0.12363,-0.0810445,0.00938416,0.0258636,-0.0260162,0.0457382,0.0624084,0.00476837,0.0238419,0.025444,-9.97986,0.0107574,-0.000419617,0.0173187,0.0063324,0.0122452,-0.00724792,0.0144958,0.00991821
30,6,10.0097,-0.000305176,0.000457764,-2.4247,0.0602586,-0.0735371,0.0547383,0.0709703,-0.0913154,0.145624,-0.125766,-0.0807394,0.00961304,0.0310135,-0.0128937,0.0414658,0.0593948,0.00396729,0.0284576,0.0108719,-9.97986,0.0130844,-0.00114441,0.0151443,0.00453949,0.0127029,-0.00808716,0.0183105,0.00659943
30,7,10.0097,0,0,-2.4247,0.0578172,-0.0738423,0.0544332,0.0724962,-0.088874,0.146844,-0.124546,-0.0807394,0.0125885,0.0313568,-0.00221252,0.0355148,0.0567245,0.00518799,0.0272751,0.00514984,-9.97986,0.0146103,-0.00179291,0.0180817,0.00659943,0.0157547,-0.00530243,0.0210953,0.00671387
30,8,10.0097,0,-0.000305176,-2.42501,0.0565965,-0.0747579,0.0544332,0.0645616,-0.0928413,0.146234,-0.12363,-0.0819601,0.0111771,0.0315475,0.00358582,0.0299835,0.0534058,0.00431061,0.0232315,-0.00606537,-9.97986,0.00617981,-0.00152588,0.0111389,0.00350952,0.0115204,-0.01194,0.0193024,0.00679016
30,9,10.0097,0.0012207,-0.00137329,-2.42501,0.0593431,-0.0738423,0.054128,0.0383165,-0.0949775,0.145929,-0.126377,-0.0822652,0.0130463,0.0476074,0.0105667,0.0264359,0.0477219,0.00663757,0.0334167,-0.00873566,-9.97986,0.00991821,-0.00644684,0.0149155,0.00598907,0.012207,-0.013504,0.018959,0.00724792
31,0,7.6296,0.000305176,-0.0012207,-2.42531,0.0550706,-0.0729268,0.0544332,0.0422838,-0.0986396,0.145929,-0.126377,-0.0825704,0.0144196,0.0438309,0.0178528,0.0217819,0.048027,0.00640869,0.0303268,0.000648499,-9.97986,0.00816345,-0.00297546,0.0192642,0.00831604,0.0157166,-0.0116348,0.0206757,0.00682831
31,1,6.46443,-0.000305176,-0.000610352,-2.42501,0.0550706,-0.0744527,0.0547383,0.0566271,-0.0922309,0.145624,-0.126682,-0.0819601,0.0144958,0.0314331,0.00724792,0.0143051,0.0390625,0.00484467,0.0286865,0.0115204,-9.97986,0.00679016,-0.00400543,0.0130081,0.00171661,0.0122452,-0.0146484,0.0200272,0.00457764
31,2,6.35121,0.00152588,0.000152588,-2.42531,0.0544603,-0.0741475,0.055959,0.065172,-0.0922309,0.145624,-0.125461,-0.0831808,0.0149155,0.0229645,0.00293732,0.0155258,0.0416946,0.00694275,0.0318527,0.0123596,-9.97986,0.0132751,-0.00221252,0.0170135,0.00900269,0.0150681,-0.0094223,0.0165176,0.00751495
31,3,6.71285,0.0012207,0.000457764,-2.42745,0.0547655,-0.0753682,0.0544332,0.075548,-0.0897895,0.145013,-0.125156,-0.0825704,0.0133133,0.0120926,-0.00247955,0.0115204,0.0380325,0.00461578,0.0301743,0.00659943,-9.97986,0.0111771,-0.00423431,0.0180817,0.00217438,0.0130081,-0.0107574,0.020752,0.00457764
31,4,9.15151,-0.000915527,0.00152588,-2.42562,0.0547655,-0.0759786,0.0550435,0.103624,-0.0891792,0.144098,-0.12363,-0.0834859,0.0164795,0.0191498,-0.00522614,0.00370026,0.0335693,0.00236511,0.0183868,0.00564575,-9.97986,0.0168228,-0.00312805,0.0172043,0.00190735,0.0135803,-0.0107574,0.0208282,0.00564575
31,5,10.0097,-0.000305176,0.00183105,-2.42867,0.0599535,-0.0762837,0.0529073,0.0962999,-0.094062,0.144098,-0.125156,-0.0871481,0.0118256,0.0435638,0.00175476,0.00133514,0.0294876,-0.000534058,0.0151062,0.00717163,-9.97986,0.0164413,-0.000991821,0.0181198,0.00148773,0.0175476,-0.00858307,0.0225449,0.00617981
31,6,10.0097,0.00183105,0,-2.42989,0.0541551,-0.0762837,0.0519917,0.0782946,-0.0961982,0.144403,-0.127292,-0.0865377,0.00900269,0.0405121,0.0147247,0.000762939,0.0297928,0.00797272,0.0150299,0.00350952,-9.97986,0.0177383,0.0030899,0.0187302,0.00404358,0.0140381,-0.0137329,0.0228119,0.00297546
31,7,10.0097,0.000305176,-0.000305176,-2.42928,0.0538499,-0.0762837,0.0519917,0.0734117,-0.0952827,0.142877,-0.126682,-0.0862325,0.0109863,0.0296021,0.00827789,-0.00335693,0.0309753,0.00598907,0.0231934,0.00457764,-9.97986,0.0232697,-0.00114441,0.0182724,0.00347137,0.0140381,-0.0144196,0.0198746,0.00411987
31,8,10.0097,-0.000610352,-0.000610352,-2.42928,0.0538499,-0.0768941,0.0516866,0.0694445,-0.0949775,0.142877,-0.126682,-0.0874532,0.0144577,0.00087738,-0.00835419,-0.00576019,0.0237274,0.00930786,0.0278091,0.00247955,-9.97986,0.0240707,-0.00286102,0.0177765,0.00152588,0.0156021,-0.0247192,0.0203705,0.00526428
31,9,10.0097,0,-0.000457764,-2.42928,0.0535448,-0.0759786,0.0522969,0.0676134,-0.0894843,0.142572,-0.126987,-0.0868429,0.0131989,-0.0471115,-0.0274658,-0.00225067,0.0230789,0.00968933,0.0265884,0.00473022,-9.97986,0.0191116,-0.00602722,0.0166321,0.00221252,0.0121689,-0.0209045,0.0163269,0.00804901
32,0,10.0097,0.000610352,0.000152588,-2.42806,0.0550706,-0.0753682,0.0519917,0.0694445,-0.0949775,0.143487,-0.126987,-0.0856222,0.0120926,-0.054512,-0.0301361,-0.00972748,0.0228119,0.00766754,0.0250244,0.00694275,-9.97986,0.0237656,-0.00183105,0.0162125,0.00556946,0.0154877,-0.0206757,0.0218201,0.00427246
32,1,10.0097,0.00274658,-0.000152588,-2.42653,0.0547655,-0.0747579,0.0526021,0.0691393,-0.0937568,0.144403,-0.126377,-0.0847066,0.0112534,-0.04776,-0.0267792,-0.00850677,0.0177765,0.00720978,0.0233078,0.0141144,-9.97986,0.0261307,-0.00247955,0.0176239,0.00156403,0.0147247,-0.0158691,0.0228119,0.00366211
32,2,10.0097,0.000915527,0.000610352,-2.42592,0.0550706,-0.0759786,0.054128,0.0691393,-0.0903999,0.145013,-0.125156,-0.0856222,0.0114441,-0.0524902,-0.0135422,-0.00495911,0.0207901,0.0107956,0.0252151,0.00946045,-9.97986,0.0274658,0.00331879,0.0139999,0.0037384,0.0130463,-0.0087738,0.0156784,0.00492096
32,3,10.0097,0,-0.000152588,-2.42592,0.055681,-0.0744527,0.0535176,0.07036,-0.0925361,0.145318,-0.125766,-0.0828756,0.0152969,-0.0446701,-0.00606537,-0.00843048,0.0142288,0.00717163,0.0282669,0.0127792,-9.97986,0.0239944,0.00152588,0.0148773,0.00484467,0.0167084,-0.00801086,0.0209045,0.00583649
32,4,10.0097,-0.000610352,0.000610352,-2.42501,0.0611742,-0.0744527,0.0544332,0.0712755,-0.0928413,0.146844,-0.124851,-0.0819601,0.0108719,-0.0255585,0.00411987,-0.00576019,0.0169754,0.00965118,0.0267029,0.00984192,-9.97986,0.0220108,0.0142288,0.0133514,0.00232697,0.0145721,-0.0012207,0.0193787,0.00534058
32,5,10.0097,-0.000305176,0.000152588,-2.42531,0.0572069,-0.0729268,0.0562642,0.0715807,-0.0974189,0.146234,-0.124241,-0.0813497,0.0145721,-0.017395,0.00770569,-0.00789642,0.0150681,0.00587463,0.0252151,0.0161743,-9.97986,0.0187683,0.0170135,0.0181198,-0.000495911,0.0165176,0.00366211,0.0190735,0.00541687
32,6,10.0097,0.00152588,-0.000305176,-2.42592,0.0562914,-0.0738423,0.054128,0.0712755,-0.0916206,0.145929,-0.125461,-0.0816549,0.0128555,-0.00965118,0.00450134,-0.00904083,0.0126266,0.0088501,0.0246429,0.0163651,-9.97986,0.0172806,0.00850677,0.0160599,-3.8147e-005,0.0130463,0.0123596,0.0201416,0.00339508
32,7,10.0097,0.00305176,0.000457764,-2.42531,0.0547655,-0.0744527,0.0556539,0.072191,-0.0928413,0.146539,-0.124546,-0.080129,0.0170517,-0.00583649,0.0146103,-0.0107574,0.0094986,0.00595093,0.0267029,0.0153732,-9.97986,0.0117111,0.00839233,0.0186157,0.0037384,0.0136185,0.016861,0.0197983,0.00389099
32,8,10.0097,0.000610352,0.000305176,-2.42562,0.0562914,-0.0735371,0.0544332,0.0654772,-0.094062,0.146234,-0.124851,-0.0819601,0.0144958,-0.00293732,0.0170135,-0.00892639,0.00728607,0.00785828,0.0220871,0.0146866,-9.97986,0.0143051,-0.00587463,0.0128937,0.0087738,0.0123215,0.0141144,0.0192261,0.00419617
32,9,10.0097,0.000915527,-0.00137329,-2.42531,0.0565965,-0.0753682,0.0526021,0.037401,-0.0946723,0.14776,-0.126072,-0.0813497,0.0114822,0.00209808,0.022316,-0.0101089,0.0030899,0.00644684,0.0229645,0.0194168,-9.97986,0.0123978,-0.0111008,0.0156784,0.00881195,0.0148392,0.0152206,0.017128,0.00225067
33,0,7.63906,0.000610352,-0.00152588,-2.42501,0.0602586,-0.0747579,0.0547383,0.0447252,-0.0925361,0.147149,-0.126377,-0.0816549,0.012207,0.00843048,0.0178146,-0.0112152,0.0063324,0.00431061,0.0268555,0.0172424,-9.97986,0.0147247,-0.00823975,0.018692,0.00343323,0.0155258,0.0154495,0.0169373,0.00442505
33,1,6.48091,-0.000305176,-0.000610352,-2.42623,0.0553758,-0.0759786,0.0556539,0.0563219,-0.0900947,0.146234,-0.126072,-0.0819601,0.0115585,0.00518799,0.0272369,-0.00873566,0.00232697,0.00766754,0.0247955,0.0257111,-9.97986,0.0143814,-0.00591278,0.0212479,0.00724792,0.0130463,0.0144577,0.0170517,0.00335693
33,2,6.36861,0,-0.000457764,-2.42653,0.0550706,-0.075063,0.0538228,0.0657823,-0.0925361,0.147149,-0.126682,-0.0828756,0.0136566,0.0115204,0.030899,-0.00785828,-0.000534058,0.00915527,0.0227737,0.0210571,-9.97986,0.0117874,-0.00221252,0.0206757,0.00610352,0.0141525,0.00461578,0.0169373,0.00499725
33,3,6.75221,0.000305176,0.000152588,-2.42592,0.0517137,-0.0738423,0.0550435,0.0776842,-0.0913154,0.145013,-0.125461,-0.0831808,0.0165558,0.0137329,0.031662,-0.0101471,0.00339508,0.00934601,0.0241089,0.0349045,-9.97986,0.0137329,0.000915527,0.0192642,-0.0019455,0.0175858,0.000839233,0.017395,0.00667572
33,4,9.25466,0.00152588,0.00106812,-2.42592,0.0559862,-0.0756734,0.0553487,0.103624,-0.0919257,0.145013,-0.125461,-0.0840963,0.0087738,0.0139618,0.0393677,-0.00762939,0.00213623,0.00926971,0.0216293,0.031395,-9.97986,0.00629425,-0.00747681,0.0159454,0.00476837,0.0126648,-0.00350952,0.0156403,0.0037384
33,5,10.0097,0.000915527,0.00213623,-2.43081,0.0544603,-0.0759786,0.0519917,0.0959947,-0.0946723,0.142572,-0.125766,-0.0865377,0.01091,0.0175095,0.0397491,-0.00770569,-0.00213623,0.00667572,0.0236511,0.0310516,-9.97986,0.00980377,-0.000648499,0.0170135,0.00434875,0.014267,-0.00469208,0.0199509,0.00114441
33,6,10.0097,-0.000610352,-0.000152588,-2.42867,0.0495775,-0.0756734,0.0516866,0.0785997,-0.095893,0.142877,-0.126987,-0.0862325,0.0131989,0.0148773,0.0439835,-0.00839233,0.00347137,0.00675201,0.0234985,0.0284576,-9.97986,0.00984192,-0.00312805,0.0143051,-0.000267029,0.0193787,-0.00228882,0.0187683,0.00404358
33,7,10.0097,0.000610352,-0.000457764,-2.42959,0.0538499,-0.0765889,0.0526021,0.0712755,-0.0955879,0.145013,-0.127292,-0.0868429,0.0127792,0.0177383,0.0416183,-0.0075531,0.000457764,0.00362396,0.0196075,0.0229263,-9.97986,0.00492096,-0.00190735,0.0167847,-0.00236511,0.0198746,-0.00289917,0.0137711,0.00324249
33,8,10.0097,0,-0.000305176,-2.42928,0.0544603,-0.0753682,0.0516866,0.0694445,-0.0949775,0.141656,-0.127292,-0.0859274,0.0121307,0.0221252,0.0450516,-0.00858307,0.0018692,0.00663757,0.0218201,0.0223541,-9.97986,0.00114441,-0.00801086,0.0133133,-0.00530243,0.0162125,0.000534058,0.0172424,0.00347137
33,9,10.0097,0.00183105,-0.000152588,-2.42837,0.0520189,-0.0756734,0.0522969,0.0691393,-0.0955879,0.144403,-0.126987,-0.0868429,0.0149918,0.026207,0.0510025,-0.00915527,0.00652313,0.00728607,0.0258636,0.0209808,-9.97986,0.00598907,-0.000343323,0.0180817,0.00640869,0.0235748,0.00831604,0.019989,0.0109482
34,0,10.0097,0,-0.00106812,-2.42806,0.0544603,-0.0762837,0.0538228,0.0697496,-0.0925361,0.143792,-0.127598,-0.0862325,0.00667572,0.0199509,0.0431061,-0.0146484,-0.00694275,0.00293732,0.0143814,0.0105667,-9.97986,-0.00152588,-0.00926971,0.01297,-0.00541687,0.0130844,0.00236511,0.015831,-0.000572205
34,1,10.0097,0.000305176,0.000152588,-2.42684,0.0544603,-0.0744527,0.0529073,0.0706652,-0.0931465,0.142572,-0.126987,-0.0850118,0.016861,0.028801,0.0507736,-0.00896454,0.00144958,0.00637054,0.0242996,0.0218201,-9.97986,0.00904083,-0.00484467,0.0128555,-0.00202179,0.0193024,0.0108337,0.0209427,0.0075531
34,2,10.0097,-0.000305176,0.000610352,-2.42714,0.0565965,-0.075063,0.0532125,0.0691393,-0.094062,0.144403,-0.127292,-0.0847066,0.0141525,0.0188828,0.037384,-0.0140381,-0.00102997,0.00270844,0.0131226,0.015564,-9.97986,0.00812531,-0.00495911,0.0141525,-0.00152588,0.0156403,0.00926971,0.0147629,0.00602722
34,3,10.0097,0.00213623,0.000152588,-2.42684,0.0559862,-0.0747579,0.0550435,0.0712755,-0.0965034,0.145013,-0.126377,-0.0837911,0.0133133,0.0114441,0.0296783,-0.0111008,-0.00263214,0.00858307,0.0177002,0.0114441,-9.97986,0.00789642,-0.0050354,0.0144958,-0.000534058,0.0141525,0.00770569,0.0146866,0.00396729
34,4,10.0097,0.000915527,-0.000152588,-2.4244,0.0550706,-0.0741475,0.0544332,0.0724962,-0.0919257,0.144403,-0.124546,-0.0819601,0.0120544,0.00267029,0.026741,-0.00904083,-0.00339508,0.00415802,0.0164795,0.0101471,-9.97986,0.00789642,-0.00465393,0.0144196,-0.00564575,0.0169373,0.00545502,0.0159454,0.00225067
34,5,10.0097,0.00274658,0.000152588,-2.4247,0.0538499,-0.0747579,0.0538228,0.0697496,-0.0922309,0.147455,-0.124546,-0.0813497,0.0107193,0.0138092,0.0253296,-0.0170517,-0.00190735,0.00797272,0.0197601,0.0130844,-9.97986,0.00419617,-0.00305176,0.0159836,-0.00640869,0.0198746,0.00339508,0.0148392,0.00312805
34,6,10.0097,0,-0.000305176,-2.42623,0.055681,-0.0735371,0.0550435,0.0706652,-0.0900947,0.145013,-0.124851,-0.0816549,0.0107574,0.0281143,0.0214386,-0.0192642,-0.00492096,0.00900269,0.0211716,0.00991821,-9.97986,0.00831604,-0.00457764,0.0162125,-0.00511169,0.0214005,0.00213623,0.0175858,0.0043869
34,7,10.0097,-0.00213623,-0.000152588,-2.42562,0.0572069,-0.0747579,0.0550435,0.0728014,-0.0928413,0.14837,-0.124546,-0.0810445,0.0121689,0.0360489,0.0254822,-0.0324631,-0.00114441,0.0119781,0.0205994,0.00957489,-9.97986,0.00839233,0.000267029,0.0154877,-0.00514984,0.0178528,-0.00190735,0.0167847,0.0038147
34,8,10.0097,0,0,-2.42592,0.0559862,-0.0741475,0.0547383,0.0639513,-0.0928413,0.146234,-0.124546,-0.0810445,0.0118256,0.0302124,0.0232697,-0.0245285,-0.00286102,0.00904083,0.0310898,0.0119019,-9.97986,0.0135422,-0.00221252,0.018158,-0.0111389,0.0227737,-0.00392914,0.0134659,0.00358582
34,9,10.0097,0,-0.00167847,-2.42562,0.0550706,-0.0738423,0.0538228,0.0377062,-0.095893,0.146234,-0.127598,-0.0825704,0.0108719,0.0317383,0.0289154,-0.00282288,-0.00522614,0.0126648,0.0251389,0.0132751,-9.97986,0.0110245,-0.00488281,0.0168991,-0.0113297,0.0230408,-0.00320435,0.0127792,0.00282288
35,0,7.62258,0.000915527,-0.00167847,-2.42623,0.055681,-0.0738423,0.0544332,0.0441149,-0.0934516,0.147455,-0.127292,-0.0816549,0.00995636,0.0345612,0.028801,0.00606537,-0.00331879,0.0144958,0.0278854,0.012207,-9.97986,0.0111008,-0.00389099,0.0149536,-0.0102997,0.0220108,-0.00236511,0.0156021,0.00793457
35,1,6.45986,-0.000610352,-0.00167847,-2.42562,0.0565965,-0.0738423,0.0553487,0.0572374,-0.0931465,0.145624,-0.125766,-0.0822652,0.00816345,0.0307846,0.0242996,0.0134659,-0.0100327,0.0115967,0.0217819,0.016098,-9.97986,0.0149918,-0.00541687,0.0127411,-0.0120163,0.0191116,0.000572205,0.0140381,0.00461578
35,2,6.3387,-0.0012207,-0.000610352,-2.42623,0.0550706,-0.0744527,0.0544332,0.065172,-0.090705,0.145013,-0.126377,-0.0822652,0.00904083,0.0322723,0.0164032,0.0125504,-0.00740051,0.0159836,0.0280762,0.0186157,-9.97986,0.0196838,-0.00205994,0.0162888,-0.0151825,0.0226212,-0.000152588,0.0147247,0.00671387
35,3,6.71285,0.000610352,0.000610352,-2.42623,0.0550706,-0.0744527,0.0538228,0.0746324,-0.0910102,0.143792,-0.125766,-0.0834859,0.00946045,0.0263977,0.0062561,0.0270081,-0.00114441,0.0165176,0.0274277,0.0225067,-9.97986,0.0233459,-0.00961304,0.0147629,-0.00961304,0.0170517,0.00137329,0.0142288,0.00293732
35,4,9.23818,0.00152588,0.00198364,-2.42714,0.0575121,-0.0747579,0.0553487,0.10454,-0.0897895,0.143487,-0.122715,-0.0844015,0.0140381,0.0250244,0.00484467,0.0310898,-0.00732422,0.016861,0.0246429,0.0260162,-9.97986,0.0191498,-0.000915527,0.0142288,-0.00114441,0.0227737,0.00160217,0.0163651,0.00469208
35,5,10.0097,0.000610352,0.00244141,-2.42989,0.0541551,-0.0762837,0.0522969,0.0959947,-0.0913154,0.144403,-0.124546,-0.0859274,0.0133514,0.0348663,0.00141144,0.0332642,-0.00495911,0.0152969,0.0292206,0.0254059,-9.97986,0.0168228,0.00236511,0.0105667,0.00823975,0.0239944,0.00289917,0.0117493,0.00328064
35,6,10.0097,0.000305176,0.000762939,-2.42989,0.0529344,-0.0756734,0.0519917,0.0779894,-0.0952827,0.143792,-0.126377,-0.0868429,0.01194,0.0363159,0.00278473,0.0277328,-0.00301361,0.0141144,0.0272751,0.0233078,-9.97986,0.0175095,-0.00221252,0.0154877,0.00843048,0.0198364,0.00514984,0.0140381,0.00576019
35,7,10.0097,0.00152588,-0.000610352,-2.4302,0.0526292,-0.0768941,0.0516866,0.0731066,-0.095893,0.143182,-0.126987,-0.0871481,0.013504,0.0355911,0.00801086,0.0286102,-0.00152588,0.0199127,0.0247955,0.0188446,-9.97986,0.0165176,0.000190735,0.0163269,0.00728607,0.0246429,0.00679016,0.0154877,0.00694275
35,8,10.0097,-0.000305176,-0.000762939,-2.42959,0.0538499,-0.0771993,0.0529073,0.0697496,-0.0974189,0.143487,-0.128208,-0.0865377,0.00572205,0.0370407,0.0125504,0.0209808,-0.00427246,0.013504,0.0199509,0.00919342,-9.97986,0.0159454,-0.00419617,0.0155258,0.00488281,0.0218201,0.00343323,0.0120544,0.00400543
35,9,10.0097,0.000610352,0,-2.42989,0.0517137,-0.0765889,0.0522969,0.0697496,-0.094062,0.143487,-0.126987,-0.0874532,0.0122833,0.0400543,0.00965118,0.0202179,0.000839233,0.0131607,0.0222397,0.0135422,-9.97986,0.0178146,-0.0019455,0.0129318,0.00797272,0.0226974,0.00850677,0.0127411,0.00217438
36,0,10.0097,0.000610352,-0.000457764,-2.42806,0.0526292,-0.0756734,0.0529073,0.0694445,-0.0949775,0.144403,-0.127903,-0.085317,0.0125885,0.0396729,0.0075531,0.0152969,-0.000495911,0.0119781,0.0226212,0.0154495,-9.97986,0.0139618,-0.00511169,0.0138092,0.00778198,0.0228119,0.0102234,0.0125504,0.00324249
36,1,10.0097,0.00183105,-0.000152588,-2.42653,0.0544603,-0.0753682,0.054128,0.0712755,-0.0897895,0.144708,-0.126377,-0.0850118,0.00923157,0.0384903,0.00999451,0.010376,0.001297,0.0138474,0.0175476,0.0180054,-9.97986,0.015831,-0.00816345,0.0128937,0.00331879,0.019455,0.0118256,0.00904083,0.000801086
36,2,10.0097,0.000915527,0,-2.42867,0.0550706,-0.0753682,0.0535176,0.07036,-0.094062,0.144403,-0.126377,-0.0844015,0.0114822,0.0410461,0.0112534,0.0173569,0.00419617,0.0110245,0.0271225,0.0213242,-9.97986,0.0175476,-0.00343323,0.0164795,0.0038147,0.0204468,0.0160599,0.0112915,0.0044632
36,3,10.0097,0.00274658,0,-2.42776,0.0569017,-0.0744527,0.0538228,0.0700548,-0.0922309,0.146234,-0.126682,-0.0837911,0.0108337,0.0352478,0.0138855,0.012207,-0.000534058,0.00984192,0.0202942,0.0222397,-9.97986,0.0208282,-0.00431061,0.0184631,0.000991821,0.0204468,0.0130463,0.0138092,0.00442505
36,4,10.0097,-0.000305176,-0.000152588,-2.42562,0.055681,-0.0738423,0.0535176,0.0712755,-0.0925361,0.146234,-0.125156,-0.0831808,0.0141907,0.039978,0.0219727,0.0155258,0.00156403,0.0100327,0.0233078,0.0258255,-9.97986,0.0151062,-0.00415802,0.0180054,-0.00682831,0.0186539,0.0159454,0.0139236,0.00724792
36,5,10.0097,0.000610352,-0.000457764,-2.42501,0.055681,-0.0741475,0.0562642,0.0712755,-0.0916206,0.146844,-0.123935,-0.0825704,0.00797272,0.0368118,0.0171661,0.0147247,0.00427246,0.0119781,0.027771,0.0219345,-9.97986,0.0154877,-0.00335693,0.0124359,-0.00682831,0.0182343,0.00778198,0.00991821,0.00431061
36,6,10.0097,-0.000610352,0.000610352,-2.42562,0.0581224,-0.0753682,0.0571797,0.07036,-0.0916206,0.145624,-0.123325,-0.0813497,0.013504,0.0399017,0.0235748,0.0150681,0.00705719,0.0108719,0.0232315,0.0198746,-9.97986,0.0139618,-0.00160217,0.0130844,-0.00453949,0.0238419,0.00453949,0.0139618,0.00766754
36,7,10.0097,0.000915527,-0.000152588,-2.42531,0.0562914,-0.0744527,0.054128,0.0718859,-0.0861274,0.14776,-0.124546,-0.0816549,0.00892639,0.0355148,0.0212479,0.0166321,0.0037384,0.0130081,0.0238037,0.0226212,-9.97986,0.0205231,-0.00587463,0.0135803,-0.00694275,0.0228119,0.0069809,0.0154114,0.00835419
36,8,10.0097,0.000610352,0.000152588,-2.42501,0.0559862,-0.0744527,0.0547383,0.0663927,-0.0934516,0.147149,-0.125156,-0.0819601,0.0140762,0.0403214,0.0226593,0.0191879,0.00617981,0.0116348,0.0252533,0.0214386,-9.97986,0.0150299,-0.00228882,0.013504,-0.00740051,0.0211716,0.00576019,0.0139999,0.00724792
36,9,10.0097,0.000610352,-0.00137329,-2.42714,0.0544603,-0.0744527,0.0529073,0.0383165,-0.0943672,0.146539,-0.126072,-0.0810445,0.00976563,0.0395584,0.0245285,0.0160599,0.00469208,0.00900269,0.0198364,0.0219727,-9.97986,0.0143433,-0.00331879,0.0161362,-0.00133514,0.0233841,0.00267029,0.0154495,0.00858307
37,0,7.72054,0,-0.0012207,-2.42592,0.0550706,-0.0741475,0.0544332,0.0438097,-0.0894843,0.146844,-0.126987,-0.0822652,0.0136185,0.0418472,0.0233078,0.0138092,0.0043869,0.0104904,0.0175476,0.0190735,-9.97986,0.0156403,-0.00537872,0.0104141,0.00171661,0.0213623,-0.00839233,0.0133133,0.00827789
37,1,6.57369,-0.000610352,-0.000457764,-2.42592,0.055681,-0.0744527,0.0550435,0.0560167,-0.0922309,0.145318,-0.127292,-0.0822652,0.0130463,0.0420761,0.0274658,0.015564,0.00614166,0.0104141,0.0216675,0.0227356,-9.97986,0.0199509,-0.00198364,0.0133896,0.000648499,0.0217056,-0.00980377,0.0114059,0.00881195
37,2,6.49739,-0.000610352,-0.000915527,-2.42562,0.0565965,-0.0756734,0.054128,0.0648668,-0.0913154,0.145318,-0.126377,-0.0822652,0.00919342,0.0431061,0.0284195,0.0140381,0.0123215,0.00896454,0.0239563,0.0187683,-9.97986,0.0162506,-0.00484467,0.0153732,-0.00270844,0.0179291,-0.00728607,0.0106812,0.0044632
37,3,6.8456,0.000610352,0.000305176,-2.42714,0.055681,-0.075063,0.0550435,0.0782946,-0.0900947,0.146234,-0.126072,-0.0828756,0.0102997,0.0425339,0.0299835,0.0167847,0.0107574,0.00808716,0.0255203,0.0224304,-9.97986,0.0114441,-0.000495911,0.0169373,-0.0031662,0.0209427,-0.00408173,0.01297,0.00564575
37,4,9.34133,0.0012207,0.0012207,-2.42684,0.0550706,-0.0753682,0.0556539,0.103929,-0.0897895,0.143792,-0.12363,-0.0844015,0.0156784,0.037384,0.0299072,0.0156784,0.00904083,0.00473022,0.0226974,0.02388,-9.97986,0.0137329,-0.00404358,0.0111008,-0.00358582,0.0208664,0.00705719,0.0144196,0.00576019
37,5,10.0097,0.000915527,0.00167847,-2.42928,0.0532396,-0.0759786,0.0529073,0.0941637,-0.0946723,0.144098,-0.126072,-0.0871481,0.00854492,0.0243378,0.0298309,0.0122452,0.00934601,0.011673,0.0185776,0.0224304,-9.97986,0.0123596,-0.00350952,0.0157928,-0.00469208,0.020256,0.0125122,0.0106049,0.00801086
37,6,10.0097,0.00152588,0,-2.42867,0.0544603,-0.0768941,0.0535176,0.0776842,-0.0974189,0.143792,-0.126072,-0.0865377,0.0104523,0.0157166,0.0317383,0.0161743,0.0131989,0.0120926,0.016861,0.0213242,-9.97986,0.0146866,0.00118256,0.0147247,-0.0094223,0.0221634,0.0119781,0.0103378,0.00724792
37,7,10.0097,0.00183105,-0.000610352,-2.42928,0.0535448,-0.0753682,0.0513814,0.0728014,-0.0949775,0.143487,-0.128513,-0.0865377,0.0087738,0.0255203,0.0310898,0.0119019,0.0123978,0.00415802,0.0214767,0.0230408,-9.97986,0.0148773,-0.00530243,0.0147629,-0.0160217,0.0216675,0.0142288,0.0138474,0.00839233
37,8,10.0097,0.000915527,-0.000152588,-2.42898,0.050493,-0.0759786,0.0526021,0.07036,-0.0961982,0.143487,-0.126682,-0.0865377,0.0104141,0.0289917,0.0274658,0.0172424,0.00934601,0.00888824,0.0214005,0.0210571,-9.97986,0.0150681,-0.00152588,0.0172043,-0.0188446,0.0179291,0.0120926,0.0133514,0.00614166
37,9,10.0097,0,-0.00137329,-2.42867,0.0550706,-0.0756734,0.0529073,0.0694445,-0.0949775,0.143792,-0.127598,-0.0871481,0.01297,0.0305939,0.0244522,0.0149918,0.010376,0.00995636,0.0220108,0.0223923,-9.97986,0.011673,-0.0012207,0.0174713,-0.0264359,0.018692,0.0111008,0.0108719,0.00656128
38,0,10.0097,-0.0012207,-0.000305176,-2.42837,0.0544603,-0.0753682,0.0519917,0.0706652,-0.0934516,0.144403,-0.127292,-0.0859274,0.0127411,0.0305557,0.0250244,0.0185394,0.00904083,0.00476837,0.0183105,0.0195694,-9.97986,0.0143051,-0.000839233,0.0161743,-0.0232697,0.019455,0.0012207,0.0094986,0.00770569
38,1,10.0097,-0.000915527,-0.000152588,-2.42745,0.055681,-0.0753682,0.0535176,0.0691393,-0.094062,0.142877,-0.126377,-0.0850118,0.0112152,0.0282669,0.0201797,0.0119019,0.0104523,0.0102615,0.0226974,0.0189209,-9.97986,0.0156403,0.00282288,0.0161743,-0.0253677,0.019722,-0.00537872,0.0101471,0.00541687
38,2,10.0097,0.000610352,-0.000152588,-2.42684,0.0562914,-0.0747579,0.0532125,0.0709703,-0.0934516,0.144403,-0.127598,-0.0847066,0.0062561,0.0214767,0.0162888,0.0124741,0.00785828,0.00823975,0.0203323,0.0192261,-9.97986,0.0106812,0.00167847,0.013504,-0.0278091,0.019722,-0.00125885,0.0140762,0.00793457
38,3,10.0097,0,0.000152588,-2.42592,0.0550706,-0.0747579,0.0535176,0.07036,-0.0934516,0.145318,-0.126987,-0.0831808,0.00770569,0.0180817,0.0133514,0.0149155,0.0133514,0.012207,0.0207901,0.0230408,-9.97986,0.0102997,-0.00411987,0.0133514,-0.0323105,0.0185776,-0.00217438,0.0131226,0.00774384
38,4,10.0097,0.00152588,0.00137329,-2.4247,0.0569017,-0.075063,0.0547383,0.0706652,-0.0928413,0.146234,-0.125766,-0.0828756,0.0106049,0.0206757,0.0188065,0.0151825,0.00904083,0.00679016,0.017395,0.0176239,-9.97986,0.0137329,0.000991821,0.0136566,-0.0267029,0.018692,-0.000228882,0.0107193,0.00900269
38,5,10.0097,-0.00152588,0,-2.42562,0.055681,-0.0747579,0.0544332,0.0706652,-0.0922309,0.145624,-0.12363,-0.0813497,0.0102615,0.0204086,0.0191498,0.0165176,0.0138474,0.00511169,0.0218201,0.0226974,-9.97986,0.0198364,0.00255585,0.0164413,-0.0214767,0.0204086,-0.00137329,0.0138474,0.00396729
38,6,10.0097,0.000610352,-0.000152588,-2.42501,0.0581224,-0.073232,0.0550435,0.0706652,-0.0913154,0.147149,-0.124241,-0.0804342,0.0100708,0.0193024,0.0155258,0.0154495,0.0122833,0.0104904,0.0208664,0.0171661,-9.97986,0.0174332,0.000457764,0.017395,-0.0215912,0.018425,0.000534058,0.0126648,0.00450134
38,7,10.0097,-0.000305176,0.000762939,-2.42531,0.0559862,-0.0735371,0.0544332,0.0718859,-0.0922309,0.147455,-0.125156,-0.080129,0.00900269,0.0224304,0.0163269,0.0165176,0.0120926,0.00576019,0.0261307,0.0223541,-9.97986,0.0199127,0.0019455,0.0144958,-0.0152206,0.018959,-0.000228882,0.0132751,0.00778198
38,8,10.0097,-0.000610352,0.000610352,-2.42653,0.0572069,-0.0747579,0.0538228,0.0666979,-0.0913154,0.14776,-0.124546,-0.080129,0.0100327,0.0210571,0.0162506,0.0140762,0.00511169,0.00843048,0.0262451,0.0181961,-9.97986,0.0154495,-0.000762939,0.0165176,-0.00961304,0.0216293,-0.00297546,0.0172806,0.00621796
38,9,10.0097,0.00244141,-0.000610352,-2.42684,0.0559862,-0.0729268,0.0526021,0.0389269,-0.0946723,0.145013,-0.124851,-0.0819601,0.00724792,0.0162888,0.0167084,0.011673,0.0120163,0.00549316,0.0223541,0.0204468,-9.97986,0.0139618,-0.00198364,0.0138855,-0.00576019,0.0175476,-0.00637054,0.0153351,0.0038147
39,0,7.83864,0.000915527,-0.0012207,-2.42562,0.0565965,-0.0738423,0.0547383,0.0447252,-0.0928413,0.146844,-0.126987,-0.0816549,0.00663757,0.0201035,0.0178146,0.0137711,0.0174713,0.0063324,0.0167465,0.0247574,-9.97986,0.0170517,0.00087738,0.0151062,7.62939e-005,0.0190735,-0.0138474,0.0144958,0.00553131
39,1,6.65273,0.000610352,0.000152588,-2.42623,0.0541551,-0.0747579,0.0544332,0.0563219,-0.0916206,0.147149,-0.126072,-0.0819601,0.0154114,0.0138092,0.0222015,0.0113678,0.0148392,0.00919342,0.0205994,0.0218201,-9.97986,0.0185013,0.000801086,0.0152588,0.0094223,0.0160599,-0.0137711,0.0149918,0.00526428
39,2,6.52913,-0.000305176,0.00137329,-2.42714,0.0547655,-0.0744527,0.054128,0.0642565,-0.0928413,0.145624,-0.125461,-0.0828756,0.01091,0.0175858,0.0189972,0.0131607,0.0168991,0.0107574,0.0185776,0.0222397,-9.97986,0.0163651,0.000305176,0.0107193,0.0204468,0.0168228,-0.0116348,0.0160599,0.00518799
39,3,6.90755,0.000305176,0.00152588,-2.42745,0.0535448,-0.073232,0.0553487,0.0767687,-0.090705,0.145929,-0.125766,-0.0828756,0.00751495,0.0180817,0.0206757,0.0106812,0.0182724,0.00473022,0.0260544,0.0185013,-9.97986,0.00835419,-0.00286102,0.0110245,0.0252151,0.0159454,-0.00526428,0.0139618,0.00244141
39,4,9.39992,0.0012207,0.00244141,-2.42653,0.055681,-0.0759786,0.0556539,0.103929,-0.088874,0.144403,-0.123935,-0.0840963,0.0131989,0.0141144,0.0196075,0.00961304,0.0135422,0.00953674,0.0266647,0.0219345,-9.97986,0.0130081,0.00202179,0.0130844,0.03582,0.0170898,-0.00190735,0.0214767,0.00389099
39,5,10.0097,0,0.00228882,-2.42898,0.0538499,-0.0759786,0.0516866,0.0935533,-0.094062,0.142572,-0.125766,-0.0862325,0.00816345,0.0181961,0.0211716,0.0112152,0.0204468,0.00873566,0.0272369,0.0214386,-9.97986,0.0141144,0.00312805,0.0165558,0.0469971,0.0241852,0.0025177,0.0226974,0.00419617
39,6,10.0097,0.00183105,0.00152588,-2.42989,0.0535448,-0.0756734,0.0504659,0.0792101,-0.0952827,0.142877,-0.126682,-0.0871481,0.0107193,0.0183105,0.0192642,0.0130844,0.0213242,0.00404358,0.0279617,0.0227356,-9.97986,0.0117493,0.00110626,0.0138474,0.0519562,0.022583,0.00423431,0.0171661,0.00244141
39,7,10.0097,0,0.000915527,-2.42867,0.0538499,-0.0765889,0.0513814,0.0731066,-0.0943672,0.143182,-0.127292,-0.0871481,0.00850677,0.0166702,0.0190735,0.00793457,0.0180817,0.0107574,0.0296021,0.0283051,-9.97986,0.014267,-0.000839233,0.0172043,0.0555801,0.0191116,0.00171661,0.0146866,0.00682831
39,8,10.0097,-0.000610352,-0.000305176,-2.42837,0.0526292,-0.0753682,0.0522969,0.0700548,-0.0943672,0.142267,-0.127292,-0.0862325,0.0082016,0.0207901,0.022583,0.0133896,0.0241089,0.00896454,0.0285721,0.0244904,-9.97986,0.0130844,0.00114441,0.0104523,0.0668335,0.0178146,0.000572205,0.0167847,0.00514984
39,9,10.0097,0,0.000457764,-2.42928,0.0535448,-0.0759786,0.0538228,0.0700548,-0.095893,0.143182,-0.127292,-0.085317,0.00541687,0.0244522,0.018425,0.01091,0.0242996,0.0030899,0.0338364,0.0238037,-9.97986,0.0088501,0.00328064,0.0120926,0.0661469,0.0211716,-0.00267029,0.0195694,0.00541687
40,0,10.0097,0.000305176,0.000152588,-2.42806,0.0544603,-0.0756734,0.0535176,0.0685289,-0.0931465,0.145318,-0.127292,-0.0862325,0.0109863,0.0201797,0.0209427,0.0111771,0.0212479,0.00869751,0.0388336,0.0233078,-9.97986,0.00782013,0.000152588,0.00858307,0.0642014,0.0205231,-0.00301361,0.0163651,0.00278473
40,1,10.0097,0.000610352,-0.000152588,-2.42837,0.0553758,-0.0738423,0.0547383,0.0694445,-0.0946723,0.144403,-0.126987,-0.0850118,0.0100327,0.0226212,0.0287628,0.00923157,0.0177002,0.00705719,0.0340271,0.0161743,-9.97986,0.0075531,0.00205994,0.0117111,0.0743866,0.0183487,-0.00450134,0.0167465,0.0030899
40,2,10.0097,0,0.00106812,-2.42684,0.0547655,-0.0753682,0.0538228,0.0691393,-0.0928413,0.143792,-0.126072,-0.0850118,0.00972748,0.0161362,0.02491,0.0115585,0.0168991,0.00522614,0.031395,0.0136948,-9.97986,0.00843048,0.00511169,0.0119019,0.0828934,0.0243378,-0.0038147,0.0181961,0.00492096
40,3,10.0097,0.00213623,0.000610352,-2.42592,0.0550706,-0.0738423,0.0526021,0.0691393,-0.0928413,0.145318,-0.126377,-0.0837911,0.0100327,0.025444,0.0239182,0.0164795,0.0198364,0.00919342,0.0379944,0.0120926,-9.97986,0.00961304,-0.00255585,0.0128555,0.0852203,0.0248337,-0.00888824,0.0160217,0.00797272
40,4,10.0097,0.00152588,0.000457764,-2.42623,0.0569017,-0.0747579,0.0544332,0.072191,-0.0916206,0.145929,-0.124241,-0.0822652,0.0128174,0.0218964,0.0226974,0.014267,0.0182343,0.00694275,0.0378418,0.014801,-9.97986,0.0138474,-0.00289917,0.0130081,0.0860977,0.0185776,-0.00404358,0.018425,0.00465393
