
Devices
1200
,,BP Load cell - Voltage,String Length - Voltage,Clutch Active - Voltage,#7 iPecs - Voltage,,,,,,,,,EMG 1-8 Left - Voltage,,,,,,,,Pylon Force - Voltage,EMG 9-16 Right - Voltage,,,,,,,,
Frame,Sub Frame,BP Load Cell,String Length,From Arduino Logic,A45,A135,A225,A315,S0,S90,S180,S270,ZSum,EMG 1 Glut Max,EMG 2 Glut Med,EMG 3 Biceps Femoris Long,EMG 4 Rectus Femoris,EMG 5 Vastus Medialis,EMG 6 Tib Ant,EMG 7 Med Gas,EMG 8 Soleus,Pylon volts,EMG 9 Glut Max,EMG 10 Glut Med,EMG 11 Biceps Femoris Long,EMG 12 Rectus Femoris,EMG 13 Vastus Medialis,EMG 14 Tib Ant,EMG 15 Med Gas,EMG 16 Soleus
,,V,V,V,V,V,V,V,V,V,V,V,V,V,V,V,V,V,V,V,V,V,V,V,V,V,V,V,V,V
1,0,-9.99003,0.000610352,-0.000457764,-2.42562,0.055681,-0.075063,0.0547383,0.0639513,-0.0910102,0.145929,-0.126682,-0.0828756,0.0102615,0.0257492,0.0177002,0.00812531,0.0156021,0.012207,0.0247955,0.0172424,-9.97986,0.0149536,-0.000801086,0.0160217,0.00637054,0.00259399,-0.00137329,0.0150299,0.00545502
1,1,-9.99003,-0.0012207,0.00213623,-2.42653,0.0538499,-0.0738423,0.0556539,0.094774,-0.0891792,0.144708,-0.122715,-0.0816549,0.0101852,0.0247955,0.0154877,0.0123596,0.0139618,0.0122833,0.0250244,0.0120926,-9.97986,0.0118256,0.000114441,0.0131989,0.0088501,0.0185394,-0.00118256,0.0143433,0.00492096
1,2,-2.98106,0.00305176,0.00411987,-2.42714,0.0541551,-0.0762837,0.0550435,0.138414,-0.0870429,0.145318,-0.12241,-0.0840963,0.0094223,0.0194931,0.0162506,0.0110626,0.0188065,0.0124359,0.02388,0.0123215,-9.97986,0.0120926,0.00156403,0.0124741,0.00724792,0.0147629,-0.00152588,0.017395,0.0056839
1,3,4.05446,0,0.00411987,-2.42837,0.0544603,-0.0762837,0.0556539,0.153673,-0.088874,0.142877,-0.121189,-0.0844015,0.00968933,0.0215149,0.0154877,0.0062561,0.0183487,0.0100708,0.0239563,0.013237,-9.97986,0.00919342,0.000839233,0.0101089,0.00785828,0.0187683,-0.00205994,0.0159454,0.00816345
1,4,10.0097,-0.000305176,0.00427246,-2.42867,0.0526292,-0.075063,0.0535176,0.154588,-0.0882636,0.142572,-0.120884,-0.085317,0.00778198,0.0244904,0.0222778,0.0115204,0.0192261,0.0120544,0.0246048,0.0151062,-9.97986,0.0120544,0.00312805,0.0131607,0.00923157,0.0149918,-0.00228882,0.0159836,0.00431061
1,5,10.0097,0.000305176,0.00106812,-2.4305,0.0523241,-0.0778096,0.0498555,0.0987413,-0.0971137,0.142877,-0.125766,-0.0898946,0.0130081,0.0175858,0.018158,0.0125122,0.0189209,0.0135803,0.0250244,0.0150299,-9.97986,0.013504,-0.00228882,0.0152206,0.00732422,0.0205612,-0.0025177,0.0191116,0.00587463
1,6,10.0097,0.000305176,0.000457764,-2.42989,0.0538499,-0.0759786,0.0513814,0.0816515,-0.095893,0.142877,-0.127598,-0.0877584,0.0108337,0.0254822,0.0172043,0.0122452,0.019989,0.0116348,0.0233078,0.0147247,-9.97986,0.013237,0.00110626,0.0153351,0.0105286,0.0146484,0.00331879,0.0142288,0.00648499
1,7,10.0097,-0.0012207,0.000457764,-2.42928,0.055681,-0.0756734,0.0516866,0.0752428,-0.0955879,0.144098,-0.126377,-0.0871481,0.00843048,0.0216293,0.0168228,0.0165939,0.0176239,0.0125504,0.0205994,0.0148392,-9.97986,0.0141907,-0.00144958,0.0144196,0.00648499,0.018158,-0.000801086,0.017662,0.00267029
1,8,10.0097,-0.0012207,0,-2.42928,0.0541551,-0.0744527,0.0532125,0.0724962,-0.0946723,0.145013,-0.126072,-0.085317,0.0088501,0.0226974,0.0171661,0.0137711,0.0201416,0.00671387,0.0198746,0.0150681,-9.97986,0.010643,-0.00305176,0.0146103,0.00537872,0.0177002,-0.00133514,0.0163651,0.00728607
1,9,10.0097,0.000915527,0.000152588,-2.42806,0.0550706,-0.075063,0.0519917,0.0709703,-0.0937568,0.145318,-0.126682,-0.0847066,0.0102997,0.0246811,0.0185013,0.0146484,0.0208664,0.0114441,0.0244904,0.0216675,-9.97986,0.0109482,0.000839233,0.0104141,0.00293732,0.0181961,-0.00328064,0.0170898,0.00629425
2,0,10.0097,0.0012207,0,-2.42653,0.0559862,-0.0741475,0.0532125,0.0718859,-0.0934516,0.145929,-0.126377,-0.0850118,0.00679016,0.0210953,0.0167465,0.00793457,0.0143051,0.00930786,0.0211716,0.0174332,-9.97986,0.0151443,-0.00125885,0.0154495,0.00782013,0.0175476,-0.00411987,0.0160599,0.00385284
2,1,10.0097,0.000305176,0.000610352,-2.42714,0.0553758,-0.0747579,0.054128,0.0706652,-0.0922309,0.145318,-0.125461,-0.0831808,0.0108719,0.0234604,0.0194168,0.0110626,0.0158691,0.00900269,0.0209427,0.0216293,-9.97986,0.0161362,-0.00282288,0.017395,0.00770569,0.0170135,-0.00156403,0.0160599,0.00518799
2,2,10.0097,0.000915527,0,-2.42501,0.055681,-0.073232,0.0550435,0.0712755,-0.0913154,0.147149,-0.12363,-0.0825704,0.010643,0.0240326,0.0220871,0.0125504,0.0212097,0.0161362,0.0230026,0.0214767,-9.97986,0.0174713,-0.00484467,0.0150299,0.00621796,0.0193405,-0.00255585,0.0193024,0.00850677
2,3,10.0097,-0.000610352,0,-2.42348,0.0553758,-0.0741475,0.055959,0.0724962,-0.090705,0.147149,-0.124241,-0.0822652,0.0117874,0.0219345,0.0182343,0.0075531,0.0204468,0.00896454,0.0209427,0.0173187,-9.97986,0.0174713,-0.00621796,0.0125885,0.00553131,0.0180435,-0.00267029,0.0149155,0.00587463
2,4,10.0097,-0.000305176,-0.000305176,-2.42592,0.0550706,-0.0756734,0.0504659,0.0364855,-0.0971137,0.144708,-0.127903,-0.0840963,0.0118637,0.0221252,0.0217438,0.0125504,0.0196838,0.00926971,0.0248337,0.0259018,-9.97986,0.0200272,0.000228882,0.0138855,0.00434875,0.0183487,-0.00385284,0.015564,0.00720978
2,5,5.73079,-0.0012207,-0.00335693,-2.42776,0.0575121,-0.0747579,0.050771,-0.0135634,-0.101081,0.145929,-0.130649,-0.0837911,0.0144958,0.0205231,0.0204086,0.0133514,0.0223923,0.0120926,0.0228882,0.0255203,-9.97986,0.0218201,-0.00259399,0.0128937,0.00923157,0.0202179,-0.0062561,0.0211716,0.00411987
2,6,-1.99901,0.00213623,-0.00320435,-2.42592,0.0565965,-0.0735371,0.0522969,-0.0141737,-0.0971137,0.146234,-0.130344,-0.0831808,0.0152206,0.0185776,0.0196075,0.0125885,0.016861,0.0118256,0.0287628,0.0278473,-9.97986,0.0210571,-0.00720978,0.00900269,0.00659943,0.0186157,-0.00366211,0.0154877,0.00617981
2,7,-9.47459,0.000610352,-0.00442505,-2.42348,0.0575121,-0.0726216,0.0556539,-0.00135633,-0.0946723,0.147455,-0.128513,-0.0810445,0.00793457,0.02388,0.0221634,0.00984192,0.0213623,0.014267,0.0252533,0.0263214,-9.97986,0.0223923,-0.00278473,0.0141907,0.00595093,0.0166702,-0.00579834,0.0164413,0.00736237
2,8,-9.99003,0.000610352,-0.00274658,-2.42501,0.0562914,-0.0744527,0.0556539,0.0258043,-0.0913154,0.146539,-0.128208,-0.0807394,0.0141525,0.027771,0.0178909,0.0133514,0.0170517,0.0087738,0.0214005,0.0205231,-9.97986,0.020256,-0.00320435,0.0169754,0.00995636,0.00869751,-0.00450134,0.0156021,0.00453949
2,9,-9.99003,0,-0.000915527,-2.42562,0.0550706,-0.0735371,0.0556539,0.0486925,-0.0913154,0.144708,-0.127292,-0.0813497,0.0143814,0.0208282,0.0169373,0.011673,0.0225067,0.00762939,0.0255203,0.0199509,-9.97986,0.0186539,-0.00221252,0.0162888,0.00640869,0.00167847,-0.00339508,0.0172043,0.00774384
3,0,-9.99003,-0.000915527,-0.000305176,-2.42592,0.0559862,-0.0747579,0.0544332,0.0645616,-0.0919257,0.147149,-0.125461,-0.0822652,0.00656128,0.021019,0.018959,0.0101852,0.021553,0.0127411,0.0225067,0.0125504,-9.97986,0.0143433,0.0018692,0.0146103,0.00545502,0.00385284,-0.00263214,0.0136185,0.00576019
3,1,-9.99003,0.000305176,0.00152588,-2.42653,0.055681,-0.075063,0.0556539,0.0959947,-0.0891792,0.145624,-0.124546,-0.0828756,0.00740051,0.0245667,0.0191879,0.00919342,0.0183487,0.0111008,0.0261688,0.00579834,-9.97986,0.0104523,0.000686646,0.0135803,0.00896454,0.018425,-0.00236511,0.018425,0.00827789
3,2,-3.27311,0.000610352,0.00411987,-2.42714,0.0544603,-0.0756734,0.0553487,0.138109,-0.0876533,0.144708,-0.122715,-0.0831808,0.0075531,0.0221252,0.0184631,0.0137329,0.0197983,0.00919342,0.019722,0.00930786,-9.97986,0.00404358,-0.00579834,0.0143814,0.00408173,0.0136185,-0.00606537,0.0152206,0.00926971
3,3,3.81825,0.00152588,0.00396729,-2.42837,0.0535448,-0.075063,0.0550435,0.153368,-0.0885688,0.144403,-0.121189,-0.0840963,0.0108719,0.0244522,0.0223541,0.0128174,0.0152588,0.0113297,0.0205994,0.00953674,-9.97986,0.00846863,0.000495911,0.0162506,0.00553131,0.0167847,-0.00545502,0.014267,0.00415802
3,4,10.0097,0.000915527,0.00411987,-2.42806,0.0535448,-0.0753682,0.0526021,0.156725,-0.0897895,0.142572,-0.121799,-0.0856222,0.0112915,0.0211716,0.0178909,0.0143051,0.0151062,0.00823975,0.0210571,0.0117111,-9.97986,0.0110245,-0.00274658,0.0125504,0.00476837,0.0153732,-0.00614166,0.0149536,0.00431061
3,5,10.0097,0.00427246,0.00183105,-2.43172,0.0529344,-0.0768941,0.0492452,0.0993517,-0.0986396,0.142572,-0.125156,-0.0886739,0.010376,0.0237274,0.0181198,0.0111771,0.0169754,0.00846863,0.0201035,0.0088501,-9.97986,0.0104523,-0.00144958,0.0147629,0.0056839,0.0169754,-0.00858307,0.0134277,0.00465393
3,6,10.0097,0,0.000457764,-2.43081,0.0535448,-0.0768941,0.0510762,0.0813463,-0.0965034,0.143182,-0.127598,-0.0880636,0.00984192,0.0244904,0.0205231,0.0145721,0.0217056,0.014534,0.0260925,0.017662,-9.97986,0.0133133,0.001297,0.0183868,0.0088501,0.0197601,-0.00144958,0.0189209,0.00858307
3,7,10.0097,0.00244141,-0.000457764,-2.42806,0.0529344,-0.0762837,0.0516866,0.0752428,-0.095893,0.144403,-0.126377,-0.0871481,0.00728607,0.0188828,0.0136948,0.00831604,0.0147629,0.00720978,0.018692,0.0109482,-9.97986,0.00728607,-0.00137329,0.00999451,0.00537872,0.0157547,-0.00549316,0.0144577,0.00514984
3,8,10.0097,0,-0.000152588,-2.42806,0.0547655,-0.075063,0.0526021,0.0724962,-0.094062,0.145318,-0.126072,-0.0859274,0.01194,0.0231934,0.0205612,0.0128937,0.0214386,0.0126648,0.0267792,0.0141144,-9.97986,0.0167847,-0.00167847,0.0142288,0.00461578,0.0152206,-0.00164032,0.0150681,0.00453949
3,9,10.0097,0.000610352,-0.000457764,-2.42776,0.0550706,-0.0747579,0.0535176,0.0706652,-0.0946723,0.144098,-0.126682,-0.0847066,0.00854492,0.0212479,0.0209045,0.0152969,0.0178146,0.00888824,0.02285,0.0173569,-9.97986,0.0115967,-0.00484467,0.0166702,0.00713348,0.0171661,-0.000991821,0.015831,0.00408173
4,0,10.0097,-0.000915527,-0.000305176,-2.42745,0.0553758,-0.075063,0.0535176,0.0715807,-0.094062,0.145013,-0.124851,-0.0837911,0.0139236,0.017128,0.0183105,0.0142288,0.0183487,0.0115204,0.022049,0.0163651,-9.97986,0.0133514,-3.8147e-005,0.0127029,0.0043869,0.0215149,-0.0044632,0.0143814,0.00709534
4,1,10.0097,0.000305176,0,-2.42623,0.0553758,-0.0747579,0.054128,0.0706652,-0.0931465,0.147149,-0.124851,-0.0825704,0.00984192,0.0187683,0.0163269,0.0125122,0.015831,0.0100327,0.0156784,0.0172424,-9.97986,0.0146866,-0.00244141,0.01194,0.00484467,0.0141525,-0.00362396,0.0156403,0.00663757
4,2,10.0097,0.000610352,0.000610352,-2.4244,0.0562914,-0.0741475,0.0538228,0.0709703,-0.0919257,0.145318,-0.125156,-0.0828756,0.00991821,0.0232315,0.0172043,0.0138474,0.0179672,0.00911713,0.021553,0.0185013,-9.97986,0.0141907,-0.0012207,0.0126648,0.00518799,0.0177765,-0.000228882,0.0136566,0.0107956
4,3,10.0097,0.000915527,-0.000305176,-2.42592,0.0559862,-0.0729268,0.0556539,0.0709703,-0.0919257,0.147149,-0.12302,-0.080129,0.0114822,0.0224686,0.0180817,0.0133133,0.0179291,0.0115967,0.0207901,0.0203705,-9.97986,0.022049,0.00198364,0.0133133,0.00701904,0.0169754,-0.0012207,0.0123215,0.00617981
4,4,10.0097,-0.000610352,-0.000457764,-2.42714,0.0559862,-0.0747579,0.0532125,0.0361803,-0.0968086,0.145318,-0.128208,-0.0837911,0.0110626,0.02285,0.02285,0.0164032,0.0213623,0.0104904,0.0201416,0.0240707,-9.97986,0.0217056,-0.000724792,0.0143814,0.0082016,0.0133133,-0.00270844,0.0167847,0.00606537
4,5,5.62032,0.00183105,-0.00427246,-2.42745,0.0565965,-0.0738423,0.050771,-0.0150892,-0.101997,0.145929,-0.131565,-0.0828756,0.0088501,0.0221252,0.0187302,0.0100327,0.0152969,0.010376,0.0231934,0.0255203,-9.97986,0.0201035,-0.00125885,0.0160217,0.00396729,0.0168228,-0.0031662,0.0159836,0.0062561
4,6,-2.06737,-0.000915527,-0.00366211,-2.42684,0.0562914,-0.0735371,0.0544332,-0.0156996,-0.0986396,0.146539,-0.129734,-0.0828756,0.0147247,0.0263596,0.021286,0.0118256,0.0168228,0.0104523,0.0235367,0.0276947,-9.97986,0.021286,-0.0038147,0.0140381,0.00473022,0.0160599,-0.00232697,0.0127411,0.0069046
4,7,-9.61986,0.00183105,-0.00442505,-2.42379,0.0572069,-0.0744527,0.0544332,-0.000135623,-0.0931465,0.146844,-0.127598,-0.080129,0.0133896,0.0276184,0.0231171,0.0141144,0.0209808,0.0121307,0.0206375,0.0266647,-9.97986,0.0257111,0.000953674,0.0165176,0.0112915,0.0216675,0.00175476,0.0198364,0.0117874
4,8,-9.99003,0.000610352,-0.00320435,-2.42592,0.0569017,-0.0744527,0.0553487,0.0254991,-0.0913154,0.146234,-0.127292,-0.0804342,0.00843048,0.0212097,0.0139236,0.00675201,0.0130081,0.00816345,0.0123978,0.0191879,-9.97986,0.013504,-0.00473022,0.0101471,0.00297546,0.00804901,-0.00579834,0.0137329,0.00301361
4,9,-9.99003,0.00213623,-0.0012207,-2.42501,0.0550706,-0.0753682,0.0556539,0.0499132,-0.0910102,0.145318,-0.126072,-0.0816549,0.0113678,0.0249863,0.0215149,0.0111008,0.0182724,0.0125504,0.0224686,0.0199127,-9.97986,0.018692,0.000686646,0.0172424,0.0103378,0.00434875,0.00110626,0.0175476,0.00709534
5,0,-9.99003,0,0,-2.42562,0.0550706,-0.0738423,0.0553487,0.0642565,-0.0925361,0.145318,-0.127292,-0.0825704,0.00907898,0.0229645,0.016861,0.0117493,0.0213623,0.00736237,0.0208664,0.0117111,-9.97986,0.0143433,-0.00366211,0.0160217,0.00362396,0.000762939,-0.0037384,0.018692,0.00694275
5,1,-9.99003,0.0012207,0.00167847,-2.42623,0.0553758,-0.0747579,0.0550435,0.0938585,-0.0903999,0.146234,-0.125156,-0.0825704,0.0125504,0.0267792,0.017128,0.0111771,0.0168991,0.0112915,0.0115204,0.0111771,-9.97986,0.0112534,-0.00110626,0.0156403,0.00411987,0.013504,-0.0031662,0.0167465,0.00480652
5,2,-3.34086,0.000915527,0.0050354,-2.42745,0.0541551,-0.0756734,0.054128,0.137804,-0.0855171,0.143487,-0.121494,-0.0837911,0.0131989,0.0229263,0.0162888,0.0104141,0.0205231,0.0102997,0.0187683,0.00579834,-9.97986,0.0136948,0.00209808,0.0148773,0.00579834,0.0151443,-0.00312805,0.0165558,0.00659943
5,3,3.71938,0.00152588,0.00411987,-2.42745,0.0544603,-0.0759786,0.0544332,0.153978,-0.0882636,0.144098,-0.121494,-0.0859274,0.0138855,0.0196457,0.0167465,0.0123596,0.019455,0.012207,0.0230789,0.0134659,-9.97986,0.0129318,-0.000686646,0.016098,0.00816345,0.0141525,-0.00553131,0.0135422,0.00495911
5,4,10.0097,0.00366211,0.00350952,-2.42806,0.0535448,-0.075063,0.0553487,0.158556,-0.0891792,0.143487,-0.121799,-0.0850118,0.0131989,0.0227356,0.018692,0.0150681,0.0177002,0.0106049,0.0165939,0.00980377,-9.97986,0.00991821,-0.0025177,0.0151062,0.0069809,0.00972748,-0.00640869,0.0172806,0.00785828
5,5,10.0097,0.0012207,0.0012207,-2.43172,0.0529344,-0.0775044,0.0498555,0.099962,-0.0974189,0.142267,-0.125156,-0.0889791,0.00801086,0.0239563,0.0200653,0.0107574,0.0175095,0.00854492,0.0203705,0.00911713,-9.97986,0.0157547,-0.00980377,0.0162506,0.00976563,0.0128174,-0.00419617,0.0143814,0.00534058
5,6,10.0097,0.000915527,0.000457764,-2.43081,0.0538499,-0.0759786,0.0513814,0.0822618,-0.0971137,0.143182,-0.126377,-0.0877584,0.0106812,0.0272751,0.0224686,0.00789642,0.0175095,0.00957489,0.018692,0.0131607,-9.97986,0.00995636,-0.00358582,0.0113297,0.0101089,0.0147629,-0.00198364,0.0188446,0.00679016
5,7,10.0097,0.000610352,0.000305176,-2.42898,0.0541551,-0.0762837,0.0513814,0.0752428,-0.095893,0.142572,-0.126682,-0.0871481,0.0069809,0.0261688,0.0200272,0.0100327,0.0202179,0.0104904,0.0216675,0.0178146,-9.97986,0.0167084,-0.00324249,0.0147629,0.0104141,0.0110626,-0.000419617,0.0165939,0.0101471
5,8,10.0097,-0.000610352,-0.000305176,-2.42837,0.0550706,-0.0762837,0.0522969,0.072191,-0.095893,0.143792,-0.127292,-0.085317,0.0106812,0.0233078,0.0148773,0.0094223,0.0187683,0.0069046,0.0223923,0.0168991,-9.97986,0.0128555,-0.000839233,0.0146103,0.00808716,0.0142288,-0.00320435,0.0153732,0.00827789
5,9,10.0097,-0.000610352,-0.000457764,-2.42776,0.0544603,-0.075063,0.0532125,0.0715807,-0.0931465,0.145624,-0.126072,-0.0847066,0.0107193,0.0232315,0.0116348,0.0105667,0.0177002,0.0110626,0.0199127,0.0135422,-9.97986,0.0140762,0.000152588,0.0157928,0.0056839,0.0164413,-0.00328064,0.0162506,0.00385284
6,0,10.0097,0.00152588,0,-2.42837,0.0565965,-0.0762837,0.0516866,0.07036,-0.0913154,0.144403,-0.125766,-0.0850118,0.00980377,0.0285721,0.0162506,0.00831604,0.017395,0.0104523,0.0251007,0.0185394,-9.97986,0.0121307,-0.0037384,0.0144577,0.00679016,0.0178528,-0.00259399,0.0177765,0.0094986
6,1,10.0097,-0.000305176,-0.000305176,-2.42714,0.0550706,-0.0747579,0.0550435,0.0724962,-0.0928413,0.146234,-0.125461,-0.0831808,0.00907898,0.026474,0.0177383,0.00965118,0.0175858,0.0111389,0.0220871,0.0143814,-9.97986,0.0114441,-0.00347137,0.0120926,0.00450134,0.0154877,-0.00370026,0.0151443,0.00705719
6,2,10.0097,0.000305176,0.000457764,-2.42531,0.055681,-0.0741475,0.0544332,0.07036,-0.0916206,0.145013,-0.124546,-0.0825704,0.00915527,0.023613,0.018158,0.0105286,0.0163651,0.0112915,0.0195694,0.0165558,-9.97986,0.0176239,0.000686646,0.0159073,0.00728607,0.0169754,-0.00167847,0.0155258,0.00442505
6,3,10.0097,-0.000915527,-0.000152588,-2.4244,0.0565965,-0.0729268,0.0544332,0.0718859,-0.0916206,0.147149,-0.12363,-0.0816549,0.0120926,0.0230408,0.0191879,0.0102997,0.0203705,0.0111771,0.0259018,0.0165176,-9.97986,0.0162888,-0.00175476,0.0118256,0.00583649,0.0136566,-0.00522614,0.0153351,0.0056076
6,4,10.0097,0,-0.000610352,-2.42714,0.0562914,-0.0756734,0.0526021,0.0386217,-0.0968086,0.145624,-0.126987,-0.0828756,0.0103378,0.0252914,0.0191879,0.0115967,0.0168228,0.00923157,0.0202179,0.0244141,-9.97986,0.0159073,0.00038147,0.0135422,0.00667572,0.018425,-0.00286102,0.0173569,0.00671387
6,5,5.80892,0.000610352,-0.00366211,-2.42806,0.0559862,-0.0747579,0.0513814,-0.0138685,-0.0998603,0.146234,-0.130039,-0.0831808,0.0118637,0.029335,0.0199127,0.0144196,0.0180435,0.00823975,0.0241852,0.0233841,-9.97986,0.0257874,-0.000991821,0.0180054,0.00934601,0.0150681,-0.00267029,0.0164795,0.00610352
6,6,-1.87266,0.000305176,-0.00396729,-2.42776,0.0562914,-0.073232,0.0526021,-0.0147841,-0.0983344,0.146844,-0.129734,-0.0813497,0.0120544,0.0233841,0.0209427,0.0143814,0.019455,0.0124359,0.0238419,0.0249863,-9.97986,0.0223541,-0.00255585,0.0162888,0.00705719,0.0172806,-0.00469208,0.0160217,0.00644684
6,7,-9.30369,-0.000305176,-0.00396729,-2.4247,0.0575121,-0.0729268,0.0544332,-0.00227185,-0.0928413,0.146844,-0.129734,-0.0810445,0.0139618,0.0277328,0.018959,0.0121689,0.0178146,0.00911713,0.0198746,0.0211334,-9.97986,0.0239944,-0.00297546,0.0150299,0.0087738,0.0177765,-0.00656128,0.0164032,0.00782013
6,8,-9.99003,0.000610352,-0.00213623,-2.4247,0.0569017,-0.0756734,0.0550435,0.0245836,-0.0910102,0.146234,-0.127598,-0.0816549,0.00953674,0.0229263,0.0180817,0.0159836,0.0164032,0.0102234,0.0217438,0.0218201,-9.97986,0.0187683,-0.00118256,0.0156021,0.00385284,0.0139236,-0.00362396,0.0159454,0.00587463
6,9,-9.99003,0.00183105,-0.00152588,-2.42592,0.055681,-0.0738423,0.0550435,0.049608,-0.090705,0.145929,-0.126987,-0.0816549,0.0102234,0.026474,0.0193405,0.0104523,0.0160217,0.00980377,0.0188828,0.0199509,-9.97986,0.0179291,0.00114441,0.0143051,0.00835419,0.00247955,-0.00209808,0.014801,0.00732422
7,0,-9.99003,-0.000915527,0.000305176,-2.42623,0.055681,-0.0741475,0.0556539,0.0654772,-0.0910102,0.145318,-0.126072,-0.0822652,0.0120926,0.0260925,0.0169754,0.0108719,0.0138855,0.01194,0.0189972,0.0175858,-9.97986,0.0142288,-0.00404358,0.0154114,0.00709534,0.00602722,-0.00370026,0.014267,0.0075531
7,1,-9.99003,0,0.00167847,-2.42592,0.0559862,-0.0756734,0.0547383,0.0953844,-0.088874,0.145624,-0.12363,-0.0825704,0.0094986,0.024147,0.0141144,0.0127029,0.0144196,0.0125504,0.0188446,0.00873566,-9.97986,0.0117874,0.00137329,0.0164032,0.00263214,0.0179291,-0.00244141,0.0141144,0.00404358
7,2,-2.88951,0.000305176,0.00473022,-2.42776,0.0541551,-0.0747579,0.0553487,0.138719,-0.0873481,0.143487,-0.122715,-0.0834859,0.00770569,0.0227737,0.0196838,0.0108337,0.0158691,0.00534058,0.0244522,0.00740051,-9.97986,0.00984192,0.000343323,0.0159836,0.00553131,0.018158,-0.00110626,0.0159836,0.00770569
7,3,4.14601,0,0.0050354,-2.42837,0.0541551,-0.0756734,0.0538228,0.153978,-0.0885688,0.144098,-0.120884,-0.0844015,0.0121307,0.0226212,0.0191879,0.0101471,0.0151443,0.0138855,0.0245285,0.0104141,-9.97986,0.00869751,-0.00118256,0.0156403,0.00461578,0.0168228,-0.00823975,0.0143051,0.00595093
7,4,10.0097,-0.000610352,0.00457764,-2.42898,0.0532396,-0.0756734,0.0522969,0.153063,-0.0900947,0.143487,-0.120884,-0.0856222,0.00995636,0.0209427,0.0191498,0.0119781,0.016098,0.0120544,0.0207138,0.0138474,-9.97986,0.00835419,0.00312805,0.0114822,0.00770569,0.0212479,-0.00469208,0.0169373,0.00812531
7,5,10.0097,-0.000610352,0.00213623,-2.43142,0.0532396,-0.0771993,0.0513814,0.0984362,-0.0980293,0.141656,-0.126377,-0.0895895,0.0120163,0.0227356,0.0204086,0.0120926,0.0160599,0.00869751,0.0201035,0.0121307,-9.97986,0.0120926,-0.00205994,0.0156021,0.00617981,0.0156403,0.000572205,0.0167465,0.00621796
7,6,10.0097,-0.000915527,0.000152588,-2.4305,0.0544603,-0.0759786,0.050771,0.080736,-0.0971137,0.142877,-0.125766,-0.0883688,0.00831604,0.0219727,0.0197983,0.0114822,0.0178146,0.00789642,0.0194168,0.014534,-9.97986,0.0121307,3.8147e-005,0.0141907,0.00526428,0.0187683,-0.00305176,0.0153351,0.00652313
7,7,10.0097,-0.0012207,0.000457764,-2.42959,0.0544603,-0.0768941,0.0513814,0.0740221,-0.0949775,0.143182,-0.127292,-0.0868429,0.0113297,0.0270462,0.0141144,0.0127411,0.0160217,0.0104141,0.0212097,0.0162888,-9.97986,0.0157166,0.000686646,0.0124359,0.00476837,0.0135803,-0.00434875,0.013504,0.00598907
7,8,10.0097,0.000610352,0.000152588,-2.42898,0.0538499,-0.0744527,0.0526021,0.0724962,-0.094062,0.144403,-0.125766,-0.0859274,0.00976563,0.0251389,0.0213242,0.0137329,0.0134277,0.010376,0.0200653,0.0191498,-9.97986,0.0146484,0.00175476,0.0149918,0.00602722,0.0177383,-0.00274658,0.0162125,0.00778198
7,9,10.0097,0,-0.000305176,-2.42989,0.0547655,-0.0753682,0.0532125,0.0709703,-0.0937568,0.144403,-0.126987,-0.0844015,0.0102234,0.02388,0.0157547,0.0094223,0.0137329,0.00827789,0.0211334,0.0166321,-9.97986,0.0164032,-0.000419617,0.0142288,0.0063324,0.0141907,-0.00415802,0.0170898,0.0050354
8,0,10.0097,-0.000610352,0.000152588,-2.42623,0.0559862,-0.0738423,0.0538228,0.07036,-0.0934516,0.145013,-0.125766,-0.0831808,0.0142288,0.0262451,0.0193787,0.0112915,0.0193787,0.00854492,0.0209808,0.0173187,-9.97986,0.0168228,0.0043869,0.0164413,0.00854492,0.015564,-0.00156403,0.0119781,0.00766754
8,1,10.0097,-0.000915527,-0.000305176,-2.42714,0.0553758,-0.0735371,0.0526021,0.0709703,-0.0928413,0.145013,-0.125766,-0.0834859,0.0111771,0.0201797,0.0201035,0.013504,0.0167847,0.00888824,0.0216293,0.0136566,-9.97986,0.0108337,-0.000457764,0.015831,0.00450134,0.0156021,-0.00484467,0.0115204,0.00419617
8,2,10.0097,0.000610352,0,-2.42531,0.0553758,-0.0747579,0.0553487,0.0728014,-0.0916206,0.14776,-0.124546,-0.0819601,0.00782013,0.0247192,0.0235748,0.0116348,0.0147247,0.0114059,0.0245285,0.0204849,-9.97986,0.0214386,0.00442505,0.0181961,0.012207,0.0174713,-0.00179291,0.0167465,0.00854492
8,3,10.0097,0,0.000152588,-2.42562,0.0562914,-0.0735371,0.0553487,0.0718859,-0.0916206,0.147149,-0.124546,-0.0804342,0.0063324,0.0274277,0.0217056,0.0100327,0.0144577,0.00938416,0.0204849,0.0229263,-9.97986,0.0149155,0.00320435,0.0146866,0.00518799,0.0168991,-0.00370026,0.0127792,0.00392914
8,4,10.0097,0.000915527,-0.000762939,-2.42745,0.055681,-0.0762837,0.0532125,0.0358751,-0.0971137,0.146234,-0.127598,-0.0831808,0.0130463,0.0257874,0.0209045,0.0127411,0.0205994,0.00900269,0.0196457,0.0219727,-9.97986,0.021286,-0.000534058,0.0125504,0.0110245,0.0177383,-0.000648499,0.0144958,0.00453949
8,5,5.54799,-0.000610352,-0.00305176,-2.42714,0.055681,-0.0747579,0.050771,-0.0141737,-0.101081,0.147149,-0.130039,-0.0834859,0.0102615,0.0249481,0.0208282,0.0113297,0.0196075,0.0113678,0.0207901,0.0259781,-9.97986,0.0245667,0.00301361,0.0184631,0.00816345,0.018425,-0.00289917,0.0131989,0.00572205
8,6,-2.16838,-0.0012207,-0.00411987,-2.42592,0.055681,-0.0741475,0.0529073,-0.0169203,-0.0977241,0.146844,-0.130649,-0.0825704,0.00637054,0.0278091,0.0196457,0.012207,0.0187302,0.00762939,0.0188446,0.0309753,-9.97986,0.0180435,0.000572205,0.0159836,0.00610352,0.0165558,-0.00148773,0.0136566,0.00541687
8,7,-9.64458,-0.000915527,-0.00427246,-2.4247,0.0575121,-0.0735371,0.054128,-0.00105115,-0.0934516,0.146539,-0.128513,-0.0813497,0.0117493,0.0241852,0.0157928,0.0144196,0.0159836,0.0111008,0.0217438,0.0272369,-9.97986,0.0221634,0.00164032,0.0165558,0.00938416,0.0217056,-0.00301361,0.014801,0.00751495
8,8,-9.99003,0.000915527,-0.00213623,-2.4247,0.0553758,-0.0744527,0.0553487,0.0248888,-0.0925361,0.145318,-0.127292,-0.0810445,0.0133514,0.0270462,0.0223541,0.0148392,0.0208664,0.0139618,0.0255203,0.0218582,-9.97986,0.0160599,-0.00102997,0.0146866,0.0087738,0.0119781,-0.00267029,0.0121689,0.0069046
8,9,-9.99003,0.000610352,-0.0012207,-2.42562,0.0569017,-0.0735371,0.054128,0.0505236,-0.0913154,0.145013,-0.126377,-0.0822652,0.00953674,0.0228882,0.0175095,0.0126648,0.0185013,0.0110626,0.0239944,0.0247192,-9.97986,0.0153351,0.00244141,0.0162125,0.0101852,0.000801086,-0.000991821,0.019722,0.00656128
9,0,-9.99003,0.0012207,0,-2.42592,0.0559862,-0.0741475,0.0529073,0.0639513,-0.0897895,0.146234,-0.125766,-0.0825704,0.0108719,0.0222778,0.0201416,0.0120163,0.0200653,0.00980377,0.0198746,0.0151062,-9.97986,0.00907898,-0.00232697,0.0141525,0.0102615,0.00183105,-0.00270844,0.0186539,0.00556946
9,1,-9.99003,-0.000305176,0.00152588,-2.42592,0.0541551,-0.0744527,0.0556539,0.0920275,-0.0885688,0.145318,-0.123325,-0.0825704,0.0108719,0.0234604,0.0152969,0.0111771,0.0177002,0.00793457,0.0173187,0.01297,-9.97986,0.0125504,0.000305176,0.0154877,0.00644684,0.0177002,-0.00507355,0.0140762,0.00732422
9,2,-3.36894,0,0.00427246,-2.42684,0.0541551,-0.0762837,0.0553487,0.139635,-0.0876533,0.144403,-0.122104,-0.0831808,0.00812531,0.0202942,0.0188828,0.0102615,0.0105286,0.0120163,0.0257111,0.00873566,-9.97986,0.00846863,0.000686646,0.00865936,0.00957489,0.0173569,-0.00305176,0.0157547,0.00335693
9,3,3.77797,0.00244141,0.00411987,-2.42806,0.0541551,-0.075063,0.054128,0.153978,-0.0879585,0.143792,-0.120884,-0.0847066,0.00930786,0.0242615,0.0179291,0.0139236,0.0186157,0.0128937,0.0269318,0.00827789,-9.97986,0.00736237,-0.00167847,0.0115585,0.00656128,0.0164032,-0.00213623,0.0160217,0.00667572
9,4,10.0097,-0.000610352,0.00427246,-2.42867,0.0541551,-0.0753682,0.0532125,0.157945,-0.0885688,0.143792,-0.120884,-0.0859274,0.0063324,0.0200272,0.0181961,0.0106049,0.0189209,0.0130081,0.0211334,0.0114822,-9.97986,0.00999451,0.00282288,0.0156784,0.0102615,0.0172806,-0.00495911,0.0154495,0.00587463
9,5,10.0097,0.000610352,0.00198364,-2.43172,0.0529344,-0.0768941,0.0492452,0.0975206,-0.0986396,0.142572,-0.126072,-0.0892843,0.0125885,0.0260162,0.0207138,0.0117874,0.0127029,0.0126648,0.0222778,0.0107574,-9.97986,0.0115967,0.00225067,0.0113678,0.00991821,0.0132751,-0.0030899,0.01297,0.00511169
9,6,10.0097,0.000610352,-0.000152588,-2.42806,0.0532396,-0.0762837,0.0516866,0.082567,-0.0968086,0.143182,-0.126682,-0.0886739,0.0122452,0.0185013,0.0201797,0.011673,0.016861,0.00957489,0.0216293,0.0146866,-9.97986,0.0111771,0.00400543,0.0190353,0.00858307,0.0148392,-0.00286102,0.0167084,0.00434875
9,7,10.0097,0,0.000152588,-2.42928,0.055681,-0.0753682,0.0519917,0.0761583,-0.0955879,0.143792,-0.126682,-0.0865377,0.0119781,0.0193787,0.0190735,0.01091,0.0156784,0.0082016,0.0218201,0.0150681,-9.97986,0.0133133,-0.00282288,0.0162888,0.00873566,0.0152206,3.8147e-005,0.0146866,0.00629425
9,8,10.0097,0,0,-2.42806,0.0550706,-0.0759786,0.0532125,0.07036,-0.095893,0.144403,-0.126682,-0.0856222,0.00988007,0.0301361,0.0164413,0.00782013,0.0185394,0.00869751,0.0238037,0.0141907,-9.97986,0.0148392,0.00156403,0.0130844,0.00553131,0.0125122,-0.00347137,0.0121689,0.00221252
9,9,10.0097,0.00152588,0.000305176,-2.42745,0.0547655,-0.0744527,0.0535176,0.0706652,-0.0937568,0.145624,-0.126072,-0.0847066,0.0160599,0.0254059,0.0188828,0.0115204,0.0167847,0.0115967,0.0222015,0.0167084,-9.97986,0.0177765,0.000915527,0.014267,0.00743866,0.0177765,0.00301361,0.0189209,0.0102615
10,0,10.0097,0.000915527,-0.000305176,-2.42714,0.0553758,-0.0756734,0.0532125,0.0718859,-0.0931465,0.146539,-0.125156,-0.0840963,0.0044632,0.0235367,0.0167465,0.0112152,0.0183487,0.0122833,0.0216293,0.0166702,-9.97986,0.0114059,0.000610352,0.0170135,0.00572205,0.014801,-0.00205994,0.0154877,0.00629425
10,1,10.0097,-0.000915527,0.000152588,-2.42562,0.0559862,-0.0738423,0.054128,0.0706652,-0.0919257,0.145929,-0.125766,-0.0834859,0.0101471,0.0239182,0.0179672,0.01194,0.017128,0.0112915,0.0225449,0.0150681,-9.97986,0.0123978,-0.0038147,0.0125122,0.00663757,0.0139618,-0.00274658,0.0143433,0.00411987
10,2,10.0097,-0.000610352,0.000305176,-2.42592,0.055681,-0.0741475,0.0535176,0.0712755,-0.0925361,0.147149,-0.125156,-0.0825704,0.0141525,0.023613,0.02285,0.0130463,0.0188446,0.014267,0.0255966,0.0167847,-9.97986,0.0182343,0.000724792,0.0180817,0.00873566,0.0179672,0.0012207,0.0207901,0.00621796
10,3,10.0097,0.00244141,0.000152588,-2.42531,0.0575121,-0.073232,0.0544332,0.0706652,-0.0910102,0.146234,-0.124241,-0.0810445,0.0082016,0.0237274,0.0179672,0.00793457,0.0138855,0.0069046,0.0218201,0.0202179,-9.97986,0.0165558,-0.00484467,0.00919342,0.00740051,0.0156784,-0.000991821,0.0173187,0.0043869
10,4,10.0097,-0.00244141,-0.000610352,-2.42837,0.055681,-0.0747579,0.0526021,0.0377062,-0.0971137,0.145929,-0.126072,-0.0825704,0.0075531,0.0259399,0.0183868,0.0131607,0.0159836,0.0144958,0.0222397,0.0240326,-9.97986,0.0230026,-0.0037384,0.0179672,0.00469208,0.0143433,-0.00198364,0.0159073,0.00530243
10,5,5.73079,0.00152588,-0.00335693,-2.42684,0.0565965,-0.075063,0.0516866,-0.0126478,-0.101691,0.145624,-0.130649,-0.0837911,0.0146866,0.0270462,0.0210953,0.0113678,0.0186157,0.00999451,0.0206757,0.0275803,-9.97986,0.0209045,0.00232697,0.0141144,0.0056076,0.0201797,-0.00541687,0.0145721,0.00461578
10,6,-1.95353,0.000915527,-0.00335693,-2.42531,0.0565965,-0.0747579,0.0538228,-0.0150892,-0.0983344,0.146234,-0.130344,-0.0825704,0.0107193,0.0221634,0.0192642,0.0111771,0.0151062,0.0123215,0.0242996,0.0298691,-9.97986,0.021286,0.00297546,0.0142288,0.00663757,0.0170517,-0.00324249,0.0157166,0.00648499
10,7,-9.37663,-0.00213623,-0.00427246,-2.4244,0.0569017,-0.073232,0.0544332,-0.0016615,-0.0937568,0.146234,-0.129123,-0.0804342,0.0119019,0.0231171,0.0174713,0.0110245,0.0178909,0.00865936,0.0223541,0.0244904,-9.97986,0.0220108,0.00228882,0.0154877,0.00686646,0.019989,-0.00389099,0.0177765,0.00686646
10,8,-9.99003,0.0012207,-0.00259399,-2.42501,0.0559862,-0.0738423,0.0556539,0.0254991,-0.0919257,0.146844,-0.127598,-0.0804342,0.0094986,0.0219727,0.0183487,0.0124359,0.014267,0.00892639,0.0208282,0.0247192,-9.97986,0.0170898,0.000801086,0.0151825,0.0106049,0.014534,0.000457764,0.0161362,0.0063324
10,9,-9.99003,0.000915527,-0.00106812,-2.4244,0.0550706,-0.0747579,0.055959,0.0499132,-0.0910102,0.145318,-0.126377,-0.0825704,0.0110626,0.0223923,0.0177765,0.0127411,0.0146103,0.00827789,0.0231934,0.0180435,-9.97986,0.0194168,0.00125885,0.0138474,0.00595093,0.00137329,-0.00408173,0.015564,0.00774384
11,0,-9.99003,0.00152588,-0.000152588,-2.42653,0.055681,-0.0756734,0.0562642,0.0645616,-0.090705,0.145318,-0.124851,-0.0825704,0.0132751,0.026474,0.0204468,0.0137329,0.0196075,0.0107956,0.0230789,0.017662,-9.97986,0.0120926,0.000839233,0.0138474,0.00240326,0.00522614,-0.00419617,0.0157547,0.00774384
11,1,-9.99003,0.000610352,0.0012207,-2.42592,0.0541551,-0.0753682,0.0553487,0.0956896,-0.0897895,0.144403,-0.124546,-0.0825704,0.0082016,0.0259399,0.0202179,0.00812531,0.0158691,0.0110626,0.020256,0.0123215,-9.97986,0.0124741,-0.00282288,0.0125122,0.00778198,0.0156784,-0.00343323,0.0120926,0.00545502
11,2,-2.67192,0.000610352,0.00442505,-2.42867,0.0538499,-0.0747579,0.0556539,0.136278,-0.088874,0.144098,-0.122715,-0.0847066,0.00999451,0.0255966,0.0210953,0.00839233,0.0161743,0.00988007,0.020752,0.0111008,-9.97986,0.00843048,0.000915527,0.0125885,0.00499725,0.0124359,0.000114441,0.0133514,0.00537872
11,3,3.97725,0.00152588,0.00473022,-2.42745,0.0547655,-0.0765889,0.0544332,0.152452,-0.088874,0.144098,-0.121494,-0.0847066,0.00839233,0.0217819,0.0194931,0.0125504,0.0151825,0.00839233,0.0237274,0.00598907,-9.97986,0.00617981,-0.00301361,0.017128,0.00766754,0.0124741,-0.00225067,0.0159454,0.010376
11,4,10.0097,-0.000610352,0.00396729,-2.42806,0.0541551,-0.0747579,0.0532125,0.155809,-0.0891792,0.144098,-0.120884,-0.085317,0.00720978,0.02285,0.0184631,0.0107956,0.0141144,0.0130463,0.0226212,0.0117493,-9.97986,0.00972748,-0.00366211,0.0137711,0.00324249,0.0144196,-0.000457764,0.0190353,0.0075531
11,5,10.0097,0.000610352,0.0012207,-2.43172,0.0541551,-0.0756734,0.0495503,0.0990465,-0.0977241,0.142267,-0.126072,-0.0892843,0.0140381,0.0246048,0.0160599,0.0107574,0.0175476,0.00869751,0.0229263,0.0133133,-9.97986,0.0131226,-0.0025177,0.0157928,0.0126266,0.0111389,-0.000457764,0.0152206,0.00652313
11,6,10.0097,0,0.000152588,-2.4305,0.0544603,-0.0768941,0.0510762,0.082567,-0.0974189,0.143487,-0.125766,-0.0883688,0.00911713,0.0221634,0.0180435,0.00926971,0.0152588,0.00511169,0.0220108,0.0148773,-9.97986,0.0120926,-0.00461578,0.014801,0.00644684,0.0182724,-0.000457764,0.014267,0.00694275
11,7,10.0097,0.000610352,-0.000457764,-2.42867,0.0535448,-0.0762837,0.0529073,0.0743273,-0.095893,0.143487,-0.127292,-0.0871481,0.0113678,0.0239182,0.0138474,0.0102615,0.0186539,0.0112915,0.0183105,0.0164413,-9.97986,0.0113678,0.00175476,0.0131226,0.00610352,0.0146866,-0.00148773,0.0183487,0.00679016
11,8,10.0097,0.000610352,0.000152588,-2.42867,0.0547655,-0.0759786,0.0535176,0.0715807,-0.0937568,0.145318,-0.126377,-0.0862325,0.0106812,0.019989,0.0184631,0.00900269,0.015564,0.0120544,0.0205612,0.0161743,-9.97986,0.0112915,-0.00385284,0.0123978,0.0069809,0.0137329,-0.00167847,0.0147629,0.00946045
11,9,10.0097,-0.000915527,0,-2.42776,0.0559862,-0.0747579,0.054128,0.072191,-0.0946723,0.144403,-0.126072,-0.085317,0.010376,0.0208282,0.017395,0.00934601,0.0136948,0.0127411,0.0205612,0.0160599,-9.97986,0.0126266,-0.00293732,0.0151825,0.00358582,0.0150681,-0.00190735,0.0164032,0.00694275
12,0,10.0097,-0.000305176,0.000152588,-2.42776,0.0547655,-0.0747579,0.0522969,0.0706652,-0.0946723,0.144098,-0.125766,-0.0850118,0.0141907,0.0241852,0.0177765,0.0114822,0.0181198,0.0141144,0.0234604,0.0196457,-9.97986,0.0117874,-0.00415802,0.00907898,0.00549316,0.0172424,-0.000953674,0.0150299,0.00644684
12,1,10.0097,-0.00152588,0.000457764,-2.42623,0.0559862,-0.0741475,0.0550435,0.0697496,-0.0922309,0.145929,-0.126682,-0.0834859,0.0107956,0.0207138,0.0151825,0.0193024,0.0197983,0.00823975,0.0211334,0.0163651,-9.97986,0.0143051,-0.00705719,0.0175858,0.00480652,0.0151062,0.00038147,0.0146866,0.00545502
12,2,10.0097,-0.000610352,0.000305176,-2.42562,0.0550706,-0.0741475,0.0550435,0.0715807,-0.0913154,0.145929,-0.12363,-0.0828756,0.00671387,0.0192642,0.0148773,0.00938416,0.0152206,0.00705719,0.0226593,0.0200653,-9.97986,0.0165939,-0.00663757,0.0120163,0.00644684,0.0135422,-0.000419617,0.0151825,0.00480652
12,3,10.0097,0.00152588,0.000305176,-2.42531,0.0578172,-0.0741475,0.054128,0.0718859,-0.0919257,0.145929,-0.124546,-0.0816549,0.0149918,0.0264359,0.0218201,0.011673,0.0183868,0.00988007,0.0179291,0.0232315,-9.97986,0.0169373,3.8147e-005,0.0140762,0.0044632,0.0182343,0.000495911,0.0188446,0.00514984
12,4,10.0097,0.00152588,-0.000915527,-2.42867,0.055681,-0.0747579,0.0516866,0.0386217,-0.0971137,0.143792,-0.126987,-0.0825704,0.0140762,0.0200272,0.0224304,0.0125122,0.0154877,0.00839233,0.0269699,0.0262833,-9.97986,0.0238037,-0.00133514,0.0157928,0.00442505,0.0199509,-0.000343323,0.0157928,0.0087738
12,5,5.75643,-0.000915527,-0.00396729,-2.42714,0.0559862,-0.0735371,0.050771,-0.0141737,-0.101081,0.145318,-0.130344,-0.0837911,0.0102234,0.019722,0.0183868,0.0125504,0.0184631,0.00778198,0.0262833,0.0251007,-9.97986,0.020752,-0.00591278,0.0120544,0.00450134,0.0156403,0.000648499,0.0182724,0.00270844
12,6,-1.88853,0,-0.00366211,-2.42653,0.0572069,-0.0741475,0.0526021,-0.0156996,-0.0977241,0.146234,-0.130649,-0.0825704,0.0131226,0.0232315,0.0210953,0.0119019,0.0217438,0.00999451,0.0268173,0.0304031,-9.97986,0.0220108,3.8147e-005,0.014534,0.0110626,0.0200272,0.00217438,0.0168991,0.00827789
12,7,-9.25975,0,-0.00411987,-2.4247,0.0572069,-0.0735371,0.0556539,-0.00135633,-0.0946723,0.146539,-0.128818,-0.0807394,0.00946045,0.0213623,0.020256,0.0107193,0.0189972,0.0102234,0.0209427,0.0242615,-9.97986,0.0222397,-0.00267029,0.0183105,0.00617981,0.0173569,0.00392914,0.0172424,0.00850677
12,8,-9.99003,0.000610352,-0.00274658,-2.42531,0.0559862,-0.075063,0.0562642,0.0254991,-0.0913154,0.14776,-0.127292,-0.0804342,0.00915527,0.0208282,0.018692,0.00984192,0.0194168,0.00629425,0.0190735,0.0274277,-9.97986,0.0227356,-0.0088501,0.0137711,0.00732422,0.0112534,0.000839233,0.0179672,0.00637054
12,9,-9.99003,-0.000305176,-0.0012207,-2.42592,0.0553758,-0.0738423,0.0550435,0.0493029,-0.0894843,0.147149,-0.126987,-0.0813497,0.0105667,0.0273895,0.0183868,0.0129318,0.0147247,0.00816345,0.0181961,0.0189209,-9.97986,0.019722,-0.00305176,0.015831,0.00511169,0.0094986,0.00156403,0.0179672,0.00972748
13,0,-9.99003,-0.000305176,0.000152588,-2.42562,0.0547655,-0.075063,0.0562642,0.0648668,-0.0925361,0.145318,-0.125461,-0.0825704,0.00873566,0.0242996,0.0201797,0.0111771,0.0175476,0.0139618,0.0221634,0.014267,-9.97986,0.0120544,-0.00274658,0.0115585,0.00289917,0.00541687,-0.000228882,0.0136948,0.0069809
13,1,-9.99003,0.000305176,0.00183105,-2.42714,0.0550706,-0.0744527,0.0544332,0.0920275,-0.0891792,0.145318,-0.124851,-0.0831808,0.00892639,0.0226974,0.0203705,0.00926971,0.014267,0.00823975,0.0221634,0.0138474,-9.97986,0.0101852,-0.0037384,0.0166702,0.00556946,0.0151825,0.00232697,0.0123596,0.00896454
13,2,-2.64689,-0.000305176,0.00457764,-2.42867,0.0541551,-0.075063,0.0553487,0.135057,-0.0879585,0.143182,-0.12241,-0.085317,0.0104141,0.0203323,0.0153732,0.0151062,0.0153351,0.0107956,0.0215912,0.00957489,-9.97986,0.00675201,-0.00442505,0.0103378,0.0044632,0.0156403,-0.000953674,0.0163651,0.00850677
13,3,3.92659,0.000305176,0.00488281,-2.42989,0.0511034,-0.0756734,0.0510762,0.152147,-0.0949775,0.111444,-0.123325,-0.0868429,0.0125122,0.0264359,0.0155258,0.0130844,0.0144958,0.00720978,0.0209427,0.0126266,-9.97986,0.00740051,7.62939e-005,0.0148773,0.00427246,0.0179672,-0.00038147,0.0152206,0.00526428
13,4,10.0097,-0.0119019,0.00442505,-2.42898,0.0535448,-0.0762837,0.0532125,0.155504,-0.0903999,0.134637,-0.120273,-0.0859274,0.00774384,0.0199127,0.0179672,0.0154114,0.0162888,0.00797272,0.0196457,0.0135422,-9.97986,0.00785828,0.00114441,0.0136185,0.00980377,0.0136948,0.00205994,0.0147247,0.00480652
13,5,10.0097,-0.00274658,0.00167847,-2.4305,0.0526292,-0.0768941,0.0504659,0.100572,-0.0974189,0.137994,-0.126377,-0.0892843,0.0128937,0.0225449,0.018158,0.00858307,0.0139618,0.00980377,0.019455,0.0135422,-9.97986,0.0119019,-0.00133514,0.0145721,0.00816345,0.0175858,0.00263214,0.0174713,0.00782013
13,6,10.0097,0,0.000915527,-2.42959,0.0547655,-0.0762837,0.0510762,0.0831774,-0.0968086,0.141961,-0.126682,-0.0886739,0.00743866,0.0239563,0.0152588,0.0152969,0.01194,0.0161743,0.0256348,0.00888824,-9.97986,0.0118256,-0.00137329,0.0162125,0.0069046,0.0178146,-0.001297,0.0196075,0.00621796
13,7,10.0097,0.00183105,-0.000457764,-2.42928,0.0538499,-0.0756734,0.0513814,0.0767687,-0.095893,0.142877,-0.126377,-0.0871481,0.00961304,0.0260162,0.0180054,0.0167084,0.0143814,0.0101089,0.0230789,0.0104904,-9.97986,0.0144196,-0.00167847,0.0160599,0.0088501,0.0167084,0.00427246,0.0144577,0.00709534
13,8,10.0097,0.000610352,-0.000305176,-2.42806,0.0541551,-0.0756734,0.0529073,0.0709703,-0.0943672,0.143487,-0.126987,-0.0862325,0.0130081,0.0242996,0.0175095,0.0143051,0.0182724,0.0105286,0.0249481,0.0133514,-9.97986,0.0141525,0.00087738,0.0164795,0.0062561,0.0165558,-0.000724792,0.0164032,0.00465393
13,9,10.0097,0.0012207,-0.000305176,-2.42837,0.0550706,-0.0747579,0.0535176,0.0700548,-0.094062,0.145318,-0.125766,-0.085317,0.0133514,0.0272369,0.0195694,0.00934601,0.0162125,0.00915527,0.0226212,0.0178909,-9.97986,0.0194168,-0.00106812,0.0137711,0.00530243,0.0205231,0.001297,0.014534,0.00659943
14,0,10.0097,0,0.000152588,-2.42867,0.0538499,-0.0747579,0.0532125,0.0712755,-0.0934516,0.145013,-0.125461,-0.0847066,0.0133896,0.026474,0.0192261,0.00976563,0.0169754,0.0100708,0.0201797,0.0154495,-9.97986,0.0179672,-0.00293732,0.0144958,0.00675201,0.018158,0.000572205,0.0148392,0.00659943
14,1,10.0097,0.0012207,0.000152588,-2.42745,0.0547655,-0.0741475,0.0544332,0.0712755,-0.0931465,0.145013,-0.125766,-0.0831808,0.0103378,0.0226212,0.019722,0.0123596,0.0174713,0.00919342,0.0212479,0.0198364,-9.97986,0.0163269,0.00152588,0.0162888,0.00892639,0.0167847,0.00312805,0.0191879,0.00526428
14,2,10.0097,-0.000915527,0.000610352,-2.42562,0.0572069,-0.0744527,0.0547383,0.0712755,-0.0919257,0.145929,-0.125156,-0.0816549,0.0102615,0.022316,0.0166702,0.0129318,0.0131989,0.00934601,0.021019,0.0136566,-9.97986,0.0173187,0.000457764,0.0143814,0.00667572,0.0159836,0.000572205,0.0169373,0.00778198
14,3,10.0097,0.000305176,0.000305176,-2.42501,0.0559862,-0.0741475,0.0547383,0.0724962,-0.0919257,0.146234,-0.124241,-0.0816549,0.0125122,0.0257111,0.0167465,0.0105667,0.019722,0.0119019,0.0236893,0.0267792,-9.97986,0.0196075,0.00110626,0.0131989,0.00892639,0.0193024,0.00362396,0.0179291,0.00427246
14,4,10.0097,0.00183105,-0.000610352,-2.42745,0.055681,-0.0735371,0.0532125,0.0383165,-0.0974189,0.146234,-0.127292,-0.0831808,0.0138855,0.0260544,0.0193405,0.0125504,0.0155258,0.0103378,0.022049,0.0242996,-9.97986,0.0168228,-0.0043869,0.0123978,0.00370026,0.0159454,0.00190735,0.0203323,0.00644684
14,5,5.73293,-0.000915527,-0.00335693,-2.42745,0.0559862,-0.0741475,0.050771,-0.0135634,-0.101081,0.145624,-0.130344,-0.0837911,0.0106812,0.0245667,0.0197601,0.0146866,0.0153732,0.0101852,0.025177,0.0300217,-9.97986,0.0238037,0.000534058,0.0144958,0.0087738,0.0195694,0.000610352,0.0150299,0.00602722
14,6,-1.89342,-0.000610352,-0.00350952,-2.42684,0.0572069,-0.0735371,0.0529073,-0.0153944,-0.0974189,0.146844,-0.130649,-0.0819601,0.0104904,0.0243759,0.0156021,0.00930786,0.0156784,0.00946045,0.0243759,0.0297165,-9.97986,0.0201797,-0.00331879,0.0100327,0.00720978,0.0197601,0.00225067,0.0162888,0.00701904
14,7,-9.30247,-0.000610352,-0.00411987,-2.4244,0.055681,-0.0738423,0.0556539,-0.0028822,-0.094062,0.146234,-0.128513,-0.0810445,0.00827789,0.0241089,0.0210953,0.0119781,0.0221252,0.013237,0.0213242,0.0254059,-9.97986,0.0192642,-0.0025177,0.0180054,0.00850677,0.0220871,0.00331879,0.0154114,0.00370026
14,8,-9.99003,0.000610352,-0.00289917,-2.42501,0.0559862,-0.075063,0.0556539,0.0248888,-0.0925361,0.146539,-0.127903,-0.0813497,0.0135422,0.0255203,0.0204849,0.0120926,0.0202179,0.00984192,0.0272369,0.0231171,-9.97986,0.0203323,-0.000915527,0.0169373,0.00926971,0.0102234,0.00480652,0.0143051,0.0062561
14,9,-9.99003,0.000305176,-0.0012207,-2.42623,0.0565965,-0.075063,0.0553487,0.0511339,-0.090705,0.145318,-0.127292,-0.0813497,0.0101471,0.0234604,0.0144196,0.0144196,0.0140762,0.0120926,0.022049,0.0186539,-9.97986,0.0163269,-0.00408173,0.0115967,0.00564575,0.00137329,0.00427246,0.0106049,0.00457764
15,0,-9.99003,-0.000305176,0.000305176,-2.42592,0.0547655,-0.075063,0.0544332,0.0639513,-0.0897895,0.145318,-0.126072,-0.0822652,0.0111389,0.0242233,0.0190735,0.0152588,0.0186539,0.0143051,0.0255203,0.0110626,-9.97986,0.0162506,-0.0062561,0.017128,0.00988007,0.00782013,0.00495911,0.0191116,0.00736237
15,1,-9.99003,0.000305176,0.00152588,-2.42714,0.0553758,-0.0756734,0.0565694,0.0953844,-0.0882636,0.145318,-0.123935,-0.0828756,0.00804901,0.0239182,0.0178528,0.0125885,0.0173569,0.00766754,0.0225067,0.0110626,-9.97986,0.00526428,0.000419617,0.0177002,0.00892639,0.0156403,0.00339508,0.0154495,0.0043869
15,2,-2.67741,0.000610352,0.00488281,-2.42714,0.0532396,-0.0756734,0.0556539,0.135057,-0.0882636,0.143792,-0.12241,-0.0834859,0.010376,0.02388,0.0140381,0.0123215,0.016861,0.0147247,0.0244904,0.0120163,-9.97986,0.0075531,-0.00255585,0.0188065,0.0063324,0.0175476,0.00160217,0.0151062,0.00587463
15,3,3.91316,0.00305176,0.00473022,-2.42806,0.0535448,-0.0756734,0.0538228,0.154283,-0.0894843,0.144098,-0.121189,-0.0859274,0.00930786,0.0233841,0.0182343,0.00915527,0.0160599,0.00812531,0.0194168,0.00923157,-9.97986,0.0109863,0.000190735,0.0182724,0.0069809,0.018158,0.00629425,0.0179672,0.00621796
15,4,10.0097,-0.000305176,0.00457764,-2.42867,0.0541551,-0.0762837,0.0538228,0.15642,-0.0894843,0.144403,-0.120273,-0.0850118,0.0101471,0.0210571,0.0178528,0.0109863,0.0163269,0.0101089,0.0246429,0.00919342,-9.97986,0.00995636,0.00087738,0.0127029,0.00713348,0.0118637,0.00549316,0.0134277,0.00377655
15,5,10.0097,-0.000305176,0.00183105,-2.43081,0.0526292,-0.0775044,0.0501607,0.0984362,-0.0977241,0.141656,-0.125461,-0.0892843,0.0124359,0.0251007,0.0179291,0.0123215,0.0217438,0.0110626,0.0209808,0.0115585,-9.97986,0.0117874,-0.00160217,0.0133514,0.00553131,0.0148392,0.00110626,0.0172806,0.0062561
15,6,10.0097,0.000305176,0.000610352,-2.42867,0.0544603,-0.0756734,0.0513814,0.0822618,-0.0968086,0.142572,-0.126682,-0.0877584,0.00968933,0.0242233,0.0167465,0.0125122,0.0163651,0.00862122,0.0227356,0.0116348,-9.97986,0.0144958,-0.00591278,0.016861,0.00740051,0.0114059,0.00606537,0.0168228,0.00450134
15,7,10.0097,0.000305176,-0.000152588,-2.42959,0.0541551,-0.0753682,0.0519917,0.0746324,-0.0955879,0.143792,-0.126377,-0.0871481,0.00888824,0.0186157,0.0153732,0.0130844,0.0147247,0.00812531,0.0213623,0.0141144,-9.97986,0.0138092,0.00255585,0.0139236,0.00602722,0.0148773,0.00209808,0.0146484,0.00644684
15,8,10.0097,-0.000305176,-0.000305176,-2.42806,0.0553758,-0.075063,0.0519917,0.0724962,-0.0937568,0.144403,-0.125766,-0.0862325,0.0128174,0.020256,0.0185394,0.0146484,0.0142288,0.0125504,0.022583,0.0151062,-9.97986,0.0155258,0.000152588,0.0125122,0.0056839,0.019989,0.00125885,0.0156021,0.00362396
15,9,10.0097,0.00152588,0.000457764,-2.42745,0.0553758,-0.0744527,0.0532125,0.0706652,-0.0934516,0.144403,-0.126072,-0.085317,0.0135422,0.0230026,0.0245667,0.0154114,0.0231934,0.0164413,0.0231552,0.0236511,-9.97986,0.0214005,0.00293732,0.0195694,0.0115585,0.0178528,0.00465393,0.0178528,0.0126648
16,0,10.0097,0.000915527,-0.000762939,-2.42592,0.0538499,-0.0759786,0.0535176,0.0709703,-0.0928413,0.145318,-0.125461,-0.0837911,0.00404358,0.0138855,0.0160599,0.00492096,0.0144577,0.00713348,0.0178528,0.0144958,-9.97986,0.00938416,-0.00606537,0.00915527,0.0019455,0.0119781,-0.00587463,0.00862122,0.00125885
16,1,10.0097,0,0.000610352,-2.42653,0.0565965,-0.0747579,0.0532125,0.07036,-0.0943672,0.145318,-0.125156,-0.0834859,0.0105667,0.0258255,0.0174713,0.0159836,0.0196075,0.0153351,0.0237274,0.0224304,-9.97986,0.0177002,-0.00133514,0.017395,0.00892639,0.0202179,0.00133514,0.0164032,0.00507355
16,2,10.0097,0.00183105,-0.000152588,-2.42531,0.0575121,-0.0741475,0.0547383,0.0712755,-0.0919257,0.147455,-0.123325,-0.0813497,0.0110626,0.0226974,0.0170898,0.0110245,0.0201035,0.00968933,0.0219727,0.0166321,-9.97986,0.0136948,-0.00102997,0.0173187,0.00671387,0.0161743,-0.00106812,0.015831,0.00526428
16,3,10.0097,0.000305176,0,-2.4247,0.0562914,-0.0723164,0.0556539,0.0718859,-0.090705,0.147149,-0.123935,-0.0810445,0.0139236,0.0209808,0.0220871,0.0147247,0.0215149,0.00843048,0.0217438,0.0195694,-9.97986,0.0120926,-0.00167847,0.0138092,0.00610352,0.0177765,-0.00167847,0.014267,0.00637054
16,4,10.0097,0.000610352,-0.000610352,-2.42562,0.0547655,-0.0753682,0.0513814,0.037401,-0.0980293,0.145624,-0.126987,-0.0828756,0.0128174,0.0238037,0.0189209,0.0140762,0.0198364,0.0119781,0.0221252,0.0243759,-9.97986,0.0188446,-0.00240326,0.0113297,0.00629425,0.0170135,-0.00427246,0.0172043,0.00976563
16,5,5.8495,-0.000305176,-0.00305176,-2.42653,0.0565965,-0.0744527,0.0504659,-0.012953,-0.101691,0.145318,-0.130649,-0.0837911,0.0161743,0.0244522,0.0183868,0.0119019,0.0188065,0.0128174,0.0255966,0.0226593,-9.97986,0.0227356,-0.000572205,0.0183868,0.00915527,0.0205612,-0.00270844,0.0164413,0.00652313
16,6,-1.8278,-0.0012207,-0.00427246,-2.42623,0.0569017,-0.0738423,0.0529073,-0.0138685,-0.0974189,0.146234,-0.130039,-0.0822652,0.0110626,0.0221634,0.017662,0.0101471,0.0225067,0.0094986,0.0221252,0.0266647,-9.97986,0.0239944,0.000228882,0.0143433,0.00843048,0.0199509,-0.00404358,0.0136566,0.00492096
16,7,-9.31682,0.0012207,-0.00396729,-2.42562,0.0575121,-0.073232,0.0562642,-0.00440808,-0.094062,0.146234,-0.130039,-0.0810445,0.0143814,0.0260544,0.0211334,0.0146103,0.0233459,0.00869751,0.0188446,0.0278473,-9.97986,0.0170135,-0.00244141,0.0168228,0.00976563,0.0201416,-0.00785828,0.0181198,0.00827789
16,8,-9.99003,0,-0.00228882,-2.42409,0.0559862,-0.0738423,0.0556539,0.0248888,-0.090705,0.146234,-0.128208,-0.0816549,0.00782013,0.0218582,0.0169373,0.00862122,0.0183487,0.00843048,0.0221634,0.0223923,-9.97986,0.0231171,0.0012207,0.013504,0.00751495,0.013237,-0.00301361,0.0144196,0.00610352
16,9,-9.99003,0.00152588,-0.0012207,-2.42501,0.0553758,-0.0744527,0.0547383,0.049608,-0.0910102,0.145929,-0.126682,-0.0816549,0.0088501,0.0219727,0.0215912,0.0117493,0.0205994,0.00709534,0.0251389,0.0195313,-9.97986,0.02285,0.000610352,0.0159836,0.00823975,0.0056839,-0.00946045,0.0138855,0.00782013
17,0,-9.99003,-0.000610352,-0.000305176,-2.42623,0.055681,-0.0753682,0.0562642,0.0630358,-0.0900947,0.145624,-0.126072,-0.0822652,0.00988007,0.0217056,0.0127411,0.0141525,0.0153351,0.0113297,0.0227356,0.0159073,-9.97986,0.0159454,-0.000152588,0.0151443,0.00766754,0.00595093,-0.00759125,0.0141525,0.00453949
17,1,-9.99003,0.000305176,0.00183105,-2.42592,0.0541551,-0.0747579,0.0544332,0.0941637,-0.0873481,0.145624,-0.124546,-0.0837911,0.00976563,0.0224304,0.0209427,0.00671387,0.0163269,0.00839233,0.022049,0.0123215,-9.97986,0.0152206,0.00144958,0.0190353,0.0063324,0.0161362,-0.00926971,0.0148773,0.00644684
17,2,-2.80589,0.0012207,0.00442505,-2.42714,0.0547655,-0.0756734,0.0544332,0.136583,-0.0891792,0.144403,-0.122715,-0.0837911,0.00774384,0.0224686,0.018692,0.0127411,0.019455,0.00995636,0.0216293,0.00732422,-9.97986,0.00740051,-0.00354767,0.013504,0.00377655,0.0148773,-0.0136566,0.0138855,0.00469208
17,3,3.89424,0.00183105,0.00427246,-2.42806,0.0553758,-0.0765889,0.0532125,0.153673,-0.0879585,0.142877,-0.120884,-0.0850118,0.0069046,0.023613,0.0202179,0.0135422,0.0207138,0.0124359,0.0237274,0.011673,-9.97986,0.00907898,-0.00293732,0.0178146,0.00888824,0.0180435,-0.00858307,0.0149536,0.00835419
17,4,10.0097,0.000610352,0.00396729,-2.42867,0.0532396,-0.0753682,0.0538228,0.15703,-0.0882636,0.143792,-0.121189,-0.0856222,0.011673,0.0238419,0.0142288,0.0127029,0.0157166,0.0113297,0.0215149,0.0151825,-9.97986,0.0123978,-0.00495911,0.00968933,0.00682831,0.0197983,-0.00957489,0.0162506,0.00465393
17,5,10.0097,-0.00183105,0.00183105,-2.43081,0.0535448,-0.0753682,0.0495503,0.099962,-0.0974189,0.141656,-0.126682,-0.0886739,0.0134277,0.0229263,0.0195313,0.0109863,0.019722,0.0119019,0.0244904,0.00713348,-9.97986,0.0108337,0.00156403,0.0135422,0.00751495,0.0154114,-0.0117493,0.0169754,0.00709534
17,6,10.0097,0.00183105,-0.000305176,-2.4302,0.0544603,-0.0756734,0.0513814,0.0822618,-0.0961982,0.142877,-0.126072,-0.0868429,0.00766754,0.0202179,0.0189972,0.0124741,0.0176239,0.0111771,0.0192642,0.0115967,-9.97986,0.0117874,-0.0043869,0.014534,0.00831604,0.0141525,-0.0149536,0.0153732,0.00606537
17,7,10.0097,0.000610352,-0.000457764,-2.42989,0.0535448,-0.0756734,0.050771,0.0749376,-0.095893,0.143792,-0.126072,-0.0868429,0.00785828,0.0200272,0.021019,0.0135422,0.0175858,0.0113297,0.0239563,0.0160217,-9.97986,0.011673,-0.00286102,0.0154877,0.00556946,0.0177383,-0.0180054,0.0188446,0.00293732
17,8,10.0097,0,-0.000305176,-2.42867,0.0541551,-0.0744527,0.0529073,0.0718859,-0.0943672,0.144708,-0.127292,-0.0856222,0.0120926,0.0223541,0.022049,0.0104904,0.0177002,0.0112534,0.0172043,0.0123215,-9.97986,0.0146484,-0.000152588,0.0140762,0.00831604,0.0190735,-0.0116348,0.0158691,0.0069046
17,9,10.0097,-0.000305176,0.000152588,-2.42684,0.0550706,-0.0756734,0.0535176,0.0728014,-0.0934516,0.144708,-0.125156,-0.0840963,0.0152588,0.023613,0.0218964,0.0141144,0.0184631,0.0118256,0.0200272,0.0159454,-9.97986,0.0111389,-0.00545502,0.012207,0.00701904,0.0154877,-0.0110626,0.0129318,0.00167847
18,0,10.0097,0.00183105,-0.000152588,-2.42684,0.0544603,-0.0759786,0.0535176,0.0718859,-0.0931465,0.145013,-0.125461,-0.0834859,0.0134277,0.0185776,0.0191498,0.0123978,0.0187302,0.0130463,0.0241852,0.0180054,-9.97986,0.0212479,-0.00110626,0.0146103,0.00785828,0.0201797,-0.0161743,0.0146866,0.00389099
18,1,10.0097,0.000305176,0.000457764,-2.42562,0.0547655,-0.0738423,0.0535176,0.0706652,-0.0919257,0.146844,-0.124851,-0.0834859,0.0115204,0.0216293,0.0207901,0.014267,0.021286,0.0136566,0.0222015,0.0180054,-9.97986,0.0154877,-0.00087738,0.0157547,0.00831604,0.0170135,-0.0122452,0.013504,0.00553131
18,2,10.0097,0.000610352,0.000152588,-2.42562,0.0550706,-0.0741475,0.0553487,0.0715807,-0.0925361,0.146539,-0.123935,-0.0816549,0.0105667,0.0232315,0.0205612,0.0130463,0.0149155,0.00732422,0.0239944,0.0220871,-9.97986,0.0178146,-0.00377655,0.0148392,0.00335693,0.0150681,-0.014801,0.0185013,0.0075531
18,3,10.0097,0.000610352,0,-2.4244,0.055681,-0.0735371,0.0544332,0.07036,-0.0913154,0.146844,-0.125461,-0.0804342,0.0107956,0.0233841,0.0227737,0.0130844,0.0201035,0.0135422,0.0247955,0.0226974,-9.97986,0.0165558,-0.00312805,0.0159454,0.00328064,0.0163269,-0.0158691,0.015831,0.00377655
18,4,10.0097,0.0012207,-0.000610352,-2.42684,0.055681,-0.0747579,0.0519917,0.0389269,-0.0965034,0.146234,-0.126987,-0.0831808,0.0132751,0.022583,0.0223923,0.0156021,0.0140762,0.0127029,0.0233078,0.0262451,-9.97986,0.0227356,0.000114441,0.0166321,0.00621796,0.0149536,-0.0180054,0.0120163,0.00499725
18,5,5.76406,0.000610352,-0.00396729,-2.42837,0.0569017,-0.0747579,0.0513814,-0.0138685,-0.100776,0.145929,-0.130954,-0.0837911,0.00778198,0.0214005,0.0192642,0.01194,0.0170898,0.0124741,0.022049,0.0294113,-9.97986,0.0247955,-0.00331879,0.0159073,0.00164032,0.0202942,-0.0127792,0.0141907,0.00423431
18,6,-1.80247,0.00213623,-0.00366211,-2.42623,0.0572069,-0.073232,0.054128,-0.0147841,-0.0965034,0.146539,-0.130344,-0.0825704,0.00873566,0.0234222,0.0195313,0.0104141,0.022049,0.00843048,0.0195313,0.0265121,-9.97986,0.0220108,-0.00358582,0.0154114,0.00385284,0.0175476,-0.0118637,0.0165558,0.0101471
18,7,-9.24296,0.0012207,-0.00457764,-2.42562,0.0572069,-0.0735371,0.0544332,-0.00410291,-0.0955879,0.146234,-0.129123,-0.0804342,0.0101089,0.0205612,0.0201035,0.0109863,0.0193787,0.0141144,0.0257111,0.0270844,-9.97986,0.021286,0.00263214,0.0146484,0.00835419,0.0128174,-0.0147629,0.0149536,0.00812531
18,8,-9.99003,0.000610352,-0.00289917,-2.42379,0.0569017,-0.0744527,0.0556539,0.0245836,-0.0925361,0.146539,-0.126377,-0.0807394,0.0100708,0.0197601,0.0215149,0.0157166,0.0211334,0.0144577,0.021019,0.0234222,-9.97986,0.0223923,3.8147e-005,0.00976563,0.00534058,0.0135803,-0.0111771,0.0123215,0.00675201
18,9,-9.99003,-0.000305176,-0.000762939,-2.42531,0.0559862,-0.0738423,0.0550435,0.0493029,-0.0900947,0.145013,-0.127292,-0.0828756,0.00766754,0.0202179,0.0192261,0.0108719,0.0167084,0.0127411,0.0220871,0.0217438,-9.97986,0.0180435,-0.000839233,0.0140762,0.00469208,0.000762939,-0.00873566,0.0143433,0.00801086
19,0,-9.99003,0.00183105,-0.000152588,-2.42592,0.0547655,-0.0738423,0.055959,0.0627306,-0.0900947,0.145929,-0.125766,-0.0822652,0.0107574,0.0236893,0.0188446,0.0115585,0.0135422,0.0119781,0.0239182,0.0178146,-9.97986,0.0116348,0.00175476,0.0128555,0.00728607,0.00400543,-0.00911713,0.0169754,0.00686646
19,1,-9.99003,-0.000610352,0.00183105,-2.42623,0.0541551,-0.075063,0.0547383,0.092943,-0.088874,0.145318,-0.126377,-0.0828756,0.0130844,0.0252533,0.0194931,0.0125122,0.0217056,0.00862122,0.0193024,0.0104904,-9.97986,0.0101852,0.0019455,0.0148392,0.00324249,0.0163269,-0.0088501,0.016861,0.00572205
19,2,-2.84892,0.00183105,0.00442505,-2.42745,0.0532396,-0.0744527,0.0547383,0.135362,-0.0891792,0.144098,-0.121799,-0.085317,0.00686646,0.0251389,0.0192642,0.0151825,0.0192261,0.0112152,0.0239944,0.0113297,-9.97986,0.00911713,0.00240326,0.0110626,0.00453949,0.0137329,-0.0102997,0.0159073,0.00431061
19,3,3.77217,0.000305176,0.00457764,-2.42745,0.0532396,-0.0756734,0.054128,0.153368,-0.0873481,0.144403,-0.120884,-0.0844015,0.0101852,0.0211716,0.0167847,0.0159073,0.0161362,0.0107193,0.0220108,0.00839233,-9.97986,0.00724792,0.00114441,0.011673,0.00324249,0.0151443,-0.00778198,0.0141907,0.00537872
19,4,10.0097,0.000610352,0.00473022,-2.42867,0.0535448,-0.0753682,0.054128,0.160082,-0.090705,0.143792,-0.120273,-0.085317,0.0111771,0.0198746,0.0218201,0.0150299,0.0188828,0.0128174,0.0189972,0.0161743,-9.97986,0.0107193,0.00385284,0.013504,0.00640869,0.013504,-0.00759125,0.0170135,0.00583649
19,5,10.0097,0.00305176,0.00106812,-2.43172,0.0526292,-0.0762837,0.0495503,0.100572,-0.09925,0.143792,-0.126377,-0.0892843,0.0139618,0.0215149,0.0185776,0.00965118,0.0172806,0.0120926,0.0211334,0.0151443,-9.97986,0.0125885,3.8147e-005,0.010376,0.00663757,0.0152588,-0.00457764,0.0163651,0.00602722
19,6,10.0097,-0.000610352,0.000457764,-2.42959,0.0532396,-0.075063,0.050771,0.0828722,-0.095893,0.143182,-0.127598,-0.0883688,0.00850677,0.0182343,0.018158,0.00782013,0.0176239,0.0111389,0.0206375,0.0160599,-9.97986,0.0114441,-0.000915527,0.0144958,0.00663757,0.0143814,-0.0031662,0.0166702,0.00782013
19,7,10.0097,0.000915527,0.000152588,-2.42928,0.0532396,-0.0759786,0.0513814,0.0752428,-0.0974189,0.144098,-0.126072,-0.0856222,0.00972748,0.020256,0.0174332,0.0102234,0.0152206,0.00904083,0.0246429,0.0156784,-9.97986,0.0137711,-0.00198364,0.0140762,0.00522614,0.0128555,-0.00385284,0.015564,0.0075531
19,8,10.0097,0,0.000152588,-2.42776,0.0550706,-0.0759786,0.0522969,0.0718859,-0.0946723,0.144708,-0.126072,-0.085317,0.00862122,0.0235367,0.0200272,0.0107956,0.0180054,0.0109482,0.0209045,0.0138092,-9.97986,0.0156403,-0.00209808,0.0157547,0.00869751,0.0167084,-0.000724792,0.0178146,0.00484467
19,9,10.0097,0.000305176,0.000305176,-2.42714,0.0544603,-0.0747579,0.0532125,0.0715807,-0.0934516,0.145013,-0.126072,-0.085317,0.00740051,0.0213242,0.0185776,0.0135422,0.0196075,0.0126648,0.0234985,0.0200272,-9.97986,0.0185776,-0.00293732,0.0138474,0.0056839,0.0152588,0.000495911,0.0156021,0.00606537
20,0,10.0097,-0.000610352,0.000305176,-2.42806,0.0544603,-0.0756734,0.0532125,0.0715807,-0.0934516,0.144708,-0.126072,-0.0847066,0.0118256,0.0207138,0.0166702,0.0122833,0.018959,0.0156021,0.0206757,0.0193405,-9.97986,0.00991821,-0.00171661,0.0136566,0.00892639,0.0139999,-0.00164032,0.0173187,0.00488281
20,1,10.0097,-0.00213623,-0.000305176,-2.42623,0.0550706,-0.0741475,0.0538228,0.0709703,-0.0919257,0.144708,-0.125156,-0.0834859,0.0134659,0.0235367,0.0148392,0.0138092,0.0156403,0.0106049,0.0210571,0.0191498,-9.97986,0.0181961,-0.00286102,0.0110245,0.00743866,0.0152969,-0.00179291,0.0165558,0.00331879
20,2,10.0097,-0.00335693,-0.000457764,-2.4244,0.0562914,-0.0744527,0.054128,0.0718859,-0.0919257,0.146844,-0.124546,-0.0816549,0.00934601,0.0214386,0.0165558,0.0120163,0.0168228,0.00644684,0.0210571,0.0167847,-9.97986,0.0170517,-0.00408173,0.0100708,0.0031662,0.0132751,-0.000305176,0.0143433,0.00717163
20,3,10.0097,-0.000305176,0.000152588,-2.4247,0.0572069,-0.0747579,0.0547383,0.0715807,-0.0925361,0.147455,-0.124546,-0.0804342,0.0125504,0.0251389,0.0190735,0.00988007,0.0170517,0.00904083,0.0191879,0.0191498,-9.97986,0.0175476,-0.00507355,0.0111771,0.00427246,0.015564,0.00232697,0.014534,0.00644684
20,4,10.0097,0.00244141,-0.000762939,-2.42776,0.0559862,-0.0747579,0.0522969,0.0386217,-0.095893,0.146234,-0.128513,-0.0822652,0.0128937,0.0236893,0.0209427,0.010643,0.0159454,0.00907898,0.0217819,0.0249863,-9.97986,0.0218201,-0.00282288,0.0125885,0.00431061,0.0156403,0.00255585,0.0131226,0.00644684
20,5,5.95021,0.000610352,-0.00350952,-2.42837,0.055681,-0.0747579,0.0526021,-0.0126478,-0.101997,0.145929,-0.130344,-0.0840963,0.0128555,0.0202942,0.0202942,0.00999451,0.016861,0.0113297,0.022049,0.0255966,-9.97986,0.0255966,0.000534058,0.017128,0.00843048,0.0207901,0.00312805,0.014801,0.00728607
20,6,-1.76677,0.000915527,-0.0038147,-2.42592,0.0562914,-0.0726216,0.0529073,-0.0138685,-0.0983344,0.147149,-0.130954,-0.0822652,0.00976563,0.021019,0.0211334,0.0139236,0.0156403,0.00736237,0.0219345,0.0237274,-9.97986,0.022049,-0.00228882,0.0136185,0.00511169,0.0149918,-0.00205994,0.0127029,0.00602722
20,7,-9.15751,-0.000305176,-0.0050354,-2.42501,0.0572069,-0.0726216,0.0544332,-0.00196668,-0.094062,0.145929,-0.128818,-0.0816549,0.0175858,0.0242615,0.0234985,0.0131989,0.018158,0.00793457,0.0247192,0.0263596,-9.97986,0.0248337,7.62939e-005,0.0153732,0.0087738,0.019722,0.00144958,0.0178528,0.00926971
20,8,-9.99003,0.000610352,-0.00228882,-2.42501,0.0565965,-0.0741475,0.0556539,0.0267198,-0.0931465,0.146234,-0.126987,-0.0810445,0.00984192,0.0228882,0.0203705,0.00740051,0.0199127,0.00598907,0.016861,0.0217056,-9.97986,0.0200653,-0.00141144,0.0122833,0.00736237,0.0154877,-0.00247955,0.0186157,0.00774384
20,9,-9.99003,0.0012207,-0.000915527,-2.42501,0.0559862,-0.0741475,0.0556539,0.0508287,-0.0922309,0.145929,-0.125766,-0.0819601,0.0142288,0.0224304,0.017395,0.0126648,0.0171661,0.00766754,0.022583,0.0222015,-9.97986,0.0159454,-0.00179291,0.0114059,0.00156403,0.00747681,-0.000915527,0.0151062,0.00720978
21,0,-9.99003,0.000610352,0.000152588,-2.42501,0.0541551,-0.0747579,0.0556539,0.0654772,-0.0910102,0.145624,-0.125156,-0.0822652,0.00965118,0.0229263,0.018425,0.0133133,0.0205994,0.0110245,0.0218582,0.0151062,-9.97986,0.01297,-0.000953674,0.0182724,0.00396729,0.0102615,0.00221252,0.0159454,0.00793457
21,1,-9.99003,0.00183105,0.00228882,-2.42592,0.0550706,-0.0753682,0.0553487,0.0938585,-0.0891792,0.145318,-0.124851,-0.0831808,0.0128174,0.026207,0.0194168,0.013504,0.0183487,0.00762939,0.0247955,0.0121689,-9.97986,0.00892639,0.000839233,0.0136185,0.00473022,0.0161362,-0.00106812,0.0148392,0.00648499
21,2,-2.51353,0.000610352,0.00457764,-2.42714,0.0538499,-0.075063,0.0547383,0.136888,-0.0882636,0.145013,-0.122715,-0.0847066,0.00873566,0.0230408,0.0168991,0.0102997,0.0123215,0.00705719,0.0211334,0.00961304,-9.97986,0.00709534,-0.00114441,0.0128555,0.00450134,0.0149155,0.00293732,0.0175858,0.00545502
21,3,4.06148,0.000610352,0.00473022,-2.42776,0.0550706,-0.0759786,0.054128,0.154283,-0.0882636,0.143487,-0.121494,-0.0840963,0.00782013,0.0203705,0.0168228,0.0107574,0.0191879,0.0122452,0.0232315,0.0108719,-9.97986,0.00835419,0.00106812,0.0123978,0.00576019,0.0172043,0.00385284,0.014267,0.00785828
21,4,10.0097,0,0.0050354,-2.42928,0.0532396,-0.0765889,0.0522969,0.154283,-0.0900947,0.142877,-0.121189,-0.0856222,0.00896454,0.0247574,0.0169754,0.0138474,0.0152206,0.0094223,0.0192642,0.0144577,-9.97986,0.0119019,0.000152588,0.0131989,0.00579834,0.0137711,0.000839233,0.0164413,0.00484467
21,5,10.0097,0.00152588,0.00183105,-2.43172,0.0529344,-0.0762837,0.0501607,0.0987413,-0.0971137,0.143182,-0.126072,-0.0889791,0.00736237,0.0240707,0.0154495,0.0150681,0.0136948,0.0139236,0.0170898,0.0156403,-9.97986,0.0123596,0.00213623,0.0159454,0.00598907,0.0169373,0.00183105,0.0175095,0.00888824
21,6,10.0097,0,0.00106812,-2.4305,0.0541551,-0.0778096,0.0513814,0.080736,-0.0980293,0.142877,-0.127292,-0.0877584,0.0063324,0.0221634,0.0141144,0.0128937,0.0173187,0.0104904,0.0196075,0.0116348,-9.97986,0.0144577,-0.00305176,0.0106812,0.00370026,0.0198746,0.000953674,0.0148392,0.00686646
21,7,10.0097,0,0.000152588,-2.42776,0.0532396,-0.0762837,0.0522969,0.0749376,-0.0955879,0.143182,-0.126987,-0.0868429,0.00869751,0.0234604,0.018158,0.0144958,0.0195694,0.00862122,0.022583,0.0147629,-9.97986,0.0141144,0.000305176,0.0108719,0.00530243,0.0164032,0.00038147,0.0151443,0.00816345
21,8,10.0097,0.00213623,-0.000305176,-2.42928,0.0538499,-0.075063,0.0532125,0.0718859,-0.0949775,0.145013,-0.126072,-0.085317,0.00682831,0.0214386,0.0130844,0.0128937,0.0170517,0.00904083,0.0206375,0.0136185,-9.97986,0.0138474,-0.00400543,0.00980377,0.00801086,0.0213242,0.00228882,0.0156021,0.00988007
21,9,10.0097,-0.000915527,0.000152588,-2.42623,0.055681,-0.075063,0.054128,0.0706652,-0.094062,0.144403,-0.126682,-0.0847066,0.0123215,0.0261688,0.0189972,0.00991821,0.0165939,0.00965118,0.019989,0.0141907,-9.97986,0.0153351,0,0.0162125,0.00728607,0.0192642,-0.000419617,0.0146866,0.00782013
22,0,10.0097,-0.000610352,0,-2.42745,0.0535448,-0.0753682,0.0547383,0.07036,-0.0931465,0.144708,-0.125766,-0.0850118,0.0110626,0.0173569,0.0173569,0.0114822,0.0175858,0.0101852,0.0203705,0.0190735,-9.97986,0.0162125,-0.00377655,0.0149155,0.00679016,0.0182724,0.00167847,0.0155258,0.00507355
22,1,10.0097,-0.000915527,0.000762939,-2.42684,0.0562914,-0.0741475,0.0532125,0.0709703,-0.0928413,0.146234,-0.125461,-0.0831808,0.00862122,0.0255585,0.0158691,0.0108719,0.0194931,0.00843048,0.0230789,0.0162125,-9.97986,0.0136948,-0.00392914,0.0138855,0.0056076,0.0177383,0.000801086,0.0150299,0.00827789
22,2,10.0097,0.000915527,0.000152588,-2.42653,0.0565965,-0.0720113,0.0556539,0.0712755,-0.0919257,0.145624,-0.125461,-0.0819601,0.0115204,0.0220108,0.015564,0.0123978,0.0189972,0.00995636,0.0209045,0.0146866,-9.97986,0.0172043,-0.00278473,0.0131607,0.0044632,0.0165558,-0.000534058,0.0167084,0.00862122
22,3,10.0097,0.000915527,0.000305176,-2.42501,0.055681,-0.0738423,0.0547383,0.0724962,-0.090705,0.146844,-0.124546,-0.0810445,0.0104523,0.0227737,0.0172806,0.01194,0.0163651,0.011673,0.0188828,0.0185776,-9.97986,0.0143433,-0.00465393,0.0122833,0.00434875,0.0207901,0.000839233,0.0159454,0.00583649
22,4,10.0097,-0.0012207,0.000457764,-2.42592,0.0565965,-0.0759786,0.0526021,0.0395372,-0.0968086,0.145624,-0.127903,-0.0834859,0.0172806,0.025177,0.0193787,0.0130081,0.0178909,0.0121307,0.0214386,0.025177,-9.97986,0.0248718,-0.00366211,0.0154495,0.00331879,0.0220871,0.00274658,0.0154877,0.0105286
22,5,5.97707,0.000915527,-0.00366211,-2.42898,0.0550706,-0.0744527,0.0516866,-0.0141737,-0.100776,0.145318,-0.130649,-0.0847066,0.0112915,0.0219345,0.0182724,0.00747681,0.0203705,0.00717163,0.0223541,0.0282669,-9.97986,0.0213623,-0.00553131,0.0111389,0.0044632,0.0185394,-0.00370026,0.0147629,0.00553131
22,6,-1.67674,0.00213623,-0.0038147,-2.42623,0.0565965,-0.0741475,0.0529073,-0.0163099,-0.0983344,0.145624,-0.13126,-0.0822652,0.0153732,0.0286102,0.0230026,0.0114822,0.0199127,0.0117874,0.0221634,0.0289917,-9.97986,0.0236511,-0.00537872,0.0101089,0.00709534,0.0224686,-0.0030899,0.0215912,0.0063324
22,7,-9.1569,0.000610352,-0.00396729,-2.42409,0.055681,-0.0726216,0.0550435,-0.0028822,-0.0934516,0.146539,-0.130039,-0.0810445,0.0134277,0.0250244,0.018425,0.00957489,0.017395,0.0113678,0.0247574,0.0224304,-9.97986,0.0201797,-0.00434875,0.0187683,0.00423431,0.0209427,-0.00106812,0.0161743,0.00682831
22,8,-9.99003,-0.000305176,-0.00244141,-2.4247,0.0553758,-0.0735371,0.0565694,0.0245836,-0.0925361,0.146539,-0.128818,-0.0813497,0.0126648,0.0237274,0.0174713,0.0125504,0.0141525,0.0107574,0.0156021,0.0235367,-9.97986,0.0173569,-0.00404358,0.0134277,0.00724792,0.0128555,-0.000343323,0.0185394,0.00411987
22,9,-9.99003,0,-0.000457764,-2.42531,0.0553758,-0.0738423,0.0553487,0.0489977,-0.0910102,0.145013,-0.127292,-0.0816549,0.00823975,0.0245667,0.0191879,0.0128174,0.0156021,0.0136185,0.0224304,0.0191116,-9.97986,0.0211334,-0.00164032,0.0125885,0.00717163,0.00797272,0.0019455,0.0197601,0.00701904
23,0,-9.99003,0.000915527,-0.000457764,-2.42714,0.0550706,-0.075063,0.054128,0.0633409,-0.0913154,0.145013,-0.126072,-0.0816549,0.0094223,0.0206757,0.0173569,0.0130844,0.0148773,0.0104523,0.0214005,0.0153732,-9.97986,0.0122452,-0.00408173,0.0175095,0.00537872,0.00980377,0.000534058,0.0172806,0.00457764
23,1,-9.99003,0.0012207,0.00183105,-2.42684,0.0544603,-0.075063,0.0547383,0.0941637,-0.088874,0.145929,-0.123935,-0.0825704,0.00904083,0.030098,0.0183487,0.00972748,0.0152588,0.00984192,0.0198364,0.0108719,-9.97986,0.0123978,3.8147e-005,0.0141144,0.00663757,0.0160217,0.000114441,0.0187683,0.00312805
23,2,-2.60997,-0.000610352,0.00488281,-2.42806,0.0535448,-0.075063,0.0538228,0.134142,-0.0897895,0.144098,-0.121799,-0.0844015,0.00911713,0.0218582,0.0209808,0.010643,0.0128937,0.00816345,0.0219727,0.0110626,-9.97986,0.00804901,-0.00247955,0.0147247,0.00495911,0.0154877,-0.00133514,0.0166702,0.00617981
23,3,4.04256,0,0.00411987,-2.42867,0.0544603,-0.0747579,0.054128,0.154283,-0.0885688,0.143487,-0.121494,-0.0844015,0.0082016,0.0261688,0.0199127,0.00823975,0.0157928,0.00934601,0.0210953,0.0154114,-9.97986,0.00751495,0.00350952,0.0152206,0.00621796,0.018158,-0.00125885,0.0173569,0.00461578
23,4,10.0097,0.0012207,0.00411987,-2.42928,0.0538499,-0.0765889,0.0522969,0.154588,-0.0922309,0.144098,-0.122104,-0.0859274,0.0107956,0.0263596,0.0184631,0.0153351,0.0140381,0.00759125,0.0229263,0.00904083,-9.97986,0.00793457,0.000839233,0.0143433,0.0056839,0.0148773,-0.00110626,0.0141144,0.00434875
23,5,10.0097,0,0.00152588,-2.43172,0.0523241,-0.0768941,0.0495503,0.0987413,-0.0977241,0.141961,-0.125766,-0.0889791,0.00831604,0.0261307,0.016861,0.0140381,0.0162506,0.0115204,0.0211716,0.00823975,-9.97986,0.00968933,0.0030899,0.0173187,0.00873566,0.0160599,0.00236511,0.0168228,0.00766754
23,6,10.0097,-0.000305176,0.000457764,-2.42989,0.0535448,-0.0759786,0.0501607,0.0828722,-0.0961982,0.142877,-0.126987,-0.0871481,0.00926971,0.0241089,0.021286,0.0112534,0.0149155,0.0105667,0.021286,0.0144196,-9.97986,0.0126266,-0.00328064,0.0177765,0.0069046,0.0167847,-0.00152588,0.0162506,0.00747681
23,7,10.0097,0.000610352,0.000152588,-2.42837,0.0544603,-0.075063,0.0529073,0.0734117,-0.095893,0.144708,-0.126682,-0.0874532,0.0146866,0.0220871,0.018425,0.0123978,0.0153732,0.012207,0.0190353,0.00995636,-9.97986,0.0105286,0.00259399,0.017128,0.0056839,0.0175858,-0.00038147,0.018158,0.00831604
23,8,10.0097,-0.0012207,-0.000762939,-2.42806,0.0541551,-0.075063,0.0526021,0.0715807,-0.0952827,0.143182,-0.126682,-0.0856222,0.00984192,0.0229645,0.0178528,0.00999451,0.0181961,0.00972748,0.0204849,0.0125885,-9.97986,0.0128937,-3.8147e-005,0.014534,0.00934601,0.018158,-0.00152588,0.0170517,0.00457764
23,9,10.0097,0.000610352,0.000152588,-2.42623,0.0547655,-0.0753682,0.0532125,0.0718859,-0.0934516,0.145318,-0.126377,-0.0850118,0.00995636,0.0231552,0.0186157,0.0147247,0.0133514,0.00713348,0.0250626,0.0125504,-9.97986,0.0150299,0.00148773,0.0138474,0.00541687,0.0133514,-0.00152588,0.0181961,0.00476837
24,0,10.0097,0,0.000152588,-2.42776,0.0559862,-0.0741475,0.0544332,0.0712755,-0.0931465,0.145318,-0.125766,-0.0850118,0.0107574,0.0254059,0.021019,0.014267,0.0154114,0.0110626,0.0214386,0.0181961,-9.97986,0.0137329,0.00110626,0.0164032,0.00762939,0.0182724,-0.00118256,0.0151825,0.00801086
24,1,10.0097,0.000610352,0,-2.42562,0.055681,-0.0741475,0.054128,0.0709703,-0.0928413,0.145929,-0.126072,-0.0828756,0.0126648,0.0253296,0.0201035,0.0116348,0.0190735,0.011673,0.021553,0.019989,-9.97986,0.0109863,0.00217438,0.0128174,0.00450134,0.0166702,-0.00267029,0.0186539,0.00686646
24,2,10.0097,0.0012207,0.000152588,-2.42592,0.055681,-0.0741475,0.0544332,0.0712755,-0.0928413,0.146234,-0.123935,-0.0813497,0.0131607,0.0254059,0.0171661,0.0159073,0.0137329,0.0127029,0.0200272,0.0149155,-9.97986,0.0111008,-7.62939e-005,0.0124741,0.00209808,0.0153732,-0.000419617,0.0136185,0.00606537
24,3,10.0097,0.00183105,0,-2.42531,0.0569017,-0.0726216,0.054128,0.0724962,-0.0919257,0.145929,-0.12363,-0.0810445,0.0128937,0.0252914,0.0214767,0.0121689,0.0139236,0.0110245,0.0225067,0.021286,-9.97986,0.0154877,-0.00267029,0.0168228,0.00728607,0.0170898,-0.00320435,0.0167465,0.0069809
24,4,10.0097,-0.000915527,-0.000915527,-2.42684,0.055681,-0.0744527,0.0522969,0.0380113,-0.0971137,0.146539,-0.128818,-0.0834859,0.0139618,0.0246429,0.020752,0.0126266,0.0134659,0.0173187,0.0198364,0.0265884,-9.97986,0.0166321,-0.00259399,0.0133133,0.00598907,0.0157166,-0.00278473,0.0180435,0.00545502
24,5,5.82021,0.00152588,-0.0038147,-2.42714,0.0575121,-0.0738423,0.0522969,-0.012953,-0.0998603,0.147149,-0.130344,-0.0840963,0.0121689,0.020752,0.020256,0.0129318,0.0170135,0.0114441,0.0187683,0.0276566,-9.97986,0.0183105,0,0.0152588,0.00572205,0.0194931,-0.00617981,0.0163651,0.00980377
24,6,-1.82048,0.00213623,-0.00396729,-2.42653,0.0562914,-0.0741475,0.0538228,-0.0135634,-0.0971137,0.147455,-0.128818,-0.0819601,0.0126266,0.0272369,0.0169754,0.00701904,0.0204849,0.00865936,0.0205612,0.0270081,-9.97986,0.0178146,-0.00495911,0.0149918,0.00144958,0.0189972,-0.001297,0.0164032,0.00606537
24,7,-9.22526,0.000610352,-0.00427246,-2.42562,0.0578172,-0.0747579,0.0544332,-0.00349256,-0.094062,0.147455,-0.130039,-0.0816549,0.0128937,0.0264359,0.0217056,0.00892639,0.0178909,0.0107193,0.0168228,0.0226974,-9.97986,0.0177765,0.000419617,0.0187302,0.00453949,0.0187683,-0.00175476,0.014267,0.00614166
24,8,-9.99003,0.00152588,-0.00259399,-2.42592,0.0559862,-0.073232,0.055959,0.0242784,-0.0919257,0.145318,-0.127598,-0.0813497,0.0136566,0.0240326,0.0172043,0.0115585,0.0221634,0.00881195,0.0216293,0.0263214,-9.97986,0.0143814,0.00461578,0.016861,0.00953674,0.0123978,-0.00492096,0.0160599,0.00793457
24,9,-9.99003,0.000610352,-0.000457764,-2.42592,0.0559862,-0.0747579,0.0556539,0.0486925,-0.0913154,0.144708,-0.126682,-0.0822652,0.0143814,0.0268555,0.0212097,0.0138092,0.0220108,0.0111008,0.0219345,0.0222015,-9.97986,0.0150299,-0.00392914,0.0153351,0.00843048,0.000190735,-0.00267029,0.0146866,0.00759125
25,0,-9.99003,0,0.000457764,-2.42592,0.055681,-0.0753682,0.0553487,0.0642565,-0.090705,0.146234,-0.125156,-0.0822652,0.0116348,0.02388,0.0177765,0.0105286,0.0151062,0.00789642,0.0222397,0.0108719,-9.97986,0.00976563,-0.000495911,0.0144196,0.00358582,0.00492096,-0.00621796,0.0127792,0.00709534
25,1,-9.99003,-0.000305176,0.00167847,-2.42714,0.0550706,-0.0744527,0.0544332,0.094774,-0.0897895,0.145013,-0.124241,-0.0825704,0.0131226,0.0273132,0.0208282,0.0125885,0.0180054,0.00904083,0.0246048,0.0126266,-9.97986,0.00869751,0.00289917,0.0136566,0.00400543,0.0170517,-0.00225067,0.0198746,0.00789642
25,2,-2.7769,0.00152588,0.00457764,-2.42867,0.0538499,-0.075063,0.054128,0.135362,-0.0885688,0.142267,-0.12241,-0.0840963,0.00740051,0.0260162,0.0196838,0.0112915,0.0188828,0.0144196,0.019989,0.00972748,-9.97986,0.00816345,0.00038147,0.0143433,0.00995636,0.0134277,-0.00362396,0.0152206,0.00537872
25,3,3.91683,-0.000610352,0.00442505,-2.42684,0.0538499,-0.0762837,0.0532125,0.153368,-0.0882636,0.144098,-0.121799,-0.0844015,0.00789642,0.0211334,0.017395,0.0094986,0.0189972,0.00808716,0.019455,0.00972748,-9.97986,0.0103378,7.62939e-005,0.0182724,0.00801086,0.0112915,-0.00427246,0.0151443,0.00926971
25,4,10.0097,0.000305176,0.00442505,-2.42989,0.0550706,-0.0759786,0.0529073,0.157335,-0.0900947,0.144098,-0.121494,-0.085317,0.0126266,0.0220108,0.0159073,0.0115585,0.0180054,0.00995636,0.020752,0.0133514,-9.97986,0.00545502,0.000305176,0.0170135,0.0044632,0.0153351,-0.0012207,0.0153351,0.00980377
25,5,10.0097,0.000305176,0.00106812,-2.43172,0.0532396,-0.0762837,0.0501607,0.0984362,-0.0980293,0.142877,-0.126377,-0.0889791,0.00907898,0.0256348,0.0174713,0.0125885,0.0156021,0.0117874,0.0234604,0.0115967,-9.97986,0.0151062,0.0082016,0.0166321,0.00656128,0.0161743,-0.00102997,0.0138855,0.00724792
25,6,10.0097,-0.000610352,0.000610352,-2.42989,0.0529344,-0.0771993,0.050771,0.0810411,-0.0961982,0.141961,-0.126682,-0.0883688,0.00919342,0.0194168,0.017128,0.014534,0.0189972,0.00968933,0.0255585,0.0126648,-9.97986,0.0110245,0.00415802,0.00976563,0.00923157,0.0167847,0.000114441,0.0151443,0.0056839
25,7,10.0097,0.00152588,0.000305176,-2.42837,0.0544603,-0.0759786,0.0516866,0.0740221,-0.0949775,0.144403,-0.126987,-0.0874532,0.0120163,0.0223923,0.014534,0.0133133,0.0156403,0.00946045,0.0231552,0.017395,-9.97986,0.0142288,0.00240326,0.0148392,0.0056076,0.0143433,-0.00377655,0.0149918,0.0056839
25,8,10.0097,-0.000305176,-0.000305176,-2.42837,0.0535448,-0.0747579,0.0522969,0.0724962,-0.0955879,0.144098,-0.126072,-0.0862325,0.00965118,0.021553,0.017395,0.0113297,0.0165558,0.0133896,0.0252914,0.0120926,-9.97986,0.0102234,0.00247955,0.0112915,0.00411987,0.0170135,-0.00396729,0.0163651,0.00823975
25,9,10.0097,0.00213623,-0.000762939,-2.42623,0.0550706,-0.0747579,0.0529073,0.0715807,-0.0934516,0.144403,-0.125461,-0.0856222,0.0106049,0.0218201,0.0191498,0.0112152,0.0210953,0.00873566,0.0248718,0.0175858,-9.97986,0.0147247,0.000152588,0.0170898,0.0050354,0.0170898,0.000343323,0.0142288,0.00488281
26,0,10.0097,0.000305176,0.000305176,-2.42837,0.0541551,-0.075063,0.0532125,0.0694445,-0.094062,0.145013,-0.127292,-0.0844015,0.00846863,0.0204849,0.021286,0.0082016,0.0186157,0.0108719,0.0230789,0.017395,-9.97986,0.0103378,0.000343323,0.0174713,0.00343323,0.0133896,-0.00469208,0.0145721,0.00488281
26,1,10.0097,0.000610352,0.000610352,-2.42684,0.0550706,-0.0735371,0.054128,0.0718859,-0.0925361,0.145624,-0.125156,-0.0831808,0.0136185,0.021286,0.0179291,0.0108719,0.0172806,0.00797272,0.0251389,0.0180817,-9.97986,0.0165939,0.00232697,0.013237,0.00705719,0.0150681,-0.00133514,0.0133514,0.00495911
26,2,10.0097,-0.000915527,0,-2.4244,0.0572069,-0.0738423,0.0547383,0.0715807,-0.0919257,0.147149,-0.124546,-0.0813497,0.00526428,0.0209045,0.0171661,0.0127411,0.0136948,0.0094223,0.0275421,0.0169373,-9.97986,0.0152969,0.000839233,0.0138092,0.00732422,0.0180817,-0.00247955,0.0185013,0.00583649
26,3,10.0097,-0.00183105,0.000457764,-2.42501,0.0565965,-0.073232,0.054128,0.0712755,-0.0913154,0.145929,-0.124546,-0.0813497,0.0101471,0.0201035,0.0188446,0.0136185,0.0180435,0.00900269,0.0235367,0.0213242,-9.97986,0.0209808,-0.000305176,0.0160217,0.0044632,0.0173569,-0.00297546,0.0178146,0.00469208
26,4,10.0097,0.000915527,-0.000152588,-2.42714,0.055681,-0.0741475,0.0529073,0.0367906,-0.0968086,0.145013,-0.127292,-0.0831808,0.0133133,0.0231552,0.0211334,0.0121307,0.0146103,0.0100708,0.0247192,0.0257874,-9.97986,0.0208664,-0.00263214,0.0154877,0.00629425,0.0165558,-0.00152588,0.0161743,0.00614166
26,5,5.82387,-0.0012207,-0.00366211,-2.42684,0.055681,-0.0741475,0.0519917,-0.0132582,-0.101386,0.145929,-0.130649,-0.0837911,0.0144196,0.0232697,0.0180817,0.0115585,0.0194168,0.00946045,0.0234985,0.025177,-9.97986,0.0218582,-0.00270844,0.0104523,0.00629425,0.0151062,-0.00164032,0.0141525,0.00431061
26,6,-1.78691,0,-0.00488281,-2.42531,0.0559862,-0.0744527,0.0526021,-0.0141737,-0.0983344,0.145624,-0.130039,-0.0816549,0.0103378,0.0218201,0.0166702,0.00682831,0.0162125,0.00991821,0.0204086,0.0270081,-9.97986,0.0201416,-0.00461578,0.01297,0.00972748,0.0167084,-0.00476837,0.0175858,0.00667572
26,7,-9.17857,0,-0.00427246,-2.42531,0.0559862,-0.0744527,0.054128,-0.00318738,-0.0943672,0.147455,-0.129734,-0.0816549,0.0106049,0.0226212,0.0199127,0.00923157,0.0120544,0.0108719,0.021019,0.0228882,-9.97986,0.021553,-0.00610352,0.0105286,0.0115585,0.0146484,-0.00289917,0.0131989,0.00621796
26,8,-9.99003,0.00152588,-0.00228882,-2.42501,0.0559862,-0.0741475,0.0562642,0.0248888,-0.090705,0.146539,-0.128818,-0.0816549,0.00850677,0.021553,0.0199127,0.0113678,0.0178528,0.0134277,0.021553,0.0205231,-9.97986,0.0209808,-0.00541687,0.0115204,0.00843048,0.0136185,-0.00305176,0.0134659,0.00865936
26,9,-9.99003,0.000610352,-0.00106812,-2.42592,0.055681,-0.0741475,0.0565694,0.0499132,-0.090705,0.145624,-0.126072,-0.0813497,0.00888824,0.0201035,0.0205612,0.00911713,0.0156021,0.0110245,0.0163651,0.0228882,-9.97986,0.0185013,-0.00621796,0.00892639,0.00926971,0.00366211,-0.00183105,0.0130081,0.00514984
27,0,-9.99003,0.00183105,0.000305176,-2.42531,0.055681,-0.0738423,0.054128,0.0654772,-0.0916206,0.145929,-0.127292,-0.0819601,0.00930786,0.02491,0.0189209,0.01297,0.0170898,0.0117493,0.0257492,0.0174332,-9.97986,0.0131226,0,0.0135803,0.0105667,0.00782013,-0.00259399,0.0164032,0.00736237
27,1,-9.99003,0.000610352,0.00183105,-2.42501,0.0541551,-0.0741475,0.0550435,0.092943,-0.0876533,0.144403,-0.124241,-0.0831808,0.00896454,0.0199127,0.0165558,0.012207,0.0153351,0.00713348,0.0234604,0.0121689,-9.97986,0.014534,-0.00225067,0.017128,0.0063324,0.0180435,-0.00286102,0.0159836,0.00812531
27,2,-2.69328,0.00152588,0.00473022,-2.42867,0.0532396,-0.0747579,0.0556539,0.135973,-0.0876533,0.145318,-0.122715,-0.085317,0.00804901,0.0244141,0.0215149,0.0112915,0.0187683,0.0101089,0.0265121,0.00934601,-9.97986,0.0124359,0.00324249,0.0172424,0.00534058,0.0167084,-0.00141144,0.0142288,0.00652313
27,3,3.9568,0.00183105,0.00411987,-2.42806,0.0541551,-0.0759786,0.0535176,0.153368,-0.0894843,0.145013,-0.121189,-0.085317,0.0131607,0.0212479,0.0188828,0.0120544,0.0159073,0.0127411,0.0234985,0.0113297,-9.97986,0.0101471,-0.00488281,0.0128937,0.00854492,0.0133514,-0.00106812,0.0159454,0.00659943
27,4,10.0097,0,0.00488281,-2.42806,0.0535448,-0.0753682,0.0535176,0.155504,-0.0897895,0.145013,-0.121189,-0.0859274,0.014267,0.0219345,0.0193024,0.0148392,0.0180817,0.0104523,0.0201797,0.0130463,-9.97986,0.0146866,0.000915527,0.0125504,0.00965118,0.0147247,0.00209808,0.0183868,0.0088501
27,5,10.0097,0.000610352,0.00152588,-2.43081,0.0529344,-0.0759786,0.0504659,0.0990465,-0.0968086,0.144098,-0.126987,-0.0892843,0.00869751,0.0205994,0.0152206,0.010376,0.0111771,0.00869751,0.0191879,0.0133133,-9.97986,0.00923157,-0.00419617,0.0156784,0.00713348,0.0127029,0.00164032,0.0138474,0.0043869
27,6,10.0097,0.000610352,0.000457764,-2.42989,0.0538499,-0.0765889,0.0501607,0.0813463,-0.0971137,0.143487,-0.126682,-0.0886739,0.0110245,0.0243378,0.0228119,0.0162506,0.0164795,0.01091,0.0219727,0.0144577,-9.97986,0.013237,0.0012207,0.0171661,0.00846863,0.0178146,7.62939e-005,0.0144958,0.00598907
27,7,10.0097,0.000610352,0,-2.42867,0.0541551,-0.0753682,0.0526021,0.0749376,-0.0949775,0.144708,-0.126682,-0.0871481,0.00778198,0.0235367,0.0195313,0.0140762,0.018692,0.00480652,0.0188446,0.016098,-9.97986,0.0163269,-0.00278473,0.0120926,0.00953674,0.0153732,0.00339508,0.0181198,0.0063324
27,8,10.0097,0.00183105,0.000305176,-2.42806,0.0550706,-0.0756734,0.0532125,0.0715807,-0.094062,0.145318,-0.126377,-0.0859274,0.0118637,0.0236893,0.0187683,0.00999451,0.0165558,0.0107193,0.019455,0.0192261,-9.97986,0.0144958,0.00171661,0.0167847,0.00740051,0.0128555,-0.00160217,0.016098,0.00400543
27,9,10.0097,-0.000305176,0.000457764,-2.42714,0.0538499,-0.0753682,0.0538228,0.0718859,-0.094062,0.145318,-0.125766,-0.0844015,0.0138474,0.0244522,0.0193787,0.0120544,0.0146484,0.0127029,0.0204086,0.0161743,-9.97986,0.0106049,-0.00236511,0.0159454,0.00835419,0.0159454,7.62939e-005,0.0147247,0.00473022
28,0,10.0097,0.0012207,0.000305176,-2.42776,0.0565965,-0.0747579,0.0526021,0.0706652,-0.0943672,0.144403,-0.126377,-0.0840963,0.0109482,0.0227737,0.0195694,0.0150681,0.0151825,0.00583649,0.0209045,0.0177002,-9.97986,0.0163269,-0.000648499,0.0167084,0.00709534,0.0185013,-0.00148773,0.0137711,0.00587463
28,1,10.0097,0,0.000457764,-2.42592,0.055681,-0.0747579,0.0532125,0.0694445,-0.0928413,0.143792,-0.125461,-0.0825704,0.00827789,0.02285,0.0221252,0.0145721,0.018158,0.0114059,0.0223923,0.0199509,-9.97986,0.0185394,-0.0018692,0.0101471,0.00850677,0.0161743,0.000419617,0.0143433,0.00854492
28,2,10.0097,0.000610352,-0.000610352,-2.42592,0.0562914,-0.0738423,0.0550435,0.0715807,-0.0922309,0.146539,-0.125156,-0.0816549,0.00930786,0.0195313,0.0181961,0.011673,0.0169373,0.00534058,0.0171661,0.0164795,-9.97986,0.0202942,-0.0050354,0.0149918,0.00843048,0.0172806,-0.00225067,0.0155258,0.00648499
28,3,10.0097,0.0012207,0.000610352,-2.42531,0.0575121,-0.0729268,0.055959,0.072191,-0.0928413,0.147149,-0.124546,-0.0810445,0.0160217,0.026741,0.021286,0.0168228,0.0204086,0.0127792,0.021553,0.0239563,-9.97986,0.0188065,-0.000267029,0.0123215,0.010643,0.0169373,0.00038147,0.0170898,0.00682831
28,4,10.0097,0.00305176,-0.000457764,-2.42684,0.0544603,-0.0756734,0.0516866,0.0380113,-0.0971137,0.145624,-0.127292,-0.0822652,0.00995636,0.0203323,0.0138092,0.00587463,0.0145721,0.00583649,0.0209808,0.0255585,-9.97986,0.0204849,-0.00480652,0.0120544,0.00541687,0.0130463,-0.00484467,0.0123215,0.00766754
28,5,5.95906,0.000915527,-0.00411987,-2.42867,0.055681,-0.0747579,0.0513814,-0.0138685,-0.101081,0.146234,-0.130039,-0.0844015,0.0121307,0.0244141,0.0191116,0.0137711,0.0206757,0.0101471,0.0252533,0.0317764,-9.97986,0.0172424,-0.00637054,0.0133133,0.00823975,0.0160599,-0.00324249,0.0165558,0.00770569
28,6,-1.79606,0.000915527,-0.00442505,-2.42562,0.0559862,-0.0741475,0.0544332,-0.0150892,-0.0977241,0.146844,-0.129734,-0.0819601,0.0102615,0.0245667,0.0206375,0.0107574,0.017128,0.012207,0.0232315,0.0315475,-9.97986,0.019722,-0.00137329,0.0128937,0.00919342,0.0156784,-0.00209808,0.0162506,0.0075531
28,7,-9.26097,0,-0.00427246,-2.42409,0.0562914,-0.0726216,0.0562642,-0.00379773,-0.0937568,0.145624,-0.128818,-0.0813497,0.0113297,0.0234604,0.0193787,0.0117111,0.0180435,0.00629425,0.0252914,0.0251007,-9.97986,0.0227356,-0.0107574,0.0133133,0.0069046,0.0150681,-0.00480652,0.0133896,0.00400543
28,8,-9.99003,0.000610352,-0.00228882,-2.42562,0.0562914,-0.0744527,0.0550435,0.0248888,-0.0925361,0.146844,-0.127598,-0.0807394,0.00831604,0.0216293,0.016861,0.0100327,0.0191879,0.00576019,0.0216293,0.022049,-9.97986,0.014267,-0.00202179,0.0129318,0.00362396,0.00816345,-0.00152588,0.0119019,0.00617981
28,9,-9.99003,-0.000305176,-0.0012207,-2.42531,0.0541551,-0.0753682,0.0550435,0.0493029,-0.0903999,0.144403,-0.125766,-0.0816549,0.0104904,0.0224304,0.0174713,0.00965118,0.0182343,0.00972748,0.0204849,0.0242615,-9.97986,0.0203705,-0.000839233,0.0134659,0.00579834,-0.00320435,-0.00305176,0.0149155,0.00782013
29,0,-9.99003,-0.000915527,-0.000305176,-2.42653,0.0547655,-0.0744527,0.0550435,0.0648668,-0.0919257,0.144708,-0.125766,-0.0825704,0.00980377,0.0265121,0.0178909,0.0143051,0.0170898,0.0147247,0.020256,0.0178146,-9.97986,0.0143814,-0.00110626,0.0150299,0.00823975,0.00644684,0.00164032,0.0143814,0.0069046
29,1,-9.99003,0.000915527,0.00228882,-2.42592,0.0544603,-0.0744527,0.0562642,0.0938585,-0.088874,0.144403,-0.123935,-0.0822652,0.0120544,0.0262833,0.0187302,0.013237,0.0168991,0.0069046,0.0259399,0.00999451,-9.97986,0.0104904,-0.00160217,0.0127029,0.00305176,0.0165939,-0.00236511,0.0169754,0.00518799
29,2,-2.80253,-0.000610352,0.00518799,-2.42745,0.0532396,-0.0756734,0.0532125,0.132616,-0.0885688,0.143792,-0.122104,-0.085317,0.00587463,0.0256348,0.0172806,0.0125504,0.0196075,0.0105286,0.0231171,0.00926971,-9.97986,0.0104141,0.001297,0.0159454,0.0116348,0.0145721,-0.00202179,0.0149918,0.00572205
29,3,3.73372,0,0.00411987,-2.42837,0.0535448,-0.0753682,0.0544332,0.152147,-0.0882636,0.144708,-0.121799,-0.0850118,0.00667572,0.0238419,0.0206757,0.00812531,0.0177383,0.0104904,0.0251389,0.00843048,-9.97986,0.0105667,-0.00263214,0.0151825,0.00404358,0.012207,-0.00312805,0.0144196,0.0062561
29,4,10.0097,0.000915527,0.00427246,-2.42837,0.0538499,-0.0741475,0.0538228,0.158861,-0.0882636,0.143792,-0.121494,-0.0856222,0.00782013,0.0248337,0.0162506,0.0101852,0.0209045,0.0107956,0.0248337,0.0163269,-9.97986,0.0146484,0.000343323,0.0140381,0.00579834,0.0173187,-0.00175476,0.0126266,0.00526428
29,5,10.0097,0.000610352,0.00198364,-2.43172,0.0529344,-0.0768941,0.0501607,0.099962,-0.0974189,0.142267,-0.125461,-0.0895895,0.0110626,0.0220871,0.0210953,0.011673,0.0156021,0.00606537,0.02285,0.0138855,-9.97986,0.0129318,-0.00156403,0.0147629,0.00797272,0.012207,-0.000801086,0.0119781,0.00473022
29,6,10.0097,-0.000915527,0.000305176,-2.4305,0.0532396,-0.0768941,0.0510762,0.0813463,-0.0971137,0.142572,-0.126987,-0.0880636,0.0149155,0.0277328,0.0185776,0.00976563,0.0156403,0.0069046,0.0251389,0.0135422,-9.97986,0.0109482,0.0038147,0.0123978,0.00720978,0.0169373,-0.000419617,0.0131989,0.00434875
29,7,10.0097,0.0012207,-0.000915527,-2.42898,0.0544603,-0.0759786,0.0519917,0.0758531,-0.095893,0.144708,-0.125766,-0.0877584,0.00717163,0.0237274,0.0182724,0.00999451,0.0211716,0.011673,0.0239944,0.0121689,-9.97986,0.0181961,0.00282288,0.017395,0.010643,0.0148773,0.00267029,0.0159454,0.00595093
29,8,10.0097,0.000610352,-0.000305176,-2.42837,0.0538499,-0.075063,0.0516866,0.0728014,-0.0949775,0.144708,-0.126987,-0.0865377,0.0100708,0.0249481,0.017662,0.00991821,0.0181961,0.00530243,0.0219345,0.0187683,-9.97986,0.015564,-0.00350952,0.0135422,0.00823975,0.0114059,-0.00114441,0.0165176,0.00518799
29,9,10.0097,0.000915527,0.000305176,-2.42684,0.0538499,-0.075063,0.0532125,0.0712755,-0.0943672,0.144403,-0.125766,-0.0850118,0.0110626,0.0245285,0.0196457,0.0129318,0.0224686,0.0154495,0.0244904,0.019722,-9.97986,0.0150299,0.00038147,0.0133133,0.00904083,0.0192642,0.00305176,0.0170898,0.00831604
30,0,10.0097,-0.000610352,0.000152588,-2.42562,0.0559862,-0.0762837,0.0535176,0.0709703,-0.0931465,0.144708,-0.126377,-0.0850118,0.00831604,0.0240707,0.0173187,0.00801086,0.0179291,0.00980377,0.0210953,0.0159836,-9.97986,0.0115204,-0.00087738,0.0122833,0.00728607,0.0138474,-0.000495911,0.0157547,0.00476837
30,1,10.0097,0.000610352,0.000152588,-2.42684,0.0550706,-0.0744527,0.0544332,0.0712755,-0.0922309,0.145624,-0.125156,-0.0837911,0.00911713,0.0276184,0.0202942,0.0120544,0.0148773,0.0139618,0.0218964,0.0204086,-9.97986,0.0153351,-0.00137329,0.0110626,0.00835419,0.0188828,-0.00179291,0.0165558,0.00453949
30,2,10.0097,-0.000915527,0,-2.4247,0.0550706,-0.0738423,0.0547383,0.0706652,-0.0913154,0.145624,-0.125766,-0.0816549,0.0106812,0.0228119,0.0170517,0.013504,0.020752,0.0104141,0.0202942,0.012207,-9.97986,0.016098,-0.0018692,0.0118637,0.00415802,0.0150299,-0.00423431,0.0138474,0.00499725
30,3,10.0097,-0.000305176,-0.000610352,-2.42562,0.0562914,-0.0738423,0.0544332,0.0718859,-0.0922309,0.145929,-0.12302,-0.0804342,0.00946045,0.0212479,0.0141525,0.00907898,0.0182724,0.00556946,0.0206375,0.020256,-9.97986,0.0188065,-0.0050354,0.0139618,0.00511169,0.0162506,-0.00274658,0.0162506,0.00881195
30,4,10.0097,0,0.000152588,-2.42714,0.0547655,-0.075063,0.0516866,0.0401476,-0.0980293,0.144708,-0.127292,-0.0834859,0.0122452,0.0200272,0.0148392,0.0116348,0.0208664,0.0088501,0.0187683,0.0252151,-9.97986,0.021553,-0.00217438,0.01297,0.00671387,0.0144958,-0.0043869,0.0151443,0.00598907
30,5,6.02956,-0.0012207,-0.0038147,-2.42745,0.055681,-0.0741475,0.0522969,-0.0120375,-0.101081,0.145318,-0.130039,-0.0840963,0.0121689,0.0202179,0.0199509,0.012207,0.0181961,0.00953674,0.0185394,0.0281525,-9.97986,0.0233459,0.000114441,0.0118256,0.00823975,0.0167084,-0.00133514,0.0168228,0.00984192
30,6,-1.59343,-0.000610352,-0.00427246,-2.42684,0.0559862,-0.0735371,0.0535176,-0.0150892,-0.0977241,0.145013,-0.130954,-0.0825704,0.0124359,0.024147,0.0205612,0.0139618,0.0201797,0.0106812,0.0191879,0.0244141,-9.97986,0.019989,-0.00259399,0.0115204,0.00930786,0.0199509,-0.00457764,0.0156784,0.00724792
30,7,-9.0507,0.000305176,-0.00366211,-2.42409,0.0572069,-0.0726216,0.0550435,-0.00379773,-0.0934516,0.146539,-0.128513,-0.0804342,0.0113678,0.0212479,0.0175858,0.0100327,0.0175476,0.010376,0.0251389,0.0282288,-9.97986,0.0206375,0.000991821,0.0167084,0.00553131,0.017662,0.00236511,0.0154114,0.00850677
30,8,-9.99003,0.0012207,-0.00305176,-2.42501,0.0565965,-0.075063,0.0553487,0.025194,-0.0910102,0.145929,-0.126987,-0.0798238,0.0107574,0.0253677,0.0171661,0.0118637,0.0218964,0.0094223,0.0190735,0.0218201,-9.97986,0.0201797,0.00198364,0.0164413,0.0063324,0.01091,-0.0044632,0.0174332,0.00484467
30,9,-9.99003,-0.00183105,-0.00167847,-2.42562,0.0559862,-0.075063,0.0571797,0.0502184,-0.090705,0.145929,-0.126377,-0.0810445,0.0118256,0.0281143,0.0166321,0.0094223,0.0203323,0.00892639,0.0229645,0.018425,-9.97986,0.0153732,-0.000724792,0.0178146,0.00583649,0.00175476,-0.00450134,0.0146866,0.00511169
31,0,-9.99003,0.000915527,0.000457764,-2.42714,0.0547655,-0.075063,0.0568746,0.0645616,-0.090705,0.144403,-0.125766,-0.0822652,0.0135422,0.0234985,0.0141144,0.0135803,0.0182343,0.00484467,0.0205994,0.0173187,-9.97986,0.0129318,0.00396729,0.0139236,0.0088501,0.00999451,-0.00652313,0.0180435,0.00621796
31,1,-9.99003,0.000915527,0.00152588,-2.42653,0.055681,-0.075063,0.0550435,0.092943,-0.0891792,0.144708,-0.125156,-0.0831808,0.0117111,0.0225449,0.0157928,0.0137711,0.0196457,0.00762939,0.0192261,0.00934601,-9.97986,0.0117874,0.00259399,0.0181961,0.00659943,0.0205612,-0.00267029,0.0157166,0.00396729
31,2,-2.77415,0.000610352,0.00488281,-2.42776,0.0535448,-0.0756734,0.054128,0.134752,-0.088874,0.143182,-0.12302,-0.0844015,0.0069046,0.0202179,0.0183868,0.00602722,0.0193405,0.0123978,0.0206375,0.0111771,-9.97986,0.0122452,0.00141144,0.0176239,0.00968933,0.017662,-0.00213623,0.0180435,0.00545502
31,3,3.86617,0,0.00442505,-2.42867,0.0532396,-0.0756734,0.0544332,0.153978,-0.0885688,0.144098,-0.120578,-0.0847066,0.00740051,0.02491,0.0131226,0.00614166,0.0180435,0.0109863,0.0173569,0.00869751,-9.97986,0.00907898,-0.00114441,0.0138092,0.00957489,0.0141907,-0.00167847,0.0171661,0.0043869
31,4,10.0097,0.00244141,0.00488281,-2.42867,0.0535448,-0.0762837,0.0538228,0.156725,-0.0897895,0.144708,-0.120273,-0.0850118,0.0101471,0.0245667,0.0212479,0.0121307,0.0196457,0.00926971,0.0194931,0.0118256,-9.97986,0.0105667,-0.000953674,0.0149155,0.00606537,0.0153351,-0.00713348,0.0175858,0.00514984
31,5,10.0097,0.00183105,0.00198364,-2.4305,0.0517137,-0.0759786,0.0492452,0.0987413,-0.0971137,0.140741,-0.125766,-0.0886739,0.00717163,0.0236511,0.0164032,0.00892639,0.0174332,0.0118256,0.0191498,0.0144958,-9.97986,0.0139236,-0.000419617,0.0151825,0.00858307,0.0161362,-0.00370026,0.0170135,0.00350952
31,6,10.0097,0.000305176,0.000305176,-2.42989,0.0541551,-0.0771993,0.0504659,0.0819567,-0.0965034,0.143487,-0.126682,-0.0877584,0.00644684,0.0245285,0.0185776,0.0109863,0.0189972,0.00984192,0.0193787,0.0129318,-9.97986,0.00980377,0.00255585,0.0158691,0.00900269,0.0152206,-0.00255585,0.0163651,0.00492096
31,7,10.0097,0.000610352,-0.000152588,-2.42898,0.0538499,-0.0759786,0.0526021,0.0743273,-0.0952827,0.145013,-0.126987,-0.0877584,0.00934601,0.0249863,0.0203323,0.00980377,0.017395,0.0133514,0.0205231,0.0170898,-9.97986,0.0167084,-0.000610352,0.0159073,0.00774384,0.0214386,-0.0030899,0.0147247,0.00465393
31,8,10.0097,0.000305176,-0.000305176,-2.42959,0.0544603,-0.0744527,0.0513814,0.0731066,-0.0946723,0.143487,-0.126987,-0.0859274,0.00904083,0.018692,0.024147,0.0114822,0.0228882,0.0120926,0.0206375,0.0154114,-9.97986,0.0168228,0.00167847,0.0179291,0.0113297,0.0171661,-0.00301361,0.0193787,0.00457764
31,9,10.0097,0.00152588,0.000457764,-2.42806,0.0547655,-0.075063,0.0532125,0.0697496,-0.0928413,0.145624,-0.125461,-0.0850118,0.00644684,0.0183487,0.0212097,0.0102234,0.0164032,0.00991821,0.0204468,0.014534,-9.97986,0.0118637,0.000648499,0.0161743,0.00347137,0.0161743,-0.000915527,0.0159454,0.0056839
32,0,10.0097,0,0.000305176,-2.42623,0.0547655,-0.0744527,0.0532125,0.0709703,-0.0937568,0.145318,-0.126377,-0.0840963,0.0102997,0.0191498,0.0199127,0.00972748,0.018959,0.0102234,0.0230026,0.0158691,-9.97986,0.0178909,0.00423431,0.0170517,0.0075531,0.0171661,-0.000686646,0.0157166,0.00461578
32,1,10.0097,0.000610352,0.000305176,-2.42653,0.0553758,-0.0738423,0.0529073,0.0712755,-0.0922309,0.145624,-0.124241,-0.0831808,0.00656128,0.0220871,0.0187683,0.0130844,0.0208664,0.0123596,0.0172043,0.0173187,-9.97986,0.0161743,-0.00286102,0.0113678,0.00598907,0.0154877,-0.00396729,0.0183105,0.00370026
32,2,10.0097,0.000610352,0.000762939,-2.42684,0.0575121,-0.0744527,0.054128,0.0718859,-0.0916206,0.147455,-0.123325,-0.0816549,0.00953674,0.0205612,0.0176239,0.0124741,0.018959,0.0130463,0.0241852,0.0177765,-9.97986,0.015831,-0.00202179,0.0139236,0.00598907,0.0178146,-0.00213623,0.0169373,0.00846863
32,3,10.0097,0.0012207,-0.000305176,-2.42562,0.0559862,-0.0738423,0.0556539,0.0697496,-0.0919257,0.146234,-0.124241,-0.0810445,0.0111008,0.0252533,0.0185013,0.0115585,0.0135803,0.0130844,0.0219345,0.0211334,-9.97986,0.0185013,-0.00228882,0.0193787,0.00514984,0.0203705,0.000114441,0.0174713,0.00686646
32,4,10.0097,0.000305176,-0.000457764,-2.42806,0.0562914,-0.0744527,0.0532125,0.0392321,-0.0974189,0.145318,-0.126987,-0.0828756,0.01194,0.0273132,0.0164032,0.0139618,0.0174332,0.0111771,0.0231934,0.0291061,-9.97986,0.0183105,0.0012207,0.0170135,0.00850677,0.021286,-0.00232697,0.0209427,0.00785828
32,5,5.97554,-0.000305176,-0.0038147,-2.42745,0.0562914,-0.0744527,0.0513814,-0.0147841,-0.102302,0.145318,-0.13126,-0.0834859,0.00953674,0.0205994,0.0164413,0.00980377,0.0171661,0.00946045,0.0221252,0.0248337,-9.97986,0.0212479,-0.00106812,0.0152588,0.00202179,0.0177383,-0.00297546,0.0174332,0.00598907
32,6,-1.76402,0,-0.00427246,-2.42623,0.0559862,-0.0738423,0.0529073,-0.0144789,-0.0983344,0.145929,-0.130039,-0.0813497,0.0100327,0.0214005,0.018158,0.0145721,0.0210571,0.0062561,0.0260925,0.0261688,-9.97986,0.0210571,-0.000839233,0.0175858,0.0109482,0.0218964,-0.00228882,0.0173187,0.00869751
32,7,-9.24022,0.000610352,-0.00442505,-2.42409,0.0569017,-0.0735371,0.0553487,-0.0028822,-0.094062,0.14776,-0.129429,-0.0810445,0.0094223,0.0213623,0.0170135,0.010643,0.0151443,0.00850677,0.0191879,0.0218582,-9.97986,0.0233459,-0.0012207,0.0131989,0.00709534,0.0144958,-0.00385284,0.0156403,0.00999451
32,8,-9.99003,0.000610352,-0.00259399,-2.42501,0.055681,-0.0744527,0.0556539,0.0254991,-0.0919257,0.146539,-0.127903,-0.0816549,0.01091,0.0310516,0.0177383,0.014534,0.0195313,0.00862122,0.0207138,0.0177765,-9.97986,0.021286,-0.000495911,0.0170517,0.0115204,0.0133514,-0.00293732,0.0144196,0.00537872
32,9,-9.99003,0.0012207,-0.00152588,-2.42592,0.0550706,-0.0747579,0.055959,0.0499132,-0.090705,0.146234,-0.126072,-0.0813497,0.0122452,0.0274658,0.017662,0.0094223,0.017662,0.0115585,0.0210953,0.0200272,-9.97986,0.0180054,-0.00114441,0.0136185,0.00553131,0.00331879,-0.00720978,0.0164795,0.00686646
33,0,-9.99003,-0.000915527,-0.000305176,-2.42653,0.0553758,-0.0747579,0.0550435,0.0630358,-0.0913154,0.145318,-0.126987,-0.0831808,0.00957489,0.0242996,0.0163269,0.00934601,0.0179291,0.0115967,0.0217438,0.0160217,-9.97986,0.0127029,-0.00198364,0.0151825,0.00537872,0.00938416,-0.00205994,0.0157547,0.00801086
33,1,-9.99003,0.000305176,0.000915527,-2.42684,0.0550706,-0.0747579,0.0550435,0.0941637,-0.088874,0.144098,-0.124241,-0.0825704,0.00991821,0.0254059,0.0167465,0.010376,0.0139999,0.0100327,0.0252151,0.0117111,-9.97986,0.00873566,-0.000419617,0.0181961,0.00701904,0.0131989,-0.0050354,0.0133514,0.00652313
33,2,-2.72014,0.000305176,0.00488281,-2.42684,0.0547655,-0.0747579,0.0562642,0.134447,-0.0882636,0.144403,-0.12302,-0.0844015,0.00915527,0.0246048,0.0180054,0.0118637,0.017395,0.010643,0.019455,0.0108337,-9.97986,0.00656128,-0.00213623,0.0161362,0.0118637,0.0127792,-0.00282288,0.0169754,0.00732422
33,3,3.90615,0.000915527,0.00473022,-2.42714,0.0520189,-0.0762837,0.054128,0.153368,-0.0882636,0.143792,-0.121799,-0.0850118,0.00766754,0.027504,0.0163651,0.0131226,0.0189972,0.010376,0.0205612,0.00858307,-9.97986,0.00682831,-0.00171661,0.0110245,0.00862122,0.0199127,-0.00595093,0.0171661,0.00259399
33,4,10.0097,0.000610352,0.00396729,-2.42959,0.0532396,-0.0753682,0.0522969,0.155809,-0.0894843,0.144098,-0.12241,-0.0862325,0.00663757,0.0262451,0.0207138,0.0165558,0.0199509,0.0140762,0.0247955,0.00766754,-9.97986,0.0121307,-0.00328064,0.0125504,0.00854492,0.0125122,-0.00473022,0.0154114,0.00354767
33,5,10.0097,0.000305176,0.00183105,-2.4305,0.0526292,-0.0768941,0.0498555,0.098131,-0.0968086,0.143487,-0.126377,-0.0892843,0.00946045,0.0242615,0.0175858,0.0139236,0.0157547,0.0137711,0.0254059,0.00854492,-9.97986,0.0133896,-0.00400543,0.0121689,0.00450134,0.0143051,-0.00431061,0.0161362,0.00217438
33,6,10.0097,0.00152588,0.000305176,-2.42928,0.0553758,-0.0771993,0.0504659,0.0813463,-0.0971137,0.143182,-0.126377,-0.0886739,0.0119019,0.023613,0.016098,0.00995636,0.0151062,0.0122452,0.0218201,0.0115204,-9.97986,0.0130081,-0.00648499,0.0120163,0.00831604,0.0140381,-0.00240326,0.0192261,0.00370026
33,7,10.0097,0,0,-2.42959,0.0526292,-0.0765889,0.0526021,0.0746324,-0.0955879,0.144098,-0.127598,-0.0871481,0.00846863,0.0230408,0.0220108,0.0170135,0.0156403,0.0102615,0.0203323,0.0130081,-9.97986,0.00946045,-0.00297546,0.0168228,0.00427246,0.0167465,-0.00213623,0.0150681,0.0063324
33,8,10.0097,-0.000305176,0.000152588,-2.42776,0.0544603,-0.0747579,0.0529073,0.0728014,-0.0934516,0.144098,-0.126072,-0.0856222,0.00728607,0.0272369,0.0182343,0.0119019,0.0194168,0.00919342,0.0209427,0.0151443,-9.97986,0.0112915,-0.00209808,0.01297,0.0038147,0.0167847,-0.00259399,0.0161362,0.00679016
33,9,10.0097,0.00152588,0.000305176,-2.42684,0.0550706,-0.0747579,0.0538228,0.0712755,-0.0943672,0.144098,-0.126377,-0.0850118,0.00995636,0.0226593,0.0191116,0.0125504,0.014267,0.0132751,0.0189209,0.0180817,-9.97986,0.0139236,-0.0019455,0.0133514,0.00808716,0.0153732,-0.00637054,0.0156403,0.00514984
34,0,10.0097,-0.000305176,0.000457764,-2.42745,0.0544603,-0.0756734,0.0535176,0.0694445,-0.0934516,0.145318,-0.125766,-0.0847066,0.00762939,0.0230789,0.0201416,0.0159454,0.0178909,0.0153732,0.0243378,0.0175858,-9.97986,0.0152969,-0.00202179,0.0120926,0.00911713,0.0160599,-0.00167847,0.0175858,0.00480652
34,1,10.0097,-0.000610352,-0.000305176,-2.42623,0.055681,-0.0741475,0.0532125,0.0706652,-0.0931465,0.145624,-0.125766,-0.0834859,0.00995636,0.0234222,0.0188446,0.0125122,0.018692,0.0116348,0.020256,0.0168991,-9.97986,0.0109863,-0.00530243,0.017662,0.00644684,0.0182343,-0.00656128,0.0182724,0.00652313
34,2,10.0097,0.000610352,0,-2.42501,0.0565965,-0.0741475,0.0556539,0.0715807,-0.0913154,0.147149,-0.125156,-0.0813497,0.00648499,0.0235748,0.0211334,0.0120163,0.0167847,0.0141144,0.0231934,0.0191879,-9.97986,0.0144958,-0.00366211,0.0143051,0.00720978,0.0132751,-0.0019455,0.0180817,0.00766754
34,3,10.0097,-0.000305176,0.000457764,-2.42653,0.0569017,-0.0741475,0.0538228,0.0712755,-0.0910102,0.146234,-0.124241,-0.0807394,0.0109863,0.0196838,0.017662,0.0138092,0.0150299,0.0120163,0.0229645,0.0222015,-9.97986,0.0166702,-0.00629425,0.00915527,0.00953674,0.015831,-0.0030899,0.016861,0.00572205
34,4,10.0097,0.000610352,-0.000762939,-2.42684,0.0547655,-0.0753682,0.0526021,0.0398424,-0.0980293,0.145318,-0.127598,-0.0834859,0.0112534,0.0185776,0.0162506,0.00968933,0.0160599,0.00965118,0.0205231,0.0255966,-9.97986,0.0202179,-0.00286102,0.01297,0.00545502,0.0144196,-0.00476837,0.0159836,0.00541687
34,5,6.12233,0.000305176,-0.00350952,-2.42745,0.0569017,-0.0738423,0.0513814,-0.0123427,-0.100471,0.147455,-0.130954,-0.0831808,0.01297,0.015831,0.0257492,0.0147247,0.0160599,0.0123978,0.0222397,0.0291443,-9.97986,0.0193405,-0.00507355,0.0149536,0.00621796,0.0157166,-0.00133514,0.0197601,0.00640869
34,6,-1.44023,0.000305176,-0.0038147,-2.42684,0.0569017,-0.0747579,0.0529073,-0.0153944,-0.0977241,0.147455,-0.130344,-0.0819601,0.0145721,0.0226974,0.021286,0.0120926,0.017662,0.0149536,0.019722,0.0254059,-9.97986,0.0218201,-0.0018692,0.013504,0.00873566,0.0181961,-0.000152588,0.0175476,0.00659943
34,7,-8.96708,-0.000305176,-0.00427246,-2.42501,0.0569017,-0.0744527,0.0550435,-0.00349256,-0.0943672,0.147455,-0.128513,-0.0810445,0.0130081,0.020256,0.0199509,0.0169754,0.017128,0.0144196,0.022316,0.0198746,-9.97986,0.0187683,0.000267029,0.0142288,0.00907898,0.017395,-0.0038147,0.018158,0.00774384
34,8,-9.99003,0.000915527,-0.00244141,-2.42501,0.0550706,-0.073232,0.0553487,0.0239733,-0.0925361,0.145624,-0.127903,-0.0807394,0.0122833,0.0238419,0.0211716,0.0144577,0.0190353,0.0112915,0.0242615,0.0247192,-9.97986,0.0174332,-0.00240326,0.0152969,0.00453949,0.0167084,0.00152588,0.0172043,0.00793457
34,9,-9.99003,0,-0.00137329,-2.42348,0.0562914,-0.0747579,0.0562642,0.0502184,-0.0913154,0.145624,-0.126987,-0.0819601,0.0125885,0.0234222,0.0180435,0.0115204,0.0158691,0.0101471,0.018959,0.019722,-9.97986,0.0153351,-0.00480652,0.0193405,0.00297546,0.00133514,-0.00102997,0.014801,0.00789642
35,0,-9.99003,0.000305176,-0.000152588,-2.42653,0.0550706,-0.0744527,0.0553487,0.0636461,-0.0897895,0.14776,-0.125766,-0.0819601,0.0117493,0.0248718,0.0192642,0.0147247,0.0161362,0.0133514,0.0201035,0.0140381,-9.97986,0.0175858,-0.000267029,0.0131226,0.00686646,0.00778198,-0.000267029,0.0164795,0.00465393
35,1,-9.99003,0.000610352,0.00167847,-2.42653,0.0547655,-0.0741475,0.055959,0.0935533,-0.088874,0.145318,-0.12363,-0.0825704,0.00926971,0.0248718,0.0178146,0.00995636,0.0141144,0.00804901,0.0204086,0.00762939,-9.97986,0.0113678,-0.00164032,0.018692,0.00858307,0.0157547,-0.0012207,0.0162125,0.00591278
35,2,-2.57853,0.000610352,0.0050354,-2.42867,0.0544603,-0.0759786,0.0538228,0.135668,-0.0894843,0.143792,-0.122715,-0.0840963,0.0082016,0.0246429,0.0205994,0.0128555,0.0197601,0.0110626,0.0215149,0.0107574,-9.97986,0.00370026,-0.00263214,0.0143433,0.00476837,0.0141525,0.000267029,0.0163651,0.00743866
35,3,4.05202,0.00183105,0.00442505,-2.42837,0.0547655,-0.0753682,0.0529073,0.153673,-0.0891792,0.143487,-0.121494,-0.0847066,0.00873566,0.0251389,0.0166321,0.00831604,0.0138092,0.00988007,0.0206375,0.00835419,-9.97986,0.00823975,-0.00370026,0.0128937,0.00480652,0.0144958,-0.00499725,0.0160217,0.00465393
35,4,10.0097,0.000915527,0.00427246,-2.42745,0.0541551,-0.0759786,0.0535176,0.153673,-0.0894843,0.143792,-0.121189,-0.0859274,0.00907898,0.0234222,0.0197983,0.00930786,0.0112152,0.0109482,0.0227356,0.0118256,-9.97986,0.0115204,-0.0019455,0.0119019,0.00362396,0.0157928,-0.00411987,0.0165558,0.00431061
35,5,10.0097,0.000305176,0.00167847,-2.43203,0.0532396,-0.0771993,0.0504659,0.098131,-0.0974189,0.143182,-0.126987,-0.0889791,0.00656128,0.0197601,0.015564,0.00602722,0.0131989,0.00972748,0.0215149,0.014267,-9.97986,0.0118637,-0.00545502,0.0162125,0.00606537,0.015564,-0.00171661,0.0158691,0.00614166
35,6,10.0097,0.000915527,0.000457764,-2.4302,0.0529344,-0.0759786,0.0504659,0.080736,-0.095893,0.144098,-0.126987,-0.0880636,0.00930786,0.0230789,0.0197983,0.00999451,0.012207,0.0126648,0.0230789,0.0152588,-9.97986,0.0122452,-0.000762939,0.0128174,0.00583649,0.0150681,-0.00335693,0.0178528,0.00583649
35,7,10.0097,0,-0.000457764,-2.42928,0.0541551,-0.0762837,0.0522969,0.0752428,-0.0955879,0.144098,-0.127598,-0.0871481,0.0128174,0.0196457,0.0183868,0.0123978,0.0150299,0.013504,0.0219345,0.0150299,-9.97986,0.0127792,-0.00202179,0.0152969,0.00854492,0.0164413,-0.00259399,0.0214005,0.0063324
35,8,10.0097,0.000915527,0.000305176,-2.42806,0.0565965,-0.075063,0.0529073,0.072191,-0.0943672,0.145013,-0.126682,-0.085317,0.00892639,0.0255585,0.0209427,0.0142288,0.020256,0.0129318,0.0271988,0.0184631,-9.97986,0.0169754,0.000839233,0.0159836,0.00675201,0.0217056,-0.00125885,0.0180054,0.00919342
35,9,10.0097,-0.0012207,-0.000305176,-2.42776,0.0544603,-0.0753682,0.0535176,0.0709703,-0.0937568,0.144708,-0.125156,-0.0844015,0.00656128,0.0165939,0.0164413,0.00694275,0.0124741,0.00602722,0.0181198,0.0111389,-9.97986,0.0156021,-0.00175476,0.0121307,0.00362396,0.0150681,-0.00556946,0.0164032,0.00385284
36,0,10.0097,0.000305176,0,-2.42745,0.0559862,-0.0753682,0.0526021,0.0706652,-0.0937568,0.144403,-0.126377,-0.0840963,0.00846863,0.0252151,0.0222778,0.00839233,0.0164032,0.0120163,0.0241852,0.0192642,-9.97986,0.0143814,0.000991821,0.0149918,0.00888824,0.0165176,-0.00495911,0.0151825,0.00564575
36,1,10.0097,0.0012207,0.000610352,-2.42714,0.0553758,-0.0747579,0.0544332,0.0706652,-0.0925361,0.145318,-0.124546,-0.0822652,0.0139236,0.0323868,0.0216293,0.0128174,0.020752,0.0123215,0.0274658,0.0234604,-9.97986,0.0182343,0.00457764,0.0196075,0.0114822,0.024147,0.00400543,0.0232315,0.0130081
36,2,10.0097,-0.000305176,-0.000457764,-2.42653,0.0550706,-0.0744527,0.0544332,0.0715807,-0.0922309,0.146234,-0.124241,-0.0816549,0.00476837,0.0196075,0.0178146,0.0100708,0.0107574,0.0102997,0.0150681,0.0142288,-9.97986,0.0131989,-0.00656128,0.0125885,0.000953674,0.0164413,-0.00370026,0.015831,0.00366211
36,3,10.0097,-0.000305176,0.000305176,-2.42623,0.0569017,-0.0738423,0.0538228,0.0718859,-0.0916206,0.145318,-0.125156,-0.0810445,0.00988007,0.0286102,0.019455,0.0139236,0.0200653,0.0163651,0.0257492,0.0215912,-9.97986,0.0170517,-0.00370026,0.0106049,0.00671387,0.0190353,-0.00179291,0.0183487,0.0075531
36,4,10.0097,-0.000305176,-0.000915527,-2.42776,0.055681,-0.0747579,0.0532125,0.0413683,-0.0971137,0.146234,-0.127292,-0.0828756,0.00778198,0.0248337,0.0214386,0.00789642,0.0216293,0.0130844,0.0240326,0.02388,-9.97986,0.0229263,-0.00228882,0.0136185,0.00946045,0.0214386,-0.00343323,0.0186157,0.00717163
36,5,6.27187,-0.000610352,-0.0038147,-2.42776,0.0559862,-0.075063,0.0516866,-0.011122,-0.101691,0.146234,-0.130649,-0.0834859,0.0101089,0.0243759,0.018959,0.0082016,0.019455,0.0118637,0.0210953,0.0264359,-9.97986,0.0229645,-0.0018692,0.0127029,0.00553131,0.0143814,-0.00576019,0.0166321,0.00617981
36,6,-1.37248,0.000610352,-0.00366211,-2.42592,0.0578172,-0.075063,0.0532125,-0.0150892,-0.0989448,0.146844,-0.129429,-0.0822652,0.0149536,0.0234222,0.0193787,0.0112152,0.0190353,0.0120163,0.0232697,0.0254059,-9.97986,0.0223541,0.00102997,0.0161743,0.0102615,0.0193787,-0.00549316,0.0144577,0.00919342
36,7,-8.77971,0.000305176,-0.00427246,-2.4244,0.0569017,-0.0741475,0.0535176,-0.00410291,-0.0952827,0.146539,-0.128818,-0.0804342,0.0139999,0.0218201,0.0179291,0.013237,0.0206375,0.00919342,0.0226593,0.0226212,-9.97986,0.0208282,-0.00038147,0.00892639,0.00576019,0.015564,-0.00591278,0.0161743,0.00579834
36,8,-9.99003,0.0012207,-0.00274658,-2.4247,0.0569017,-0.0729268,0.055959,0.0248888,-0.0916206,0.146234,-0.127292,-0.0813497,0.00865936,0.0245667,0.0216675,0.00915527,0.0162506,0.00946045,0.0226212,0.0253296,-9.97986,0.0193024,-0.00133514,0.013504,0.00862122,0.0187683,-0.00133514,0.0179291,0.00923157
36,9,-9.99003,0.000305176,-0.0012207,-2.4244,0.0553758,-0.0741475,0.0562642,0.0499132,-0.0903999,0.145929,-0.126682,-0.0816549,0.00980377,0.0204086,0.0199127,0.0108337,0.0154495,0.0102997,0.0210571,0.0221634,-9.97986,0.0202942,0.00358582,0.0128174,0.00686646,0.0104141,-0.00541687,0.0155258,0.00659943
37,0,-9.99003,-0.000305176,-0.000152588,-2.42592,0.0550706,-0.0756734,0.054128,0.0636461,-0.0928413,0.145013,-0.125766,-0.0822652,0.00961304,0.0247192,0.0142288,0.0134659,0.014801,0.0140762,0.0217056,0.0154495,-9.97986,0.0144196,0.00259399,0.0157166,0.00923157,0.00980377,-0.00171661,0.0175858,0.00579834
37,1,-9.99003,0.00152588,0.00152588,-2.42623,0.0550706,-0.0753682,0.0562642,0.0926378,-0.0882636,0.145929,-0.122715,-0.0825704,0.00827789,0.0232697,0.0182343,0.00946045,0.0196457,0.00896454,0.0230026,0.00743866,-9.97986,0.00682831,0.00423431,0.0164032,0.00591278,0.0163269,-0.00167847,0.017395,0.00801086
37,2,-2.64323,0.000305176,0.00411987,-2.42806,0.0535448,-0.0747579,0.0553487,0.135057,-0.0876533,0.143792,-0.122715,-0.0847066,0.00617981,0.0264359,0.0194168,0.00984192,0.0181961,0.0119781,0.0224686,0.0134277,-9.97986,0.00976563,0.000228882,0.0162506,0.00511169,0.0199127,-0.00400543,0.0170135,0.00419617
37,3,4.00899,0,0.00457764,-2.42806,0.0547655,-0.0756734,0.0544332,0.152147,-0.0879585,0.144403,-0.121799,-0.0840963,0.00743866,0.0258636,0.0186539,0.00743866,0.0152588,0.00965118,0.0178909,0.0160599,-9.97986,0.0114059,0.000495911,0.0115585,0.00976563,0.0151825,-0.00331879,0.0139618,0.00274658
37,4,10.0097,0.000915527,0.00473022,-2.42867,0.0529344,-0.0765889,0.0538228,0.153673,-0.0900947,0.143792,-0.120884,-0.0856222,0.0107956,0.0233459,0.0268173,0.0103378,0.0195313,0.0129318,0.0226212,0.0109482,-9.97986,0.013237,0.00217438,0.0133896,0.00770569,0.0174332,-0.00137329,0.0179291,0.00736237
37,5,10.0097,-0.000305176,0.00137329,-2.43142,0.0532396,-0.0768941,0.0498555,0.098131,-0.09925,0.142877,-0.126682,-0.0898946,0.0087738,0.0209045,0.0205612,0.0105667,0.017395,0.00740051,0.0138092,0.0114441,-9.97986,0.0117874,0,0.0117111,0.00614166,0.0178146,-0.0031662,0.014267,0.00362396
37,6,10.0097,0,0.000305176,-2.4305,0.0538499,-0.0762837,0.0513814,0.0813463,-0.0974189,0.143792,-0.126377,-0.0877584,0.0121689,0.0268555,0.0190735,0.0123978,0.0209808,0.0118256,0.017128,0.018158,-9.97986,0.0115967,0.00324249,0.0144577,0.00442505,0.0163651,-0.00156403,0.0149918,0.00553131
37,7,10.0097,-0.00213623,0.000152588,-2.42928,0.0544603,-0.0762837,0.0519917,0.0749376,-0.0952827,0.142877,-0.126682,-0.0871481,0.0128555,0.0222778,0.0197983,0.0135803,0.0169373,0.00717163,0.0217819,0.0148773,-9.97986,0.0145721,0.00133514,0.0151825,0.0069809,0.015564,-0.000991821,0.0146103,0.00968933
37,8,10.0097,0.00152588,-0.000152588,-2.42806,0.0544603,-0.0762837,0.0535176,0.072191,-0.094062,0.144098,-0.126682,-0.0862325,0.0114822,0.0218201,0.0150299,0.0117874,0.0128174,0.00766754,0.0220108,0.0149155,-9.97986,0.0146484,0.000801086,0.0162888,0.00839233,0.0183868,-0.00217438,0.0133514,0.00537872
37,9,10.0097,-0.00183105,0.000457764,-2.42745,0.0538499,-0.075063,0.0538228,0.0715807,-0.0937568,0.146234,-0.125461,-0.0844015,0.01091,0.0231934,0.0177765,0.0106812,0.017128,0.00961304,0.0224686,0.0174713,-9.97986,0.0120163,-0.00179291,0.0141144,0.00770569,0.0169754,-0.00389099,0.0177765,0.00946045
38,0,10.0097,0.000915527,-0.000152588,-2.42653,0.055681,-0.0753682,0.0532125,0.0715807,-0.0949775,0.144403,-0.124851,-0.0840963,0.0114059,0.0210571,0.0185013,0.0109863,0.0154877,0.00629425,0.0198364,0.0154495,-9.97986,0.0180054,-0.00190735,0.00923157,0.00530243,0.0193024,-0.00267029,0.0154114,0.00709534
38,1,10.0097,0.000305176,0.000457764,-2.42684,0.0547655,-0.0744527,0.054128,0.0715807,-0.0922309,0.145624,-0.126072,-0.0844015,0.0131226,0.0177002,0.0190735,0.00953674,0.0170135,0.0094223,0.0240326,0.020752,-9.97986,0.0165939,-0.00148773,0.0121689,0.00469208,0.0170517,0.000267029,0.016098,0.00663757
38,2,10.0097,0.000610352,0.000305176,-2.4247,0.0559862,-0.0741475,0.0547383,0.07036,-0.0922309,0.145929,-0.124546,-0.0822652,0.0112915,0.0251007,0.0198746,0.00854492,0.0136566,0.0114059,0.021286,0.0181961,-9.97986,0.0207138,-0.00343323,0.0109482,0.00965118,0.0172424,0.00171661,0.0125122,0.00679016
38,3,10.0097,-0.000305176,-0.000610352,-2.42501,0.0569017,-0.0741475,0.054128,0.0718859,-0.0922309,0.146234,-0.124241,-0.0819601,0.0112152,0.019989,0.0208282,0.0114441,0.0167084,0.0115204,0.0231552,0.022049,-9.97986,0.0195313,-0.00171661,0.0138092,0.00629425,0.0141525,-0.00423431,0.0151443,0.00598907
38,4,10.0097,-0.0012207,-0.000457764,-2.42776,0.0559862,-0.0747579,0.0522969,0.0395372,-0.0968086,0.145318,-0.126987,-0.0834859,0.0158691,0.0236893,0.0211334,0.0139618,0.0182343,0.0104904,0.025444,0.0218964,-9.97986,0.021019,-0.00102997,0.0167465,0.00541687,0.0197601,-0.0031662,0.0143051,0.0113678
38,5,6.07289,0,-0.00366211,-2.42806,0.0559862,-0.0726216,0.0516866,-0.0135634,-0.100165,0.146234,-0.129734,-0.0834859,0.00862122,0.0208664,0.0192642,0.0106812,0.0159073,0.0100327,0.0258255,0.0281525,-9.97986,0.0203323,-0.0019455,0.0114822,0.00854492,0.0188446,-0.00617981,0.0124741,0.00789642
38,6,-1.61815,0,-0.00335693,-2.42653,0.0562914,-0.0747579,0.0532125,-0.0160048,-0.0974189,0.147455,-0.130039,-0.0822652,0.00953674,0.0246429,0.022583,0.00976563,0.0211716,0.0139618,0.0196457,0.0281906,-9.97986,0.0213623,-0.00480652,0.0168228,0.00736237,0.019989,-0.00320435,0.0134659,0.00717163
38,7,-9.14134,0.000915527,-0.00442505,-2.4244,0.0565965,-0.0729268,0.0547383,-0.00349256,-0.0946723,0.145624,-0.128818,-0.0810445,0.013504,0.022049,0.0182724,0.0117874,0.0164413,0.0138855,0.0206757,0.0243378,-9.97986,0.0222397,-0.0050354,0.0094223,0.00255585,0.0179672,-0.00247955,0.0160599,0.00862122
38,8,-9.99003,0.00152588,-0.00274658,-2.42409,0.0559862,-0.0738423,0.054128,0.0261095,-0.0922309,0.144098,-0.127292,-0.0810445,0.00976563,0.0210571,0.020256,0.0138855,0.0169754,0.00793457,0.0205231,0.0231934,-9.97986,0.0156021,-0.00354767,0.00846863,0.00545502,0.0152588,-0.00228882,0.0163269,0.00858307
38,9,-9.99003,0.00152588,-0.000610352,-2.42592,0.0547655,-0.0744527,0.0565694,0.049608,-0.0910102,0.146539,-0.126377,-0.0822652,0.00850677,0.0251389,0.0193787,0.0127411,0.0165939,0.00713348,0.0215149,0.0181198,-9.97986,0.0177765,-0.000991821,0.0183487,0.0112152,0.00419617,-0.00267029,0.0177002,0.00904083
39,0,-9.99003,0,0.000457764,-2.42592,0.0553758,-0.0741475,0.0547383,0.0648668,-0.090705,0.145929,-0.126072,-0.0816549,0.00583649,0.0242615,0.0151062,0.0113678,0.0167084,0.0104523,0.0172424,0.0160217,-9.97986,0.0189209,-0.00404358,0.01091,0.00549316,0.00804901,-0.00263214,0.0131607,0.00537872
39,1,-9.99003,-0.000305176,0.00152588,-2.42745,0.0550706,-0.0753682,0.0547383,0.0932482,-0.0900947,0.145318,-0.124546,-0.0831808,0.0107193,0.0197601,0.0172424,0.00862122,0.0180054,0.00701904,0.0183105,0.00915527,-9.97986,0.0127792,-0.00228882,0.0135422,0.00804901,0.015831,-0.00465393,0.0145721,0.00797272
39,2,-2.78056,0.000305176,0.00488281,-2.42928,0.0526292,-0.0759786,0.0550435,0.133531,-0.0885688,0.144098,-0.123325,-0.0834859,0.0056839,0.0229263,0.0192642,0.0111008,0.0159454,0.0117874,0.0219345,0.00644684,-9.97986,0.0114059,-0.000686646,0.0146866,0.00232697,0.0157547,-0.00385284,0.0161362,0.00576019
39,3,3.81642,-0.000610352,0.00457764,-2.42837,0.0538499,-0.0756734,0.0532125,0.153368,-0.0885688,0.143182,-0.121799,-0.0847066,0.0103378,0.0239944,0.0203323,0.0115967,0.0180054,0.0094986,0.0177765,0.0100327,-9.97986,0.0112152,-0.000724792,0.0120544,0.00648499,0.0152588,-0.00358582,0.0165558,0.00732422
39,4,10.0097,0.0012207,0.00442505,-2.42745,0.0535448,-0.0756734,0.054128,0.157335,-0.0891792,0.143792,-0.120884,-0.0859274,0.0126266,0.0222778,0.0157547,0.00926971,0.0139618,0.00789642,0.0195694,0.0069809,-9.97986,0.00831604,0.00110626,0.0118637,0.00564575,0.0121307,-0.00320435,0.0193787,0.00759125
39,5,10.0097,0.000915527,0.00152588,-2.43111,0.0526292,-0.0762837,0.0498555,0.0993517,-0.0977241,0.142267,-0.125461,-0.0886739,0.00892639,0.0218201,0.0198364,0.0153351,0.0185013,0.00858307,0.0190735,0.0115204,-9.97986,0.0112152,0.0012207,0.0130844,0.0069046,0.0147247,-0.00331879,0.0178146,0.00579834
39,6,10.0097,-0.000610352,0.000762939,-2.42959,0.0535448,-0.0768941,0.050771,0.0816515,-0.0974189,0.144098,-0.126682,-0.0877584,0.0115967,0.0234985,0.0166702,0.00850677,0.0175858,0.0128937,0.0226593,0.0111771,-9.97986,0.0188446,-0.00190735,0.0111771,0.00606537,0.0170135,-0.00209808,0.0138092,0.00476837
39,7,10.0097,0,0.000610352,-2.42867,0.0541551,-0.0747579,0.0522969,0.0734117,-0.095893,0.143182,-0.126987,-0.0865377,0.0105286,0.026207,0.0179672,0.00846863,0.0157166,0.00816345,0.0209427,0.0151443,-9.97986,0.00957489,-0.00106812,0.013504,0.0062561,0.0141144,-0.00228882,0.0126648,0.00549316
39,8,10.0097,0.000610352,-0.000610352,-2.42745,0.055681,-0.0756734,0.0529073,0.0724962,-0.0937568,0.144708,-0.126987,-0.0859274,0.0103378,0.0229645,0.017128,0.00835419,0.0133896,0.00667572,0.0191116,0.0145721,-9.97986,0.0163269,-0.00282288,0.0158691,0.00679016,0.0184631,-0.00213623,0.0133896,0.00900269
39,9,10.0097,0,0.000305176,-2.42776,0.0550706,-0.0756734,0.0544332,0.0709703,-0.094062,0.144098,-0.126072,-0.085317,0.0121307,0.0208664,0.0174713,0.0123215,0.016098,0.010376,0.0211334,0.0120544,-9.97986,0.0149536,0.000114441,0.0148773,0.00621796,0.0144958,-0.00396729,0.0160599,0.00831604
40,0,10.0097,0.0012207,0.000152588,-2.42653,0.0550706,-0.0756734,0.0538228,0.07036,-0.0928413,0.144098,-0.126682,-0.085317,0.0115967,0.0248718,0.0164795,0.0128174,0.0180054,0.00873566,0.019455,0.0163269,-9.97986,0.0165558,-0.00183105,0.0167847,0.00640869,0.0160217,-0.00484467,0.0144196,0.00598907
40,1,10.0097,0.000610352,0.000610352,-2.42653,0.0562914,-0.0744527,0.054128,0.07036,-0.0922309,0.145624,-0.124546,-0.0825704,0.0128937,0.02285,0.0182343,0.014267,0.0170898,0.0101471,0.0218964,0.0144196,-9.97986,0.0162125,-0.00301361,0.0133896,0.00511169,0.0190353,-0.00198364,0.0165939,0.00587463
40,2,10.0097,0.000610352,0.000610352,-2.42592,0.055681,-0.0753682,0.0550435,0.0715807,-0.0913154,0.145929,-0.125156,-0.0813497,0.0117111,0.0202179,0.0188828,0.0115967,0.0180435,0.00827789,0.0235748,0.0154114,-9.97986,0.00923157,-0.00160217,0.0106049,0.00774384,0.0172806,-0.00244141,0.0162125,0.00339508
40,3,10.0097,0.000610352,0.000152588,-2.4247,0.0578172,-0.0744527,0.0550435,0.0718859,-0.0910102,0.145929,-0.124851,-0.0810445,0.0151443,0.020256,0.0165558,0.0107574,0.0196457,0.0135803,0.0196838,0.0223923,-9.97986,0.017395,0.00137329,0.0165558,0.00961304,0.0194168,0.00244141,0.0187683,0.00694275
40,4,10.0097,0.000915527,-0.000762939,-2.42714,0.0559862,-0.075063,0.0522969,0.0401476,-0.0965034,0.145318,-0.126987,-0.0828756,0.0101471,0.0192642,0.0154114,0.0102615,0.0175858,0.0101089,0.0260162,0.0271606,-9.97986,0.0212097,-0.0018692,0.0149155,0.00778198,0.0182724,0.00110626,0.0166702,0.00953674
40,5,6.14247,0.00152588,-0.00411987,-2.42776,0.0562914,-0.0735371,0.0513814,-0.0123427,-0.100471,0.144708,-0.129123,-0.0837911,0.0128174,0.023613,0.0215149,0.0181198,0.0200272,0.0120544,0.0245667,0.0267792,-9.97986,0.021553,0.00102997,0.0207138,0.0043869,0.0185394,-0.00377655,0.0187683,0.00736237
