
Devices
1200
,,BP Load cell - Voltage,String Length - Voltage,Clutch Active - Voltage,#7 iPecs - Voltage,,,,,,,,,EMG 1-8 Left - Voltage,,,,,,,,Pylon Force - Voltage,EMG 9-16 Right - Voltage,,,,,,,,
Frame,Sub Frame,BP Load Cell,String Length,From Arduino Logic,A45,A135,A225,A315,S0,S90,S180,S270,ZSum,EMG 1 Glut Max,EMG 2 Glut Med,EMG 3 Biceps Femoris Long,EMG 4 Rectus Femoris,EMG 5 Vastus Medialis,EMG 6 Tib Ant,EMG 7 Med Gas,EMG 8 Soleus,Pylon volts,EMG 9 Glut Max,EMG 10 Glut Med,EMG 11 Biceps Femoris Long,EMG 12 Rectus Femoris,EMG 13 Vastus Medialis,EMG 14 Tib Ant,EMG 15 Med Gas,EMG 16 Soleus
,,V,V,V,V,V,V,V,V,V,V,V,V,V,V,V,V,V,V,V,V,V,V,V,V,V,V,V,V,V
1,0,10.0097,0.00152588,-0.000457764,-2.42837,0.0538499,-0.0753682,0.0538228,0.0694445,-0.0934516,0.143792,-0.126377,-0.0850118,0.00896454,0.021286,0.0139999,0.0101089,0.0297165,0.0123978,0.016861,0.0159836,-9.97986,0.0209427,-0.00514984,0.0172043,0.0391769,0.0146866,0.00709534,0.0131226,-0.0120926
1,1,10.0097,-0.00213623,0,-2.42837,0.0541551,-0.0759786,0.0535176,0.0694445,-0.0943672,0.145013,-0.126987,-0.0844015,0.0127029,0.0198746,0.0193405,0.0124359,0.0327682,0.0105667,0.0201035,0.0167847,-9.97986,0.0218964,-0.00419617,0.0255966,0.0372314,0.0157928,0.00312805,0.0114822,-0.0120544
1,2,10.0097,-0.000305176,0.000305176,-2.42745,0.0553758,-0.0747579,0.0550435,0.0697496,-0.0934516,0.145013,-0.126072,-0.0831808,0.0113678,0.0225449,0.0206757,0.0124359,0.0422668,0.00988007,0.016098,0.0149155,-9.97986,0.0185394,-0.000457764,0.0307846,0.037117,0.0183105,0.00488281,0.0146866,-0.010643
1,3,10.0097,0.000915527,-0.000915527,-2.42653,0.0544603,-0.0753682,0.0529073,0.07036,-0.0873481,0.145318,-0.125461,-0.0834859,0.00431061,0.0194931,0.0204086,0.0111771,0.0325775,0.00976563,0.0137329,0.0166702,-9.97986,0.0185013,-0.00133514,0.029335,0.034256,0.0122833,0.00209808,0.0161743,-0.0143433
1,4,10.0097,0,0.000152588,-2.42623,0.0562914,-0.0747579,0.055959,0.07036,-0.0913154,0.147149,-0.124851,-0.0816549,0.00762939,0.0224686,0.0240707,0.0144577,0.0369644,0.00957489,0.0200272,0.0151825,-9.97986,0.0189972,-0.00717163,0.0318146,0.0345612,0.0141525,0.000457764,0.0178528,-0.0112534
1,5,10.0097,0.00183105,0.000152588,-2.42409,0.0559862,-0.0735371,0.0547383,0.0712755,-0.090705,0.146844,-0.125156,-0.0813497,0.00892639,0.0212479,0.0203323,0.0134659,0.0419998,0.0127792,0.0228882,0.018158,-9.97986,0.0178909,-0.00205994,0.0309753,0.0362396,0.0126648,-0.00648499,0.0185013,-0.0145721
1,6,10.0097,-0.0012207,-0.000305176,-2.42562,0.0562914,-0.075063,0.054128,0.0724962,-0.090705,0.146844,-0.12363,-0.0816549,0.00736237,0.0217438,0.0168991,0.00934601,0.033493,0.00537872,0.0249481,0.0230408,-9.97986,0.0159836,0.000152588,0.0366592,0.0369644,0.0211716,-0.0107956,0.0193405,-0.0156021
1,7,10.0097,0.00183105,-0.000457764,-2.42348,0.0569017,-0.0735371,0.0550435,0.072191,-0.0916206,0.147149,-0.124851,-0.0798238,0.00797272,0.0227356,0.0218582,0.00667572,0.0402832,0.00831604,0.0310135,0.0156021,-9.97986,0.0172806,-0.00255585,0.0400543,0.03479,0.0197601,-0.0156021,0.0177002,-0.0173569
1,8,10.0097,0.00213623,0.000152588,-2.42623,0.0578172,-0.0744527,0.0532125,0.0535753,-0.0943672,0.145929,-0.126072,-0.0819601,0.00900269,0.0216675,0.0182343,0.0131607,0.0349045,0.0114822,0.0355911,0.0162888,-9.97986,0.0163269,-0.00591278,0.0398636,0.0352097,0.0249481,-0.0122833,0.0216675,-0.0148773
1,9,9.67183,0.0012207,-0.00198364,-2.42592,0.0572069,-0.0744527,0.0526021,0.0401476,-0.0968086,0.146234,-0.126072,-0.0813497,0.00888824,0.0230789,0.0177002,0.0148392,0.0386429,0.00331879,0.03685,0.0179291,-9.97986,0.0193405,-0.00213623,0.0428391,0.0324249,0.0221634,-0.00331879,0.0229263,-0.00934601
2,0,7.92134,0.000305176,-0.00198364,-2.42684,0.055681,-0.0738423,0.0553487,0.0511339,-0.094062,0.145929,-0.125766,-0.0819601,0.0101852,0.0202942,0.0236893,0.0129318,0.041275,0.0050354,0.0320053,0.0169754,-9.97986,0.0219345,-0.000305176,0.0430298,0.0279236,0.0189209,-0.000228882,0.025177,-0.0109863
2,1,7.36501,0.000915527,-0.000610352,-2.42531,0.0541551,-0.0747579,0.0553487,0.0618151,-0.0922309,0.145929,-0.125766,-0.0828756,0.00972748,0.0216293,0.0214767,0.00999451,0.0378418,0.00499725,0.0276184,0.0182343,-9.97986,0.0169754,-0.000343323,0.0439453,0.0235748,0.0187302,0.00728607,0.0231934,-0.0121689
2,2,7.46999,-0.00183105,-0.000305176,-2.42653,0.0544603,-0.0747579,0.055959,0.0676134,-0.0879585,0.145318,-0.126072,-0.0837911,0.00743866,0.0211716,0.0185776,0.0131989,0.0402069,0.00518799,0.0214386,0.0171661,-9.97986,0.0182724,-0.00236511,0.0496674,0.0218964,0.017128,0.013504,0.0279236,-0.00457764
2,3,8.57015,0.000915527,0.000152588,-2.42745,0.0541551,-0.0738423,0.0544332,0.0828722,-0.0910102,0.145624,-0.125156,-0.0834859,0.00823975,0.025444,0.0193405,0.014267,0.043869,0.00656128,0.0183487,0.014267,-9.97986,0.0141144,-0.00228882,0.0536728,0.0183105,0.0136948,0.0220108,0.0273514,-0.00648499
2,4,10.0097,0.000305176,0.00167847,-2.42837,0.0526292,-0.0759786,0.054128,0.105455,-0.0913154,0.145929,-0.123935,-0.085317,0.0131989,0.0226974,0.021553,0.0144577,0.0405121,0.00812531,0.00926971,0.0185394,-9.97986,0.0163651,-0.00114441,0.0503159,0.0105286,0.0152588,0.0265121,0.0296783,-0.00576019
2,5,10.0097,0.00213623,0.000457764,-2.42867,0.0529344,-0.0768941,0.0510762,0.0804308,-0.0900947,0.142877,-0.126377,-0.0880636,0.0114441,0.0222015,0.0194168,0.0144196,0.0434494,0.00259399,0.0112152,0.0138092,-9.97986,0.0221634,-0.00713348,0.0538254,0.0114441,0.00843048,0.0237274,0.028801,-0.0063324
2,6,10.0097,0.000610352,-0.000762939,-2.42867,0.0538499,-0.0768941,0.0529073,0.0740221,-0.0955879,0.142877,-0.128208,-0.0868429,0.0115585,0.0278091,0.0196075,0.0118637,0.0452805,0.00930786,0.0152588,0.0161743,-9.97986,0.0152206,-0.00267029,0.0524902,0.0104904,0.0144196,0.0237274,0.0266647,-0.00217438
2,7,10.0097,0.00213623,-0.000762939,-2.42989,0.0483568,-0.0762837,0.0510762,0.07036,-0.0949775,0.142572,-0.126987,-0.0877584,0.01194,0.0234985,0.0170135,0.0138474,0.043335,0.00423431,0.0153351,0.0188446,-9.97986,0.0196457,-0.000343323,0.0544739,0.00553131,0.0135803,0.0177002,0.0312805,-0.00114441
2,8,10.0097,-0.0012207,-0.000610352,-2.42959,0.0547655,-0.0768941,0.0519917,0.0688341,-0.0913154,0.142267,-0.127292,-0.0871481,0.0069809,0.0227737,0.0134659,0.0161743,0.0389862,0.00370026,0.0192261,0.0118256,-9.97986,0.0112915,-0.00839233,0.049057,0.00377655,0.00610352,0.0108719,0.0296402,-0.00339508
2,9,10.0097,0.0012207,-0.000610352,-2.42898,0.0532396,-0.0759786,0.0522969,0.0706652,-0.0952827,0.144403,-0.127292,-0.0865377,0.0104141,0.0218582,0.0195694,0.0159454,0.0442886,0.00679016,0.026474,0.0131989,-9.97986,0.0155258,-0.000648499,0.0553894,7.62939e-005,0.0104523,0.0156403,0.0315094,-0.000686646
3,0,10.0097,0.00274658,-0.000762939,-2.42867,0.0526292,-0.0756734,0.054128,0.07036,-0.0934516,0.144708,-0.127292,-0.0856222,0.0138855,0.0250626,0.0177765,0.0147629,0.0395584,0.00507355,0.024147,0.0177002,-9.97986,0.0182724,-0.00221252,0.0529099,-0.00518799,0.0109482,0.0148392,0.0314331,0.00305176
3,1,10.0097,0,-0.000915527,-2.42837,0.0538499,-0.075063,0.054128,0.0679186,-0.090705,0.145624,-0.126377,-0.0850118,0.0125504,0.0214005,0.0165558,0.0155258,0.0374222,0.00465393,0.0185776,0.0127029,-9.97986,0.0176239,-0.00167847,0.0563812,0.000190735,0.0137329,0.0121689,0.0333786,0.00190735
3,2,10.0097,0.000305176,-0.000610352,-2.42776,0.0547655,-0.0738423,0.0547383,0.072191,-0.0934516,0.145624,-0.126377,-0.0847066,0.00995636,0.0223923,0.0171661,0.0121689,0.0352478,0.00232697,0.0112915,0.0104523,-9.97986,0.0214005,-0.00167847,0.0577927,-0.00335693,0.0101852,0.00957489,0.0323868,-0.00125885
3,3,10.0097,0.000305176,0.000152588,-2.42684,0.0501878,-0.0747579,0.0544332,0.07036,-0.0931465,0.144403,-0.126377,-0.0840963,0.00900269,0.0222015,0.0162506,0.0172806,0.0386429,0.00366211,0.0139999,0.0136948,-9.97986,0.0180817,-0.00324249,0.0502777,-0.00507355,0.0108719,0.00904083,0.0344467,0.00225067
3,4,10.0097,0.000915527,0.000305176,-2.42684,0.0559862,-0.0741475,0.0556539,0.0700548,-0.0925361,0.146234,-0.124546,-0.0816549,0.0104141,0.0254059,0.0191498,0.0191116,0.03685,0.00507355,0.0119019,0.0158691,-9.97986,0.0160217,-0.00423431,0.0514603,-0.0114059,0.0105286,0.00682831,0.0382233,0.00286102
3,5,10.0097,0,-0.000457764,-2.42501,0.0572069,-0.0735371,0.0538228,0.0728014,-0.0931465,0.147455,-0.124546,-0.0816549,0.0113678,0.0252151,0.0169754,0.0165176,0.0352859,0.00709534,0.0122452,0.0141525,-9.97986,0.0153351,-0.00183105,0.0568771,-0.0115967,0.0123596,0.00896454,0.03685,0.00354767
3,6,10.0097,0.0012207,-0.000152588,-2.42592,0.0553758,-0.0726216,0.0544332,0.0709703,-0.0928413,0.145624,-0.123935,-0.0837911,0.00740051,0.0255966,0.0188065,0.0111771,0.0298691,0.00209808,0.018425,0.0130844,-9.97986,0.013504,-0.000114441,0.0570679,-0.0122452,0.0126648,0.0106812,0.0398254,0.00457764
3,7,10.0097,-0.000305176,-0.000610352,-2.42745,0.0565965,-0.0735371,0.0553487,0.07036,-0.0968086,0.14776,-0.12363,-0.0804342,0.00995636,0.025177,0.0205231,0.0133896,0.031662,-0.00118256,0.0161362,0.017395,-9.97986,0.018425,-0.00808716,0.055542,-0.014267,0.00286102,0.00961304,0.0395966,0.00587463
3,8,10.0097,0.000915527,-0.000152588,-2.42714,0.0569017,-0.0738423,0.054128,0.0551012,-0.0937568,0.145318,-0.126072,-0.0828756,0.00782013,0.0239182,0.0202179,0.01194,0.0296783,0.00335693,0.0139618,0.0171661,-9.97986,0.017128,-0.00598907,0.0544357,-0.0150681,0.00747681,0.00507355,0.0369644,0.00835419
3,9,9.65413,-0.000610352,-0.00137329,-2.4244,0.0620897,-0.0741475,0.054128,0.0395372,-0.0949775,0.145624,-0.126377,-0.0810445,0.00797272,0.02491,0.0236511,0.0143814,0.0301743,0.000267029,0.0135803,0.0172424,-9.97986,0.0138474,-0.00617981,0.0522614,-0.0175095,0.00743866,0.00400543,0.0350571,0.00591278
4,0,7.90212,-0.000305176,-0.00106812,-2.42898,0.0569017,-0.075063,0.0538228,0.0499132,-0.0897895,0.145318,-0.126682,-0.0810445,0.00427246,0.0279236,0.0192642,0.0109482,0.0308228,-0.00114441,0.00793457,0.0166321,-9.97986,0.0152969,-0.00179291,0.0558472,-0.0147629,0.0019455,0.00637054,0.0360107,0.00953674
4,1,7.35799,0.00152588,0.000152588,-2.42501,0.0559862,-0.0747579,0.054128,0.0605944,-0.0922309,0.146234,-0.126377,-0.0834859,0.0069046,0.0217438,0.0235367,0.0110245,0.0271988,-0.00255585,0.00972748,0.0182343,-9.97986,0.0129318,-0.00167847,0.0548935,-0.0165176,0.00377655,0.00183105,0.0354385,0.00976563
4,2,7.46511,0.00213623,-0.000152588,-2.42714,0.0498827,-0.0741475,0.0547383,0.0679186,-0.0925361,0.145624,-0.126377,-0.0837911,0.00724792,0.0261307,0.0204086,0.00869751,0.0249863,-0.00087738,0.00858307,0.0183868,-9.97986,0.0118637,-0.00469208,0.0525665,-0.0159836,0.00461578,0.00408173,0.0362015,0.01194
4,3,8.58754,0.00213623,0.000762939,-2.42287,0.055681,-0.0759786,0.0538228,0.0840929,-0.0903999,0.144098,-0.125156,-0.0834859,0.00785828,0.0247574,0.0242996,0.00900269,0.0260544,-0.00148773,0.00839233,0.0236893,-9.97986,0.0160599,-0.00762939,0.0517273,-0.0148392,0.00431061,0.00423431,0.0386429,0.0109863
4,4,10.0097,0.000305176,0.00152588,-2.42806,0.0535448,-0.0747579,0.0538228,0.105455,-0.0910102,0.143182,-0.124851,-0.0850118,0.00843048,0.0222778,0.0233078,0.0115967,0.0246811,0.00144958,0.0125122,0.0230026,-9.97986,0.0125504,-0.00423431,0.0545502,-0.019989,0.00232697,0.00343323,0.0359344,0.0108719
4,5,10.0097,0.000610352,0.000610352,-2.42959,0.0498827,-0.0775044,0.0519917,0.0816515,-0.0946723,0.143182,-0.126682,-0.0834859,0.00930786,0.0235367,0.0220108,0.00724792,0.0219345,-0.00102997,0.0157547,0.0202942,-9.97986,0.0175476,-0.00995636,0.053978,-0.0224686,0.00457764,0.00385284,0.0362015,0.00900269
4,6,10.0097,0.000305176,0.000305176,-2.43081,0.0541551,-0.0765889,0.0526021,0.0740221,-0.0955879,0.142877,-0.127903,-0.0871481,0.00808716,0.0235748,0.0209808,0.0183868,0.0259399,0.00556946,0.0142288,0.0251389,-9.97986,0.0157166,-0.00156403,0.0551987,-0.019455,0.00717163,0.00724792,0.0335312,0.0154495
4,7,10.0097,-0.000305176,-0.000152588,-2.4302,0.0535448,-0.0759786,0.0526021,0.0694445,-0.0955879,0.143487,-0.127292,-0.0880636,0.00705719,0.0232697,0.0226593,0.0246048,0.0252151,0.00968933,0.0165939,0.0306702,-9.97986,0.0141144,0.000915527,0.0532913,-0.0215149,0.00816345,0.00663757,0.0367355,0.0154877
4,8,10.0097,-0.000305176,-0.000305176,-2.42867,0.0584276,-0.0765889,0.0519917,0.0688341,-0.0949775,0.144403,-0.127292,-0.0859274,0.00782013,0.021286,0.0200653,0.0130844,0.0213242,0.00919342,0.0157166,0.011673,-9.97986,0.013504,-0.00541687,0.0551605,-0.02285,0.00984192,0.00450134,0.0357437,0.0107193
4,9,10.0097,0.00213623,-0.000152588,-2.43111,0.0532396,-0.075063,0.0513814,0.0697496,-0.0968086,0.145929,-0.126987,-0.0871481,0.0107574,0.0164413,0.0198746,0.0183105,0.0194168,0.0128555,0.0150299,0.010643,-9.97986,0.0173187,-0.00473022,0.0506973,-0.0239182,0.0122452,0.00442505,0.0395966,0.0137711
5,0,10.0097,0.0012207,-0.000457764,-2.42776,0.0550706,-0.0762837,0.0538228,0.0688341,-0.0937568,0.144403,-0.127598,-0.0859274,0.00831604,0.0200272,0.0160217,0.0151443,0.018959,0.0113297,0.0218964,0.0189972,-9.97986,0.0104523,0.00141144,0.0479126,-0.0257111,0.0138092,-0.0043869,0.030632,0.00984192
5,1,10.0097,0,-0.000152588,-2.42776,0.0520189,-0.0762837,0.0519917,0.0691393,-0.0946723,0.144403,-0.126072,-0.0837911,0.00404358,0.0201797,0.0152206,0.017128,0.0162888,0.0194168,0.0274277,0.0275421,-9.97986,0.0188446,0.000343323,0.0449371,-0.024147,0.0167084,-0.00488281,0.031395,0.0100708
5,2,10.0097,0.000305176,0.000305176,-2.4244,0.0550706,-0.075063,0.0538228,0.0712755,-0.0977241,0.145318,-0.126072,-0.0834859,0.00537872,0.0186157,0.0145721,0.0160599,0.0174332,0.0182724,0.022583,0.0229263,-9.97986,0.0105286,0.00202179,0.0432205,-0.0207138,0.0109482,-0.0043869,0.0308228,0.0122452
5,3,10.0097,0.00366211,0.000305176,-2.42653,0.0544603,-0.0741475,0.0547383,0.0697496,-0.0931465,0.145624,-0.125156,-0.0844015,0.00793457,0.0152588,0.0140381,0.0133514,0.0177002,0.0157166,0.0209808,0.0106812,-9.97986,0.0170898,-0.000915527,0.0481796,-0.0239182,0.00801086,-0.00389099,0.03582,0.0123215
5,4,10.0097,0.000610352,0.000457764,-2.4247,0.0541551,-0.0741475,0.0556539,0.0724962,-0.0919257,0.146234,-0.124851,-0.0834859,0.00812531,0.0157166,0.0177383,0.0151443,0.0134659,0.0193024,0.0207138,0.0118256,-9.97986,0.0160599,-0.000801086,0.0444031,-0.0162888,0.00553131,-0.00259399,0.0299072,0.0168991
5,5,10.0097,0.000915527,0.000305176,-2.4247,0.0559862,-0.0744527,0.0553487,0.0712755,-0.0876533,0.146844,-0.125766,-0.0813497,0.0044632,0.0136948,0.0143433,0.01091,0.0114822,0.0127792,0.0206375,0.0124741,-9.97986,0.015564,-0.00457764,0.0407791,-0.0167465,0.00511169,-0.00217438,0.0351334,0.013504
5,6,10.0097,-0.000305176,0.000305176,-2.4247,0.0565965,-0.073232,0.0544332,0.0712755,-0.0916206,0.146539,-0.123935,-0.0807394,0.00488281,0.0199127,0.0130081,0.0137711,0.0132751,0.013504,0.0198746,0.00587463,-9.97986,0.015564,-0.00366211,0.0403595,-0.0159836,0.0105667,-0.00167847,0.0325775,0.0136566
5,7,10.0097,-0.00183105,0.000457764,-2.42562,0.060869,-0.0735371,0.0568746,0.0709703,-0.0913154,0.145624,-0.124241,-0.0792135,0.00679016,0.0172424,0.0167465,0.0169373,0.0154495,0.0111008,0.02388,0.00682831,-9.97986,0.0138092,-0.00198364,0.0365067,-0.0127029,0.00354767,0.00087738,0.0356293,0.0125122
5,8,10.0097,-0.000305176,0.000762939,-2.42684,0.0569017,-0.075063,0.0532125,0.0532701,-0.0955879,0.146539,-0.125766,-0.0816549,0.00778198,0.0164032,0.0128937,0.0112152,0.00957489,0.00801086,0.0170898,-0.00328064,-9.97986,0.0133514,-0.000419617,0.0370026,-0.0117493,-0.00160217,0.0112152,0.0307083,0.0174332
5,9,9.57784,0.00244141,-0.00152588,-2.42623,0.0565965,-0.0735371,0.0535176,0.0395372,-0.0949775,0.145624,-0.127598,-0.0819601,0.013237,0.0165558,0.0169373,0.0127029,0.0112534,0.00778198,0.0183105,-0.00339508,-9.97986,0.014267,0.00522614,0.03479,-0.0141525,-0.00923157,0.01194,0.032692,0.0187683
6,0,7.82033,0.000610352,-0.00152588,-2.42592,0.0611742,-0.0738423,0.0556539,0.0499132,-0.0922309,0.146844,-0.126987,-0.0816549,0.01297,0.0192261,0.0144196,0.013504,0.00957489,0.0107193,0.0213242,0.0150681,-9.97986,0.0161743,0.00385284,0.0357819,-0.0190353,-0.00209808,0.0143433,0.0314331,0.0161362
6,1,7.2585,-0.000305176,0.000152588,-2.42379,0.0559862,-0.0747579,0.0547383,0.0596788,-0.0946723,0.146539,-0.126987,-0.0825704,0.00938416,0.0265121,0.0157928,0.01194,0.00976563,0.00305176,0.0205994,0.0344467,-9.97986,0.0174332,0.00087738,0.0334549,-0.0166702,-0.00133514,0.0157166,0.0294876,0.0204086
6,2,7.30245,0.00305176,0.000152588,-2.42745,0.0562914,-0.0738423,0.054128,0.0676134,-0.0919257,0.145624,-0.124851,-0.0837911,0.0118637,0.0296021,0.0141907,0.0112152,0.00831604,0.0107574,0.0177765,0.0310516,-9.97986,0.0177765,0.000457764,0.0283432,-0.0106812,-0.00282288,0.00965118,0.0336075,0.0199509
6,3,8.36598,0.000305176,0.000610352,-2.42714,0.0575121,-0.0744527,0.0535176,0.0834825,-0.0925361,0.143487,-0.124851,-0.0834859,0.00770569,0.0201416,0.0138855,0.0109863,0.00705719,0.00675201,0.0111771,0.0260925,-9.97986,0.0154877,0.00232697,0.0238037,-0.0144958,-0.00637054,0.00919342,0.0334167,0.0166702
6,4,10.0097,0.000305176,0.00228882,-2.42623,0.0550706,-0.0744527,0.0532125,0.108202,-0.0876533,0.143792,-0.124851,-0.0850118,0.00701904,0.0202179,0.0183868,0.0177383,0.00370026,0.00801086,0.020256,0.0289154,-9.97986,0.0154495,0.00457764,0.0247192,-0.0121689,-0.00812531,0.0114059,0.037384,0.019722
6,5,10.0097,0,0.000152588,-2.43111,0.0538499,-0.0756734,0.0526021,0.0831774,-0.0943672,0.143182,-0.126987,-0.0874532,0.00610352,0.0209808,0.014534,0.0166702,0.00591278,0.00862122,0.0204468,0.0283051,-9.97986,0.015564,0.000724792,0.0193787,-0.0138855,-0.00682831,0.00782013,0.0392532,0.0174713
6,6,10.0097,0.000610352,0.000457764,-2.42898,0.0529344,-0.0771993,0.0519917,0.0737169,-0.095893,0.144098,-0.126682,-0.0874532,0.0113678,0.0253677,0.0148773,0.0149536,0.00782013,0.00938416,0.0209808,0.0257111,-9.97986,0.0159454,3.8147e-005,0.0182724,-0.0162888,-0.0102234,0.00480652,0.0406647,0.0206757
6,7,10.0097,0.0012207,-0.000152588,-2.4305,0.0532396,-0.0762837,0.0504659,0.0709703,-0.095893,0.143182,-0.127292,-0.0871481,0.0117493,0.0272751,0.018425,0.0119781,0.00839233,0.00812531,0.0150299,0.030098,-9.97986,0.0162888,0.00751495,0.0178146,-0.0209045,-0.0109482,0.00423431,0.0408936,0.0206375
6,8,10.0097,-0.000915527,-0.000305176,-2.42867,0.0538499,-0.0765889,0.0519917,0.0697496,-0.094062,0.143487,-0.127903,-0.0871481,0.0151443,0.020752,0.0186157,0.0112915,0.00640869,0.00606537,0.0125122,0.0226593,-9.97986,0.0177383,0.00370026,0.0170517,-0.0185394,-0.00968933,0.00610352,0.0440216,0.0218582
6,9,10.0097,0.000915527,0.000152588,-2.42928,0.0559862,-0.0759786,0.0519917,0.0694445,-0.0946723,0.143182,-0.126377,-0.0862325,0.0138092,0.0226593,0.0157928,0.00980377,0.00816345,0.000343323,0.0160599,0.0167847,-9.97986,0.0180435,0.000267029,0.0115585,-0.0165176,-0.01297,0.00751495,0.0444412,0.0260162
7,0,10.0097,0.000610352,-0.000610352,-2.42684,0.0541551,-0.0762837,0.0522969,0.07036,-0.0934516,0.144708,-0.127292,-0.085317,0.00782013,0.0312042,0.022049,0.0127792,0.0137711,0.00621796,0.00778198,0.0160599,-9.97986,0.0170135,0.00484467,0.0119781,-0.022316,-0.0153351,0.00621796,0.0478745,0.0250626
7,1,10.0097,-0.000610352,-0.000152588,-2.42776,0.0535448,-0.0744527,0.0529073,0.0697496,-0.0925361,0.145318,-0.125766,-0.0850118,0.00709534,0.0247192,0.0192642,0.00823975,0.0118256,0.0050354,0.0118637,0.016098,-9.97986,0.0151062,0.00713348,0.0140381,-0.0179672,-0.0114441,0.00282288,0.0483322,0.0256729
7,2,10.0097,0,0.000305176,-2.42623,0.0547655,-0.0747579,0.0535176,0.0697496,-0.0931465,0.145318,-0.125461,-0.0837911,0.0131226,0.0271988,0.0159454,0.00972748,0.0136948,0.00232697,0.00961304,0.0133133,-9.97986,0.0168991,0.00522614,0.0109482,-0.0140381,-0.0123596,0.00453949,0.0497437,0.0274277
7,3,10.0097,0.000915527,-0.000152588,-2.42684,0.0550706,-0.0744527,0.0544332,0.07036,-0.0946723,0.144403,-0.125156,-0.0837911,0.0087738,0.0245285,0.0146866,0.00637054,0.0122833,0.00514984,0.0069809,0.013504,-9.97986,0.0159073,-0.00427246,0.00526428,-0.0117874,-0.0118637,0.000457764,0.0488663,0.0297928
7,4,10.0097,0.0012207,0.000457764,-2.4244,0.0569017,-0.0738423,0.0547383,0.0712755,-0.0916206,0.145929,-0.124241,-0.0819601,0.00537872,0.0243759,0.0192261,0.00991821,0.0118256,0.00183105,0.00801086,0.0116348,-9.97986,0.0136566,-0.0019455,0.00667572,-0.0132751,-0.0123215,-0.00118256,0.0499725,0.0310516
7,5,10.0097,0.000610352,-0.000610352,-2.42623,0.055681,-0.0738423,0.054128,0.0709703,-0.0931465,0.146234,-0.123935,-0.0813497,0.0100708,0.0250244,0.0175476,0.00904083,0.0106812,0.00213623,0.0062561,0.0159073,-9.97986,0.0136566,-0.000343323,0.00663757,-0.0131607,-0.00968933,-0.00164032,0.0465012,0.031395
7,6,10.0097,0.000610352,0.000305176,-2.42501,0.0569017,-0.0738423,0.055959,0.0700548,-0.0903999,0.146539,-0.124546,-0.0816549,0.0106812,0.0236893,0.0157166,0.00930786,0.00957489,0.00312805,0.0108719,0.0214005,-9.97986,0.0169373,0.00629425,0.00144958,-0.0100327,-0.0118256,-0.00770569,0.0442505,0.0283432
7,7,10.0097,0.000915527,0,-2.4247,0.0562914,-0.0726216,0.0556539,0.0706652,-0.090705,0.14837,-0.123935,-0.0804342,0.0101852,0.0310898,0.0198364,0.0120544,0.0101471,-0.00267029,0.0125885,0.0218201,-9.97986,0.0135422,0.0169754,-0.00267029,-0.0125504,-0.0118256,-0.00362396,0.0336075,0.0322723
7,8,10.0097,0,0.000152588,-2.42562,0.0569017,-0.073232,0.0526021,0.0538805,-0.0952827,0.145318,-0.125766,-0.0828756,0.00865936,0.0286102,0.0174332,0.00804901,0.0117874,0.00244141,0.0123978,0.0220108,-9.97986,0.0165558,0.0126266,-0.00415802,-0.0101852,-0.0106812,-0.00572205,0.0305557,0.0336075
7,9,9.65291,-0.000610352,-0.00167847,-2.42684,0.0559862,-0.0726216,0.0529073,0.0395372,-0.0937568,0.146539,-0.126072,-0.0822652,0.0117111,0.0304413,0.0197601,0.0104904,0.0127029,0.00240326,0.00862122,0.0247955,-9.97986,0.0143051,0.00598907,-0.010376,-0.00671387,-0.0075531,-0.00545502,0.0231934,0.0310898
8,0,7.88503,0.000915527,-0.000610352,-2.4244,0.0569017,-0.0747579,0.0553487,0.0489977,-0.0919257,0.145624,-0.126072,-0.0816549,0.0118637,0.0297546,0.0217056,0.0101089,0.0069046,0.000152588,0.0224304,0.0205231,-9.97986,0.0164413,0.00511169,-0.00995636,-0.000419617,-0.0063324,-0.00453949,0.0130463,0.0307083
8,1,7.3412,0.000610352,0.000457764,-2.42653,0.0559862,-0.0756734,0.054128,0.0615099,-0.0931465,0.145624,-0.125766,-0.0822652,0.0111771,0.0326538,0.0159836,0.0141525,0.00782013,0.00255585,0.0253296,0.0233459,-9.97986,0.0159836,-0.000267029,-0.00831604,0.00270844,-0.00450134,-0.00267029,0.00865936,0.0288773
8,2,7.44069,0.000610352,0.000152588,-2.42592,0.0569017,-0.0735371,0.054128,0.0682238,-0.0925361,0.145318,-0.124851,-0.0825704,0.0112915,0.0293732,0.0216293,0.0111771,0.00595093,-0.00202179,0.027504,0.0206375,-9.97986,0.0147629,-0.000114441,-0.0172043,0.00259399,-0.00350952,-0.0043869,0.0133514,0.0329208
8,3,8.55092,-0.000610352,0.000762939,-2.42714,0.0544603,-0.0759786,0.0544332,0.0834825,-0.0922309,0.145013,-0.125766,-0.0831808,0.00747681,0.0285721,0.0189972,0.0125122,0.0069809,0.00164032,0.0265121,0.0190735,-9.97986,0.0147247,-0.00267029,-0.0159836,0.00366211,-0.00526428,-0.00629425,0.00968933,0.0292969
8,4,10.0097,-0.0012207,0.00228882,-2.42806,0.0562914,-0.0741475,0.0544332,0.106371,-0.0913154,0.145929,-0.123325,-0.0837911,0.010643,0.0379181,0.0222015,0.0136566,0.0025177,-0.00339508,0.0256348,0.0247574,-9.97986,0.0120926,-0.00427246,-0.0214767,0.00328064,-0.00274658,-0.000267029,0.00804901,0.0286102
8,5,10.0097,0.00152588,0.000762939,-2.42959,0.0541551,-0.0756734,0.0529073,0.0816515,-0.0961982,0.141961,-0.127292,-0.0868429,0.0117493,0.0329208,0.0205612,0.0126648,0.0117874,-0.00511169,0.0183868,0.0231171,-9.97986,0.0134659,-0.00087738,-0.0218201,0.00694275,-0.000267029,-0.00114441,0.00732422,0.0299072
8,6,10.0097,0.00152588,0.000762939,-2.42989,0.0532396,-0.0759786,0.0513814,0.0734117,-0.0965034,0.144098,-0.127903,-0.0865377,0.00713348,0.0287628,0.0206757,0.0140381,0.00648499,-0.000228882,0.0231171,0.0255585,-9.97986,0.0165939,0.0178146,-0.0186539,0.0133133,-0.0056839,0.000114441,0.00297546,0.0275421
8,7,10.0097,0.00244141,0.000152588,-2.42989,0.0538499,-0.075063,0.0519917,0.07036,-0.0949775,0.143182,-0.127598,-0.0880636,0.00946045,0.0305176,0.0210571,0.0139618,0.0043869,0.00141144,0.0211334,0.0215912,-9.97986,0.0130844,0.0217819,-0.0219727,0.0140762,-0.000648499,-0.00286102,0.00225067,0.030365
8,8,10.0097,-0.0012207,-0.000610352,-2.43081,0.0532396,-0.0759786,0.0522969,0.0697496,-0.095893,0.142572,-0.127903,-0.0871481,0.0069809,0.0250244,0.0150299,0.0108719,0.00232697,-0.00133514,0.0207901,0.0248718,-9.97986,0.0169754,0.0176239,-0.0224686,0.0116348,0.00202179,-0.0063324,-0.00328064,0.0286865
8,9,10.0097,0.000610352,-0.000305176,-2.42837,0.0532396,-0.0756734,0.0516866,0.0682238,-0.0949775,0.143487,-0.126072,-0.0871481,0.0106812,0.0254059,0.0111389,0.0143814,0.00469208,0.000953674,0.0189972,0.0242615,-9.97986,0.0138474,0.00297546,-0.0237274,0.00865936,-0.0012207,-0.00972748,-0.00389099,0.0333405
9,0,10.0097,-0.000610352,-0.00106812,-2.42898,0.0541551,-0.0756734,0.0522969,0.0697496,-0.0937568,0.143792,-0.126377,-0.0862325,0.00934601,0.0231552,0.0165558,0.0154114,0.00637054,0.000915527,0.02388,0.0213242,-9.97986,0.0140762,-0.0154877,-0.0234222,0.00827789,0.00232697,-0.00713348,-0.00530243,0.0307465
9,1,10.0097,0.000305176,-0.000152588,-2.42623,0.0562914,-0.0756734,0.0532125,0.0691393,-0.0931465,0.145929,-0.126682,-0.0850118,0.0106049,0.0225449,0.0190353,0.00968933,0.000190735,0.000572205,0.0206757,0.0211334,-9.97986,0.0132751,-0.00976563,-0.0281906,0.0104141,0.00366211,-0.0030899,-0.0136948,0.0282288
9,2,10.0097,0.00152588,0.000305176,-2.42745,0.0535448,-0.0756734,0.0532125,0.0700548,-0.0934516,0.145013,-0.125461,-0.0834859,0.0106049,0.0229263,0.0204468,0.0144577,0.000419617,-0.00087738,0.0193024,0.0271988,-9.97986,0.0151443,-0.0038147,-0.0261688,0.0115967,0.00087738,-0.0018692,-0.0143433,0.0276184
9,3,10.0097,-0.000305176,0.000305176,-2.42623,0.0553758,-0.0741475,0.0550435,0.0700548,-0.0931465,0.145318,-0.125156,-0.0831808,0.0100708,0.0226974,0.0185776,0.0151825,0.00530243,-0.00156403,0.0220108,0.0243759,-9.97986,0.0178146,-0.000190735,-0.0269318,0.0150299,0.00221252,0.00320435,-0.0140381,0.0275803
9,4,10.0097,0.000915527,0.000305176,-2.42379,0.0569017,-0.0744527,0.0562642,0.0718859,-0.0922309,0.147455,-0.124546,-0.0816549,0.00930786,0.026474,0.0183487,0.0154114,0.00289917,0.000839233,0.0216293,0.02388,-9.97986,0.017395,0.001297,-0.0234222,0.0130081,0.00350952,0.0031662,-0.0187302,0.0278091
9,5,10.0097,0.000305176,-0.000152588,-2.4244,0.0562914,-0.0744527,0.0547383,0.07036,-0.0916206,0.14776,-0.123935,-0.0807394,0.00747681,0.0190353,0.0196457,0.0133514,-0.000419617,0.00118256,0.0249481,0.0218582,-9.97986,0.0123978,-0.00179291,-0.0271988,0.0154114,0.00572205,-0.00370026,-0.0232697,0.0263977
9,6,10.0097,0.00183105,-0.000152588,-2.4247,0.0559862,-0.0735371,0.0550435,0.0712755,-0.0910102,0.146844,-0.124546,-0.0807394,0.0104904,0.0185776,0.0196457,0.012207,0.00144958,0.00274658,0.0185394,0.0251007,-9.97986,0.01297,0.000114441,-0.030632,0.0133133,0.00953674,0.00328064,-0.0239563,0.0211334
9,7,10.0097,-0.000305176,0.000457764,-2.42501,0.0569017,-0.0738423,0.0562642,0.0712755,-0.0897895,0.145929,-0.12363,-0.080129,0.00972748,0.0202942,0.0223923,0.0143814,-7.62939e-005,0.00286102,0.0246429,0.0237656,-9.97986,0.013237,0.0030899,-0.0270844,0.0121307,0.0101852,0.00411987,-0.026474,0.0224686
9,8,10.0097,0.00183105,-0.000915527,-2.42562,0.0562914,-0.0735371,0.0535176,0.0523546,-0.0949775,0.145929,-0.125156,-0.0828756,0.00934601,0.0160599,0.0186157,0.0161362,-0.00396729,0.00606537,0.0284195,0.0206375,-9.97986,0.0144958,7.62939e-005,-0.0269318,0.0170898,0.014267,0.00198364,-0.0239182,0.021553
9,9,9.47865,0.0012207,-0.0012207,-2.42592,0.0559862,-0.0735371,0.0532125,0.0383165,-0.0943672,0.146234,-0.126072,-0.0819601,0.00705719,0.0247192,0.0179672,0.0127029,-0.00141144,0.00160217,0.0302887,0.0196075,-9.97986,0.0135803,0.0050354,-0.0285721,0.0136948,0.0115585,-0.00198364,-0.0266266,0.0205231
10,0,7.73915,0.000610352,-0.0012207,-2.42501,0.0562914,-0.0747579,0.054128,0.0493029,-0.0931465,0.145624,-0.126377,-0.0819601,0.01091,0.0189209,0.0170898,0.010643,-0.000724792,0.001297,0.0323105,0.0202942,-9.97986,0.0162125,0.00202179,-0.0267029,0.016098,0.0150299,-0.000190735,-0.0286102,0.0169754
10,1,7.15749,0,-0.000457764,-2.42562,0.0547655,-0.0756734,0.0547383,0.0624254,-0.0922309,0.146539,-0.126377,-0.0822652,0.0117493,0.0170517,0.0157928,0.0119781,0.000114441,0.00934601,0.0315475,0.0179291,-9.97986,0.0113678,0.00476837,-0.0246429,0.018158,0.0157928,0.00514984,-0.025444,0.019455
10,2,7.22493,0.00213623,0,-2.42592,0.0559862,-0.0741475,0.0550435,0.0676134,-0.0913154,0.146539,-0.126377,-0.0834859,0.0170517,0.0178146,0.0214005,0.0139999,0.00179291,0.00759125,0.0282288,0.0258255,-9.97986,0.0115585,0.000457764,-0.0254059,0.0150681,0.0152588,-0.000610352,-0.0305557,0.0196457
10,3,8.32936,0.000305176,0.000762939,-2.4247,0.0550706,-0.0747579,0.0535176,0.0828722,-0.0913154,0.145013,-0.125461,-0.0837911,0.00873566,0.0173187,0.0125885,0.0141525,0.00228882,0.0037384,0.0229645,0.0213623,-9.97986,0.012207,-0.000991821,-0.0257874,0.00766754,0.0162888,-0.00473022,-0.0279236,0.0161362
10,4,10.0097,0.00152588,0.00228882,-2.42653,0.0559862,-0.0756734,0.0544332,0.110338,-0.0894843,0.144403,-0.12363,-0.085317,0.0113678,0.0174713,0.0203323,0.0147247,0.0063324,0.00713348,0.021019,0.0255203,-9.97986,0.0134277,0.00087738,-0.0194931,0.00812531,0.0234222,-0.00236511,-0.0256348,0.0196838
10,5,10.0097,-0.0012207,0.000305176,-2.42806,0.0544603,-0.075063,0.0529073,0.0828722,-0.0949775,0.141961,-0.126072,-0.0862325,0.0082016,0.0183487,0.0172806,0.0152206,0.00385284,0.00400543,0.0183868,0.026207,-9.97986,0.0152206,-0.00289917,-0.0189209,0.00591278,0.0243759,-0.00236511,-0.0259399,0.019722
10,6,10.0097,0,0.000457764,-2.42928,0.0538499,-0.075063,0.0519917,0.0740221,-0.0946723,0.143792,-0.127903,-0.0868429,0.00846863,0.0107956,0.0180817,0.0127792,0.00865936,0.00595093,0.0125885,0.0268173,-9.97986,0.0150681,0.000114441,-0.0202179,0.0102997,0.0207901,-0.000801086,-0.0228119,0.0211334
10,7,10.0097,0.000610352,0.000152588,-2.42837,0.0535448,-0.0759786,0.0522969,0.0700548,-0.0971137,0.142267,-0.127598,-0.0874532,0.0115204,0.0144196,0.0175858,0.0123596,0.00450134,0.00289917,0.0124741,0.0283051,-9.97986,0.014534,0.00209808,-0.0163651,0.00770569,0.022316,-0.0019455,-0.0240707,0.0217056
10,8,10.0097,-0.000915527,-0.000457764,-2.42989,0.0535448,-0.0759786,0.0522969,0.0688341,-0.095893,0.142877,-0.127903,-0.0865377,0.0128174,0.0151062,0.0178909,0.0101852,0.0111389,0.00865936,0.0191116,0.0297165,-9.97986,0.01297,-0.00434875,-0.0181961,0.0082016,0.0224686,-0.00602722,-0.0258636,0.0164413
10,9,10.0097,0.00152588,0.000152588,-2.42898,0.0529344,-0.0747579,0.0522969,0.0694445,-0.0937568,0.144403,-0.127598,-0.0871481,0.0101471,0.0164032,0.0164032,0.00774384,0.00171661,0.00225067,0.0251007,0.0226593,-9.97986,0.00965118,0.00263214,-0.0184631,0.0087738,0.0297928,-0.00385284,-0.0232315,0.0161362
11,0,10.0097,-0.0012207,-0.000457764,-2.42806,0.0538499,-0.0756734,0.0516866,0.0694445,-0.0980293,0.143487,-0.127292,-0.085317,0.00843048,0.016098,0.0164795,0.00812531,0.00782013,0.00930786,0.0330353,0.0210571,-9.97986,0.0139618,-0.00198364,-0.0132751,0.00324249,0.0347137,-0.00686646,-0.0214005,0.0146866
11,1,10.0097,0.000610352,-0.000305176,-2.42745,0.0538499,-0.0747579,0.0544332,0.0697496,-0.0931465,0.143792,-0.126682,-0.0847066,0.0102997,0.018692,0.0194168,0.0069809,0.00858307,0.00488281,0.0284576,0.0265121,-9.97986,0.0138855,-0.000991821,-0.0165939,0.00389099,0.0374985,-7.62939e-005,-0.0172424,0.0174713
11,2,10.0097,-0.000305176,0.000305176,-2.42745,0.055681,-0.075063,0.054128,0.0694445,-0.0943672,0.145013,-0.125766,-0.0834859,0.0166702,0.0223541,0.0181198,0.0113678,0.00736237,0.00228882,0.022049,0.0230789,-9.97986,0.0170135,-0.000991821,-0.010643,0.00587463,0.0377655,-0.000915527,-0.0190353,0.0136566
11,3,10.0097,-0.00274658,-0.000305176,-2.42562,0.0544603,-0.0738423,0.0544332,0.0700548,-0.0949775,0.145013,-0.124851,-0.0834859,0.0131989,0.018692,0.0165939,0.00995636,0.0107574,0.00793457,0.0234985,0.0220108,-9.97986,0.0136566,-0.00038147,-0.013504,0.00389099,0.0372314,-0.00331879,-0.0192642,0.0136566
11,4,10.0097,0.000305176,0.000457764,-2.42562,0.0559862,-0.0747579,0.0532125,0.0700548,-0.0910102,0.147455,-0.125156,-0.0813497,0.0146866,0.0196457,0.0211334,0.00988007,0.0137711,0.00682831,0.0131607,0.0211334,-9.97986,0.0144958,0.000610352,-0.0104904,0.00293732,0.0420761,-0.0056839,-0.0208282,0.0168991
11,5,10.0097,0.000305176,0.000762939,-2.4244,0.055681,-0.0735371,0.0547383,0.0706652,-0.0922309,0.146234,-0.124241,-0.0819601,0.0128555,0.0152206,0.021019,0.00747681,0.00972748,0.00541687,0.00732422,0.0237656,-9.97986,0.0157928,0.00038147,-0.0094986,0.00305176,0.0459671,-0.0102997,-0.0130463,0.0111771
11,6,10.0097,-0.000610352,-0.000610352,-2.42501,0.0562914,-0.0744527,0.0553487,0.0718859,-0.0922309,0.147455,-0.124241,-0.0810445,0.0101471,0.0181198,0.0183487,0.00904083,0.00831604,0.00598907,0.0107956,0.0214767,-9.97986,0.0102615,0.0031662,-0.00370026,-0.00087738,0.045929,-0.00774384,-0.0130463,0.0118256
11,7,10.0097,0.000610352,0.00106812,-2.42501,0.0569017,-0.073232,0.0547383,0.0715807,-0.0913154,0.146844,-0.124546,-0.0810445,0.00976563,0.0170898,0.0159836,0.00946045,0.0075531,0.00671387,0.0235748,0.0211716,-9.97986,0.0152969,-0.00160217,0.000267029,0.0030899,0.04776,-0.00907898,-0.0110626,0.0107574
11,8,10.0097,0.000915527,0.000610352,-2.42531,0.0596483,-0.0738423,0.0538228,0.054796,-0.094062,0.145929,-0.127292,-0.0825704,0.0177002,0.0167465,0.0159836,0.0163269,0.00793457,0.00679016,0.030098,0.0248718,-9.97986,0.0188065,0.00152588,0.00377655,0.00915527,0.0553131,-0.00995636,-0.0120163,0.00904083
11,9,9.68251,0,-0.000610352,-2.42623,0.0565965,-0.0738423,0.0538228,0.0398424,-0.0952827,0.145929,-0.126072,-0.0816549,0.01194,0.0206757,0.0217819,0.0139236,0.00583649,0.00770569,0.0270081,0.0239944,-9.97986,0.0130844,0.00160217,0.00038147,0.0121307,0.054245,-0.0140762,-0.00911713,0.00534058
12,0,7.90486,0.000610352,-0.00137329,-2.42562,0.0562914,-0.0747579,0.054128,0.0480822,-0.0925361,0.147455,-0.126072,-0.0822652,0.0123596,0.0204086,0.0165558,0.0145721,0.0094986,0.00762939,0.0226974,0.020256,-9.97986,0.0114441,-0.00522614,0.00873566,0.0184631,0.0572968,-0.0117493,-0.00904083,0.0104523
12,1,7.30275,0.000610352,-0.000305176,-2.42745,0.0569017,-0.0747579,0.0538228,0.0608995,-0.0900947,0.145929,-0.125766,-0.0828756,0.0119781,0.0205612,0.0211716,0.0141525,0.00736237,0.00801086,0.0210953,0.0212479,-9.97986,0.0128555,0.00293732,0.0115585,0.0184631,0.0600052,-0.0162125,-0.00659943,0.00812531
12,2,7.35066,0.000610352,0.000762939,-2.42653,0.0547655,-0.0747579,0.0547383,0.0679186,-0.090705,0.146234,-0.124546,-0.0831808,0.0106812,0.0252914,0.0195694,0.0167084,0.00980377,0.0115585,0.0207138,0.0211334,-9.97986,0.0159836,0.000457764,0.0133896,0.0206375,0.0565338,-0.01091,-0.00553131,0.00629425
12,3,8.41969,0,0.00106812,-2.42684,0.0535448,-0.0756734,0.0550435,0.082567,-0.0900947,0.144403,-0.124851,-0.0831808,0.0109863,0.0262833,0.0185394,0.0117493,0.01194,0.00507355,0.0160599,0.0252533,-9.97986,0.0132751,0.000801086,0.0133896,0.0202942,0.0619507,-0.0127792,-0.000190735,0.00709534
12,4,10.0097,-0.000610352,0.00259399,-2.42806,0.0599535,-0.0744527,0.0529073,0.107591,-0.0922309,0.144098,-0.123935,-0.0850118,0.0146103,0.0239944,0.0294113,0.0128174,0.0117874,0.00900269,0.0101089,0.0196075,-9.97986,0.0075531,-0.00114441,0.0136185,0.021019,0.0616455,-0.0125504,0.000572205,0.00183105
12,5,10.0097,0,0.000610352,-2.42959,0.0532396,-0.0753682,0.0513814,0.0813463,-0.0961982,0.143792,-0.126072,-0.0877584,0.0147247,0.0275421,0.0305939,0.0122833,0.0130844,0.0130463,0.0148773,0.0194168,-9.97986,0.01091,0.00385284,0.0164413,0.0202179,0.0615311,-0.00896454,0.00137329,0.00331879
12,6,10.0097,-0.000305176,-0.000305176,-2.42959,0.0535448,-0.0762837,0.050771,0.0737169,-0.0955879,0.143792,-0.127292,-0.0871481,0.014267,0.0284958,0.0318527,0.0132751,0.0142288,0.0120163,0.0162125,0.0137329,-9.97986,0.00858307,-0.00118256,0.0159073,0.0181961,0.0591278,-0.01091,0.00320435,0.00305176
12,7,10.0097,-0.00244141,-0.000762939,-2.42898,0.0559862,-0.075063,0.0522969,0.07036,-0.0955879,0.144098,-0.127292,-0.0868429,0.0154114,0.0326157,0.0284958,0.00892639,0.0102997,0.00774384,0.0145721,0.0105286,-9.97986,0.0114059,0.00484467,0.0179672,0.0220108,0.0590134,-0.0128174,0.00534058,0.00205994
12,8,10.0097,-0.000915527,-0.000457764,-2.42959,0.0541551,-0.0759786,0.0522969,0.0688341,-0.0937568,0.142267,-0.127292,-0.0874532,0.01297,0.0284576,0.0312042,0.0075531,0.0136948,0.0142288,0.0157547,0.00873566,-9.97986,0.0114059,-0.00236511,0.021286,0.0209427,0.0536728,-0.0186539,0.00682831,-0.000724792
12,9,10.0097,0,0.000152588,-2.42928,0.0550706,-0.075063,0.0516866,0.07036,-0.0952827,0.144403,-0.126987,-0.0865377,0.0165939,0.00881195,0.0310516,0.0100327,0.0130463,0.0128555,0.0308609,0.0111008,-9.97986,0.0158691,0.00392914,0.0257874,0.0294495,0.0576782,-0.0119019,0.0163651,0.00289917
13,0,10.0097,0.0012207,-0.000457764,-2.42806,0.0514085,-0.0762837,0.0529073,0.0694445,-0.0946723,0.143182,-0.126072,-0.085317,0.0140381,0.00743866,0.0270844,0.00530243,0.0153351,0.00728607,0.0329971,0.00652313,-9.97986,0.0107956,-0.00133514,0.0234604,0.0244522,0.0566483,-0.0207901,0.0148773,0.00301361
13,1,10.0097,-0.00152588,-0.000152588,-2.42653,0.055681,-0.0747579,0.0532125,0.0700548,-0.0931465,0.144708,-0.126377,-0.0856222,0.0152969,0.0208664,0.030899,0.00907898,0.0144958,0.00988007,0.0268173,0.0131607,-9.97986,0.0127029,-0.00442505,0.0259399,0.0243378,0.0563431,-0.0152969,0.0208282,-0.000114441
13,2,10.0097,0,-0.000610352,-2.42531,0.0559862,-0.0753682,0.0526021,0.0700548,-0.0931465,0.145318,-0.125766,-0.0847066,0.00831604,0.0267029,0.0248718,0.00499725,0.0157928,0.0127792,0.0278091,0.0101852,-9.97986,0.00507355,0.000648499,0.0319672,0.0244522,0.0570679,-0.00984192,0.0286865,-0.00156403
13,3,10.0097,-0.00152588,0.000457764,-2.42531,0.0535448,-0.0762837,0.054128,0.0697496,-0.0925361,0.144708,-0.124851,-0.0834859,0.00873566,0.0387955,0.0301361,0.00587463,0.00858307,0.0140762,0.0208664,0.0167084,-9.97986,0.0126266,0.00377655,0.0259781,0.0235367,0.0511551,-0.0145721,0.0313568,-0.00263214
13,4,10.0097,0.000305176,0.000457764,-2.4244,0.055681,-0.0744527,0.0550435,0.0712755,-0.0916206,0.146539,-0.124546,-0.0810445,0.0111771,0.0326538,0.0231171,0.00415802,0.0199509,0.0159454,0.0203323,0.0236511,-9.97986,0.0113297,-0.00225067,0.0305557,0.0274658,0.0569534,-0.0128555,0.0370789,-0.000228882
13,5,10.0097,0.00213623,0,-2.42592,0.0569017,-0.0744527,0.0553487,0.0712755,-0.0922309,0.14776,-0.125156,-0.0810445,0.00865936,0.0296783,0.0255966,0.00392914,0.0143051,0.0143433,0.0185394,0.0215149,-9.97986,0.0159836,-0.00732422,0.0315094,0.0271225,0.0576782,-0.0193787,0.0388718,0.00102997
13,6,10.0097,-0.00183105,0,-2.42531,0.0550706,-0.0735371,0.0547383,0.0697496,-0.0916206,0.145013,-0.124851,-0.0816549,0.0087738,0.0291824,0.0234604,0.00190735,0.0169373,0.01194,0.0251389,0.0236511,-9.97986,0.0106812,-0.0135803,0.0289536,0.0151443,0.0476837,-0.0265503,0.0392151,-0.00305176
13,7,10.0097,0.0012207,0.000457764,-2.4244,0.0569017,-0.073232,0.0550435,0.0724962,-0.0913154,0.14837,-0.124851,-0.080129,0.0142288,0.0262451,0.0173187,0.00919342,0.0222015,0.016098,0.0317001,0.0279999,-9.97986,0.0263214,0.00648499,0.041275,0.0320435,0.0603867,-0.00976563,0.0549698,0.0043869
13,8,10.0097,-0.000610352,-0.00106812,-2.42592,0.0550706,-0.0741475,0.0538228,0.0532701,-0.095893,0.145013,-0.126072,-0.0828756,0.0101089,0.00457764,-0.00507355,0.00823975,0.00473022,0.0114822,0.0254059,0.0151825,-9.97986,0.00984192,0.000801086,0.0330734,0.0108337,0.0475311,-0.0246429,0.0410843,-0.0115585
13,9,9.70906,0.000915527,-0.00152588,-2.4244,0.0569017,-0.0747579,0.0532125,0.0398424,-0.0943672,0.144403,-0.126072,-0.0828756,0.0189209,0.00488281,0.00484467,0.0219727,0.0252533,0.0209808,0.0318146,0.0302124,-9.97986,0.0209427,0.0131989,0.0392151,0.0151825,0.0568771,-0.0172424,0.0447083,-0.00549316
14,0,7.93111,0.000305176,-0.00167847,-2.42714,0.0553758,-0.0747579,0.0544332,0.0502184,-0.0922309,0.146844,-0.125766,-0.0819601,0.00801086,0.00450134,0.00209808,0.00801086,0.0121307,0.0114822,0.0185394,0.0243759,-9.97986,0.0203705,0.00267029,0.0375366,0.0168991,0.0535965,-0.0135803,0.0506973,-0.00579834
14,1,7.35921,0.000610352,-0.000457764,-2.42653,0.0550706,-0.0747579,0.0547383,0.059984,-0.0919257,0.147149,-0.125766,-0.0825704,0.00743866,0.0206375,0.0105286,0.0141144,0.0187683,0.0146103,0.0247574,0.019722,-9.97986,0.0159454,-0.00198364,0.037117,0.014534,0.0442123,-0.0177002,0.054512,-0.00431061
14,2,7.46541,0.000915527,-0.000152588,-2.42714,0.0569017,-0.075063,0.0529073,0.0694445,-0.0925361,0.147149,-0.126377,-0.0837911,0.0118256,0.0263977,0.0168991,0.0118637,0.0191116,0.0120544,0.026741,0.0172043,-9.97986,0.0191879,-0.00175476,0.0372696,0.00839233,0.0448227,-0.0193787,0.0526428,-0.00740051
14,3,8.57869,0.00152588,0.000762939,-2.42776,0.0553758,-0.0744527,0.0550435,0.082567,-0.0913154,0.145318,-0.126682,-0.0828756,0.00976563,0.0317764,0.0207138,0.0127792,0.0180817,0.0164795,0.031662,0.0205231,-9.97986,0.0200272,-0.00572205,0.0393677,0.00118256,0.0460434,-0.0218964,0.0572205,-0.00205994
14,4,10.0097,0.000915527,0.00183105,-2.42867,0.0538499,-0.075063,0.0538228,0.106981,-0.0910102,0.144098,-0.122715,-0.0850118,0.0128937,0.0328827,0.0244522,0.00946045,0.0170517,0.0115967,0.0297928,0.0202179,-9.97986,0.0115967,-0.00354767,0.0372696,0.00312805,0.0432968,-0.0183105,0.0585556,-0.0106812
14,5,10.0097,0.00244141,0.000152588,-2.42867,0.0523241,-0.0759786,0.0516866,0.080736,-0.095893,0.143487,-0.126987,-0.0868429,0.010643,0.0415421,0.0242233,0.00675201,0.0211334,0.0102997,0.033226,0.0225449,-9.97986,0.0157928,-0.00225067,0.0387573,0.00492096,0.0407028,-0.017395,0.0569916,-0.0130081
14,6,10.0097,0.000610352,0.000610352,-2.42867,0.0538499,-0.0762837,0.0532125,0.0746324,-0.0961982,0.143792,-0.126987,-0.0862325,0.0141144,0.0395966,0.0352859,0.00442505,0.0199509,0.0146103,0.033989,0.0245667,-9.97986,0.0135422,0.00629425,0.0403595,0.00774384,0.0418472,-0.0157547,0.0550461,-0.0103378
14,7,10.0097,-0.0012207,-0.000305176,-2.42928,0.0544603,-0.0756734,0.0516866,0.0706652,-0.0946723,0.143792,-0.128208,-0.0877584,0.0127411,0.0437164,0.0350571,0.00511169,0.0210953,0.0114822,0.0382233,0.0302124,-9.97986,0.0160599,-0.00652313,0.0379181,0.00339508,0.0350189,-0.0170898,0.0566483,-0.0138855
14,8,10.0097,-0.000915527,0.000152588,-2.42928,0.0535448,-0.0759786,0.0522969,0.0691393,-0.0946723,0.143182,-0.127598,-0.0868429,0.014534,0.0486755,0.0403595,-0.000610352,0.0203705,0.00904083,0.0389099,0.0356674,-9.97986,0.0108719,-0.00221252,0.0361633,-0.000343323,0.0388718,-0.0159454,0.0578308,-0.01194
14,9,10.0097,-0.000915527,-0.00106812,-2.42837,0.0532396,-0.0756734,0.0529073,0.0682238,-0.094062,0.144708,-0.127292,-0.0859274,0.0124359,0.0521088,0.0396347,-0.00713348,0.0174713,0.0141907,0.0418091,0.0348282,-9.97986,0.0103378,-0.00347137,0.038414,0.00335693,0.0325394,-0.0141144,0.058403,-0.0147629
15,0,10.0097,-0.00274658,0.000152588,-2.42745,0.0550706,-0.0756734,0.0532125,0.0691393,-0.0949775,0.144098,-0.126682,-0.0847066,0.0136185,0.0605011,0.0310516,-0.00743866,0.0160217,0.0130463,0.0407791,0.0158691,-9.97986,0.00602722,-0.00591278,0.0383759,0.00396729,0.0292206,-0.0183868,0.0592422,-0.0210953
15,1,10.0097,0.000305176,0,-2.42745,0.0550706,-0.075063,0.0535176,0.0691393,-0.0931465,0.144098,-0.126072,-0.0844015,0.0115967,0.0515366,0.0291443,0.00865936,0.0151443,0.0122452,0.0397491,0.0144196,-9.97986,0.0136948,-0.00553131,0.031395,0.00713348,0.0329208,-0.0208664,0.0637817,-0.0168991
15,2,10.0097,0.0012207,0.000152588,-2.42714,0.0544603,-0.0753682,0.0529073,0.0700548,-0.0937568,0.143792,-0.126377,-0.0850118,0.0122452,0.039711,0.0201797,0.0234604,0.0178909,0.0170898,0.0374603,0.0317764,-9.97986,0.0141525,0.0043869,0.0378418,0.00392914,0.0311279,-0.0189209,0.0575638,-0.0183105
15,3,10.0097,0.000305176,0,-2.42714,0.0547655,-0.0747579,0.0556539,0.0697496,-0.0922309,0.146234,-0.126377,-0.0831808,0.0134659,0.0276947,0.0126648,0.027771,0.0211716,0.00511169,0.0368881,0.0354385,-9.97986,0.00881195,0.00621796,0.038147,0.0088501,0.0260544,-0.0159073,0.059433,-0.0169373
15,4,10.0097,-0.000610352,0.000457764,-2.42562,0.0550706,-0.0741475,0.0553487,0.0715807,-0.0922309,0.146234,-0.124546,-0.0813497,0.013237,0.00522614,0.00988007,0.0286484,0.0211716,0.014267,0.0360107,0.0260544,-9.97986,0.0160217,0.00606537,0.0410461,0.0030899,0.0224686,-0.0176239,0.0543976,-0.0152588
15,5,10.0097,0.000610352,0.000305176,-2.42592,0.0559862,-0.0723164,0.0550435,0.0706652,-0.0922309,0.146234,-0.123935,-0.0819601,0.00934601,0.00762939,0.00576019,0.0210953,0.0203705,0.01297,0.0373077,0.0179291,-9.97986,0.0207138,-0.000762939,0.0378418,0.00545502,0.0191116,-0.014267,0.0524521,-0.0141907
15,6,10.0097,0.000915527,0.000305176,-2.4247,0.0559862,-0.0744527,0.0544332,0.0706652,-0.0922309,0.146234,-0.12363,-0.0807394,0.00583649,0.0069809,0.00179291,0.0160599,0.0223923,0.0117874,0.041008,0.0359726,-9.97986,0.0189972,-0.000610352,0.0421906,0.00766754,0.0198364,-0.0114059,0.0535965,-0.0136566
15,7,10.0097,-0.000915527,0.000457764,-2.42501,0.0547655,-0.0738423,0.0547383,0.0724962,-0.0910102,0.147149,-0.12363,-0.0810445,0.00663757,-0.00286102,0.00114441,0.0114059,0.0214005,0.0125122,0.0366211,0.0534439,-9.97986,0.0203323,-0.00564575,0.0394821,0.0044632,0.0184631,-0.0082016,0.0535583,-0.0141525
15,8,10.0097,-0.00152588,0.000305176,-2.42531,0.0562914,-0.0735371,0.0538228,0.0538805,-0.094062,0.146539,-0.124546,-0.0819601,0.0038147,-0.00701904,-0.00415802,0.00598907,0.0224304,0.0082016,0.0339508,0.0402069,-9.97986,0.0145721,-0.00461578,0.0347519,0.00595093,0.0130081,-0.0143433,0.0490189,-0.0129318
15,9,9.72554,-0.00152588,-0.00137329,-2.42592,0.0572069,-0.0744527,0.0529073,0.0395372,-0.0934516,0.147149,-0.126377,-0.0819601,0.00518799,-0.0025177,0.00469208,0.000991821,0.0207901,0.00995636,0.0352478,0.025444,-9.97986,0.0126648,0.00385284,0.0396729,0.00938416,0.014534,-0.00793457,0.0505447,-0.0104523
16,0,7.91127,0,-0.000610352,-2.42562,0.0553758,-0.0738423,0.0556539,0.0499132,-0.0928413,0.146234,-0.127598,-0.0816549,0.00789642,-0.000343323,-0.0031662,-0.015564,0.0177002,0.0113297,0.0379181,0.0135803,-9.97986,0.0157928,0.0082016,0.0315094,0.00637054,0.0123978,-0.0168991,0.0505829,-0.00972748
16,1,7.34395,-0.000305176,-0.000305176,-2.42562,0.0559862,-0.0735371,0.054128,0.0608995,-0.090705,0.146844,-0.126682,-0.0822652,0.0103378,0.00335693,0.00579834,-0.0291824,0.0225449,0.0102615,0.0392151,-7.62939e-005,-9.97986,0.00961304,-0.0037384,0.0327301,0.00999451,0.0122452,-0.0141144,0.0442123,-0.00610352
16,2,7.42299,0.00305176,-0.000305176,-2.42562,0.0547655,-0.0735371,0.0535176,0.0682238,-0.0925361,0.145318,-0.126377,-0.0828756,0.00759125,0.00991821,0.00511169,-0.0383759,0.0201035,0.0110626,0.0426865,-0.0167084,-9.97986,0.0146103,-0.00518799,0.0292587,0.0107193,0.0123978,-0.0139999,0.0452042,-0.00545502
16,3,8.54177,-0.000915527,0.00106812,-2.42623,0.0553758,-0.0747579,0.0535176,0.0834825,-0.0916206,0.144098,-0.125461,-0.0834859,0.00831604,0.0162125,-0.00358582,-0.0415802,0.0175476,0.00785828,0.0352478,-0.0123215,-9.97986,0.0115204,-0.00495911,0.0289536,0.0104523,0.0137329,-0.0190735,0.0440979,-0.00358582
16,4,10.0097,0,0.00228882,-2.42867,0.0535448,-0.0759786,0.054128,0.10576,-0.0894843,0.144403,-0.124241,-0.0847066,0.00907898,0.0185013,-0.000572205,-0.0624084,0.0272751,0.00923157,0.0345993,-0.01091,-9.97986,0.0108719,0.00144958,0.0309372,0.00953674,0.0110626,-0.0159073,0.0411606,-0.000343323
16,5,10.0097,-0.000915527,0.000457764,-2.42837,0.0526292,-0.0762837,0.0532125,0.0819567,-0.0961982,0.144098,-0.127292,-0.0871481,0.0108337,0.013504,0.00801086,-0.0775909,0.0200272,0.0134277,0.0298691,-0.0319672,-9.97986,0.0172043,-0.0037384,0.0283813,0.00991821,0.0104904,-0.0139999,0.0413895,3.8147e-005
16,6,10.0097,0,-0.000152588,-2.4302,0.0523241,-0.0768941,0.0529073,0.0749376,-0.0949775,0.143182,-0.126987,-0.0871481,0.0137329,0.00247955,0.0150299,-0.0766754,0.0212479,0.011673,0.038681,-0.0408173,-9.97986,0.0135803,-0.00713348,0.0270844,0.00762939,0.00953674,-0.0121307,0.0365829,0.00144958
16,7,10.0097,0.000610352,-0.000457764,-2.42867,0.0544603,-0.0768941,0.0529073,0.0706652,-0.0965034,0.143182,-0.127903,-0.0883688,0.0174332,-0.00621796,0.0191116,-0.0426865,0.0209045,0.00919342,0.0421906,-0.0263977,-9.97986,0.0179291,-0.00591278,0.0270081,0.00961304,0.00774384,-0.0107956,0.0318909,0.000686646
16,8,10.0097,0.0012207,-0.000762939,-2.42806,0.0535448,-0.0756734,0.0522969,0.0691393,-0.0946723,0.143487,-0.126682,-0.0877584,0.0266647,0.0102615,0.0213623,-0.0129318,0.021019,0.00907898,0.0429153,-0.015564,-9.97986,0.013504,-0.00114441,0.0247955,0.0122833,0.0056839,-0.00907898,0.0293732,0.00671387
16,9,10.0097,0.00152588,-0.000457764,-2.42776,0.0547655,-0.0759786,0.0529073,0.0694445,-0.0955879,0.143487,-0.126987,-0.0868429,0.0164795,0.021019,0.0242615,0.000610352,0.019989,0.0116348,0.0463486,-0.00961304,-9.97986,0.0151825,0.00324249,0.0226593,0.0111389,0.0114822,-0.0123215,0.0302124,0.00545502
17,0,10.0097,0.000610352,-0.000915527,-2.42928,0.0547655,-0.0744527,0.0522969,0.0694445,-0.0949775,0.143487,-0.128208,-0.085317,0.0114822,0.0241089,0.0245667,0.0515747,0.0199127,0.0127792,0.0460815,-0.010643,-9.97986,0.0115204,-0.00324249,0.0216293,0.0102234,0.00404358,-0.0146484,0.0261307,0.00606537
17,1,10.0097,-0.000305176,0,-2.42653,0.0547655,-0.075063,0.0529073,0.0688341,-0.0943672,0.144098,-0.126377,-0.0844015,0.0147247,0.0217819,0.0230789,0.0905609,0.0178146,0.0102997,0.0383377,-0.00740051,-9.97986,0.0128555,-0.00480652,0.0148773,0.00656128,0.0043869,-0.0159073,0.0278091,0.00553131
17,2,10.0097,-0.000915527,-0.000305176,-2.42714,0.0559862,-0.0735371,0.054128,0.0706652,-0.0916206,0.146234,-0.125461,-0.085317,0.0112915,0.0211334,0.0311279,0.106392,0.0209808,0.0109482,0.0352859,-0.00347137,-9.97986,0.0120926,-0.000572205,0.0161362,0.00606537,0.00347137,-0.0110245,0.0253296,0.00831604
17,3,10.0097,0.000305176,0.000152588,-2.42684,0.0559862,-0.0744527,0.0532125,0.0697496,-0.0937568,0.145929,-0.125766,-0.0834859,0.0114059,0.024147,0.0284958,0.110588,0.0222778,0.00888824,0.0362396,-0.0025177,-9.97986,0.0193787,0.00164032,0.0156784,0.00282288,0.00621796,-0.00919342,0.0224304,0.00904083
17,4,10.0097,0.000915527,0.000152588,-2.42531,0.0565965,-0.0747579,0.0550435,0.0709703,-0.0922309,0.145624,-0.124546,-0.0825704,0.0113297,0.0230408,0.0330353,0.097084,0.0207138,0.00808716,0.0312805,0.00389099,-9.97986,0.019722,0.000724792,0.014267,0.00331879,0.00354767,-0.00843048,0.0193024,0.0104523
17,5,10.0097,-0.000305176,-0.000610352,-2.42562,0.0569017,-0.0735371,0.054128,0.0697496,-0.0913154,0.146539,-0.123935,-0.0813497,0.01091,0.0198746,0.0279617,0.0815964,0.0221252,0.0154877,0.0287628,0.0109482,-9.97986,0.0225067,0.00354767,0.0159073,0.00282288,-0.000991821,-0.00926971,0.0192642,0.0132751
17,6,10.0097,0.00183105,-0.000610352,-2.42501,0.0538499,-0.0726216,0.0547383,0.0694445,-0.0916206,0.145929,-0.124851,-0.0810445,0.0094986,0.0201416,0.0300598,0.0712967,0.0196457,0.0147247,0.0337601,0.0144577,-9.97986,0.0166702,0.000724792,0.0115204,0.000572205,-0.00324249,-0.00610352,0.0154877,0.0131989
17,7,10.0097,0.00152588,0.000152588,-2.4244,0.0575121,-0.0744527,0.0556539,0.0712755,-0.0919257,0.146844,-0.12363,-0.0804342,0.0115204,0.0232315,0.0320053,0.0587845,0.020752,0.0123596,0.0236511,0.014534,-9.97986,0.0231171,-0.00461578,0.0087738,-0.00152588,-0.00606537,-0.00232697,0.0141144,0.0117111
17,8,10.0097,-0.00274658,-0.000610352,-2.42745,0.0553758,-0.0735371,0.0529073,0.0523546,-0.0952827,0.147149,-0.125766,-0.0816549,0.0114059,0.0264359,0.0205231,0.0518417,0.0206757,0.015564,0.0242996,0.0188828,-9.97986,0.0206375,0.00408173,0.00495911,-0.00530243,-0.0030899,-0.00801086,0.014267,0.0135422
17,9,9.55434,0.000610352,-0.00137329,-2.42531,0.0559862,-0.0735371,0.054128,0.0389269,-0.094062,0.146234,-0.126377,-0.0816549,0.00656128,0.0261307,0.00923157,0.0514984,0.0225449,0.0172806,0.0227356,0.0177002,-9.97986,0.0207138,0.0126266,0.00453949,-0.00484467,-0.00888824,-0.00816345,0.0151443,0.0179291
18,0,7.80141,0.000915527,-0.0012207,-2.42592,0.0569017,-0.0744527,0.054128,0.0505236,-0.0931465,0.145929,-0.126072,-0.0822652,0.00793457,0.0269318,0.00667572,0.045929,0.0229645,0.0141907,0.0198746,0.0172043,-9.97986,0.0209427,0.00354767,0.00377655,-0.00915527,-0.0126266,-0.0128937,0.0147629,0.015564
18,1,7.21883,0.00213623,-0.000610352,-2.42623,0.055681,-0.0744527,0.0544332,0.0615099,-0.0931465,0.145318,-0.126072,-0.0825704,0.0107193,0.0328445,0.00930786,0.0460052,0.0215912,0.0151062,0.0222397,0.0165176,-9.97986,0.0236893,-0.00156403,0.00587463,-0.00320435,-0.0105286,-0.0151825,0.0140762,0.0138855
18,2,7.31984,0,0,-2.42684,0.0541551,-0.0741475,0.0547383,0.0685289,-0.0916206,0.144098,-0.125766,-0.0834859,0.00640869,0.034256,0.00694275,0.0386429,0.0177383,0.0163651,0.0235748,0.0167465,-9.97986,0.0218582,-0.00183105,0.00476837,-0.00572205,-0.0122833,-0.0186157,0.0139999,0.015564
18,3,8.45326,-0.000305176,0.0012207,-2.42592,0.055681,-0.0756734,0.0544332,0.0831774,-0.0928413,0.145318,-0.124851,-0.0837911,0.00419617,0.0352097,0.00579834,0.0372696,0.016861,0.0146103,0.0202942,0.0153732,-9.97986,0.0196075,-0.00766754,0.00247955,-0.00839233,-0.0151825,-0.0225449,0.0094223,0.0117874
18,4,10.0097,-0.000610352,0.00259399,-2.42806,0.0544603,-0.0762837,0.0550435,0.107286,-0.0913154,0.144708,-0.124546,-0.0850118,0.013237,0.0312424,0.00686646,0.0354385,0.0218964,0.0178909,0.0199127,0.0191879,-9.97986,0.020752,-0.00102997,0.00114441,-0.00747681,-0.0104523,-0.0204849,0.00701904,0.014801
18,5,10.0097,0.000915527,0.0012207,-2.42989,0.0535448,-0.0762837,0.0526021,0.0828722,-0.0949775,0.141351,-0.126987,-0.0868429,0.00953674,0.0273895,0.00995636,0.027771,0.0239563,0.0129318,0.0163269,0.0198746,-9.97986,0.017662,-0.00598907,-0.000839233,-0.0087738,-0.0185013,-0.0105667,0.00804901,0.0124741
18,6,10.0097,0.000915527,-0.000152588,-2.42898,0.0550706,-0.0756734,0.0522969,0.0749376,-0.0952827,0.142877,-0.126987,-0.0865377,0.0127792,0.0230408,0.00804901,0.0274277,0.0191498,0.0168228,0.0191498,0.0164032,-9.97986,0.0214767,-0.00900269,0.0018692,-0.0110626,-0.0164413,-0.0105286,0.00450134,0.0152588
18,7,10.0097,0.00152588,-0.000610352,-2.42959,0.0535448,-0.0759786,0.0532125,0.07036,-0.0955879,0.143487,-0.127903,-0.0883688,0.0100327,0.021553,0.00465393,0.024147,0.0188828,0.0122833,0.0181198,0.017662,-9.97986,0.0170898,0.00579834,-0.00202179,-0.0122452,-0.0172424,-0.00778198,0.00537872,0.013504
18,8,10.0097,0.00152588,-0.000152588,-2.42959,0.0535448,-0.0768941,0.0529073,0.0691393,-0.0961982,0.14776,-0.127903,-0.0874532,0.00774384,0.0231552,-0.001297,0.0239944,0.0193024,0.0185013,0.0132751,0.0249863,-9.97986,0.0123978,0.0115967,-0.00450134,-0.0135803,-0.0183487,-0.00408173,0.00434875,0.0123215
18,9,10.0097,0.00152588,-0.000457764,-2.42867,0.0541551,-0.0753682,0.0519917,0.0697496,-0.094062,0.143792,-0.127292,-0.0859274,0.0160217,0.022049,0.00511169,0.0215912,0.0170517,0.0178528,0.0176239,0.0224304,-9.97986,0.0154495,0.0196075,-0.00377655,-0.00526428,-0.0152588,0.00205994,0.0106812,0.0134277
19,0,10.0097,-0.000305176,-0.000305176,-2.42745,0.0547655,-0.0778096,0.0538228,0.0691393,-0.0934516,0.142877,-0.126682,-0.0859274,0.00797272,0.0214767,0.0106812,0.0208664,0.0187683,0.0178146,0.019989,0.0204086,-9.97986,0.0112915,0.0110245,-0.00450134,-0.00984192,-0.0151443,0.00591278,0.0069809,0.0103378
19,1,10.0097,0.000915527,-0.000457764,-2.42776,0.0541551,-0.0759786,0.0535176,0.0685289,-0.0928413,0.145929,-0.126987,-0.0847066,0.00801086,0.0220108,0.0101852,0.0162125,0.0223923,0.0186539,0.0204468,0.0240326,-9.97986,0.0135803,-0.00785828,-0.00556946,-0.0125122,-0.0186539,0.00263214,0.00450134,0.0082016
19,2,10.0097,-0.000915527,-0.000152588,-2.42623,0.055681,-0.0747579,0.0535176,0.0697496,-0.0925361,0.145624,-0.125766,-0.0840963,0.00595093,0.0229645,0.0178146,0.0121307,0.0204849,0.0186157,0.0148773,0.0217056,-9.97986,0.014267,-0.00198364,-0.00263214,-0.00793457,-0.0152969,0.000343323,0.00583649,0.010643
19,3,10.0097,0.000305176,0.000762939,-2.42592,0.055681,-0.069875,0.0547383,0.0700548,-0.0937568,0.144708,-0.124546,-0.0834859,0.0154114,0.0229263,0.0120544,0.0109482,0.0183105,0.0161362,0.018158,0.0246811,-9.97986,0.0170898,-0.00320435,-0.00274658,-0.0075531,-0.0152206,0.00312805,0.00740051,0.00778198
19,4,10.0097,0.000305176,0,-2.42501,0.0559862,-0.0744527,0.054128,0.0718859,-0.0919257,0.148065,-0.12363,-0.0813497,0.0118256,0.022316,0.00873566,0.0113678,0.0190353,0.0178528,0.0125885,0.0196075,-9.97986,0.0156021,-0.00663757,-0.00617981,-0.00652313,-0.0154495,0.00175476,0.00881195,0.0101089
19,5,10.0097,0.00274658,0.00152588,-2.42409,0.0559862,-0.0744527,0.0547383,0.0709703,-0.0903999,0.147149,-0.124546,-0.0825704,0.0130844,0.0236893,0.0143051,0.00762939,0.0185394,0.0140762,0.0166702,0.0177002,-9.97986,0.0129318,-0.010643,-0.00343323,-0.00465393,-0.011673,0.00518799,0.00621796,0.00610352
19,6,10.0097,0.00274658,-0.000152588,-2.4244,0.0565965,-0.0787251,0.0550435,0.0715807,-0.0922309,0.146234,-0.124241,-0.0807394,0.0110245,0.0196838,0.0170517,0.00915527,0.0191879,0.0193024,0.0143814,0.0240707,-9.97986,0.0109482,-0.00484467,-0.00541687,-0.00541687,-0.00999451,0.00473022,0.00171661,0.00591278
19,7,10.0097,0.000915527,0,-2.42501,0.0575121,-0.0744527,0.0535176,0.0728014,-0.0903999,0.14898,-0.12363,-0.080129,0.0135422,0.018158,0.0198364,0.00228882,0.0174332,0.0204086,0.0186157,0.0244522,-9.97986,0.0100708,0.00144958,-0.00663757,-0.00728607,-0.00835419,0.00335693,0.00324249,0.00576019
19,8,10.0097,0.00274658,0.000305176,-2.42623,0.0569017,-0.0756734,0.0532125,0.052965,-0.0946723,0.145318,-0.125156,-0.0819601,0.00839233,0.0268936,0.0188065,0.00343323,0.0187302,0.0159836,0.016861,0.0214386,-9.97986,0.0132751,-0.00137329,-0.00709534,-0.00785828,-0.00591278,0.00087738,0.00659943,0.00743866
19,9,9.67488,0.000915527,-0.00137329,-2.42592,0.0562914,-0.0781148,0.054128,0.0386217,-0.0937568,0.146234,-0.127292,-0.0816549,0.0141144,0.0218201,0.0206375,0.00339508,0.0163651,0.0185394,0.0162888,0.0256348,-9.97986,0.01297,-0.000991821,-0.0132751,-0.00366211,-0.00793457,-0.00167847,0.00434875,0.00434875
20,0,7.86611,0.000305176,-0.00167847,-2.42653,0.0562914,-0.0744527,0.0547383,0.049608,-0.0931465,0.147149,-0.126072,-0.0822652,0.0141144,0.0212479,0.0187302,0.00606537,0.017662,0.0165558,0.0200272,0.0190353,-9.97986,0.0128174,-0.00183105,-0.0101089,-0.00892639,-0.00598907,0.000610352,0.00110626,0.00545502
20,1,7.32472,-0.000610352,-0.000457764,-2.42653,0.055681,-0.075063,0.0547383,0.0624254,-0.0922309,0.146234,-0.126072,-0.0816549,0.0124359,0.0234985,0.022583,3.8147e-005,0.0162506,0.0166321,0.0144958,0.0213623,-9.97986,0.0124741,-0.00492096,-0.00553131,-0.00911713,-0.00240326,0.00480652,0.0050354,0.00713348
20,2,7.43154,0.00152588,-0.000152588,-2.42714,0.0553758,-0.07842,0.0538228,0.0688341,-0.0919257,0.143792,-0.125156,-0.0825704,0.00713348,0.0281143,0.0227737,0.00190735,0.0181961,0.0184631,0.0209808,0.0224686,-9.97986,0.00823975,-0.00652313,-0.00988007,-0.00377655,-0.0012207,0.00480652,0.00347137,0.00835419
20,3,8.51003,-0.0012207,0.00106812,-2.42623,0.0547655,-0.0747579,0.0553487,0.0837877,-0.0903999,0.144708,-0.124241,-0.0831808,0.0114441,0.025177,0.0191498,0.00537872,0.00862122,0.0166702,0.0180817,0.0222015,-9.97986,0.0115585,-0.000305176,-0.00907898,-0.00595093,0.001297,0.00743866,0.00366211,0.0107193
20,4,10.0097,0.00152588,0.00183105,-2.42806,0.0535448,-0.075063,0.0535176,0.107897,-0.0910102,0.144098,-0.124546,-0.085317,0.0104904,0.0235367,0.0232697,0.00278473,0.0144577,0.0127792,0.0154114,0.0237274,-9.97986,0.0114059,-0.00370026,-0.00839233,-0.00816345,0.00328064,0.0069046,0.00614166,0.0108337
20,5,10.0097,0.0012207,0.000610352,-2.4302,0.0541551,-0.0756734,0.0519917,0.0819567,-0.0946723,0.143487,-0.126072,-0.0859274,0.0134659,0.0256729,0.0169754,0.00247955,0.0168228,0.0150299,0.0190735,0.0237656,-9.97986,0.0106049,-0.00556946,-0.0106049,-0.00480652,0.00457764,0.00328064,0.00205994,0.00717163
20,6,10.0097,-0.000305176,0.000152588,-2.42959,0.0538499,-0.0756734,0.0519917,0.0731066,-0.094062,0.143792,-0.126072,-0.0865377,0.0118256,0.0221634,0.0256348,0.00133514,0.0155258,0.0141907,0.0186539,0.0211334,-9.97986,0.00896454,-0.00205994,-0.00740051,-0.00270844,0.00667572,0.00797272,0.00118256,0.00839233
20,7,10.0097,0.000305176,-0.000305176,-2.42928,0.0547655,-0.0768941,0.0516866,0.0712755,-0.0955879,0.144708,-0.127903,-0.0871481,0.0082016,0.0269699,0.0252533,-0.00228882,0.0170898,0.0149918,0.0188446,0.0220108,-9.97986,0.0130844,-0.000495911,-0.00675201,-0.00465393,0.0101471,0.00595093,-0.00167847,0.010643
20,8,10.0097,0.000915527,-0.000305176,-2.42928,0.0538499,-0.0778096,0.0522969,0.0700548,-0.0952827,0.143182,-0.128513,-0.0874532,0.0124359,0.0271225,0.0249863,0.000152588,0.0154495,0.0139999,0.0167084,0.0219727,-9.97986,0.0111771,-0.00102997,-0.00923157,-0.00343323,0.0143051,0.00644684,0.000915527,0.00846863
20,9,10.0097,0.000305176,-0.000305176,-2.42959,0.0532396,-0.075063,0.0522969,0.0682238,-0.0949775,0.145624,-0.127598,-0.0862325,0.00766754,0.0264359,0.0197983,0.000686646,0.0155258,0.0136185,0.0235748,0.019989,-9.97986,0.00778198,-0.00156403,-0.00896454,-0.00324249,0.0115204,0.00656128,-0.00392914,0.0115585
21,0,10.0097,0.000305176,-0.000152588,-2.42837,0.0547655,-0.0753682,0.0526021,0.0697496,-0.0919257,0.144098,-0.126987,-0.085317,0.00930786,0.0258636,0.0233078,-0.000305176,0.0182724,0.0144196,0.042572,0.0239182,-9.97986,0.00972748,-0.00442505,-0.00850677,0.00164032,0.0135422,0.00442505,-0.00377655,0.012207
21,1,10.0097,0.00274658,0.000305176,-2.42837,0.0538499,-0.073232,0.0547383,0.0697496,-0.0943672,0.145318,-0.126072,-0.0844015,0.0107956,0.0270081,0.0212097,-0.000190735,0.0180054,0.0143051,0.0447464,0.0231171,-9.97986,0.00984192,-0.00576019,-0.00946045,0.00324249,0.0167465,0.00473022,-0.00793457,0.012207
21,2,10.0097,-0.000915527,-0.000610352,-2.42653,0.0565965,-0.0756734,0.054128,0.0706652,-0.0946723,0.145318,-0.125156,-0.0840963,0.0100708,0.0259018,0.0247574,0.000114441,0.0174332,0.0125885,0.0365448,0.0246811,-9.97986,0.0130081,0.00164032,-0.00747681,-0.000915527,0.0173187,0.00526428,-0.00389099,0.00789642
21,3,10.0097,-0.000915527,0.000457764,-2.42684,0.0553758,-0.0744527,0.0535176,0.0697496,-0.0928413,0.144403,-0.125766,-0.0828756,0.0112152,0.0235748,0.0232697,-0.000801086,0.0165939,0.0109863,0.0163269,0.0221634,-9.97986,0.00709534,-0.00038147,-0.0123978,-0.000839233,0.0178146,-0.00160217,-0.00549316,0.00747681
21,4,10.0097,0.000305176,0.000305176,-2.4247,0.0569017,-0.0738423,0.0547383,0.0712755,-0.0931465,0.148065,-0.123935,-0.0819601,0.00740051,0.0269699,0.0242996,-0.00278473,0.0195313,0.0109482,0.00259399,0.0217438,-9.97986,0.0112534,3.8147e-005,-0.0126648,-0.000839233,0.0206757,-0.00480652,-0.00343323,0.00751495
21,5,10.0097,-0.0012207,0.000610352,-2.42592,0.0572069,-0.0741475,0.0562642,0.07036,-0.0919257,0.146539,-0.12363,-0.0828756,0.0146103,0.0297928,0.0302124,0.000801086,0.0230408,0.00854492,-0.00354767,0.0211334,-9.97986,0.0144577,0.00553131,-0.0123596,0.00259399,0.0190735,-0.00205994,-0.00247955,0.0050354
21,6,10.0097,0.000915527,0.000152588,-2.42531,0.0569017,-0.0744527,0.0544332,0.0718859,-0.0913154,0.147455,-0.123325,-0.0807394,0.00709534,0.0232697,0.0229263,-0.00289917,0.0193787,0.00858307,-0.0134277,0.0147247,-9.97986,0.0123978,-0.00583649,-0.0128555,3.8147e-005,0.0226212,-0.0025177,-0.00278473,0.00671387
21,7,10.0097,0.000915527,-0.000152588,-2.42623,0.0565965,-0.0735371,0.0544332,0.0709703,-0.0922309,0.146234,-0.124546,-0.0804342,0.00831604,0.0251007,0.0246811,0.00087738,0.022049,0.0109482,-0.00225067,0.0186157,-9.97986,0.00869751,-0.0063324,-0.00984192,-0.00183105,0.0222015,-0.00278473,-0.00423431,0.00328064
21,8,10.0097,0.000915527,0.000305176,-2.42684,0.0553758,-0.0744527,0.054128,0.052965,-0.0931465,0.146539,-0.126377,-0.0822652,0.0128174,0.0267792,0.0215912,0.000190735,0.017662,0.0107574,0.0104141,0.0186157,-9.97986,0.0130844,0.000648499,-0.00602722,-0.00038147,0.0252151,-0.00427246,-0.00225067,0.00808716
21,9,9.65444,0.000610352,-0.00137329,-2.42623,0.0578172,-0.073232,0.0535176,0.0401476,-0.0946723,0.146539,-0.126682,-0.0816549,0.0112152,0.0265503,0.0203705,-0.00305176,0.0194168,0.0104904,0.0192261,0.0162506,-9.97986,0.0133896,0.00141144,-0.0114441,-0.00179291,0.0246048,-0.00553131,-0.00144958,0.00740051
22,0,7.85848,0.000305176,-0.000457764,-2.42623,0.0559862,-0.0741475,0.0556539,0.0489977,-0.0937568,0.152948,-0.126377,-0.0822652,0.00751495,0.0258255,0.0243378,0.00362396,0.019722,0.00823975,0.0259399,0.0213623,-9.97986,0.0121307,0.0062561,-0.00602722,-0.0030899,0.029068,-0.00160217,-0.00228882,0.00846863
22,1,7.26979,0.000610352,-0.000457764,-2.42684,0.0553758,-0.073232,0.054128,0.0605944,-0.0925361,0.145318,-0.126072,-0.0822652,0.0143814,0.0233078,0.0236511,0.00282288,0.0162506,0.0131607,0.0193787,0.0242615,-9.97986,0.0119781,0.00213623,-0.00694275,-0.00110626,0.0269318,0.00259399,-0.00190735,0.00804901
22,2,7.34639,0,0.000152588,-2.42684,0.0541551,-0.0738423,0.0550435,0.0679186,-0.0934516,0.145318,-0.125766,-0.0837911,0.0117493,0.0221252,0.0203705,0.00331879,0.0259018,0.0063324,0.0201797,0.0254822,-9.97986,0.0115204,7.62939e-005,-0.00595093,-0.0025177,0.0269318,0.00457764,-0.00278473,0.0069046
22,3,8.4142,0.000610352,0.000762939,-2.42776,0.0559862,-0.0741475,0.0535176,0.0819567,-0.0916206,0.146844,-0.125156,-0.0828756,0.00968933,0.0212097,0.02491,0.0031662,0.0217056,0.00743866,0.019455,0.0229263,-9.97986,0.0121307,0.00183105,-0.00659943,-0.00335693,0.0312805,0.0112915,3.8147e-005,0.00682831
22,4,10.0097,-0.000305176,0.00335693,-2.42898,0.0535448,-0.0756734,0.0553487,0.107897,-0.0900947,0.144403,-0.124241,-0.0837911,0.0110626,0.0168228,0.0224686,0.00213623,0.0182724,0.00968933,0.018692,0.0262451,-9.97986,0.013504,-0.00198364,-0.00587463,-0.000953674,0.0313568,0.0106049,-0.00179291,0.00991821
22,5,10.0097,0.0012207,0.000610352,-2.42928,0.0535448,-0.07842,0.0522969,0.0822618,-0.095893,0.143792,-0.126987,-0.0871481,0.0087738,0.014534,0.0227356,0.00366211,0.0219345,0.0038147,0.0190353,0.0297928,-9.97986,0.0127792,0.000419617,-0.00591278,0.00209808,0.0263214,0.00934601,7.62939e-005,0.0109482
22,6,10.0097,-0.000305176,0.000305176,-2.42898,0.0547655,-0.0747579,0.0513814,0.0740221,-0.0949775,0.145318,-0.126072,-0.0877584,0.0119019,0.014267,0.0222778,0.000953674,0.0172806,0.00640869,0.0156021,0.0355148,-9.97986,0.0121689,0.00202179,-0.00804901,7.62939e-005,0.0298309,0.00953674,-0.0019455,0.00278473
22,7,10.0097,-0.000305176,-0.00244141,-2.42959,0.0541551,-0.0775044,0.0513814,0.07036,-0.0965034,0.143792,-0.127903,-0.0874532,0.0129318,0.0123596,0.0222397,0.00240326,0.018425,0.00823975,0.0113297,0.0365067,-9.97986,0.010376,0.00495911,-0.00629425,0.00514984,0.0318527,0.00999451,-0.00217438,0.00812531
22,8,10.0097,-0.000610352,0,-2.42898,0.0535448,-0.0735371,0.0516866,0.0688341,-0.0946723,0.144403,-0.127598,-0.0871481,0.0101471,0.0138092,0.022583,0.000839233,0.0233459,0.00392914,0.00679016,0.0370026,-9.97986,0.0104523,0.00133514,-0.00400543,-0.000457764,0.0291443,0.00522614,-0.00205994,0.00415802
22,9,10.0097,0.00213623,-0.000610352,-2.42898,0.0550706,-0.0765889,0.0513814,0.0706652,-0.0943672,0.148065,-0.127903,-0.0874532,0.0113678,0.0137711,0.0196075,0.00648499,0.021286,0.00541687,0.0222397,0.0324631,-9.97986,0.0125885,0.00141144,-0.00240326,-0.00244141,0.0331116,0.000305176,-0.000648499,0.000228882
23,0,10.0097,-0.000610352,-0.00198364,-2.42776,0.0550706,-0.075063,0.0535176,0.0694445,-0.0937568,0.145013,-0.126377,-0.0859274,0.014267,0.0150681,0.0241852,0.0094223,0.0189209,0.00701904,0.0289917,0.0335312,-9.97986,0.0139236,0.00415802,0.00106812,-0.00171661,0.0324249,0.00537872,0.00343323,0.00343323
23,1,10.0097,-0.0012207,-0.000305176,-2.42745,0.0550706,-0.075063,0.054128,0.0700548,-0.0934516,0.144708,-0.126072,-0.085317,0.0151443,0.011673,0.0242996,0.00556946,0.0224686,0.00610352,0.0273132,0.030098,-9.97986,0.00999451,-0.00286102,0.00205994,-0.00209808,0.0296783,0.0044632,0.00087738,0
23,2,10.0097,-0.000915527,0.000610352,-2.42592,0.0544603,-0.0756734,0.0544332,0.0712755,-0.0937568,0.148675,-0.125766,-0.0840963,0.0154495,0.00957489,0.0263596,0.0112152,0.0201035,0.00511169,0.0160599,0.0173187,-9.97986,0.00469208,-0.00198364,0.00267029,0.00183105,0.0313568,0.00286102,0.00331879,-0.000572205
23,3,10.0097,0.000610352,0.000152588,-2.42714,0.055681,-0.0738423,0.0547383,0.0691393,-0.0922309,0.145318,-0.124851,-0.0834859,0.0172806,0.0108719,0.0221252,0.00995636,0.0230026,0.000572205,0.00850677,0.0166321,-9.97986,0.0101852,0.00663757,0.00511169,0.0056076,0.0314713,0.000915527,0.00488281,-0.000610352
23,4,10.0097,0.000915527,-0.000152588,-2.42531,0.0559862,-0.0729268,0.0562642,0.0700548,-0.090705,0.146539,-0.124241,-0.0810445,0.0112152,0.00465393,0.0196838,0.00759125,0.0185013,0.000915527,-0.00038147,0.0201797,-9.97986,0.00839233,0.00701904,-0.001297,0.00038147,0.0320435,0.0025177,0.0050354,0.00038147
23,5,10.0097,0,-0.000305176,-2.42501,0.0565965,-0.073232,0.0547383,0.0706652,-0.0910102,0.145013,-0.124241,-0.0810445,0.0156403,0.0105286,0.0260162,0.00522614,0.0210953,0.00679016,0.0127411,0.0191498,-9.97986,0.00766754,0.000305176,0.00286102,-0.000915527,0.0284195,0.00759125,0.00553131,-0.00259399
23,6,10.0097,0.00213623,-0.000610352,-2.4247,0.0559862,-0.0735371,0.0553487,0.0715807,-0.0913154,0.146844,-0.123325,-0.0804342,0.0165558,0.00652313,0.0256348,0.00221252,0.0209808,-0.00152588,0.019722,0.0113678,-9.97986,0.0105667,0.00537872,0.00404358,0.00301361,0.0294495,0.00740051,0.00862122,-0.00232697
23,7,10.0097,0,-0.000152588,-2.42409,0.0569017,-0.0781148,0.0550435,0.0715807,-0.0913154,0.147149,-0.123935,-0.0807394,0.017662,0.0122452,0.0298309,0.00152588,0.0217438,0.00244141,0.0212097,0.0262833,-9.97986,0.0119019,0.00156403,0.00862122,0.00171661,0.0310135,0.0119781,0.00930786,-0.00457764
23,8,10.0097,-0.000915527,0.000305176,-2.42592,0.0569017,-0.0744527,0.0532125,0.052965,-0.0949775,0.153253,-0.125766,-0.0822652,0.0167465,0.0232315,0.0372696,0.00087738,0.021019,0.00396729,0.0203323,0.0466156,-9.97986,0.00854492,0.00293732,0.00827789,0.000762939,0.0288391,0.00965118,0.00911713,-0.00484467
23,9,9.68526,-0.000305176,-0.00244141,-2.42653,0.0575121,-0.0744527,0.0535176,0.0407579,-0.0955879,0.145624,-0.126987,-0.0822652,0.0156403,0.030899,0.0419998,0.00564575,0.0226212,0.00102997,0.0152969,0.0509262,-9.97986,0.010376,0.00358582,0.0134659,-0.00118256,0.0299454,-0.00144958,0.0108337,-0.00343323
24,0,7.91921,0.0012207,-0.000915527,-2.42562,0.055681,-0.0753682,0.0547383,0.0489977,-0.0934516,0.147149,-0.126682,-0.0825704,0.0124359,0.0471497,0.0495911,0.0124359,0.021553,0.00148773,0.0118256,0.0511169,-9.97986,0.00675201,-0.00244141,0.0105667,0.00225067,0.0318146,-0.00518799,0.014267,-0.00354767
24,1,7.41628,0.000915527,-0.000610352,-2.42653,0.055681,-0.0738423,0.0522969,0.0618151,-0.0916206,0.142572,-0.125766,-0.0828756,0.0107193,0.0534439,0.0551605,0.00511169,0.0188065,0.00171661,0.0121689,0.0594711,-9.97986,0.0109863,0.000419617,0.0146103,-0.00484467,0.0291443,-0.0110245,0.0156403,-0.00492096
24,2,7.51332,0.000610352,0.000762939,-2.42653,0.0535448,-0.075063,0.0550435,0.0676134,-0.0922309,0.144098,-0.124851,-0.0822652,0.0100708,0.0254059,0.0512695,0.00518799,0.0149918,0.00404358,0.0140762,0.0595856,-9.97986,0.00522614,-0.00480652,0.0146866,-0.00652313,0.0314331,-0.00675201,0.00854492,-0.00831604
24,3,8.66628,-0.000305176,0.000762939,-2.42776,0.055681,-0.0701802,0.0538228,0.0847032,-0.0922309,0.145624,-0.125461,-0.0831808,0.00995636,0.0371933,0.0541306,0.00419617,0.0199127,0.00331879,0.0233078,0.0327301,-9.97986,0.00957489,-0.0101471,0.0210953,-0.00404358,0.0326538,-0.00148773,0.0165558,-0.0037384
24,4,10.0097,-0.000305176,0.00244141,-2.42867,0.0535448,-0.0753682,0.0529073,0.10454,-0.0903999,0.141961,-0.123935,-0.0850118,0.00736237,0.0535583,0.0554276,0.000343323,0.0206757,0.00366211,0.0193024,0.0335312,-9.97986,0.0104141,0.00102997,0.0235748,-0.00656128,0.0311279,0.00225067,0.0108337,-0.00511169
24,5,10.0097,-0.00244141,0.0012207,-2.42898,0.0550706,-0.0762837,0.0513814,0.0801256,-0.095893,0.143487,-0.124546,-0.0868429,0.00850677,0.0514984,0.0504303,-7.62939e-005,0.0200272,0.00549316,0.0178909,0.0424194,-9.97986,0.0128937,0.00556946,0.0209427,-0.00286102,0.0289536,0.00682831,0.014801,-0.00247955
24,6,10.0097,-0.00152588,0.000915527,-2.4302,0.0541551,-0.0720113,0.0526021,0.0728014,-0.0971137,0.143487,-0.126987,-0.0868429,0.00835419,0.0585938,0.0474167,0.00167847,0.0214005,0.0018692,0.0146103,-0.00255585,-9.97986,0.0124741,0.00629425,0.0256729,-0.000152588,0.0296021,0.00892639,0.0134659,-0.00297546
24,7,10.0097,0,0.000152588,-2.42989,0.0535448,-0.0759786,0.0522969,0.0712755,-0.0955879,0.142572,-0.128818,-0.0880636,0.00926971,0.0617981,0.045166,0.0069046,0.0250626,0.00457764,0.0170898,-0.0166702,-9.97986,0.00751495,-0.00198364,0.0262451,-0.000114441,0.0250244,0.0154877,0.0141144,-0.000419617
24,8,10.0097,0.000915527,-0.0012207,-2.42898,0.0538499,-0.0756734,0.0522969,0.0694445,-0.095893,0.144708,-0.126682,-0.0871481,0.0069046,0.102005,0.0435638,0.0125122,0.0225067,0.00801086,0.0183868,-0.0201035,-9.97986,0.00572205,0.00907898,0.0260162,-0.00576019,0.0274658,0.0171661,0.0165176,0.000495911
24,9,10.0097,0.000610352,-0.000915527,-2.42806,0.0544603,-0.0729268,0.0526021,0.0688341,-0.0949775,0.143487,-0.127292,-0.0865377,0.00816345,0.138054,0.0354004,0.000839233,0.0235748,0.00305176,0.0120163,-0.0603867,-9.97986,0.00640869,-0.00190735,0.0241089,-0.00343323,0.0242233,0.0174332,0.0152206,-0.00339508
25,0,10.0097,0.000610352,0.000152588,-2.42776,0.0547655,-0.0747579,0.0526021,0.0706652,-0.094062,0.143792,-0.126682,-0.0865377,0.011673,0.123596,0.0291824,-0.0037384,0.0269318,0.00640869,0.0152588,-0.0614548,-9.97986,0.0126648,-0.0253677,0.0347137,0.00156403,0.0273514,0.0127411,0.0174332,-0.000152588
25,1,10.0097,-0.000915527,-0.000152588,-2.42714,0.0544603,-0.0753682,0.0535176,0.0691393,-0.0946723,0.144098,-0.126377,-0.0844015,0.0127029,0.0693893,0.00480652,-0.00247955,0.0250244,0.00476837,0.017662,-0.0552368,-9.97986,0.0156784,-0.0192261,0.031395,-0.00255585,0.0229263,0.00972748,0.0175095,-0.00244141
25,2,10.0097,0.0012207,-0.000457764,-2.42623,0.0544603,-0.0781148,0.0535176,0.0700548,-0.0928413,0.141961,-0.126987,-0.0840963,0.0147247,0.0148392,-0.0238419,0.00183105,0.0208664,0.00499725,0.0199127,-0.0410843,-9.97986,0.0234222,-0.0154877,0.0345993,-0.00480652,0.0277328,0.00404358,0.0121689,-0.00484467
25,3,10.0097,0.000305176,0.000152588,-2.42592,0.0550706,-0.0744527,0.054128,0.0691393,-0.0925361,0.146234,-0.124851,-0.0834859,0.0100327,0.00335693,-0.035553,0.0134659,0.0222397,0.00968933,0.0244904,-0.0328064,-9.97986,0.0281525,0.000343323,0.0342941,-0.000801086,0.0241852,-0.000267029,0.0174332,-7.62939e-005
25,4,10.0097,-0.000915527,0.000152588,-2.42501,0.055681,-0.0738423,0.0556539,0.0697496,-0.0910102,0.146539,-0.12302,-0.0822652,0.00831604,0.00598907,-0.044136,0.0167847,0.0244141,0.0056076,0.0216675,-0.0457001,-9.97986,0.026474,0.0148392,0.0369644,-0.00160217,0.0245285,-0.000648499,0.0156021,-0.000457764
25,5,10.0097,0.00152588,-0.000305176,-2.4244,0.0562914,-0.0695699,0.0556539,0.0715807,-0.0919257,0.147149,-0.124241,-0.0813497,0.00957489,0.0134659,-0.0334549,0.0210571,0.018959,0.00686646,0.0189209,-0.039444,-9.97986,0.027771,0.0376511,0.0414276,0.0018692,0.0259018,-0.00259399,0.0159836,-0.00331879
25,6,10.0097,0.00152588,-0.000762939,-2.42592,0.0572069,-0.0735371,0.0550435,0.0715807,-0.0910102,0.151727,-0.124241,-0.0807394,0.00587463,0.0115204,-0.0240326,0.0200272,0.0207138,0.0122833,0.0154877,-0.0145721,-9.97986,0.0289536,0.0419235,0.0435638,-0.00259399,0.0268936,-0.00354767,0.0156403,-0.00087738
25,7,10.0097,-0.000610352,0.000305176,-2.4244,0.0562914,-0.073232,0.0547383,0.0709703,-0.0913154,0.146844,-0.12302,-0.0810445,0.00766754,0.0063324,-0.0140762,0.0203705,0.0211716,0.00659943,0.022049,-0.000762939,-9.97986,0.028038,0.00843048,0.0421906,-3.8147e-005,0.0242233,-0.00228882,0.0167465,-0.00255585
25,8,10.0097,0.000915527,0.00106812,-2.42592,0.055681,-0.0756734,0.0526021,0.0532701,-0.0946723,0.145013,-0.126377,-0.0822652,0.0129318,-0.00492096,-0.0200653,0.0156403,0.0215149,0.011673,0.0145721,0.00350952,-9.97986,0.026741,-0.00164032,0.0451279,0.00659943,0.0275803,-0.00236511,0.0172806,-0.0037384
25,9,9.64711,-0.0012207,-0.0012207,-2.42653,0.0572069,-0.0738423,0.0532125,0.0392321,-0.0955879,0.147455,-0.126682,-0.0816549,0.0114441,-0.00793457,-0.018692,0.0110245,0.0185776,0.0069046,0.0168228,0.00320435,-9.97986,0.0279236,-0.00205994,0.0454712,-0.000457764,0.0261688,-0.000801086,0.015831,-0.00221252
26,0,7.87099,0.000610352,-0.00137329,-2.42684,0.0559862,-0.0735371,0.0547383,0.0493029,-0.0925361,0.145929,-0.126987,-0.0819601,0.0113678,-0.0102234,-0.0106812,0.0142288,0.0198364,0.0126648,0.0224304,0.00873566,-9.97986,0.0271988,0.00461578,0.0486755,0.00377655,0.02388,-0.00896454,0.017395,-0.0056076
26,1,7.3351,0,-0.000152588,-2.42684,0.0550706,-0.0714009,0.0544332,0.0608995,-0.0937568,0.146539,-0.126987,-0.0816549,0.0136185,-0.00713348,-0.00782013,0.0113297,0.0222015,0.0124741,0.0174713,0.0108337,-9.97986,0.0271988,0.0453568,0.0502396,0.00312805,0.0264359,-0.00713348,0.0196075,-0.00480652
26,2,7.46297,-0.000915527,0.000762939,-2.42714,0.0550706,-0.0747579,0.0556539,0.0682238,-0.090705,0.147455,-0.124241,-0.0831808,0.0122452,-0.00995636,-0.0129318,0.0133896,0.0236893,0.00965118,0.0203323,0.0104141,-9.97986,0.0286865,0.0444794,0.0498581,0.00549316,0.0234222,-0.00366211,0.0214005,-0.00328064
26,3,8.59975,0.00183105,0.000915527,-2.42714,0.0553758,-0.075063,0.0553487,0.0837877,-0.0910102,0.146234,-0.126072,-0.0828756,0.00537872,-0.00549316,-0.00598907,0.0160599,0.02388,0.00972748,0.0196075,0.0149155,-9.97986,0.0242233,-0.0069809,0.04673,0.00980377,0.0229645,-0.0050354,0.0174332,-0.00389099
26,4,10.0097,0.000305176,0.00228882,-2.42867,0.0562914,-0.0762837,0.0538228,0.106066,-0.0916206,0.144098,-0.123935,-0.0840963,0.0106049,0.000495911,-0.00110626,0.0157166,0.021553,0.0127792,0.0201416,0.0179291,-9.97986,0.02285,-0.0229263,0.0453568,0.00705719,0.0243378,-0.00209808,0.020256,0.000267029
26,5,10.0097,0.000305176,0.000762939,-2.42898,0.0535448,-0.0771993,0.054128,0.0813463,-0.094062,0.143487,-0.126377,-0.0874532,0.00831604,0.00465393,0.000572205,0.0154495,0.0201035,0.00827789,0.0222015,0.022049,-9.97986,0.0231934,0.00602722,0.0465775,0.0111771,0.0258255,0.000991821,0.0218582,0.00190735
26,6,10.0097,0.000610352,-0.000152588,-2.42959,0.0538499,-0.0756734,0.0513814,0.0728014,-0.095893,0.144098,-0.127903,-0.0868429,0.0135422,0.00629425,0.00328064,0.0179291,0.023613,0.01091,0.0172043,0.0288773,-9.97986,0.018959,0.00854492,0.0496674,0.0135803,0.0247574,-0.000534058,0.0204086,0.000190735
26,7,10.0097,0.000610352,-0.000305176,-2.42989,0.0529344,-0.0753682,0.0513814,0.07036,-0.0946723,0.143182,-0.128513,-0.0871481,0.0069809,0.00656128,0.00919342,0.012207,0.0288391,0.00778198,0.0195313,0.0479126,-9.97986,0.020752,0.00450134,0.0478363,0.0129318,0.0231934,-0.00114441,0.0236893,-0.00125885
26,8,10.0097,0,-0.000457764,-2.42867,0.0544603,-0.0759786,0.0516866,0.0700548,-0.0943672,0.145624,-0.128513,-0.0859274,0.00396729,0.00816345,0.013504,0.0140381,0.0224304,0.0140381,0.0163269,0.0748062,-9.97986,0.0175476,-0.00858307,0.0437164,0.0147247,0.023613,-0.000152588,0.0208282,0
26,9,10.0097,0.000610352,-0.000762939,-2.42898,0.0532396,-0.0756734,0.0532125,0.0682238,-0.0943672,0.144098,-0.131565,-0.0862325,0.00667572,0.0146103,0.0165558,0.0119019,0.0255585,0.00614166,0.0204849,0.106735,-9.97986,0.017395,-0.0135803,0.0461197,0.0124359,0.0245285,0.00278473,0.0209808,-0.000457764
27,0,10.0097,0.0012207,0.000152588,-2.42837,0.0544603,-0.0729268,0.0526021,0.0700548,-0.0937568,0.145013,-0.126987,-0.0856222,0.00667572,0.0143814,0.0206375,0.0160217,0.0205994,0.00995636,0.0220108,0.124969,-9.97986,0.0133133,-0.0122833,0.0444412,0.016098,0.0215149,-0.000686646,0.0204468,0.00038147
27,1,10.0097,0.000305176,-0.000610352,-2.42837,0.0547655,-0.0759786,0.054128,0.0697496,-0.0931465,0.145624,-0.126072,-0.0847066,0.00488281,0.0136566,0.0157547,0.0125885,0.0196838,0.00740051,0.0218201,0.135002,-9.97986,0.00617981,-0.0166702,0.0403595,0.0159073,0.0194168,-0.00644684,0.0187683,0.000495911
27,2,10.0097,-0.000915527,0.000152588,-2.42714,0.0550706,-0.0738423,0.0556539,0.0691393,-0.0928413,0.144098,-0.126377,-0.085317,0.0129318,0.0145721,0.0218582,0.0176239,0.0188446,0.0069046,0.0235748,0.119133,-9.97986,0.0117874,-0.015564,0.0409317,0.0101852,0.0247574,-0.00553131,0.0225067,0.00221252
27,3,10.0097,-0.00213623,0.000152588,-2.42592,0.0559862,-0.0756734,0.0535176,0.0697496,-0.0925361,0.145624,-0.126682,-0.0834859,0.00709534,0.0270462,0.0273514,0.0185776,0.0210953,0.00904083,0.0132751,0.0888824,-9.97986,0.00347137,-0.0088501,0.0368118,0.00854492,0.0240326,-0.00453949,0.0209427,-7.62939e-005
27,4,10.0097,-0.000915527,-0.000457764,-2.42592,0.055681,-0.0744527,0.0590108,0.0706652,-0.0922309,0.14837,-0.12363,-0.0813497,0.00709534,0.0376892,0.0442123,0.0188828,0.0195313,0.0101471,0.0149536,0.049057,-9.97986,0.000610352,-0.0113678,0.0413895,0.0162888,0.0205231,-0.00530243,0.0229263,0.00133514
27,5,10.0097,0.00152588,0.000305176,-2.4244,0.0550706,-0.0735371,0.0544332,0.07036,-0.0919257,0.145624,-0.12302,-0.0819601,0.0148773,0.0443268,0.0505447,0.026474,0.0161743,0.00911713,0.0196075,-0.00366211,-9.97986,-0.00396729,-0.0159836,0.0371933,0.0125122,0.0212479,-0.00499725,0.0220871,0.00610352
27,6,10.0097,-0.000305176,-0.000457764,-2.42531,0.0569017,-0.0744527,0.054128,0.0718859,-0.0910102,0.147455,-0.124546,-0.0813497,0.0154114,0.0554276,0.0608444,0.0259781,0.0185776,0.0123978,0.0199127,-0.0446701,-9.97986,-0.0050354,-0.0111771,0.0394821,0.0125504,0.0242996,-0.0031662,0.0227356,0.0037384
27,7,10.0097,0,0.000305176,-2.42409,0.0572069,-0.0726216,0.0556539,0.0724962,-0.0913154,0.146234,-0.12363,-0.0792135,0.0204086,0.0545883,0.0652313,0.0255203,0.0160599,0.0130081,0.0189972,-0.0735092,-9.97986,-0.000915527,-0.0121307,0.0387192,0.0159836,0.0206757,-0.000534058,0.0204086,0.0038147
27,8,10.0097,0.000305176,0.000610352,-2.42684,0.0562914,-0.075063,0.0535176,0.0541857,-0.094062,0.146844,-0.124546,-0.0819601,0.0186157,0.0637054,0.0707245,0.0189972,0.0177383,0.0178528,0.018158,-0.0923157,-9.97986,-0.00305176,-0.00793457,0.0374603,0.0149536,0.0197601,0.000267029,0.0222015,0.00102997
27,9,9.73042,0,-0.00183105,-2.42592,0.0562914,-0.0723164,0.0544332,0.0401476,-0.0946723,0.145624,-0.127292,-0.0822652,0.019455,0.0728607,0.0702667,0.0167465,0.0178909,0.0137329,0.0131226,-0.0946045,-9.97986,-0.00675201,-0.00953674,0.0323486,0.0132751,0.0206375,0.00263214,0.0227356,0.000610352
28,0,7.97505,0.000610352,-0.000610352,-2.42562,0.0559862,-0.0744527,0.0538228,0.0493029,-0.0922309,0.146539,-0.126682,-0.0828756,0.0178528,0.0763321,0.0741959,0.011673,0.0138474,0.0127792,0.0189972,-0.0758362,-9.97986,-0.0115967,-0.0139236,0.0357819,0.0157547,0.0188065,-0.00164032,0.0214386,-0.000724792
28,1,7.43947,0.00274658,-0.000610352,-2.42653,0.0559862,-0.0741475,0.054128,0.0612047,-0.0925361,0.145318,-0.124851,-0.0816549,0.0168991,0.0910187,0.078125,0.0122833,0.0191498,0.020256,0.0212097,-0.028801,-9.97986,-0.012207,-0.0111008,0.0327301,0.0175476,0.0174713,-0.00595093,0.022316,-0.00263214
28,2,7.55269,-0.0012207,0.000915527,-2.42684,0.0553758,-0.0747579,0.0550435,0.0685289,-0.0919257,0.145318,-0.125766,-0.0819601,0.0172424,0.103912,0.0762939,0.00549316,0.0172424,0.0199509,0.0211716,-0.00644684,-9.97986,-0.00377655,-0.00591278,0.0333405,0.0205231,0.0201416,-0.00267029,0.0216675,0.0019455
28,3,8.68245,-0.000610352,0.0012207,-2.42776,0.0550706,-0.0747579,0.0516866,0.082567,-0.0916206,0.142877,-0.124851,-0.0834859,0.0111389,0.101318,0.0597,0.00545502,0.0153732,0.0199127,0.0238419,-0.0120544,-9.97986,0.00995636,-0.00415802,0.0332642,0.0192642,0.021019,-0.00492096,0.0188446,0.000114441
28,4,10.0097,0.000305176,0.00213623,-2.42745,0.0550706,-0.0768941,0.0550435,0.106676,-0.0897895,0.143792,-0.125156,-0.0847066,0.0136185,0.0843048,0.0348282,0.00312805,0.0179672,0.02491,0.0217438,-0.00999451,-9.97986,0.0201416,-0.00377655,0.0312424,0.0247192,0.0203705,-0.00198364,0.0232697,0.00282288
28,5,10.0097,0.00152588,0.000762939,-2.42898,0.0538499,-0.0765889,0.0529073,0.0810411,-0.0943672,0.142267,-0.126987,-0.0868429,0.0158691,0.0515366,0.00404358,0.0109863,0.017128,0.0243759,0.0284576,-0.00526428,-9.97986,0.0271606,-0.011673,0.0293732,0.0270081,0.0163269,-0.00217438,0.0230789,0.000114441
28,6,10.0097,-0.0012207,0,-2.4302,0.0538499,-0.0753682,0.0526021,0.0746324,-0.0949775,0.143182,-0.126987,-0.0871481,0.0146484,-0.0394821,-0.0343704,0.0107574,0.0173187,0.0211334,0.0388718,-0.0030899,-9.97986,0.0302887,-0.0169754,0.0307083,0.0276566,0.0209427,-0.00644684,0.0238419,0.00259399
28,7,10.0097,0.000610352,0,-2.42867,0.0529344,-0.0762837,0.0513814,0.0700548,-0.0955879,0.142267,-0.127598,-0.0865377,0.00873566,-0.109024,-0.0518036,0.00892639,0.0177383,0.0256348,0.0411224,0.00736237,-9.97986,0.0413513,-0.0169373,0.0320816,0.0237274,0.019722,-0.00564575,0.0204468,0.00411987
28,8,10.0097,0.000305176,-0.000152588,-2.42867,0.0538499,-0.0753682,0.0519917,0.0706652,-0.0955879,0.141961,-0.126682,-0.0865377,0.00812531,-0.108337,-0.0529861,0.0103378,0.0154495,0.0234222,0.0351334,0.0136185,-9.97986,0.04673,-0.00831604,0.0267792,0.0269318,0.0185013,-0.00411987,0.0205994,0.00228882
28,9,10.0097,0,-0.000152588,-2.42898,0.0547655,-0.0762837,0.0522969,0.0694445,-0.0946723,0.145624,-0.127292,-0.0859274,0.00930786,-0.0797653,-0.0446701,0.0088501,0.0193787,0.0218582,0.0266647,0.0162125,-9.97986,0.043869,-0.00320435,0.0282288,0.0239182,0.0194168,-0.00686646,0.0242996,0.00751495
29,0,10.0097,0.00152588,-0.000915527,-2.42714,0.0541551,-0.0747579,0.0538228,0.0688341,-0.0934516,0.145013,-0.126987,-0.085317,0.0107574,-0.0627136,-0.0382233,0.0129318,0.0139999,0.0204086,0.0136185,0.0183487,-9.97986,0.0386047,0.00377655,0.0255966,0.0192642,0.018692,-0.00926971,0.0245285,0.00541687
29,1,10.0097,0.0012207,-0.000305176,-2.42684,0.0553758,-0.0738423,0.0529073,0.0697496,-0.0934516,0.146539,-0.126682,-0.0847066,0.0124359,-0.0472641,-0.0307846,0.0169754,0.0185013,0.0234985,0.0105667,0.0234604,-9.97986,0.0372314,0.00408173,0.0213242,0.0226974,0.0152206,-0.0128555,0.0244522,0.00843048
29,2,10.0097,0.00152588,-0.000305176,-2.42684,0.0553758,-0.0753682,0.0529073,0.07036,-0.0925361,0.145624,-0.126072,-0.0844015,0.00766754,-0.0310898,-0.0327682,0.0154114,0.0224304,0.0234604,0.0177765,0.0199127,-9.97986,0.031929,0.00259399,0.022049,0.0209808,0.0172806,-0.0106049,0.0235367,0.0094223
29,3,10.0097,0.0012207,0.000457764,-2.42776,0.0547655,-0.0744527,0.0556539,0.0718859,-0.0922309,0.145318,-0.125461,-0.0825704,0.00988007,-0.023613,-0.0162888,0.0103378,0.0160217,0.0207901,0.02388,0.0250244,-9.97986,0.0265884,-0.00499725,0.0215912,0.0218201,0.0165558,-0.00663757,0.0221634,0.010376
29,4,10.0097,0.000610352,0,-2.42531,0.0572069,-0.0744527,0.0556539,0.072191,-0.0928413,0.146844,-0.125156,-0.0825704,0.00835419,-0.0129318,-0.00831604,0.0104523,0.018959,0.0224686,0.0345612,0.0261307,-9.97986,0.0275421,-0.0233459,0.0207901,0.0190353,0.013504,-0.0111389,0.0234985,0.00766754
29,5,10.0097,-0.000305176,-0.000305176,-2.42379,0.0562914,-0.0741475,0.0587056,0.0709703,-0.0919257,0.146844,-0.12363,-0.0816549,0.00804901,-0.00957489,0.000495911,0.0165558,0.018692,0.0276184,0.0243759,0.0273132,-9.97986,0.0226212,-0.0159836,0.0167465,0.0188446,0.0108719,-0.0123215,0.0192261,0.0130081
29,6,10.0097,0.000610352,-0.000152588,-2.42501,0.0569017,-0.0744527,0.0556539,0.0709703,-0.0910102,0.14776,-0.124546,-0.0813497,0.0111008,0.000839233,0.00213623,0.0130463,0.021286,0.0233841,0.011673,0.0282288,-9.97986,0.0205231,-0.00682831,0.021019,0.015564,0.0143051,-0.00473022,0.0197601,0.0119019
29,7,10.0097,0.00152588,-0.000762939,-2.42409,0.0565965,-0.0759786,0.0550435,0.0718859,-0.0916206,0.146539,-0.123935,-0.080129,0.0087738,-0.00274658,0.00324249,0.00911713,0.0203323,0.0193024,0.00679016,0.0258636,-9.97986,0.0180817,-0.0123596,0.0190353,0.00965118,0.0140381,-0.0137329,0.0208664,0.0130463
29,8,10.0097,0.000610352,0.000457764,-2.42623,0.0559862,-0.075063,0.0529073,0.0535753,-0.0952827,0.146844,-0.126072,-0.0819601,0.0154495,0.00305176,0.00701904,0.0138855,0.0205231,0.0217438,-0.00492096,0.0327301,-9.97986,0.019455,-0.00938416,0.0193024,0.0147247,0.0162506,-0.0136566,0.022583,0.0152969
29,9,9.64772,0.0012207,-0.00213623,-2.42592,0.0565965,-0.0738423,0.0535176,0.0398424,-0.0949775,0.145929,-0.127292,-0.0816549,0.0114059,0.00659943,0.0111771,0.0127029,0.0209808,0.0211716,-0.0100327,0.026741,-9.97986,0.0181961,-0.0103378,0.0227737,0.00564575,0.0153351,-0.0222397,0.0212479,0.0139618
30,0,7.87374,0.0012207,-0.0012207,-2.42684,0.0565965,-0.0738423,0.0544332,0.0493029,-0.0934516,0.146539,-0.127598,-0.0834859,0.00999451,0.0105667,0.0112152,0.0110245,0.0187683,0.0205612,-0.00461578,0.0308228,-9.97986,0.0174713,-0.00865936,0.0223923,0.00522614,0.013237,-0.0287628,0.0220108,0.0194168
30,1,7.30245,0.000915527,-0.000762939,-2.42745,0.0553758,-0.0735371,0.0538228,0.0615099,-0.0900947,0.147455,-0.126072,-0.0825704,0.00835419,0.0136948,0.015831,0.0160217,0.017662,0.0213242,0.00968933,0.0317383,-9.97986,0.0168991,-0.00579834,0.0138474,0.00751495,0.00957489,-0.0294495,0.0213623,0.0163269
30,2,7.37294,0.00183105,0.000152588,-2.42684,0.055681,-0.0741475,0.0550435,0.0679186,-0.0919257,0.145929,-0.125766,-0.0831808,0.0128555,0.0143051,0.0151062,0.0127792,0.0204086,0.0174713,0.0278854,0.0333023,-9.97986,0.0151443,-0.00667572,0.0198746,0.0144958,0.0130081,-0.0219345,0.0268555,0.018959
30,3,8.467,0.0012207,0.000610352,-2.42623,0.0550706,-0.0738423,0.0538228,0.0831774,-0.0913154,0.146844,-0.125766,-0.0831808,0.00991821,0.0173187,0.0167465,0.0157166,0.0191116,0.0161362,0.0364685,0.0425339,-9.97986,0.0188065,-0.00720978,0.019722,0.0128937,0.0129318,-0.0119019,0.0255966,0.0161743
30,4,10.0097,0.000610352,0.00228882,-2.42684,0.0532396,-0.0753682,0.0556539,0.107897,-0.0894843,0.144708,-0.125156,-0.0847066,0.0121307,0.0178146,0.019455,0.013237,0.0151443,0.016861,0.0357819,0.0404739,-9.97986,0.0151825,-0.00617981,0.0227356,0.0135422,0.0152588,0.00110626,0.0245667,0.0183487
30,5,10.0097,0.000610352,0.000610352,-2.42867,0.0544603,-0.0759786,0.0522969,0.0819567,-0.0949775,0.144403,-0.125156,-0.0871481,0.00724792,0.0143051,0.0205612,0.0115967,0.0159073,0.0151825,0.0236893,0.0387192,-9.97986,0.0135422,-0.00415802,0.0140762,0.0212097,0.0130081,0.0133514,0.0242615,0.0194931
30,6,10.0097,0.00152588,-0.000457764,-2.42959,0.0535448,-0.0762837,0.0519917,0.0740221,-0.0952827,0.143487,-0.126377,-0.0868429,0.0111389,0.0182343,0.0228119,0.0116348,0.0144196,0.0175858,0.0104904,0.038147,-9.97986,0.0141144,-0.00961304,0.0143814,0.0193405,0.0123215,0.0205612,0.0219345,0.0178909
30,7,10.0097,0.000610352,-0.000915527,-2.4302,0.0535448,-0.0759786,0.0513814,0.0712755,-0.0961982,0.142572,-0.129123,-0.0871481,0.0111771,0.0171661,0.0248718,0.0140381,0.017662,0.0146866,0.016098,0.0351334,-9.97986,0.0161362,-0.00492096,0.015831,0.0149918,0.0135422,0.0232315,0.0248337,0.015831
30,8,10.0097,0.000610352,0.000305176,-2.42776,0.0532396,-0.0762837,0.050771,0.0691393,-0.0949775,0.143182,-0.127292,-0.0871481,0.011673,0.0167465,0.0267029,0.0122452,0.0148773,0.0157547,0.018692,0.0346756,-9.97986,0.0114059,-0.00736237,0.0154114,0.0124359,0.0141907,0.021286,0.0259018,0.0182343
30,9,10.0097,0.00183105,-0.000610352,-2.42959,0.0550706,-0.0771993,0.0535176,0.0700548,-0.0943672,0.143792,-0.126987,-0.0865377,0.0130463,0.0180054,0.0256729,0.0131607,0.013237,0.0158691,0.0233841,0.0376892,-9.97986,0.0137711,-0.00244141,0.0173187,0.0169754,0.0128937,0.0113678,0.026741,0.0140762
31,0,10.0097,0.000610352,0.000305176,-2.42776,0.0550706,-0.0762837,0.0529073,0.0697496,-0.0946723,0.142572,-0.127292,-0.085317,0.0121689,0.0159454,0.0268936,0.0119019,0.0198364,0.0172424,0.0246048,0.0281525,-9.97986,0.0123596,-0.00480652,0.013504,0.019989,0.0101471,0.000419617,0.0245667,0.015831
31,1,10.0097,-0.000305176,-0.000152588,-2.42714,0.0544603,-0.075063,0.054128,0.0691393,-0.0931465,0.145013,-0.126987,-0.0847066,0.0152206,0.0164795,0.0314331,0.00839233,0.0170517,0.0125504,0.0336456,0.0300598,-9.97986,0.0103378,-0.00366211,0.0115585,0.013237,0.0135422,-0.00480652,0.0226593,0.0109863
31,2,10.0097,0.0012207,0.000610352,-2.42806,0.0553758,-0.0747579,0.0544332,0.0688341,-0.0937568,0.146539,-0.126072,-0.0840963,0.00831604,0.0152206,0.0271606,0.00766754,0.0138855,0.0119781,0.0291824,0.0272369,-9.97986,0.0122833,-0.00709534,0.0159836,0.0186157,0.0111008,-0.00720978,0.0217056,0.0134277
31,3,10.0097,0.000915527,0.000762939,-2.42623,0.0562914,-0.0738423,0.0535176,0.0694445,-0.0913154,0.147455,-0.125461,-0.0828756,0.0140381,0.019989,0.0287628,0.00976563,0.0156784,0.0152969,0.0278473,0.0247192,-9.97986,0.00789642,-0.00282288,0.0123978,0.0233841,0.0131226,-0.00694275,0.0241089,0.0147629
31,4,10.0097,-0.000305176,-0.000762939,-2.42562,0.0569017,-0.0738423,0.0547383,0.0706652,-0.0919257,0.146844,-0.125461,-0.0834859,0.0121307,0.0228119,0.0271606,0.0131226,0.0167084,0.0115967,0.0273514,0.0205994,-9.97986,0.00770569,-0.00228882,0.0148392,0.0128174,0.0123215,-0.01091,0.0189209,0.0147629
31,5,10.0097,0.00152588,0,-2.4247,0.0559862,-0.073232,0.0544332,0.0718859,-0.0910102,0.147149,-0.125766,-0.0810445,0.0162888,0.0195694,0.029335,0.0130463,0.0151443,0.0148773,0.0210571,0.0187683,-9.97986,0.0125504,-0.00331879,0.0128555,0.00957489,0.0136185,-0.0138092,0.0214767,0.0131607
31,6,10.0097,0,-0.000305176,-2.4247,0.0562914,-0.0741475,0.0556539,0.0715807,-0.0913154,0.148065,-0.124546,-0.0804342,0.0102997,0.0260544,0.0272751,0.0134659,0.0151443,0.0115585,0.0234222,0.018692,-9.97986,0.00988007,-0.00492096,0.0108337,0.00411987,0.00873566,-0.00770569,0.0198746,0.0130463
31,7,10.0097,0.000915527,-0.000152588,-2.42562,0.0569017,-0.073232,0.0556539,0.0724962,-0.0913154,0.146539,-0.125156,-0.0816549,0.00923157,0.0228882,0.0260544,0.0154495,0.0167847,0.0146484,0.0279617,0.0183487,-9.97986,0.0119019,-0.00392914,0.0133514,0.00419617,0.0139236,0.00225067,0.0227737,0.0154495
31,8,10.0097,-0.000305176,0,-2.42745,0.0562914,-0.0753682,0.0538228,0.0532701,-0.0952827,0.147455,-0.127292,-0.0822652,0.00946045,0.0278473,0.0292969,0.0117111,0.0159454,0.0127029,0.0239563,0.0156021,-9.97986,0.0148773,-0.00267029,0.0131989,0.000267029,0.0144958,0.00457764,0.0181961,0.0108719
31,9,9.59401,0,-0.00228882,-2.42562,0.0559862,-0.0735371,0.0526021,0.0383165,-0.0946723,0.147149,-0.125766,-0.0813497,0.00930786,0.0348282,0.0287628,0.0106812,0.0198364,0.0113297,0.0301361,0.0265503,-9.97986,0.00843048,-0.000190735,0.00968933,0.00225067,0.0133514,0.0147247,0.0170898,0.0107574
32,0,7.81179,0,-0.00137329,-2.42623,0.055681,-0.0747579,0.0562642,0.0489977,-0.0931465,0.146539,-0.126377,-0.0816549,0.00881195,0.0318527,0.0285339,0.0151062,0.0132751,0.0138092,0.026741,0.0290298,-9.97986,0.0149536,-0.000801086,0.0127411,0.00507355,0.0166702,0.0111771,0.0140381,0.011673
32,1,7.23012,-0.000610352,-0.000305176,-2.42592,0.0559862,-0.0720113,0.0547383,0.059984,-0.0919257,0.145929,-0.126377,-0.0825704,0.0101852,0.0363541,0.0298309,0.0110626,0.0205231,0.0128937,0.0279617,0.0281906,-9.97986,0.0134659,-0.00240326,0.00862122,-0.00183105,0.0139618,0.0151825,0.0191498,0.0123596
32,2,7.31526,0.00183105,0,-2.42684,0.0553758,-0.0726216,0.054128,0.0685289,-0.0913154,0.146234,-0.125156,-0.0834859,0.01091,0.0363541,0.0279236,0.00988007,0.0165176,0.00911713,0.0259018,0.0224304,-9.97986,0.0123596,-0.00167847,0.0144958,-0.00541687,0.0147629,0.0153351,0.0182343,0.00431061
32,3,8.42824,0.00183105,0.0012207,-2.42653,0.0550706,-0.0744527,0.054128,0.082567,-0.0913154,0.145624,-0.126377,-0.0822652,0.00801086,0.042038,0.027771,0.00442505,0.0204849,0.0121307,0.0199127,0.0277328,-9.97986,0.00854492,-0.0056076,0.00988007,-0.00736237,0.0124359,0.0167465,0.0164413,0.00579834
32,4,10.0097,0,0.00259399,-2.42837,0.0541551,-0.0771993,0.0550435,0.107897,-0.090705,0.144098,-0.124546,-0.0847066,0.00705719,0.043602,0.0285721,0.00732422,0.0201797,0.00930786,0.0217438,0.032196,-9.97986,0.0148773,-0.0044632,0.0103378,-0.000991821,0.0123215,0.0157166,0.0187683,0.00583649
32,5,10.0097,0,0.000762939,-2.42959,0.0535448,-0.0765889,0.0522969,0.080736,-0.0955879,0.142877,-0.126377,-0.0865377,0.010376,0.0479889,0.0271988,0.00328064,0.0201035,0.00904083,0.0190735,0.0276947,-9.97986,0.0127029,-0.00434875,0.0104904,0.00312805,0.0164413,0.00911713,0.0147247,0.00549316
32,6,10.0097,-0.000610352,0.000152588,-2.42867,0.0538499,-0.0768941,0.0526021,0.0740221,-0.0965034,0.144098,-0.126377,-0.0865377,0.0116348,0.0489044,0.0232315,-0.00335693,0.0178909,0.0133133,0.0212479,0.0307083,-9.97986,0.0157547,0.0012207,0.0144577,0.0087738,0.013504,0.00282288,0.0165939,0.00846863
32,7,10.0097,-0.000305176,-0.000457764,-2.42928,0.0541551,-0.0771993,0.0513814,0.0709703,-0.0955879,0.142572,-0.128208,-0.0877584,0.00850677,0.0505066,0.0207138,-0.00183105,0.0177383,0.011673,0.0216675,0.0309753,-9.97986,0.0144577,0,0.0104523,0.0056839,0.0135803,0.00450134,0.0158691,0.00476837
32,8,10.0097,-0.000610352,-0.000152588,-2.4305,0.0541551,-0.0762837,0.0510762,0.0694445,-0.0955879,0.143182,-0.127292,-0.0871481,0.00617981,0.0535965,0.0271988,0.0112915,0.0246429,0.0110626,0.0252151,0.0296402,-9.97986,0.0131989,0.0025177,0.00705719,0.0105286,0.0140762,0.00114441,0.0174332,0.00667572
32,9,10.0097,-0.000915527,-0.000152588,-2.42898,0.0535448,-0.0759786,0.0526021,0.0694445,-0.0946723,0.142877,-0.127903,-0.0871481,0.0108719,0.0523758,0.0245667,0.0114822,0.0201035,0.0139236,0.0259781,0.0282288,-9.97986,0.0137329,-0.00102997,0.00869751,0.00713348,0.0156021,0.00160217,0.0143051,0.00415802
33,0,10.0097,-0.000305176,-0.000610352,-2.42714,0.0538499,-0.0762837,0.0532125,0.0706652,-0.0931465,0.145318,-0.126987,-0.0850118,0.0114059,0.0481796,0.0239182,0.0111008,0.019989,0.00778198,0.0299835,0.032196,-9.97986,0.0116348,-0.00244141,0.0111389,0.0101852,0.0140381,-0.00335693,0.0140381,0.00152588
33,1,10.0097,0.000305176,-0.000305176,-2.42806,0.055681,-0.0756734,0.0519917,0.0694445,-0.0934516,0.144098,-0.127292,-0.085317,0.00991821,0.0450897,0.0239563,0.0122452,0.016861,0.00938416,0.0285721,0.0397873,-9.97986,0.014534,0.000991821,0.00911713,0.00377655,0.0154114,-0.000839233,0.0139236,0.00278473
33,2,10.0097,-0.000305176,-0.000305176,-2.42776,0.0547655,-0.0747579,0.0538228,0.0706652,-0.0931465,0.145318,-0.125766,-0.0840963,0.0108719,0.0396729,0.0263596,0.0118256,0.0181961,0.00835419,0.0350952,0.042038,-9.97986,0.00904083,-0.0037384,0.00999451,0.00476837,0.0161743,-0.00110626,0.0146484,0.000953674
33,3,10.0097,-0.000915527,0.000305176,-2.42592,0.0562914,-0.0741475,0.0532125,0.0709703,-0.0928413,0.144708,-0.126072,-0.0834859,0.0156403,0.0328827,0.0275803,-0.00232697,0.0159073,0.00953674,0.0296783,0.0470352,-9.97986,0.00713348,-0.00148773,0.0104904,0.00713348,0.018158,-0.00297546,0.00923157,-0.00190735
33,4,10.0097,-0.000305176,0.000610352,-2.4244,0.0562914,-0.0741475,0.0547383,0.0709703,-0.0910102,0.145013,-0.125461,-0.0825704,0.0128174,0.0287247,0.0232315,-0.0275421,0.0170517,0.00785828,0.0242996,0.0585938,-9.97986,0.00656128,-0.00190735,0.00980377,0.0044632,0.018425,-0.00534058,0.00988007,-0.00408173
33,5,10.0097,0.000915527,-0.000305176,-2.42501,0.0559862,-0.0735371,0.0565694,0.0700548,-0.0916206,0.145624,-0.124851,-0.0810445,0.0137329,0.0243378,0.0182343,-0.050087,0.016861,0.0146484,0.030098,0.0532913,-9.97986,-0.00137329,0.000839233,0.0101852,0.00328064,0.0150299,-0.00461578,0.0131226,-0.00087738
33,6,10.0097,-0.000610352,0.000305176,-2.4244,0.0565965,-0.0747579,0.0547383,0.0709703,-0.0922309,0.145929,-0.124546,-0.0813497,0.0119781,0.0186539,0.0194931,-0.0688171,0.0115967,0.00831604,0.0180435,0.0553513,-9.97986,-0.000152588,-0.0018692,0.0044632,0.00408173,0.012207,-0.00621796,0.0113678,-0.00396729
33,7,10.0097,0.000305176,-0.000152588,-2.42348,0.0565965,-0.0735371,0.0568746,0.0731066,-0.0910102,0.146844,-0.123325,-0.0810445,0.0131989,0.00743866,0.0180817,-0.0972748,0.0185394,0.00785828,0.00984192,0.0524139,-9.97986,0.000190735,0.000953674,0.00434875,0.0100708,0.013504,-0.0012207,0.0133133,-0.00652313
33,8,10.0097,-0.000305176,0.000305176,-2.42562,0.055681,-0.0744527,0.0529073,0.0541857,-0.094062,0.145013,-0.126072,-0.0819601,0.0154114,0.001297,0.0170135,-0.131721,0.0175858,0.00946045,0.0104523,0.033989,-9.97986,-0.00144958,-0.000152588,0.00976563,0.0109482,0.0120163,-0.00740051,0.0120544,-0.00717163
33,9,9.78841,0.000915527,-0.00137329,-2.42684,0.0569017,-0.0744527,0.0553487,0.0395372,-0.0946723,0.145929,-0.126987,-0.0822652,0.0145721,0.00106812,0.0226212,-0.154991,0.0204849,0.0161362,0.0151825,0.0330734,-9.97986,-0.00705719,0.00106812,0.0101089,0.00953674,0.0100708,-0.00457764,0.013504,-0.00370026
34,0,7.9836,0.000610352,-0.000762939,-2.42623,0.0569017,-0.0738423,0.054128,0.0502184,-0.0925361,0.145929,-0.126377,-0.0822652,0.0130463,-0.00900269,0.0251389,-0.179405,0.018692,0.0105667,0.0163269,0.0354385,-9.97986,-0.00862122,-0.00370026,0.0108337,0.00293732,0.0156403,-0.00499725,0.0115585,-0.00450134
34,1,7.412,0.000610352,0,-2.42653,0.0559862,-0.073232,0.0553487,0.0618151,-0.0925361,0.145929,-0.126072,-0.0834859,0.0127029,-0.00553131,0.0343323,-0.197372,0.0177002,0.0164032,0.0284195,0.03685,-9.97986,-0.00957489,0.00305176,0.00473022,0.00621796,0.0170135,-0.00728607,0.0144196,-0.00400543
34,2,7.5353,0.0012207,0,-2.42257,0.0544603,-0.0753682,0.0547383,0.0673082,-0.0922309,0.14776,-0.126987,-0.0834859,0.0147629,-0.0104904,0.0411987,-0.179672,0.0174332,0.014534,0.0330734,0.0271225,-9.97986,-0.0110626,7.62939e-005,0.00545502,0.00911713,0.0126648,-0.00133514,0.00843048,-0.00278473
34,3,8.61257,0.000610352,0.000610352,-2.42714,0.0553758,-0.075063,0.0544332,0.082567,-0.0910102,0.145013,-0.125766,-0.0828756,0.0131226,-0.0025177,0.0492477,-0.151787,0.0205231,0.0162506,0.0323868,0.0104904,-9.97986,-0.0110245,-0.0025177,0.00938416,0.0104904,0.0138474,-0.00453949,0.0125885,-0.00553131
34,4,10.0097,0.0012207,0.00244141,-2.42806,0.0544603,-0.075063,0.054128,0.105455,-0.0916206,0.143487,-0.124241,-0.085317,0.0113678,-0.000724792,0.0612259,-0.137062,0.0162888,0.0148392,0.0259781,-0.0122833,-9.97986,-0.0088501,-0.00713348,0.0122833,0.00797272,0.0157547,-0.00244141,0.0142288,-0.00617981
34,5,10.0097,-0.000305176,0.000305176,-2.43081,0.0538499,-0.0756734,0.0519917,0.0804308,-0.095893,0.143182,-0.126987,-0.0868429,0.0107193,0.00694275,0.0699234,-0.144157,0.0225067,0.0155258,0.0227356,-0.0318527,-9.97986,-0.00431061,-0.00953674,0.00656128,0.0110245,0.0117874,-0.00385284,0.0125122,-0.00701904
34,6,10.0097,0.00183105,0.000915527,-2.42837,0.0541551,-0.0762837,0.0526021,0.0743273,-0.0968086,0.145318,-0.126072,-0.0868429,0.0122833,0.0197601,0.0823212,-0.145531,0.0172424,0.0138092,0.0259018,-0.0294113,-9.97986,0.00282288,-0.0121689,0.0104141,0.0153351,0.0127411,-0.00713348,0.0177383,-0.00518799
34,7,10.0097,0.000610352,0.000457764,-2.42928,0.0529344,-0.075063,0.0526021,0.07036,-0.095893,0.143487,-0.127598,-0.0886739,0.0123596,0.0337601,0.10376,-0.177917,0.0242996,0.0130463,0.0278091,-0.00823975,-9.97986,0.00873566,-0.00610352,0.0104141,0.0205612,0.0120544,-0.00476837,0.0125122,-0.0063324
34,8,10.0097,0.00183105,-0.000305176,-2.42837,0.0541551,-0.0762837,0.0519917,0.0700548,-0.0946723,0.142877,-0.127598,-0.0859274,0.00465393,0.0491714,0.11879,-0.207787,0.0231934,0.0102234,0.026207,0.00110626,-9.97986,0.0102997,-0.00267029,0.0108719,0.0201797,0.0128174,-0.00312805,0.0163269,-0.00556946
34,9,10.0097,0.000610352,-0.000457764,-2.42867,0.0535448,-0.0756734,0.0538228,0.0648668,-0.0943672,0.145318,-0.127903,-0.0868429,0.00499725,0.0664139,0.135956,-0.0969696,0.0220108,0.0136566,0.0299835,-0.000801086,-9.97986,0.00907898,-0.00289917,0.0104141,0.0195313,0.00839233,-0.00461578,0.0172043,-0.00850677
35,0,10.0097,-0.000305176,-0.000457764,-2.42806,0.0535448,-0.075063,0.0538228,0.07036,-0.0943672,0.144403,-0.126072,-0.0859274,0.00988007,0.0826263,0.132256,0.161171,0.0246811,0.0117874,0.0303268,-0.00823975,-9.97986,0.0150299,-0.00484467,0.0148773,0.0194168,0.0102997,-0.00835419,0.0169754,-0.00980377
35,1,10.0097,-0.00152588,0.000305176,-2.42684,0.0541551,-0.0744527,0.0532125,0.0691393,-0.0934516,0.145013,-0.125766,-0.0847066,0.00801086,0.0939941,0.119934,0.369759,0.0257111,0.0179672,0.033989,-0.00816345,-9.97986,0.0256348,0.00518799,0.0112534,0.0195694,0.00843048,-0.0101852,0.0165939,-0.00896454
35,2,10.0097,0.000610352,-0.000305176,-2.42745,0.0553758,-0.0744527,0.0522969,0.0654772,-0.0931465,0.144098,-0.126072,-0.0831808,0.0111771,0.0929642,0.108109,0.400887,0.0236511,0.00907898,0.0311279,-0.0196838,-9.97986,0.0302505,0.00457764,0.0134659,0.0242233,0.00724792,-0.0117874,0.0148773,-0.00881195
35,3,10.0097,-0.000610352,0,-2.42592,0.0553758,-0.0753682,0.054128,0.0712755,-0.0925361,0.146844,-0.125156,-0.0840963,0.018959,0.109863,0.0796127,0.389633,0.029068,0.013504,0.0284195,-0.0233078,-9.97986,0.030899,0.0164795,0.0146484,0.022583,0.0106812,-0.0088501,0.0124359,-0.00709534
35,4,10.0097,-0.000610352,0.000762939,-2.42531,0.0559862,-0.0744527,0.0562642,0.0712755,-0.0931465,0.146234,-0.124241,-0.0822652,0.0130463,0.127335,0.051651,0.355797,0.0264359,0.0130081,0.0264359,-0.0223923,-9.97986,0.0376129,0.0276947,0.0139236,0.0232697,0.00679016,-0.00770569,0.010643,-0.00816345
35,5,10.0097,0,-0.000152588,-2.42592,0.055681,-0.0735371,0.055959,0.0752428,-0.0922309,0.145624,-0.124241,-0.0813497,0.010376,0.134621,0.0321198,0.289764,0.0230408,0.0159454,0.0218201,-0.0123215,-9.97986,0.0385284,0.0173569,0.0150299,0.017128,0.0117874,-0.00934601,0.0167847,-0.00865936
35,6,10.0097,-0.00183105,0,-2.4247,0.0569017,-0.0744527,0.0556539,0.0697496,-0.0931465,0.145624,-0.124851,-0.0807394,0.00915527,0.134621,0.00236511,0.256805,0.028038,0.0124359,0.0278091,-0.00202179,-9.97986,0.0387192,0.0191498,0.0125122,0.0156403,0.0100327,-0.00682831,0.0138474,-0.00713348
35,7,10.0097,-0.000915527,-0.000305176,-2.42531,0.0565965,-0.0726216,0.0568746,0.0706652,-0.0913154,0.146844,-0.12302,-0.0804342,0.00324249,0.133286,-0.0318909,0.234985,0.0285339,0.0106049,0.024147,0.000495911,-9.97986,0.0418091,0.0190353,0.0151443,0.0127029,0.0127792,-0.00621796,0.0166702,-0.00732422
35,8,10.0097,-0.000610352,0.000305176,-2.42684,0.0547655,-0.0747579,0.0529073,0.0532701,-0.0952827,0.145929,-0.126072,-0.0819601,0.00480652,0.116463,-0.0747681,0.209122,0.0245285,0.0136566,0.0226212,0.00511169,-9.97986,0.0429153,-0.0159454,0.0129318,0.0143814,0.0108719,-0.00766754,0.0202179,-0.0056839
35,9,9.63826,-0.000610352,-0.00137329,-2.42623,0.0578172,-0.0735371,0.0538228,0.0386217,-0.0943672,0.145929,-0.126682,-0.0810445,0.00457764,0.0852966,-0.115967,0.186844,0.0254059,0.00900269,0.0238037,0.00930786,-9.97986,0.0410461,-0.0258636,0.0130081,0.0114441,0.00724792,-0.00648499,0.0215912,-0.00453949
36,0,7.85878,0.0012207,-0.000915527,-2.42562,0.055681,-0.0741475,0.0547383,0.0499132,-0.0934516,0.142877,-0.126072,-0.0819601,0.00663757,0.0429916,-0.135002,0.166206,0.0239182,0.0167465,0.0193024,0.00911713,-9.97986,0.0403595,-0.00499725,0.0178909,0.0101471,0.00679016,-0.00991821,0.026207,-0.00541687
36,1,7.32381,0.000610352,-0.0012207,-2.42592,0.0550706,-0.075063,0.0538228,0.0642565,-0.0922309,0.144098,-0.125156,-0.0825704,0.00541687,0.00827789,-0.13443,0.150948,0.0233841,0.0191879,0.0203323,0.00854492,-9.97986,0.0416946,0.00202179,0.0172806,0.00862122,0.00415802,-0.0111389,0.0274658,-0.00709534
36,2,7.40377,0,-0.000457764,-2.42684,0.0553758,-0.075063,0.055959,0.0682238,-0.0925361,0.145929,-0.125461,-0.0828756,0.00686646,-0.00732422,-0.115013,0.138588,0.0214005,0.0144196,0.0238419,0.0169373,-9.97986,0.0405502,0.00831604,0.0121689,0.0137711,0.00785828,-0.0130081,0.0289917,-0.00370026
36,3,8.5143,0.00183105,0.00167847,-2.42592,0.0547655,-0.0747579,0.054128,0.0831774,-0.0928413,0.145624,-0.126072,-0.0837911,0.010643,-0.0111389,-0.100021,0.120468,0.0258636,0.0148392,0.0180054,0.0216293,-9.97986,0.0328064,0.0183487,0.0123215,0.017395,0.0056076,-0.01194,0.0324631,-0.00606537
36,4,10.0097,0.00152588,0.00183105,-2.42745,0.0535448,-0.0741475,0.054128,0.108202,-0.0900947,0.144098,-0.125461,-0.0847066,0.00553131,-0.0151825,-0.0884628,0.106087,0.0229263,0.0144196,0.0191116,0.0193787,-9.97986,0.0292206,0.0257111,0.0146866,0.0144958,0.00427246,-0.00808716,0.0329971,-0.00343323
36,5,10.0097,-0.000305176,0.000762939,-2.42898,0.0532396,-0.0765889,0.0516866,0.0810411,-0.095893,0.143182,-0.126682,-0.0868429,0.00679016,-0.0106049,-0.0660324,0.0966644,0.0208282,0.0125885,0.0185394,0.0188828,-9.97986,0.0301361,0.00736237,0.0152206,0.0170898,0.00495911,-0.00984192,0.0302124,-0.00297546
36,6,10.0097,0.000610352,-0.000152588,-2.4302,0.0547655,-0.075063,0.0519917,0.0740221,-0.0955879,0.144708,-0.127292,-0.0865377,0.00713348,-0.00850677,-0.0535202,0.0813675,0.0237274,0.0146103,0.0199127,0.014267,-9.97986,0.0278091,-0.0165939,0.0109863,0.0172806,0.00865936,-0.0103378,0.0350571,-0.00709534
36,7,10.0097,0.000915527,0.000305176,-2.4305,0.0535448,-0.0775044,0.0526021,0.0676134,-0.0955879,0.144403,-0.127598,-0.0871481,0.00827789,-0.00865936,-0.0441742,0.0701141,0.0200272,0.0151062,0.0294876,0.0187683,-9.97986,0.0237274,-0.0183105,0.0163651,0.0190353,0.00228882,-0.0111771,0.0330734,-0.00473022
36,8,10.0097,0.000305176,0.000457764,-2.42867,0.0541551,-0.0771993,0.0529073,0.0706652,-0.0949775,0.144098,-0.125766,-0.0865377,0.0137711,-0.00709534,-0.0305176,0.0618744,0.0273132,0.0149918,0.0355148,0.0200272,-9.97986,0.0246048,-0.0105286,0.0170517,0.0264359,0.00507355,-0.0105667,0.0344849,0.00289917
36,9,10.0097,-0.000610352,-0.000762939,-2.42806,0.0541551,-0.0762837,0.0513814,0.0697496,-0.0946723,0.143487,-0.126987,-0.0868429,0.00415802,-0.00778198,-0.0270844,0.0509262,0.0253296,0.0056839,0.0274277,0.0191498,-9.97986,0.0205612,-0.0141525,0.0141525,0.017662,0.000648499,-0.0115204,0.0353622,-0.00236511
37,0,10.0097,-0.000915527,0,-2.42745,0.0547655,-0.0747579,0.0538228,0.0666979,-0.0946723,0.144708,-0.126377,-0.0856222,0.0127792,-0.00217438,-0.0172424,0.0435257,0.032196,0.0110245,0.0258255,0.0206375,-9.97986,0.0183105,-0.00423431,0.0130463,0.0154495,0.000953674,-0.0132751,0.0333023,0.00400543
37,1,10.0097,0.0012207,0.000152588,-2.42806,0.0541551,-0.075063,0.0519917,0.0697496,-0.0934516,0.143182,-0.126682,-0.0844015,0.0128937,-0.000762939,-0.01194,0.0334167,0.0257492,0.0109482,0.0138474,0.0165176,-9.97986,0.0199509,-0.00598907,0.0167465,0.0147247,-0.00125885,-0.0115204,0.0334167,0.00553131
37,2,10.0097,0.00305176,0,-2.42684,0.055681,-0.0756734,0.0526021,0.0694445,-0.0931465,0.144708,-0.126072,-0.0850118,0.0127792,-0.00183105,-0.0113297,0.0249481,0.0224304,0.0134277,0.010643,0.0205612,-9.97986,0.0185776,-0.00183105,0.0169754,0.011673,0.00328064,-0.0132751,0.0349426,0.00724792
37,3,10.0097,0.000305176,-0.000457764,-2.42653,0.0550706,-0.0753682,0.0547383,0.0691393,-0.0934516,0.145624,-0.125461,-0.0828756,0.0115585,0.000495911,-0.00835419,0.019455,0.0246048,0.00556946,0.0202179,0.0216293,-9.97986,0.0168991,-0.00564575,0.0115585,0.00858307,0.00038147,-0.01091,0.0298309,0.00457764
37,4,10.0097,0.000305176,-0.000610352,-2.42592,0.0550706,-0.0741475,0.0544332,0.0724962,-0.0922309,0.14837,-0.124241,-0.0825704,0.00968933,0.00335693,0.00404358,0.0117874,0.0217819,0.00717163,0.0297928,0.023613,-9.97986,0.0180435,-0.00953674,0.0117111,0.00453949,0.00137329,-0.00991821,0.0311661,0.00640869
37,5,10.0097,0.000610352,-0.000457764,-2.42501,0.0565965,-0.073232,0.0565694,0.0718859,-0.090705,0.147455,-0.123935,-0.0813497,0.0104523,0.0030899,0.00606537,0.00659943,0.0214005,0.00957489,0.0367355,0.0166321,-9.97986,0.0146484,-0.00114441,0.0106049,0.00713348,0.0031662,-0.00873566,0.0276566,0.0128937
37,6,10.0097,0.000610352,-0.000305176,-2.42592,0.0565965,-0.0741475,0.0547383,0.0728014,-0.0919257,0.146539,-0.124546,-0.0819601,0.00988007,0.00389099,0.00919342,-0.00148773,0.0236511,0.00499725,0.0362778,0.0178909,-9.97986,0.0128555,0.00740051,0.0104523,0.00553131,0.00209808,-0.0110245,0.0279617,0.0138474
37,7,10.0097,0.00152588,0.000152588,-2.4247,0.055681,-0.0735371,0.0547383,0.0709703,-0.0910102,0.147149,-0.12363,-0.080129,0.00904083,0.0043869,0.0149536,-0.00610352,0.0218964,0.00576019,0.0242615,0.0135422,-9.97986,0.0112534,0.00766754,0.0112534,0.00587463,0.00602722,-0.00972748,0.0293732,0.0163269
37,8,10.0097,-0.000915527,0.000305176,-2.42562,0.0565965,-0.0747579,0.0544332,0.0544908,-0.0943672,0.145929,-0.125461,-0.0819601,0.0100708,0.00427246,0.0164413,-0.0120926,0.0210571,0.00793457,0.00511169,0.0215149,-9.97986,0.0127029,-0.00240326,0.00965118,0.0044632,0.00682831,-0.0115585,0.0251389,0.0168228
37,9,9.85372,0.000610352,-0.00137329,-2.42714,0.0562914,-0.0747579,0.0556539,0.0392321,-0.0946723,0.147455,-0.126072,-0.0819601,0.0124741,0.0116348,0.0177002,-0.0168991,0.0159836,0.00751495,0,0.0212479,-9.97986,0.0139999,-0.00637054,0.00659943,7.62939e-005,0.0082016,-0.0131607,0.0237274,0.0153732
38,0,8.0547,-0.00305176,-0.00106812,-2.42562,0.0550706,-0.0741475,0.054128,0.0483873,-0.0916206,0.146234,-0.126072,-0.0825704,0.0115585,0.00843048,0.0211334,-0.0141907,0.0191116,0.00610352,0.00621796,0.0215912,-9.97986,0.00793457,-0.0037384,0.0094223,-0.00110626,0.0144196,-0.00995636,0.0218201,0.0185013
38,1,7.4767,0.00152588,-0.000915527,-2.42684,0.0562914,-0.0744527,0.0538228,0.0615099,-0.0922309,0.146844,-0.126072,-0.0831808,0.0115204,0.0150299,0.029335,-0.023613,0.017128,0.0063324,0.0268936,0.0236893,-9.97986,0.01091,-0.00118256,0.00728607,-0.00286102,0.0148392,-0.0101089,0.0279999,0.018425
38,2,7.58687,0.00152588,0.000152588,-2.42592,0.0559862,-0.0753682,0.0535176,0.0685289,-0.0922309,0.145624,-0.126072,-0.0837911,0.0142288,0.0184631,0.0270462,-0.0207901,0.0178146,0.00469208,0.0367355,0.0159454,-9.97986,0.0108719,0.00125885,0.00679016,-0.0069809,0.022583,-0.0109482,0.0240707,0.022583
38,3,8.71388,0.00152588,0.000610352,-2.42684,0.0538499,-0.0747579,0.0550435,0.0862291,-0.0900947,0.144708,-0.124546,-0.0840963,0.0111389,-0.00152588,0.0283051,-0.0297928,0.0139236,0.00556946,0.0357056,0.0212479,-9.97986,0.0144196,-0.0019455,0.00667572,-0.00324249,0.0210571,-0.0094223,0.0212097,0.0234985
38,4,10.0097,-0.000610352,0.00228882,-2.42867,0.0553758,-0.0768941,0.0547383,0.103929,-0.0922309,0.145624,-0.125461,-0.0859274,0.00797272,-0.00663757,0.0259781,-0.0286865,0.0125122,0.00507355,0.0315857,0.020752,-9.97986,0.0124359,-0.00442505,0.00774384,-7.62939e-005,0.0246048,-0.00453949,0.0245667,0.0269699
38,5,10.0097,0.000915527,0.000610352,-2.42959,0.0535448,-0.0759786,0.0522969,0.0801256,-0.095893,0.142572,-0.127292,-0.0871481,0.0117111,0.00553131,0.0313568,-0.0289154,0.0170898,0.00354767,0.0232315,0.0219345,-9.97986,0.0106812,0.00324249,0.00846863,-0.00701904,0.0288391,-0.00480652,0.0194168,0.0279236
38,6,10.0097,0.000305176,-0.000762939,-2.42806,0.0538499,-0.0753682,0.0526021,0.0731066,-0.0949775,0.142572,-0.126987,-0.0865377,0.0101852,0.0069809,0.0299454,-0.0351334,0.0193405,0.00808716,0.0209427,0.0191498,-9.97986,0.0136566,-0.000419617,0.00663757,-0.000801086,0.0257874,-0.00534058,0.0198364,0.0275421
38,7,10.0097,-0.000305176,0,-2.43081,0.0529344,-0.0759786,0.0532125,0.0700548,-0.0955879,0.143487,-0.126987,-0.0877584,0.00938416,0.0087738,0.0263214,-0.0365448,0.0194931,0.00499725,0.0230789,0.0152588,-9.97986,0.00991821,0.00328064,0.00511169,-0.000343323,0.0252914,-0.00450134,0.0146866,0.0314713
38,8,10.0097,0,-0.000762939,-2.42837,0.0529344,-0.0759786,0.0526021,0.0697496,-0.095893,0.141961,-0.126377,-0.0874532,0.0117493,0.00694275,0.0328827,-0.0340652,0.0178528,0.0069046,0.0257874,0.0217056,-9.97986,0.0128937,0.00202179,0.00801086,-0.00434875,0.0276184,-0.00518799,0.0135803,0.0327682
38,9,10.0097,-0.000915527,-0.000610352,-2.42806,0.0535448,-0.0765889,0.0522969,0.0700548,-0.0946723,0.142572,-0.128513,-0.0859274,0.0125122,0.00709534,0.0315857,-0.0356674,0.0205231,0.00236511,0.0274658,0.0202179,-9.97986,0.00896454,0.00366211,0.00522614,-0.0069809,0.0205612,-0.00774384,0.0088501,0.0321198
39,0,10.0097,0.0012207,-0.000610352,-2.42959,0.0550706,-0.0756734,0.0532125,0.0691393,-0.094062,0.145013,-0.127292,-0.0859274,0.0104523,0.0143814,0.0336075,-0.0339127,0.0227737,0.00701904,0.0266647,0.0177383,-9.97986,0.0123596,0.0044632,0.00663757,-0.0147247,0.0176239,-0.00789642,0.00728607,0.0336838
39,1,10.0097,0.00244141,0.000152588,-2.42684,0.0532396,-0.0756734,0.0535176,0.0691393,-0.0937568,0.145013,-0.126377,-0.0840963,0.0113297,0.0125504,0.0313568,-0.0348663,0.0216293,0.0012207,0.0286102,0.021019,-9.97986,0.0115585,0.00335693,0.00541687,-0.0118256,0.0138855,-0.00751495,0.00679016,0.0312805
39,2,10.0097,0.00183105,0.000610352,-2.42684,0.0550706,-0.0753682,0.0526021,0.0694445,-0.0937568,0.145318,-0.126682,-0.0834859,0.00881195,0.010643,0.031395,-0.0393295,0.0172806,0.00469208,0.0265503,0.0195313,-9.97986,0.00957489,0.000114441,-0.000686646,-0.0121307,0.0130081,-0.00526428,0.000572205,0.0315857
39,3,10.0097,-0.000610352,0.000152588,-2.42623,0.0550706,-0.0741475,0.0538228,0.0706652,-0.0910102,0.145013,-0.126072,-0.0831808,0.00991821,0.0125122,0.0361252,-0.0374222,0.0203705,0.00213623,0.0279617,0.0167084,-9.97986,0.00526428,-0.000572205,0.00377655,-0.0185776,0.0094986,-0.00545502,-0.000114441,0.0305176
39,4,10.0097,-0.0012207,0.000152588,-2.42409,0.0565965,-0.0744527,0.0550435,0.0709703,-0.0925361,0.147149,-0.124546,-0.0822652,0.0104523,0.0183487,0.0355911,-0.0376511,0.021286,0.00156403,0.028038,0.0243378,-9.97986,0.00980377,0.000648499,0.00743866,-0.0166702,0.0115204,-0.00656128,0.00114441,0.0360107
39,5,10.0097,0.000610352,-0.000152588,-2.42501,0.0550706,-0.0747579,0.0538228,0.0697496,-0.0910102,0.147455,-0.125461,-0.0813497,0.0117111,0.0131607,0.0337982,-0.0347519,0.015564,0.0030899,0.0245285,0.0205994,-9.97986,0.00419617,0.00152588,0.00610352,-0.0205231,0.0108719,-0.00556946,-0.00396729,0.0359344
39,6,10.0097,0.000610352,-0.000457764,-2.42562,0.0562914,-0.0735371,0.0544332,0.0718859,-0.0925361,0.146539,-0.124241,-0.0810445,0.0117493,0.0120926,0.0362396,-0.0347137,0.0178528,0.00293732,0.0250244,0.0212097,-9.97986,0.00999451,0.00431061,0.00621796,-0.0208664,0.0110626,-0.00576019,-0.0062561,0.0356674
39,7,10.0097,0,0.000457764,-2.42379,0.0578172,-0.073232,0.0553487,0.0715807,-0.090705,0.148065,-0.124241,-0.0807394,0.0149155,0.0169373,0.0389099,-0.0404358,0.018158,0.000457764,0.0240326,0.0183868,-9.97986,0.0103378,0.00675201,0.0031662,-0.0165176,0.0133514,-0.00770569,0.00247955,0.0355148
39,8,10.0097,-0.000610352,-0.000152588,-2.42684,0.055681,-0.0744527,0.0535176,0.0554064,-0.0943672,0.146234,-0.124546,-0.0819601,0.00724792,0.0149155,0.0348663,-0.0341415,0.0196838,-0.0056076,0.0217438,0.0209427,-9.97986,0.00854492,0.00392914,0.00358582,-0.0133896,0.0111389,-0.0139618,-0.00221252,0.0352859
39,9,9.97823,-0.000305176,-0.00167847,-2.42684,0.0562914,-0.0741475,0.054128,0.0401476,-0.0937568,0.145624,-0.126682,-0.0825704,0.012207,0.0147247,0.0353622,-0.0320816,0.0163651,-0.00152588,0.0215149,0.0221252,-9.97986,0.00907898,0.00602722,-0.00118256,-0.0178909,0.0101852,-0.00900269,-0.000114441,0.0341034
40,0,8.20424,0.000915527,-0.00152588,-2.42806,0.0562914,-0.0744527,0.0547383,0.0514391,-0.0922309,0.146234,-0.126377,-0.0825704,0.00682831,0.0131989,0.0376892,-0.0332642,0.0154114,-0.00217438,0.0230789,0.0239944,-9.97986,0.00770569,0.00469208,0.00205994,-0.030098,0.00499725,-0.00881195,-0.00190735,0.0364304
40,1,7.67507,0.000305176,-0.000762939,-2.42623,0.0559862,-0.0744527,0.054128,0.0608995,-0.0934516,0.143792,-0.125156,-0.0822652,0.0133896,0.0187683,0.0352478,-0.0276947,0.0174713,0.000762939,0.0180817,0.0240707,-9.97986,0.0119019,0.00465393,0.00465393,-0.0350189,0.00537872,-0.0056839,-0.000457764,0.0330353
40,2,7.75991,0.000610352,0.000457764,-2.42592,0.0550706,-0.0744527,0.0535176,0.0676134,-0.0913154,0.145318,-0.126072,-0.0828756,0.00946045,0.018425,0.034523,-0.0315475,0.0130844,-0.00530243,0.0250626,0.0218582,-9.97986,0.0102234,0.00106812,0.0069046,-0.0296783,0.000724792,-0.00549316,-0.000228882,0.0340652
40,3,9.26778,0.000915527,0.0012207,-2.42776,0.0559862,-0.0753682,0.0556539,0.0822618,-0.090705,0.145624,-0.125461,-0.0834859,0.00862122,0.014267,0.0375366,-0.0302124,0.0162506,-0.00442505,0.0249481,0.0214386,-9.97986,0.013504,0.000495911,0.00610352,-0.0286102,-0.00259399,-0.00778198,-0.00312805,0.033989
