
Devices
1200
,,BP Load cell - Voltage,String Length - Voltage,Clutch Active - Voltage,#7 iPecs - Voltage,,,,,,,,,EMG 1-8 Left - Voltage,,,,,,,,Pylon Force - Voltage,EMG 9-16 Right - Voltage,,,,,,,,
Frame,Sub Frame,BP Load Cell,String Length,From Arduino Logic,A45,A135,A225,A315,S0,S90,S180,S270,ZSum,EMG 1 Glut Max,EMG 2 Glut Med,EMG 3 Biceps Femoris Long,EMG 4 Rectus Femoris,EMG 5 Vastus Medialis,EMG 6 Tib Ant,EMG 7 Med Gas,EMG 8 Soleus,Pylon volts,EMG 9 Glut Max,EMG 10 Glut Med,EMG 11 Biceps Femoris Long,EMG 12 Rectus Femoris,EMG 13 Vastus Medialis,EMG 14 Tib Ant,EMG 15 Med Gas,EMG 16 Soleus
,,V,V,V,V,V,V,V,V,V,V,V,V,V,V,V,V,V,V,V,V,V,V,V,V,V,V,V,V,V
1,0,10.0097,0.000610352,0.00259399,-2.42562,0.0562914,-0.0744527,0.0553487,0.07036,-0.0919257,0.146539,-0.124851,-0.0810445,0.00896454,-0.0588226,0.107117,0.0876999,-0.00133514,0.0152588,0.0286484,0.00644684,-9.97986,-0.013237,-0.0379944,0.0156784,-0.0303268,0.0102615,-0.0297165,0.00926971,0.00720978
1,1,10.0097,0.00244141,0.0012207,-2.42592,0.0562914,-0.0747579,0.0547383,0.0709703,-0.0913154,0.14837,-0.124851,-0.0813497,0.0108719,0.00343323,0.130234,0.109863,0.0107193,0.00797272,0.0302505,0.0216675,-9.97986,-0.0157166,-0.0367355,0.0196075,-0.0120163,0.0102997,-0.0222397,0.0154877,0.00617981
1,2,10.0097,0.000610352,0.00198364,-2.42501,0.0565965,-0.0738423,0.0550435,0.0709703,-0.090705,0.14898,-0.124241,-0.0804342,0.0182724,0.0706482,0.14782,0.124092,0.0146484,-0.00183105,0.0330353,0.0500107,-9.97986,-0.0150299,0.089798,0.0189972,0.0193024,0.0217819,-0.0129318,0.0144196,0.00728607
1,3,10.0097,0.00152588,0.00183105,-2.42562,0.0562914,-0.0741475,0.0556539,0.0718859,-0.090705,0.14837,-0.123935,-0.080129,0.00980377,0.102577,0.167809,0.111694,0.0164032,-0.00526428,0.0364685,0.0672531,-9.97986,-0.00865936,0.169029,0.015564,0.0434494,0.0230789,-0.0125122,0.018158,0.00598907
1,4,10.0097,0.00244141,0.00228882,-2.4247,0.0562914,-0.0723164,0.0547383,0.0706652,-0.0919257,0.146844,-0.123935,-0.0798238,0.0156403,0.101318,0.177917,0.0948334,0.0204086,-0.0138092,0.0357819,0.136719,-9.97986,-0.00221252,0.11982,0.0209045,0.0729752,0.0261307,-0.0223541,0.0151443,0.00263214
1,5,10.0097,0.00183105,0.00213623,-2.4247,0.0553758,-0.0735371,0.0544332,0.07036,-0.0910102,0.146539,-0.124851,-0.0807394,0.0030899,0.116997,0.186081,0.106201,0.0234604,-0.0202179,0.0331879,0.18261,-9.97986,-0.00236511,-0.00263214,0.0232697,0.0873184,0.0323105,-0.0289536,0.0183105,0.00267029
1,6,10.0097,-0.0012207,0.000152588,-2.42684,0.0553758,-0.075063,0.0535176,0.0560167,-0.0946723,0.146539,-0.125156,-0.0825704,-0.0018692,0.143585,0.184441,0.119514,0.0224686,-0.0299072,0.0383759,0.157318,-9.97986,0.00225067,-0.0791168,0.0227737,0.086937,0.0278854,-0.0299454,0.021286,0.0037384
1,7,10.0097,0.000915527,-0.000762939,-2.42653,0.0553758,-0.0741475,0.0547383,0.0618151,-0.0913154,0.144403,-0.125156,-0.0825704,0.0038147,0.105896,0.168228,0.140686,0.025177,-0.038414,0.031929,0.161705,-9.97986,-0.00801086,-0.0601959,0.0259399,0.0831223,0.0296402,-0.0331116,0.0209427,-0.00106812
1,8,10.0097,-0.00152588,-0.000152588,-2.42501,0.0550706,-0.0747579,0.0553487,0.0694445,-0.0931465,0.144098,-0.125156,-0.0828756,0.00801086,0.0394821,0.138359,0.121307,0.0259781,-0.041275,0.0336838,0.177917,-9.97986,-0.00679016,-0.0362778,0.0236893,0.0756454,0.0321579,-0.0327301,0.0243378,0.001297
1,9,10.0097,0.000915527,-0.000457764,-2.42592,0.055681,-0.0756734,0.054128,0.0770738,-0.0910102,0.145624,-0.126072,-0.0834859,0.00709534,0.075531,0.0928497,0.0291061,0.0257111,-0.0457382,0.030365,0.149765,-9.97986,-0.0102234,-0.0239944,0.0257492,0.0572968,0.0432587,-0.023613,0.0268936,-0.000534058
2,0,10.0097,-0.00366211,-0.000305176,-2.42867,0.0541551,-0.075063,0.0538228,0.0798204,-0.0925361,0.141351,-0.125766,-0.0850118,0.0172424,0.0788116,0.0324631,-0.00541687,0.0289154,-0.0547028,0.0273514,0.0978851,-9.97986,-0.00164032,-0.0352097,0.0270081,0.0465012,0.0408173,-0.0156784,0.0298691,-0.00137329
2,1,10.0097,-0.000305176,-0.00106812,-2.42867,0.0535448,-0.0768941,0.0516866,0.0731066,-0.0952827,0.141656,-0.126987,-0.0871481,0.0167465,0.00324249,-0.0375748,0.0400543,0.0217056,-0.0561523,0.0272369,0.0838089,-9.97986,0.0131226,-0.0754929,0.029335,0.0336075,0.0416565,-0.00713348,0.0272751,-0.00396729
2,2,10.0097,0.00152588,-0.0012207,-2.42959,0.055681,-0.0744527,0.0516866,0.0697496,-0.0943672,0.143487,-0.126682,-0.0871481,0.0200653,0.00141144,-0.0550842,0.0652313,0.0292206,-0.0559235,0.0318527,0.144005,-9.97986,0.0105667,-0.060463,0.0287247,0.0233459,0.0494766,-0.00442505,0.0336838,-0.000991821
2,3,10.0097,-0.00152588,-0.000762939,-2.42776,0.0532396,-0.0753682,0.0516866,0.0694445,-0.094062,0.142267,-0.127598,-0.0865377,0.00267029,-0.00587463,-0.0688171,0.075264,0.0302887,-0.0561142,0.0279999,0.191116,-9.97986,0.0139236,-0.0374222,0.0339127,0.0183868,0.0501633,-0.00728607,0.0312042,-0.00476837
2,4,10.0097,-0.000915527,-0.000762939,-2.42837,0.0541551,-0.0759786,0.0529073,0.0697496,-0.094062,0.142572,-0.127903,-0.0868429,-0.000114441,-0.0691223,-0.0976181,0.0776291,0.0301743,-0.0605011,0.0281525,0.198975,-9.97986,0.0168991,-0.0352097,0.0345612,0.0235748,0.0528336,-0.0169373,0.0386429,-0.00572205
2,5,10.0097,-0.00183105,0.000305176,-2.42898,0.0532396,-0.0765889,0.0526021,0.0691393,-0.0937568,0.143487,-0.128208,-0.0868429,-0.00389099,-0.0640106,-0.104599,0.0602341,0.0331879,-0.0692368,0.0278091,0.149269,-9.97986,0.0156403,-0.0135803,0.0368881,0.0400162,0.0576782,-0.0265503,0.0373077,-0.00637054
2,6,10.0097,0.000915527,0.0012207,-2.42745,0.0544603,-0.0753682,0.0529073,0.0679186,-0.0968086,0.143792,-0.127903,-0.0859274,-0.00392914,-0.0148773,-0.101814,0.0493622,0.0319672,-0.0737381,0.0299072,0.0843811,-9.97986,0.018692,0.0233459,0.0351334,0.0601578,0.0544739,-0.0305176,0.03582,-0.0113297
2,7,10.0097,0.000610352,0.00183105,-2.42684,0.0547655,-0.0753682,0.0532125,0.0682238,-0.0931465,0.144098,-0.126072,-0.0834859,-0.000724792,-0.0115585,-0.0609589,0.0344086,0.0334549,-0.0759125,0.0252151,0.0453186,-9.97986,0.0130463,0.0362015,0.0397873,0.0910187,0.0574875,-0.0318146,0.039978,-0.0126266
2,8,10.0097,-0.00244141,0.00320435,-2.42684,0.0553758,-0.0753682,0.0535176,0.0691393,-0.0931465,0.143792,-0.126377,-0.0847066,0.0088501,-0.0118637,0.000991821,0.0271606,0.0359344,-0.0835419,0.0278473,-0.0481796,-9.97986,0.0133133,-0.00175476,0.0373077,0.123482,0.0535202,-0.0327301,0.0380707,-0.0094223
2,9,10.0097,0,0.0038147,-2.42714,0.0544603,-0.0747579,0.0535176,0.07036,-0.0922309,0.147149,-0.126377,-0.0834859,0.00770569,0.0274277,0.0364685,0.0230789,0.0373459,-0.0787354,0.0283813,-0.133057,-9.97986,0.0125885,-0.0242996,0.0399017,0.159798,0.0598526,-0.0274277,0.0362396,-0.0113297
3,0,10.0097,0.00183105,0.00350952,-2.4247,0.0572069,-0.073232,0.0550435,0.0709703,-0.0919257,0.147149,-0.123935,-0.0804342,0.0114822,0.0852966,0.0531769,0.0120544,0.0327301,-0.0798035,0.027771,-0.146179,-9.97986,0.0147247,-0.0115585,0.0358963,0.197105,0.0574112,-0.0251007,0.0319672,-0.0170517
3,1,10.0097,0.000610352,0.0038147,-2.42531,0.0550706,-0.0747579,0.0547383,0.0706652,-0.0919257,0.147455,-0.125156,-0.0810445,0.00869751,0.11055,0.0585938,0.0122833,0.0325012,-0.0838852,0.0271606,-0.149803,-9.97986,0.0162888,-0.00148773,0.0394058,0.238419,0.0558472,-0.018425,0.0324249,-0.0168228
3,2,10.0097,0.00152588,0.00534058,-2.4244,0.0572069,-0.0741475,0.0553487,0.0706652,-0.0931465,0.147455,-0.12363,-0.0786031,0.0137711,0.111008,0.0629044,0.00926971,0.032692,-0.0856781,0.0333023,-0.128899,-9.97986,0.0128555,0.0126648,0.0388718,0.287971,0.0597382,-0.0146866,0.0332642,-0.0139999
3,3,10.0097,0.00152588,0.00457764,-2.42592,0.0569017,-0.0747579,0.0535176,0.0715807,-0.0919257,0.147149,-0.124241,-0.0798238,0.0152969,0.140495,0.0791931,0.00385284,0.0260925,-0.0783539,0.0283432,-0.0835419,-9.97986,0.013237,0.0579071,0.0393677,0.332184,0.0531387,-0.0128555,0.0296783,-0.0167084
3,4,10.0097,0.000305176,0.00457764,-2.42531,0.0553758,-0.0735371,0.0550435,0.0728014,-0.0931465,0.146539,-0.124546,-0.080129,0.0140762,0.168076,0.0865555,0.00427246,0.0269699,-0.082283,0.0310898,-0.0603867,-9.97986,0.0150681,0.08461,0.044136,0.379639,0.056572,-0.0119019,0.0285721,-0.0175476
3,5,10.0097,-0.00244141,0.00411987,-2.4244,0.0562914,-0.0744527,0.0553487,0.0706652,-0.0910102,0.145624,-0.124241,-0.0798238,0.0069046,0.139809,0.0631332,-0.00221252,0.0317764,-0.0697708,0.0325394,-0.0453186,-9.97986,0.0149536,0.0501251,0.0424957,0.435257,0.0539398,-0.01091,0.0286484,-0.014801
3,6,10.0097,0.000610352,0.00427246,-2.42623,0.0541551,-0.0747579,0.0535176,0.0566271,-0.0943672,0.143792,-0.125156,-0.0810445,0.00572205,0.0524139,0.0204849,-0.0124741,0.0291443,-0.0674438,0.0254059,-0.0346756,-9.97986,0.0201797,-0.0259781,0.0442123,0.482101,0.0481796,-0.0172806,0.0313568,-0.0122833
3,7,10.0097,-0.0012207,0.00488281,-2.42684,0.0562914,-0.0747579,0.0550435,0.0612047,-0.0922309,0.145013,-0.126377,-0.0810445,0.0100708,0.026741,-0.00480652,-0.020256,0.0250244,-0.056839,0.0297165,-0.0342941,-9.97986,0.0213242,-0.114365,0.0456238,0.526733,0.0509644,-0.0253677,0.0316238,-0.0160217
3,8,10.0097,-0.00213623,0.00442505,-2.42623,0.0550706,-0.0738423,0.0544332,0.0679186,-0.0928413,0.144403,-0.125461,-0.0807394,0.00629425,0.038147,-0.0317001,-0.0198746,0.0235367,-0.0498581,0.0296021,-0.0524139,-9.97986,0.0201035,-0.102577,0.0466919,0.571022,0.0442123,-0.0285339,0.0297165,-0.0154114
3,9,10.0097,0.0012207,0.00518799,-2.42684,0.0550706,-0.0756734,0.0544332,0.0770738,-0.0925361,0.145318,-0.125766,-0.0825704,0.0129318,0.0207138,-0.0569534,-0.0228882,0.0204086,-0.0405502,0.0294113,-0.0657654,-9.97986,0.0232697,-0.0388718,0.0487518,0.606842,0.0473404,-0.0275421,0.0361633,-0.0134659
4,0,10.0097,0.000915527,0.0050354,-2.42745,0.0547655,-0.0765889,0.0529073,0.0816515,-0.0934516,0.144098,-0.126377,-0.0844015,0.0120926,0.00610352,-0.0455475,-0.0213623,0.0160217,-0.0301743,0.0258255,-0.0505829,-9.97986,0.0163651,-0.0272369,0.046463,0.64064,0.0436783,-0.0262451,0.0397873,-0.0117493
4,1,10.0097,0.000305176,0.00320435,-2.42806,0.0547655,-0.0759786,0.0526021,0.0731066,-0.0943672,0.142572,-0.126987,-0.0862325,0.0130463,-0.0270081,-0.0444794,-0.0129318,0.0123978,-0.0238037,0.0260925,-0.0282288,-9.97986,0.0254822,-0.0572586,0.0509644,0.66185,0.0429916,-0.0298309,0.0416565,-0.00907898
4,2,10.0097,0,0.00183105,-2.42837,0.0538499,-0.0762837,0.0529073,0.0700548,-0.0952827,0.142877,-0.127292,-0.085317,0.0182343,-0.0519562,-0.0503159,-0.01194,0.00621796,-0.0214386,0.0285339,-0.0294495,-9.97986,0.0226974,-0.0556183,0.0530624,0.672531,0.0387192,-0.0366211,0.0430298,-0.00770569
4,3,10.0097,-0.000305176,0.00137329,-2.42928,0.0529344,-0.0753682,0.0535176,0.0706652,-0.0949775,0.144098,-0.126377,-0.0862325,0.016861,-0.0362396,-0.0691605,-0.00843048,0.0063324,-0.0161362,0.0259018,-0.0219345,-9.97986,0.0207138,0.00679016,0.0513077,0.683823,0.0315857,-0.0335312,0.0460052,-0.00400543
4,4,10.0097,0.00366211,0,-2.42898,0.0547655,-0.0756734,0.0526021,0.0697496,-0.095893,0.145318,-0.126377,-0.0871481,0.0191498,0.0050354,-0.117874,-0.00606537,0.0107574,-0.0143433,0.0230026,0.0194168,-9.97986,0.0229645,0.0460052,0.0490952,0.682526,0.0276184,-0.0273514,0.0403214,-0.00492096
4,5,10.0097,0.000610352,-0.000610352,-2.42714,0.0544603,-0.0759786,0.0529073,0.0694445,-0.0946723,0.143487,-0.127903,-0.0862325,0.0176239,0.0362396,-0.131683,-0.00900269,0.0043869,-0.0111771,0.0205612,0.0735855,-9.97986,0.0195313,0.0547409,0.0537109,0.683365,0.0318527,-0.0271225,0.0387573,-0.00247955
4,6,10.0097,0.00152588,0,-2.42776,0.0535448,-0.0768941,0.0513814,0.067003,-0.0943672,0.141656,-0.126682,-0.0865377,0.0154495,-0.0318527,-0.132866,-0.0025177,0.00606537,-0.0094986,0.0211716,0.095787,-9.97986,0.0230408,0.074234,0.0521088,0.687218,0.0268173,-0.0208282,0.0389481,0.00175476
4,7,10.0097,-0.000305176,-0.000152588,-2.42776,0.0550706,-0.0759786,0.0529073,0.0712755,-0.0931465,0.142572,-0.127598,-0.0834859,0.0143814,-0.128899,-0.130882,0.00038147,0.00339508,-0.000152588,0.026474,0.077858,-9.97986,0.0204468,0.0228119,0.0564194,0.689545,0.0204849,-0.0173569,0.0392532,-0.000648499
4,8,10.0097,0.000915527,0.000762939,-2.42501,0.0547655,-0.0759786,0.0538228,0.0694445,-0.0928413,0.145318,-0.126072,-0.0844015,0.00904083,-0.132217,-0.112686,-0.00133514,-0.00202179,-0.00106812,0.0194168,0.059433,-9.97986,0.0259781,-0.0418472,0.0545502,0.691757,0.0159836,-0.00495911,0.0376129,0.001297
4,9,10.0097,0.000915527,0.000457764,-2.42806,0.0547655,-0.075063,0.0529073,0.07036,-0.0928413,0.145624,-0.126377,-0.0834859,0.00873566,-0.0984955,-0.0801849,0.000610352,-0.00469208,0.00328064,0.0183487,0.0647736,-9.97986,0.016861,-0.0925827,0.0510406,0.696182,0.0135422,0.00392914,0.0339508,0.00240326
5,0,10.0097,0,0.00167847,-2.42623,0.0559862,-0.075063,0.054128,0.0694445,-0.0922309,0.14837,-0.125156,-0.0819601,0.011673,-0.0586319,-0.0360489,0.00392914,-0.00499725,0.0102234,0.0191498,0.0373459,-9.97986,0.0138092,-0.068779,0.0565338,0.717354,0.0123596,0.0113297,0.0326538,0.00419617
5,1,10.0097,0.0012207,0.00137329,-2.4244,0.0559862,-0.0747579,0.0544332,0.07036,-0.0925361,0.147149,-0.124241,-0.0807394,0.0120163,-0.0031662,-0.0196457,0.000228882,-0.0113297,0.0141525,0.0183487,-0.0337601,-9.97986,0.014267,0.00591278,0.0547791,0.734901,0.0120544,0.0111008,0.0307846,0.00553131
5,2,10.0097,0.00152588,0.00183105,-2.42592,0.0562914,-0.0741475,0.0550435,0.0700548,-0.0922309,0.148065,-0.124546,-0.0810445,0.010643,0.0297928,-0.0182343,0.00225067,-0.0115204,0.0114822,0.0234604,-0.0572586,-9.97986,0.0154114,0.0107193,0.0595474,0.751228,0.0128174,0.0111771,0.0274658,0.00411987
5,3,10.0097,0.00213623,0.00167847,-2.4244,0.055681,-0.073232,0.0550435,0.07036,-0.0934516,0.146539,-0.124851,-0.0807394,0.00228882,0.0411606,0.00476837,0.00659943,-0.01297,0.0138092,0.0264359,-0.0379181,-9.97986,-0.0012207,-0.0230026,0.0599289,0.76725,0.0123215,0.00915527,0.0286102,0.00789642
5,4,10.0097,0.0012207,0.00167847,-2.42562,0.0559862,-0.0729268,0.0553487,0.0706652,-0.0919257,0.145624,-0.12302,-0.0810445,-0.0056839,0.021019,0.0174713,0.00385284,-0.0148392,0.0172806,0.0307465,-0.021019,-9.97986,-0.0222397,-0.0326157,0.0592422,0.786285,0.0113297,0.00240326,0.0272751,0.0056076
5,5,10.0097,0.000915527,0.00228882,-2.42501,0.0562914,-0.0741475,0.054128,0.0737169,-0.0919257,0.147149,-0.124241,-0.0804342,-0.00991821,0.00564575,0.0237274,0.0019455,-0.013237,0.0212479,0.0260162,-0.0104141,-9.97986,-0.0395584,-0.0202179,0.0571442,0.80719,0.0106812,0.00888824,0.0265121,0.00606537
5,6,10.0097,-0.0012207,0.000457764,-2.42592,0.0553758,-0.0741475,0.0538228,0.0541857,-0.0937568,0.145318,-0.126072,-0.0825704,-0.0130463,0.0134659,0.0233841,-0.00141144,-0.0109863,0.0312042,0.0291824,-0.00343323,-9.97986,-0.0458908,-0.0245285,0.0508499,0.829048,0.00434875,0.0131607,0.0239944,0.00946045
5,7,10.0097,-0.000305176,0.00152588,-2.42623,0.0559862,-0.0744527,0.054128,0.0627306,-0.0925361,0.147455,-0.125461,-0.0813497,-0.00904083,0.0131989,0.0266266,-0.00179291,-0.00648499,0.0315857,0.0342178,0.001297,-9.97986,-0.0387573,-0.0292587,0.0542068,0.850182,-0.00133514,0.0159836,0.0198364,0.00785828
5,8,10.0097,0.0012207,0.00198364,-2.42592,0.055681,-0.075063,0.0544332,0.0694445,-0.0919257,0.145318,-0.125461,-0.0816549,0.00282288,0.030365,0.0505447,-0.000648499,-0.0105286,0.0390244,0.0340652,0.00659943,-9.97986,-0.0215912,-0.045166,0.0521851,0.860939,-0.00976563,0.0128937,0.0166702,0.0104523
5,9,10.0097,-0.000610352,0.00259399,-2.42562,0.0535448,-0.0741475,0.0538228,0.0767687,-0.0922309,0.145929,-0.125156,-0.0825704,0.0262833,0.0428009,0.0474167,0.00667572,-0.0137329,0.0398636,0.033493,0.0196838,-9.97986,0.00511169,-0.0538254,0.0522995,0.875473,-0.0263596,0.0135422,0.0120163,0.00976563
6,0,10.0097,0.00244141,0.00244141,-2.42989,0.055681,-0.0756734,0.0538228,0.080736,-0.0946723,0.144098,-0.126682,-0.085317,0.0315094,0.0139618,0.0406647,0.00488281,-0.00946045,0.0418854,0.0336075,0.0348663,-9.97986,0.0315857,0.000724792,0.0534821,0.891495,-0.0418472,0.0192642,0.0102615,0.0109863
6,1,10.0097,0.000610352,0.00137329,-2.42837,0.0541551,-0.0759786,0.0519917,0.0728014,-0.0949775,0.143792,-0.126072,-0.0856222,0.0217438,0.000419617,0.041275,0.00419617,-0.0161743,0.0416565,0.0287247,0.0349426,-9.97986,0.0486755,0.034523,0.0487137,0.895615,-0.0426102,0.0202179,0.00614166,0.0150299
6,2,10.0097,0.000610352,0.000762939,-2.42867,0.0544603,-0.0756734,0.0519917,0.0700548,-0.0934516,0.144708,-0.126987,-0.0871481,0.0171661,0.0063324,0.0445938,0.00621796,-0.0133133,0.0481415,0.03685,0.0514221,-9.97986,0.0544739,0.00801086,0.0460815,0.908012,-0.0262451,0.0238037,0.0119019,0.0130463
6,3,10.0097,0.00213623,-0.000152588,-2.42898,0.0538499,-0.0759786,0.0526021,0.0691393,-0.095893,0.145318,-0.127292,-0.0865377,0.0103378,-0.000152588,0.0462341,0.0037384,-0.0152588,0.0447845,0.0391006,0.0759506,-9.97986,0.0464249,-0.00286102,0.0459671,0.904617,-0.0124359,0.0186539,0.00347137,0.0191116
6,4,10.0097,0.00213623,-0.000610352,-2.42837,0.0529344,-0.0759786,0.0519917,0.0673082,-0.0946723,0.143792,-0.127598,-0.0868429,0.00385284,0.00751495,0.0498581,0.00350952,-0.0109482,0.049057,0.0445557,0.0861359,-9.97986,0.039978,-0.0244522,0.0426865,0.894814,0.000495911,0.0197983,-0.00228882,0.0206757
6,5,10.0097,0.00152588,-0.00167847,-2.42959,0.0538499,-0.0756734,0.0519917,0.0685289,-0.0946723,0.143792,-0.127598,-0.0874532,0.00938416,0.014801,0.0635529,0.0087738,-0.00961304,0.0564575,0.0455093,0.0844574,-9.97986,0.0304031,-0.0274658,0.0374985,0.881042,0.00724792,0.0267792,0.00198364,0.0191498
6,6,10.0097,0,-0.00152588,-2.42837,0.0547655,-0.0759786,0.0519917,0.0688341,-0.0949775,0.145624,-0.126682,-0.0865377,0.00671387,0.0322723,0.0735855,0.0108719,-0.0107956,0.0558853,0.0429535,0.0764084,-9.97986,0.0164795,-0.036087,0.0389481,0.866508,0.00431061,0.0225067,0.000915527,0.0208282
6,7,10.0097,0.00152588,-0.00106812,-2.42745,0.0547655,-0.0741475,0.0529073,0.0691393,-0.0937568,0.143792,-0.126682,-0.0850118,0.00789642,0.0450897,0.0883484,0.012207,-0.0109482,0.0538635,0.0413132,0.0727463,-9.97986,0.0139618,-0.0309372,0.0362396,0.854225,-0.00171661,0.0223541,0.00240326,0.0230408
6,8,10.0097,0.00152588,-0.0012207,-2.42806,0.0550706,-0.0753682,0.0529073,0.0685289,-0.094062,0.146539,-0.126072,-0.0844015,0.0117111,0.0421143,0.0970078,0.014801,-0.0172043,0.0496674,0.0421524,0.05867,-9.97986,0.00850677,-0.0318146,0.0343323,0.840378,-0.00938416,0.0224686,0.00240326,0.02285
6,9,10.0097,-0.000915527,-0.00137329,-2.42684,0.0550706,-0.0762837,0.0522969,0.0700548,-0.0934516,0.145318,-0.125461,-0.0840963,0.00980377,0.0389481,0.108147,0.0247192,-0.0128555,0.050087,0.0389481,0.0426865,-9.97986,0.00881195,-0.0197983,0.032196,0.823708,-0.016098,0.02285,0.00484467,0.0292206
7,0,10.0097,-0.000610352,-0.00106812,-2.42592,0.0559862,-0.0744527,0.0535176,0.0694445,-0.0910102,0.146539,-0.124241,-0.0825704,0.00938416,0.0523758,0.109062,0.017395,-0.0175095,0.0455856,0.0378036,0.0205231,-9.97986,0.00526428,0.00411987,0.0317383,0.803947,-0.0209045,0.0212479,0.0019455,0.0251007
7,1,10.0097,0.00244141,-0.000457764,-2.42592,0.0562914,-0.0744527,0.054128,0.07036,-0.0919257,0.146539,-0.124851,-0.0810445,0.0167084,0.0658417,0.10952,0.0157166,-0.0169373,0.0415802,0.0401306,0.00957489,-9.97986,0.00366211,0.00572205,0.0306702,0.800323,-0.0186539,0.0222778,0.000343323,0.0224686
7,2,10.0097,0.00183105,-0.000457764,-2.42379,0.0559862,-0.073232,0.0547383,0.0718859,-0.090705,0.14837,-0.124546,-0.0816549,0.0108719,0.106125,0.111122,0.00843048,-0.0143814,0.038414,0.0458145,0.0238419,-9.97986,-0.00274658,0.00244141,0.0275803,0.796013,-0.0167084,0.0222397,0.00499725,0.029335
7,3,10.0097,0.000610352,-0.000305176,-2.4247,0.0569017,-0.075063,0.0544332,0.0718859,-0.0928413,0.14776,-0.124241,-0.0810445,0.0113678,0.154076,0.111275,0.00534058,-0.0181198,0.0295258,0.0433731,0.0278473,-9.97986,-0.00282288,0.0114441,0.0256729,0.793953,-0.00770569,0.0229645,0.00530243,0.030365
7,4,10.0097,0.00152588,0.000152588,-2.4247,0.055681,-0.0738423,0.0544332,0.0718859,-0.0910102,0.147455,-0.124546,-0.0810445,0.017662,0.164757,0.121231,0.0119781,-0.014267,0.0273895,0.04776,0.0233459,-9.97986,-0.000724792,-0.00450134,0.0252914,0.79361,-0.00392914,0.0239182,0.0153732,0.0348282
7,5,10.0097,-0.00183105,-0.000610352,-2.4247,0.0578172,-0.073232,0.0547383,0.072191,-0.0913154,0.14776,-0.124241,-0.0810445,0.0120163,0.149879,0.124054,0.00301361,-0.014267,0.0172043,0.0444031,0.0347519,-9.97986,-0.00354767,-0.00125885,0.0224304,0.777168,-0.0120163,0.0267029,0.0148773,0.034523
7,6,10.0097,-0.000305176,-0.00198364,-2.42562,0.055681,-0.0747579,0.0553487,0.0569322,-0.0934516,0.146234,-0.126072,-0.0825704,0.0181961,0.157661,0.114555,-0.0109863,-0.0147247,0.0157928,0.0434875,0.0411987,-9.97986,0.00740051,0.0485229,0.02388,0.754204,-0.0174713,0.0235748,0.0159073,0.0406265
7,7,10.0097,0.000305176,-0.00244141,-2.42653,0.055681,-0.0741475,0.054128,0.0621202,-0.0925361,0.144403,-0.124851,-0.0828756,0.0191879,0.123024,0.0927353,-0.0117111,-0.0139236,0.0158691,0.0468445,0.0371933,-9.97986,0.01091,0.124321,0.0204849,0.728722,-0.0211716,0.0232697,0.0191879,0.0431442
7,8,10.0097,-0.00183105,-0.00213623,-2.42714,0.0559862,-0.0759786,0.0532125,0.0685289,-0.0925361,0.144098,-0.126377,-0.0837911,0.0203705,0.0608063,0.0552368,-0.0063324,-0.0105667,0.0113297,0.0392151,0.0227737,-9.97986,0.0174713,0.104561,0.0177765,0.683784,-0.0230026,0.0273514,0.0217438,0.0459671
7,9,10.0097,0.000610352,-0.00335693,-2.42623,0.0553758,-0.0747579,0.0553487,0.0776842,-0.0913154,0.144708,-0.124546,-0.0834859,0.0188828,0.0204086,0.0252914,0.00518799,-0.0108719,0.00915527,0.034523,0.021553,-9.97986,0.0211716,0.0116348,0.0154114,0.653076,-0.025444,0.0270844,0.0273132,0.0479507
8,0,10.0097,-0.0012207,-0.00259399,-2.42837,0.0547655,-0.075063,0.0519917,0.0798204,-0.0928413,0.142572,-0.127292,-0.0868429,0.0107193,-0.00732422,-0.00213623,0.00183105,-0.00392914,0.00999451,0.0322342,0.0244904,-9.97986,0.0228119,-0.047493,0.015831,0.605354,-0.0238037,0.027504,0.0279999,0.0476456
8,1,10.0097,-0.000915527,-0.00427246,-2.42867,0.0547655,-0.0747579,0.0522969,0.0728014,-0.0946723,0.144098,-0.126377,-0.0868429,0.00976563,-0.00865936,-0.0231934,0.00522614,-0.00247955,0.00648499,0.033989,0.0100708,-9.97986,0.0299835,-0.0455856,0.0117493,0.549431,-0.0165558,0.0262833,0.0274658,0.0510406
8,2,10.0097,0.000305176,-0.00564575,-2.42959,0.0544603,-0.0759786,0.0513814,0.07036,-0.0943672,0.143792,-0.126987,-0.0886739,0.00793457,0.0222397,-0.0400543,0.00682831,-0.000915527,-0.00232697,0.0251389,0.00038147,-9.97986,0.0261688,-0.001297,0.0139999,0.488815,-0.0119781,0.0210571,0.030632,0.0525284
8,3,10.0097,0.00213623,-0.00686646,-2.42959,0.0535448,-0.0771993,0.0519917,0.0697496,-0.0952827,0.145318,-0.126377,-0.0883688,0.0121307,0.0385666,-0.0319672,0.00522614,-0.0094223,-0.00305176,0.0220871,-0.00663757,-9.97986,0.0286865,0.0349426,0.0101852,0.421982,-0.0087738,0.0165176,0.0331116,0.0557709
8,4,10.0097,-0.000305176,-0.00656128,-2.42959,0.0532396,-0.0765889,0.0522969,0.0679186,-0.0943672,0.140741,-0.126987,-0.0880636,0.0111008,0.0262833,-0.0123596,0.00843048,-0.00778198,-0.00507355,0.0207901,-0.00038147,-9.97986,0.0206757,0.0322342,0.0139618,0.357056,-0.00892639,0.0116348,0.0390625,0.0578308
8,5,10.0097,0.0012207,-0.00701904,-2.42837,0.0535448,-0.0753682,0.0519917,0.0691393,-0.0955879,0.143792,-0.126072,-0.0895895,0.00934601,0.00110626,-0.010643,0.0160217,-0.00595093,-0.00904083,0.0164795,0.00301361,-9.97986,0.0195313,-0.0112152,0.00846863,0.296326,-0.0114059,0.00766754,0.0379562,0.060463
8,6,10.0097,0.0012207,-0.00656128,-2.42928,0.0535448,-0.0759786,0.0535176,0.0691393,-0.094062,0.142572,-0.127292,-0.0877584,0.0133133,-0.00175476,-0.0147247,0.0159073,-0.000648499,-0.00671387,0.0120163,0.00572205,-9.97986,0.0218582,0.00278473,0.0062561,0.235519,-0.0133896,0.0018692,0.042305,0.062027
8,7,10.0097,-0.000610352,-0.00579834,-2.42714,0.0550706,-0.0756734,0.0522969,0.07036,-0.0931465,0.143792,-0.126682,-0.0871481,0.0141907,-0.0176239,-0.0133133,0.0162125,-0.000534058,-0.00896454,0.0105286,0.018692,-9.97986,0.019455,0.0880814,0.00267029,0.168419,-0.0143433,-0.00743866,0.0337982,0.0601196
8,8,10.0097,0.00335693,-0.00579834,-2.42623,0.055681,-0.0747579,0.0535176,0.0709703,-0.0946723,0.144708,-0.126377,-0.0865377,0.0109482,-0.0488663,-0.0217438,0.0168991,0.00297546,-0.0123596,0.00419617,0.0309372,-9.97986,0.0207901,0.0987244,0.00179291,0.111694,-0.0164413,-0.00389099,0.0338745,0.0626373
8,9,10.0097,0.00152588,-0.0050354,-2.42684,0.0541551,-0.0738423,0.0535176,0.0700548,-0.0922309,0.146234,-0.125766,-0.0847066,0.0115585,-0.0440979,-0.0175858,0.0150681,0.00106812,-0.0134277,0.00297546,0.0455475,-9.97986,0.018692,0.00236511,-0.00225067,0.0624466,-0.0148392,0.00347137,0.0303268,0.0599289
9,0,10.0097,-0.000915527,-0.00473022,-2.42531,0.0559862,-0.0738423,0.0535176,0.0724962,-0.0919257,0.145929,-0.124241,-0.0828756,0.00610352,-0.0298691,-0.0154114,0.0163651,0.00572205,-0.0193405,0.000228882,0.0455856,-9.97986,0.0156021,-0.0704956,-0.00831604,0.0163269,-0.0134659,0.00610352,0.0303268,0.0588226
9,1,10.0097,-0.000610352,-0.00442505,-2.4247,0.055681,-0.0738423,0.0547383,0.0712755,-0.0916206,0.146844,-0.123935,-0.0831808,0.010376,-0.0304031,-0.0088501,0.0196075,0.0137329,-0.0188446,0.000419617,0.0543976,-9.97986,0.0201797,-0.054512,-0.00946045,-0.0285339,-0.00717163,0.00488281,0.0252533,0.0610733
9,2,10.0097,0.000305176,-0.00350952,-2.42348,0.0562914,-0.0714009,0.0550435,0.0709703,-0.0919257,0.146539,-0.124241,-0.0822652,0.00808716,-0.0271606,0.00144958,0.0134659,0.0146866,-0.0180054,0.00534058,0.0657272,-9.97986,0.0157547,-0.023613,-0.00663757,-0.07267,-0.00659943,0.000534058,0.0234222,0.0611496
9,3,10.0097,0.000610352,-0.0038147,-2.42531,0.0575121,-0.0738423,0.054128,0.0728014,-0.0919257,0.147455,-0.124546,-0.0828756,0.0056076,-0.0228882,0.0043869,0.0156784,0.0193405,-0.0183487,0.00171661,0.0665665,-9.97986,0.0157166,-0.0119019,-0.00137329,-0.118141,-0.000228882,0.00198364,0.02491,0.0627518
9,4,10.0097,0.00152588,-0.00305176,-2.42562,0.055681,-0.0741475,0.0544332,0.0709703,-0.0910102,0.146539,-0.12363,-0.0825704,0.00247955,-0.0161743,0.0223923,0.0183487,0.0208282,-0.0162888,0.00225067,0.051918,-9.97986,0.0117493,-0.0169754,0.000801086,-0.161171,-0.00274658,-0.00156403,0.0172806,0.0606918
9,5,10.0097,-0.000610352,-0.00457764,-2.42562,0.0572069,-0.0738423,0.0547383,0.0715807,-0.0916206,0.147149,-0.123325,-0.0819601,0.00968933,-0.00450134,0.0410461,0.0201035,0.0235367,-0.0175476,0.00225067,0.0426102,-9.97986,0.00320435,-0.0260162,-0.00110626,-0.217361,-0.00221252,0.000801086,0.0149155,0.062027
9,6,10.0097,0.00183105,-0.00473022,-2.42684,0.0559862,-0.0747579,0.054128,0.0557115,-0.094062,0.146844,-0.124851,-0.0834859,0.00720978,0.0112534,0.0659943,0.0220871,0.0304794,-0.0182343,0.0037384,0.0618744,-9.97986,-0.00358582,-0.0298309,0.00358582,-0.253677,-0.00328064,-0.00328064,0.0148773,0.0642776
9,7,10.0097,-0.0012207,-0.00350952,-2.42562,0.0550706,-0.0747579,0.0547383,0.0642565,-0.0916206,0.146539,-0.125461,-0.0834859,0.00576019,0.0442123,0.100403,0.0221634,0.0310516,-0.0157547,-0.000228882,0.103531,-9.97986,-0.00747681,-0.00816345,0.00240326,-0.29129,-0.00144958,-0.00469208,0.00926971,0.0606537
9,8,10.0097,0.00244141,-0.00350952,-2.42776,0.055681,-0.0738423,0.0544332,0.0691393,-0.0928413,0.144708,-0.125766,-0.0837911,0.00297546,0.0683975,0.121231,0.02491,0.0342941,-0.0198364,-0.00240326,0.157394,-9.97986,-0.0131226,0.0201035,0.00499725,-0.323792,0.00450134,-0.00263214,0.00938416,0.0565338
9,9,10.0097,0.0012207,-0.00274658,-2.42562,0.0544603,-0.0744527,0.054128,0.077379,-0.0919257,0.145318,-0.125766,-0.0840963,0.00553131,0.0655746,0.144119,0.0265121,0.0445175,-0.0178909,-0.00545502,0.199547,-9.97986,-0.0152588,0.0404358,0.00606537,-0.350494,0.00728607,0.000228882,0.00762939,0.0601578
10,0,10.0097,0.00305176,-0.00289917,-2.42776,0.0544603,-0.0759786,0.0532125,0.0776842,-0.0934516,0.144708,-0.126072,-0.0859274,0.00705719,0.070076,0.162849,0.0246048,0.0426483,-0.014534,-0.00331879,0.195122,-9.97986,-0.0213242,0.0502014,0.00526428,-0.383682,0.00572205,-0.00164032,0.00144958,0.0563812
10,1,10.0097,-0.000305176,-0.00259399,-2.42867,0.0553758,-0.0759786,0.0529073,0.0718859,-0.0937568,0.144708,-0.126987,-0.0871481,0.0101852,0.0852203,0.183067,0.0269699,0.0445557,-0.0125885,-0.0104141,0.159492,-9.97986,-0.0302887,0.0469589,0.00865936,-0.404205,0.0125504,-0.00144958,-0.00106812,0.0525284
10,2,10.0097,0.000610352,-0.00274658,-2.42806,0.0535448,-0.0753682,0.0516866,0.0685289,-0.0946723,0.144098,-0.127598,-0.0871481,0.0120163,0.129662,0.189209,0.0204468,0.0502777,-0.00938416,-0.0043869,0.0983429,-9.97986,-0.0302887,0.0514221,0.0156784,-0.418205,0.00789642,-0.00621796,-0.00701904,0.0496292
10,3,10.0097,-0.000915527,-0.00183105,-2.42959,0.0529344,-0.0765889,0.0522969,0.0694445,-0.0943672,0.143792,-0.126987,-0.0868429,0.0178146,0.175972,0.16346,0.0183868,0.0510406,-0.00911713,-0.00804901,0.0205231,-9.97986,-0.0229263,0.0621796,0.0135422,-0.429916,0.0112534,-0.0154877,-0.00812531,0.0461197
10,4,10.0097,-0.00213623,-0.00137329,-2.42928,0.0538499,-0.0768941,0.0529073,0.0685289,-0.095893,0.146539,-0.128208,-0.0868429,0.0113678,0.254898,0.164909,0.0113297,0.0497055,-0.00297546,-0.00770569,-0.0587463,-9.97986,-0.0177002,0.0485992,0.0196075,-0.441628,0.0105286,-0.0269699,-0.0116348,0.0441742
10,5,10.0097,-0.00183105,-0.00106812,-2.42898,0.0538499,-0.0762837,0.0526021,0.0691393,-0.0952827,0.144098,-0.127598,-0.0877584,0.0218582,0.258255,0.108452,0.0193787,0.0568008,0.00171661,-0.0149918,-0.109406,-9.97986,-0.00648499,0.0336456,0.0248718,-0.445442,0.0141144,-0.0285339,-0.0160217,0.0443268
10,6,10.0097,-0.00183105,-0.0012207,-2.42898,0.0547655,-0.075063,0.0529073,0.0700548,-0.0946723,0.141961,-0.126682,-0.085317,0.0225067,0.102844,0.017128,0.0228119,0.0536728,0.00576019,-0.00904083,-0.144577,-9.97986,0.00667572,0.0513458,0.0266647,-0.448036,0.0143051,-0.027504,-0.017395,0.0435638
10,7,10.0097,-0.0012207,-0.000305176,-2.42837,0.0544603,-0.0753682,0.0535176,0.0715807,-0.0922309,0.141656,-0.126377,-0.0840963,0.0234604,-0.0113678,-0.00896454,0.017662,0.0534439,0.00873566,-0.00400543,-0.175323,-9.97986,0.019722,0.0936127,0.0321579,-0.451088,0.0162506,-0.0223923,-0.0148773,0.0423431
10,8,10.0097,-0.000305176,-0.000457764,-2.42592,0.0559862,-0.0741475,0.054128,0.0694445,-0.0928413,0.141046,-0.126682,-0.0834859,0.0188828,0.0109482,-0.0315857,0.00640869,0.0537109,0.00892639,-0.00171661,-0.17746,-9.97986,0.0256348,0.0940704,0.0326157,-0.452461,0.0150681,-0.0200272,-0.0204086,0.0426865
10,9,10.0097,-0.00244141,-0.000305176,-2.42653,0.0541551,-0.0756734,0.0544332,0.07036,-0.0934516,0.146234,-0.125461,-0.0834859,0.0169373,0.0576019,-0.073967,0.00473022,0.0523376,0.0094986,-0.000762939,-0.149956,-9.97986,0.0347137,0.0797653,0.03582,-0.455284,0.0190735,-0.0239944,-0.0202179,0.0441742
11,0,10.0097,0.000915527,-0.000305176,-2.42562,0.0565965,-0.073232,0.0550435,0.0697496,-0.0916206,0.146539,-0.124546,-0.0822652,0.019455,0.0711441,-0.103111,0.00854492,0.051384,0.0107574,0.00385284,-0.12825,-9.97986,0.0445938,0.0616455,0.0417709,-0.464592,0.0186539,-0.0275421,-0.0206375,0.0444031
11,1,10.0097,-0.000915527,-0.000457764,-2.42562,0.0569017,-0.0747579,0.054128,0.0712755,-0.0919257,0.145013,-0.124851,-0.0819601,0.0129318,0.0384903,-0.141525,0.00988007,0.0513077,0.00793457,0.0115204,-0.0849915,-9.97986,0.0566101,0.00682831,0.0409317,-0.475807,0.0153351,-0.0321198,-0.0209808,0.0449753
11,2,10.0097,-0.0012207,0,-2.4244,0.0569017,-0.0741475,0.0556539,0.0697496,-0.0916206,0.145013,-0.12363,-0.0816549,0.00488281,-0.0261688,-0.175095,0.00492096,0.0566483,0.00556946,0.00900269,-0.0593185,-9.97986,0.0617218,-0.0609589,0.0443649,-0.482635,0.016098,-0.0279617,-0.0231171,0.0478363
11,3,10.0097,0.00152588,-0.00137329,-2.4244,0.0572069,-0.073232,0.0547383,0.0715807,-0.0922309,0.143792,-0.12363,-0.0816549,0.01091,-0.13134,-0.198936,0.0101471,0.0551224,0.00980377,0.0167084,-0.0389862,-9.97986,0.0645447,-0.0645065,0.0432968,-0.490608,0.0189209,-0.0187302,-0.0189209,0.0494766
11,4,10.0097,0.00213623,-0.000762939,-2.42684,0.0581224,-0.0741475,0.0544332,0.0691393,-0.0916206,0.146844,-0.123935,-0.0813497,0.0127029,-0.17971,-0.175591,0.0125122,0.0525665,0.0112915,0.021553,-0.0247192,-9.97986,0.062027,-0.0317001,0.0405121,-0.502434,0.0177002,-0.0260544,-0.0177002,0.0492859
11,5,10.0097,0.00244141,-0.000305176,-2.42501,0.0559862,-0.0729268,0.0547383,0.0700548,-0.0894843,0.14898,-0.123325,-0.0813497,0.00808716,-0.1297,-0.137444,0.0138855,0.050621,0.0157547,0.0283432,-0.0179291,-9.97986,0.0564957,-0.0156784,0.03582,-0.506668,0.0211334,-0.0276947,-0.0173187,0.0512695
11,6,10.0097,-0.000915527,-0.000915527,-2.42592,0.0562914,-0.0744527,0.0532125,0.0566271,-0.0937568,0.146844,-0.125156,-0.0825704,0.00728607,-0.080986,-0.109444,0.01091,0.0481033,0.0136566,0.02388,-0.00976563,-9.97986,0.0452042,-0.0120926,0.0291443,-0.513916,0.0223923,-0.033989,-0.020752,0.0497055
11,7,10.0097,0.0012207,-0.00137329,-2.42623,0.0553758,-0.0747579,0.0544332,0.0627306,-0.0922309,0.147149,-0.125766,-0.0822652,0.0127411,-0.031662,-0.0697327,0.00507355,0.0469589,0.0236893,0.0301743,-0.00202179,-9.97986,0.0373459,0.00511169,0.0203323,-0.527229,0.0220871,-0.0269318,-0.0197601,0.052681
11,8,10.0097,-0.000305176,-0.00198364,-2.42623,0.055681,-0.0744527,0.0535176,0.0685289,-0.0925361,0.147149,-0.125461,-0.0837911,0.0117111,-0.0012207,-0.0413132,0.0110245,0.0477219,0.0212097,0.0244904,-0.00267029,-9.97986,0.0310516,0.0181198,0.00534058,-0.538864,0.0248718,-0.029068,-0.0246429,0.0540161
11,9,10.0097,0.000305176,-0.000610352,-2.42714,0.0547655,-0.0741475,0.0535176,0.0767687,-0.0916206,0.147149,-0.124241,-0.0834859,0.0107193,0.0174332,-0.0296021,0.0131607,0.0471115,0.0312042,0.0222015,0.00450134,-9.97986,0.026741,0.00911713,-0.00202179,-0.548363,0.0251007,-0.0400543,-0.0236511,0.0546265
12,0,10.0097,0.000610352,0.000610352,-2.42806,0.0553758,-0.0765889,0.0522969,0.0789049,-0.0937568,0.141961,-0.126682,-0.0859274,0.0107193,0.0200272,-0.0175858,0.0144958,0.0451279,0.0349045,0.0230789,0.00793457,-9.97986,0.0270081,-0.0305939,-0.010643,-0.549927,0.0224304,-0.0414276,-0.0242233,0.0543594
12,1,10.0097,0.000915527,-0.000152588,-2.42806,0.0538499,-0.0753682,0.0529073,0.0718859,-0.094062,0.143792,-0.126377,-0.0859274,0.0127029,-0.00537872,-0.0168991,0.0170898,0.0421143,0.0468445,0.0234985,0.0131607,-9.97986,0.0286102,0.00175476,-0.0198364,-0.54882,0.0235367,-0.038147,-0.0200653,0.057106
12,2,10.0097,0.000610352,0,-2.42928,0.0547655,-0.0775044,0.0522969,0.0706652,-0.0943672,0.145013,-0.127598,-0.0859274,0.0101089,-0.0215912,-0.0151062,0.016098,0.0395584,0.0522995,0.0272369,0.0153351,-9.97986,0.0244141,0.0518036,-0.0305557,-0.555687,0.0236511,-0.0321579,-0.0207901,0.0561523
12,3,10.0097,0.000305176,-0.000762939,-2.42898,0.0526292,-0.075063,0.0535176,0.0697496,-0.0946723,0.143487,-0.127903,-0.0871481,0.0101471,-0.0012207,-0.00644684,0.0138474,0.029068,0.0611877,0.0260925,0.0169373,-9.97986,0.021286,0.0652695,-0.0361633,-0.551567,0.0249481,-0.033493,-0.0188065,0.055275
12,4,10.0097,0.000610352,-0.000152588,-2.42776,0.0544603,-0.0762837,0.0522969,0.0688341,-0.0949775,0.144098,-0.127292,-0.0862325,0.0130463,0.016098,-0.000305176,0.0150681,0.0302887,0.0658417,0.0337601,0.0252151,-9.97986,0.0197983,0.0128555,-0.0426483,-0.530739,0.0235748,-0.046463,-0.0181961,0.0551224
12,5,10.0097,0.000610352,0.00106812,-2.42898,0.0532396,-0.0759786,0.0529073,0.0691393,-0.0952827,0.144708,-0.126682,-0.0862325,0.00995636,0.00240326,0.00526428,0.0115585,0.0281525,0.0643539,0.0282288,0.0245667,-9.97986,0.0198746,-0.0746536,-0.0411606,-0.510674,0.0268936,-0.0623322,-0.0153732,0.052948
12,6,10.0097,0.0012207,0.00106812,-2.42867,0.0535448,-0.0756734,0.0532125,0.0691393,-0.0931465,0.143792,-0.126072,-0.0856222,0.0106049,-0.0252914,0.0107574,0.00991821,0.0222015,0.0631714,0.0263977,0.0230026,-9.97986,0.0188065,-0.0647736,-0.0426102,-0.492821,0.0276947,-0.0736237,-0.0123215,0.0517654
12,7,10.0097,0.000915527,0.0012207,-2.42806,0.0553758,-0.0756734,0.0522969,0.0697496,-0.0931465,0.144403,-0.127292,-0.0834859,0.0108337,-0.00152588,0.0226593,0.0139618,0.0201797,0.0614166,0.0156403,0.0269699,-9.97986,0.0127792,-0.0165939,-0.0407028,-0.474052,0.0329971,-0.0700378,-0.00556946,0.0570679
12,8,10.0097,0.000610352,0.00259399,-2.42776,0.0541551,-0.0753682,0.0532125,0.0697496,-0.0922309,0.145929,-0.125156,-0.0837911,0.0125122,0.0134659,0.0275803,0.0141907,0.0217056,0.0653458,0.0143814,0.0301361,-9.97986,0.0127792,-0.0128937,-0.0363922,-0.447693,0.0337982,-0.0609589,-0.00667572,0.0537872
12,9,10.0097,0.00244141,0.00137329,-2.42684,0.0541551,-0.075063,0.0538228,0.0697496,-0.0934516,0.148065,-0.126072,-0.0834859,0.0122833,0.018425,0.0296783,0.0132751,0.0186157,0.0616455,0.0128174,0.031395,-9.97986,0.014534,-0.0222015,-0.030632,-0.434303,0.0379562,-0.0498581,-0.00495911,0.055275
13,0,10.0097,0.000305176,0.00183105,-2.42623,0.0569017,-0.0738423,0.054128,0.0712755,-0.0919257,0.145624,-0.125156,-0.0813497,0.011673,0.0245285,0.0294113,0.0123596,0.0169754,0.07267,0.0154877,0.0389481,-9.97986,0.0111771,-0.0379944,-0.0203323,-0.429611,0.0324249,-0.0426865,-0.00236511,0.057106
13,1,10.0097,0.00152588,0.00106812,-2.42592,0.0575121,-0.0723164,0.0547383,0.0709703,-0.0910102,0.145929,-0.12363,-0.0816549,0.00961304,0.02388,0.0343323,0.0162125,0.0100708,0.0808334,0.0230789,0.0354385,-9.97986,0.0139236,-0.0356674,-0.00434875,-0.4179,0.0375748,-0.0522232,-0.00267029,0.0493622
13,2,10.0097,0.0012207,0.000152588,-2.42501,0.055681,-0.0741475,0.0550435,0.07036,-0.0922309,0.151727,-0.124546,-0.0810445,0.0087738,0.0263214,0.0342941,0.01091,0.00511169,0.0797272,0.0335693,0.0404358,-9.97986,0.00888824,-0.0202179,0.0175858,-0.416832,0.0364685,-0.0437546,0.0019455,0.0447464
13,3,10.0097,0.00152588,0.000305176,-2.4247,0.0559862,-0.0741475,0.0584004,0.0709703,-0.0916206,0.147149,-0.123935,-0.0804342,0.013504,0.0307465,0.0376511,0.0146103,0.0063324,0.0788498,0.0296783,0.0351715,-9.97986,0.00671387,-0.0209045,0.0312424,-0.41172,0.0345612,-0.0354767,0.00247955,0.0465012
13,4,10.0097,0,0.000305176,-2.42562,0.055681,-0.0738423,0.0550435,0.0715807,-0.0916206,0.146234,-0.127598,-0.0813497,0.0144577,0.0340652,0.0369263,0.0170517,0.00659943,0.0772095,0.0310135,0.0408173,-9.97986,0.0100708,-0.0226212,0.0487137,-0.419464,0.0337982,-0.0222015,0.00648499,0.0383759
13,5,10.0097,0.00183105,-0.000305176,-2.42531,0.0565965,-0.0738423,0.0553487,0.0712755,-0.0916206,0.144098,-0.124241,-0.080129,0.00865936,0.0350189,0.0416183,0.0110626,0.00553131,0.0790405,0.032196,0.0350952,-9.97986,0.00984192,0.00576019,0.0580215,-0.418587,0.0343323,-0.00259399,0.00843048,0.0382233
13,6,10.0097,0.0012207,-0.000915527,-2.42684,0.055681,-0.0738423,0.0538228,0.0569322,-0.094062,0.145624,-0.125766,-0.0834859,0.00442505,0.0329208,0.041008,0.0120163,0.00415802,0.0812149,0.0272369,0.0376511,-9.97986,0.00747681,0.0366592,0.0658417,-0.4282,0.0283051,0.0169373,0.00984192,0.0318527
13,7,10.0097,0.000610352,-0.00106812,-2.42531,0.0559862,-0.0735371,0.0553487,0.0627306,-0.0928413,0.145929,-0.128513,-0.0822652,0.0038147,0.0384903,0.0392532,0.0101471,0.00629425,0.0815201,0.033493,0.0387192,-9.97986,0.00644684,0.0437164,0.0754547,-0.434723,0.0206375,0.023613,0.0148773,0.0275421
13,8,10.0097,0.000610352,-0.000610352,-2.42714,0.0553758,-0.0744527,0.054128,0.0688341,-0.0934516,0.145624,-0.124546,-0.0837911,0.00297546,0.0387573,0.0370407,0.0125122,0.00267029,0.0840378,0.0360107,0.0409698,-9.97986,0.0138474,-0.00232697,0.0714493,-0.44632,0.0215149,0.0276566,0.0149918,0.0291061
13,9,10.0097,0.000610352,-0.000915527,-2.42623,0.0550706,-0.0747579,0.0544332,0.0767687,-0.0922309,0.144403,-0.125461,-0.0834859,0.00350952,0.0395203,0.0400543,0.00747681,0.00396729,0.0799561,0.0397873,0.0417328,-9.97986,0.00537872,-0.0389862,0.0603104,-0.458488,0.0180817,0.0212097,0.0164032,0.0255203
14,0,10.0097,0.0012207,0.000457764,-2.42806,0.0529344,-0.0759786,0.0529073,0.0795153,-0.0937568,0.144098,-0.126377,-0.0856222,0.00663757,0.0343704,0.0333405,0.0120163,0.00209808,0.0762558,0.0375366,0.0401306,-9.97986,0.00930786,-0.037117,0.0537872,-0.458298,0.0167084,0.0192261,0.0209427,0.0210571
14,1,10.0097,0.0012207,-0.000305176,-2.42684,0.0547655,-0.0756734,0.0516866,0.0728014,-0.0952827,0.142267,-0.126682,-0.0862325,0.00926971,0.0374603,0.0424957,0.00896454,0.00900269,0.0818253,0.0389481,0.0371933,-9.97986,0.00923157,-0.016861,0.0548172,-0.463791,0.0112534,0.0361633,0.0222015,0.021553
14,2,10.0097,0,-0.000305176,-2.42837,0.0544603,-0.0756734,0.0535176,0.0718859,-0.0952827,0.143487,-0.127598,-0.0868429,0.0131989,0.0400925,0.0392914,0.0145721,0.00637054,0.076828,0.0342178,0.0362396,-9.97986,0.00923157,-0.0101852,0.0537109,-0.466881,0.00976563,0.0337982,0.0273132,0.0198364
14,3,10.0097,-0.000610352,-0.000457764,-2.42928,0.0532396,-0.0753682,0.0526021,0.0685289,-0.0946723,0.145013,-0.128208,-0.0868429,0.014801,0.0369263,0.0400162,0.0143051,0.00812531,0.0696182,0.0312424,0.037384,-9.97986,0.0127792,0.0163269,0.0619125,-0.465012,0.0101089,0.032196,0.0312042,0.0273514
14,4,10.0097,0.000610352,-0.000152588,-2.42928,0.0538499,-0.0756734,0.0522969,0.0697496,-0.0943672,0.143792,-0.127292,-0.0874532,0.0186539,0.0433731,0.0397491,0.0105667,0.00358582,0.0634766,0.0368881,0.0359344,-9.97986,0.00598907,0.0219345,0.0714874,-0.465546,0.0101089,0.0323105,0.0363922,0.0296402
14,5,10.0097,-0.000305176,-0.000457764,-2.42989,0.0544603,-0.0759786,0.0522969,0.0688341,-0.0949775,0.143792,-0.127903,-0.0868429,0.0292969,0.0402069,0.0361633,0.0105667,0.00793457,0.0529099,0.0417328,0.0378418,-9.97986,0.0110245,0.0107193,0.0767899,-0.473557,0.00896454,0.042305,0.0348282,0.0376511
14,6,10.0097,-0.000915527,-0.00167847,-2.42837,0.0535448,-0.0753682,0.0535176,0.0679186,-0.0931465,0.145013,-0.127292,-0.0859274,0.0278473,0.0390625,0.0349045,0.0115585,0.00720978,0.0462723,0.0458908,0.0390244,-9.97986,0.0111389,-0.00259399,0.0878143,-0.481491,0.00858307,0.0408936,0.0413513,0.0402832
14,7,10.0097,0,-0.00152588,-2.42745,0.0550706,-0.0744527,0.0519917,0.0691393,-0.0943672,0.145013,-0.126072,-0.0856222,-0.00541687,0.0379181,0.0349045,0.0105286,0.00423431,0.0400162,0.0417328,0.0452042,-9.97986,0.00682831,-0.0136566,0.0919342,-0.492439,0.00888824,0.0305939,0.0465012,0.044136
14,8,10.0097,0.000610352,-0.00167847,-2.42837,0.0553758,-0.075063,0.054128,0.0697496,-0.0931465,0.145013,-0.125461,-0.0844015,-0.0262833,0.0408936,0.0369263,0.00869751,0.0100708,0.0389862,0.0380707,0.0494003,-9.97986,0.0105667,-0.0244522,0.0954056,-0.502434,0.0112152,0.0197983,0.0528717,0.0492477
14,9,10.0097,0.00183105,-0.00152588,-2.42653,0.0541551,-0.075063,0.0538228,0.0688341,-0.0925361,0.145929,-0.125766,-0.0837911,-0.0300217,0.038681,0.0366592,0.00980377,0.0106812,0.0294495,0.035553,0.0504303,-9.97986,-0.00228882,-0.0351334,0.0940323,-0.520477,0.00595093,0.00770569,0.058136,0.0571823
15,0,10.0097,-0.000305176,-0.000762939,-2.4244,0.0584276,-0.0729268,0.0547383,0.0724962,-0.0925361,0.147149,-0.124851,-0.0825704,-0.0328445,0.0429153,0.0331497,0.0131226,0.00907898,0.0289536,0.0391388,0.0440216,-9.97986,0.000305176,-0.0307846,0.101509,-0.543098,0.00659943,-0.00274658,0.0625992,0.0581741
15,1,10.0097,-0.000305176,-0.00228882,-2.4244,0.0565965,-0.0735371,0.0553487,0.0706652,-0.0919257,0.145318,-0.123325,-0.0819601,-0.0245667,0.0428391,0.0351715,0.017395,0.00850677,0.0126648,0.0396347,0.0461578,-9.97986,-0.00167847,-0.0251389,0.113602,-0.567131,0.00865936,-0.00724792,0.0651169,0.062294
15,2,10.0097,0.000610352,-0.00305176,-2.4247,0.0544603,-0.0738423,0.0556539,0.0718859,-0.0913154,0.145929,-0.122715,-0.0822652,-0.00427246,0.0421524,0.0365448,0.0133133,0.0149918,0.00770569,0.0490952,0.0484848,-9.97986,-0.0063324,-0.028801,0.128517,-0.597839,0.00320435,-0.011673,0.0671005,0.066185
15,3,10.0097,0.000610352,-0.00228882,-2.4247,0.0565965,-0.0738423,0.0547383,0.0715807,-0.090705,0.14776,-0.124546,-0.0813497,0.0159454,0.0427246,0.0356293,0.0140762,0.0135803,-0.00598907,0.0505447,0.0443649,-9.97986,-0.00457764,-0.0271988,0.13855,-0.627594,0.00286102,-0.0175858,0.0672913,0.0655365
15,4,10.0097,0.000610352,-0.00335693,-2.42562,0.0559862,-0.0738423,0.0550435,0.072191,-0.0919257,0.145624,-0.12363,-0.0816549,0.0270844,0.0419235,0.040741,0.0183868,0.0210571,-0.0116348,0.0508499,0.0384903,-9.97986,-0.0106812,-0.0202179,0.145149,-0.654716,0.000686646,-0.0144577,0.0728989,0.0681305
15,5,10.0097,0,-0.00244141,-2.4247,0.0569017,-0.0744527,0.0550435,0.0718859,-0.0913154,0.144708,-0.12363,-0.0819601,0.0475311,0.0388336,0.0359726,0.0157547,0.0301743,-0.014267,0.0489807,0.0282288,-9.97986,-0.0193024,-0.0196838,0.137787,-0.682678,0.0018692,-0.0175095,0.0683975,0.0688553
15,6,10.0097,0.0012207,-0.00274658,-2.42531,0.0550706,-0.0726216,0.0544332,0.0569322,-0.0931465,0.145624,-0.125156,-0.0828756,0.0550842,0.0413132,0.0366974,0.0150681,0.0393677,-0.0247192,0.042305,0.0256348,-9.97986,-0.0215912,-0.0149536,0.127563,-0.709038,-0.00408173,-0.0147629,0.0759125,0.0697708
15,7,10.0097,-0.000610352,-0.00335693,-2.42592,0.0547655,-0.0747579,0.054128,0.0630358,-0.0931465,0.145318,-0.125156,-0.0840963,0.0511932,0.0441742,0.0356293,0.0180817,0.04673,-0.0284958,0.0409317,0.0211334,-9.97986,-0.0254822,-0.0180054,0.100212,-0.724678,-0.00747681,-0.0170517,0.0734329,0.0675201
15,8,10.0097,-0.000610352,-0.00106812,-2.42623,0.0553758,-0.0744527,0.0535176,0.067003,-0.0928413,0.145929,-0.125766,-0.0837911,0.0418091,0.0413895,0.038414,0.0167084,0.0471115,-0.0376892,0.0361633,0.00762939,-9.97986,-0.0298691,-0.0223541,0.0711441,-0.738297,-0.00999451,-0.0141144,0.078125,0.0666809
15,9,10.0097,-0.000305176,-0.000305176,-2.42623,0.055681,-0.0756734,0.0519917,0.0746324,-0.0922309,0.145318,-0.125156,-0.0834859,0.013504,0.0398636,0.0375366,0.0210953,0.0580215,-0.0403976,0.0402832,0.00968933,-9.97986,-0.0241089,-0.022316,0.030098,-0.747185,-0.00392914,-0.0163651,0.0758743,0.0725555
16,0,10.0097,0,-0.000305176,-2.42867,0.0541551,-0.0753682,0.0510762,0.0801256,-0.0934516,0.143182,-0.126072,-0.0844015,-0.0190735,0.0426102,0.0321198,0.0178909,0.0603485,-0.0504303,0.046196,0.0157547,-9.97986,-0.0274658,-0.0182343,-0.00301361,-0.750961,-0.00743866,-0.0150681,0.0767899,0.0705719
16,1,10.0097,0,-0.000457764,-2.42959,0.0529344,-0.0762837,0.0501607,0.0709703,-0.0937568,0.144098,-0.127598,-0.0877584,-0.0439072,0.0385284,0.0302887,0.0162888,0.0643158,-0.0572205,0.0510788,0.0174713,-9.97986,-0.0363922,-0.0183868,-0.0421143,-0.746574,-0.00934601,-0.00648499,0.0748825,0.0717926
16,2,10.0097,-0.000305176,0.000305176,-2.42898,0.0535448,-0.0753682,0.0504659,0.0700548,-0.0952827,0.141961,-0.126987,-0.0865377,-0.0471115,0.0355911,0.0309753,0.0167847,0.0690079,-0.062561,0.0537109,0.013504,-9.97986,-0.0398636,-0.0155258,-0.0777435,-0.743408,-0.0104141,0.00339508,0.076828,0.0742722
16,3,10.0097,-0.00213623,-0.000152588,-2.42898,0.0538499,-0.0762837,0.0519917,0.0700548,-0.0949775,0.143182,-0.127598,-0.0859274,-0.0333786,0.0373459,0.0284195,0.019989,0.0642014,-0.0671768,0.0521851,0.0118256,-9.97986,-0.0323486,-0.0213623,-0.10746,-0.738029,-0.0107193,0.00671387,0.0719452,0.0513077
16,4,10.0097,0,-0.000305176,-2.42806,0.0535448,-0.0744527,0.0513814,0.0691393,-0.0943672,0.143487,-0.126377,-0.0859274,-0.0190353,0.0375366,0.0313187,0.0209427,0.059166,-0.0649261,0.0579453,0.0142288,-9.97986,-0.026474,-0.0233078,-0.128403,-0.730133,-0.0143051,0.00408173,0.0741196,0.0152588
16,5,10.0097,0,0.000305176,-2.42928,0.0538499,-0.0747579,0.0513814,0.0691393,-0.0952827,0.141961,-0.127292,-0.0868429,-0.000228882,0.0330734,0.0269318,0.0208664,0.0586319,-0.0775146,0.0587082,0.0177765,-9.97986,-0.00526428,-0.0178146,-0.149956,-0.723877,-0.0125885,0.0062561,0.0697708,-0.0208282
16,6,10.0097,-0.000915527,0.000305176,-2.42867,0.0532396,-0.0753682,0.0526021,0.0697496,-0.0937568,0.145013,-0.126377,-0.0862325,0.00713348,0.0305939,0.0253677,0.0203705,0.0543594,-0.0769043,0.0564575,0.0184631,-9.97986,0.0190735,-0.0256729,-0.162239,-0.717278,-0.011673,0.0102615,0.0725174,-0.0519562
16,7,10.0097,0.000305176,0.000762939,-2.42776,0.0544603,-0.0735371,0.0535176,0.0706652,-0.0937568,0.144098,-0.127292,-0.0847066,0.00637054,0.0288773,0.0222015,0.0210953,0.052948,-0.0807571,0.0604248,0.0139999,-9.97986,0.0279617,-0.0196075,-0.176506,-0.708923,-0.00926971,0.00915527,0.0715256,-0.0786209
16,8,10.0097,0.000610352,0.00137329,-2.42623,0.0550706,-0.075063,0.0532125,0.0694445,-0.0928413,0.145624,-0.126682,-0.0837911,0.00267029,0.034256,0.0220108,0.0138092,0.0532532,-0.0927734,0.0628662,0.0122452,-9.97986,0.0218964,-0.00648499,-0.176735,-0.697174,-0.0109863,0.0128937,0.0680161,-0.10006
16,9,10.0097,-0.000305176,0.00198364,-2.42653,0.0550706,-0.0747579,0.0544332,0.0706652,-0.0928413,0.144708,-0.125766,-0.0834859,0.00549316,0.0297928,0.0196075,0.0175476,0.0461578,-0.0956345,0.0608826,0.0175476,-9.97986,0.0400925,-0.000648499,-0.180054,-0.681343,-0.0062561,0.0170898,0.0619125,-0.117302
17,0,10.0097,0.000305176,0.00106812,-2.42562,0.0569017,-0.0738423,0.054128,0.0715807,-0.0928413,0.145318,-0.125156,-0.0819601,0.0270844,0.0277328,0.0181961,0.0148773,0.0475311,-0.107536,0.060463,0.0224304,-9.97986,0.0566864,-0.00770569,-0.174751,-0.670929,-0.00610352,0.0113297,0.0592041,-0.128746
17,1,10.0097,0.000610352,0.0012207,-2.42592,0.0572069,-0.0741475,0.0544332,0.0724962,-0.0910102,0.146844,-0.124851,-0.0807394,0.0510406,0.0259018,0.0172043,0.0114059,0.0432968,-0.116043,0.065155,0.0253296,-9.97986,0.0653839,-0.021286,-0.173149,-0.655365,-0.0044632,0.00312805,0.0585938,-0.138016
17,2,10.0097,0.0012207,0.0012207,-2.42592,0.0565965,-0.0726216,0.0547383,0.0706652,-0.0916206,0.144403,-0.124241,-0.0804342,0.053215,0.0268173,0.0160599,0.0160217,0.0427246,-0.125618,0.0618362,0.0275421,-9.97986,0.0657272,-0.00720978,-0.173836,-0.639229,-0.00530243,0.00648499,0.0473785,-0.144157
17,3,10.0097,0.000915527,0.0012207,-2.42501,0.0562914,-0.0723164,0.0553487,0.0697496,-0.0903999,0.146539,-0.124546,-0.0810445,0.0328827,0.029068,0.0154495,0.0115204,0.0437164,-0.126534,0.0645065,0.0281143,-9.97986,0.0664139,-0.00293732,-0.16407,-0.625839,-0.00164032,0.00911713,0.0413513,-0.145035
17,4,10.0097,0,0.000915527,-2.42409,0.055681,-0.0726216,0.055959,0.0691393,-0.0919257,0.146539,-0.12363,-0.0795187,0.0304794,0.0174713,0.0133133,0.0144958,0.0369644,-0.128899,0.0629044,0.0207138,-9.97986,0.0455475,0.000572205,-0.166092,-0.60791,-0.000572205,0.0103378,0.0337601,-0.15419
17,5,10.0097,0.000305176,0.00198364,-2.42592,0.055681,-0.0738423,0.0538228,0.0715807,-0.0922309,0.146844,-0.123935,-0.0804342,0.0378799,0.0250626,0.0159454,0.0150299,0.0328064,-0.138206,0.0712967,0.0205994,-9.97986,0.031662,0.0125122,-0.162659,-0.590744,-0.000228882,0.0211716,0.0281525,-0.154953
17,6,10.0097,-0.000610352,0.000915527,-2.42623,0.0569017,-0.0735371,0.0532125,0.0551012,-0.0928413,0.145013,-0.126377,-0.0822652,0.0433731,0.0226212,0.014534,0.0130463,0.0248337,-0.146866,0.0682068,0.0161362,-9.97986,0.00659943,0.00457764,-0.158119,-0.571556,0.00137329,0.016861,0.0154114,-0.167999
17,7,10.0097,-0.000305176,0.00152588,-2.42562,0.0547655,-0.0735371,0.0547383,0.0618151,-0.0913154,0.145318,-0.125766,-0.0819601,0.0579834,0.0236511,0.0127029,0.0156021,0.0276184,-0.144501,0.0636292,0.014534,-9.97986,-0.0062561,0.0101471,-0.148087,-0.553207,0.00736237,0.017395,0.0105667,-0.168457
17,8,10.0097,0.000305176,0.00183105,-2.42684,0.0553758,-0.073232,0.0547383,0.0682238,-0.0919257,0.146234,-0.124851,-0.0813497,0.0617981,0.0168228,0.0101471,0.0128937,0.0276184,-0.144501,0.0642776,0.00415802,-9.97986,0.00419617,0.00812531,-0.138969,-0.535927,0.011673,0.0215149,0.00213623,-0.173683
17,9,10.0097,-0.00152588,0.00198364,-2.42623,0.0559862,-0.0747579,0.0544332,0.0767687,-0.0928413,0.145318,-0.125766,-0.0825704,0.0367737,0.0221634,0.0120163,0.0161743,0.0268936,-0.135574,0.0645447,-0.00591278,-9.97986,0.0114441,0.000343323,-0.132065,-0.523109,0.0135422,0.0241089,-0.00293732,-0.174103
18,0,10.0097,-0.000305176,0.00244141,-2.42837,0.0544603,-0.0759786,0.0522969,0.0789049,-0.094062,0.144098,-0.126072,-0.0847066,0.00659943,0.0201416,0.00946045,0.0118637,0.0258255,-0.139694,0.0660324,-0.0127411,-9.97986,0.00247955,0.00289917,-0.126228,-0.513611,0.0202942,0.024147,-0.0114822,-0.172615
18,1,10.0097,0.000610352,0.00137329,-2.42928,0.0544603,-0.0759786,0.0532125,0.072191,-0.0946723,0.145624,-0.126987,-0.0859274,-0.00778198,0.0170898,0.0115204,0.0127411,0.0299454,-0.13607,0.064888,-0.0062561,-9.97986,-0.00968933,0.000724792,-0.117149,-0.499382,0.0284576,0.0248718,-0.0167084,-0.173531
18,2,10.0097,0.00244141,0.000762939,-2.4305,0.0535448,-0.0753682,0.0522969,0.0700548,-0.0943672,0.144098,-0.126987,-0.0859274,0.00221252,0.0177383,0.00759125,0.0113678,0.0325394,-0.117455,0.0644684,0.00236511,-9.97986,-0.0113297,-0.00267029,-0.110931,-0.487976,0.0357056,0.0272369,-0.0267792,-0.167389
18,3,10.0097,-0.0256348,0.0012207,-2.42989,0.0529344,-0.0759786,0.0529073,0.0712755,-0.0955879,0.130365,-0.127903,-0.0859274,0.0157928,0.0143814,0.00919342,0.0148392,0.0363159,-0.102005,0.0595856,0.00259399,-9.97986,-0.0128937,-0.00160217,-0.104065,-0.476685,0.0387955,0.0289536,-0.0255203,-0.163994
18,4,10.0097,-0.000915527,-0.000152588,-2.42928,0.0544603,-0.0762837,0.0519917,0.0694445,-0.0943672,0.14013,-0.126377,-0.085317,0.00770569,0.0164413,0.00747681,0.00984192,0.0408173,-0.073967,0.0596619,0.00823975,-9.97986,0.00583649,0.000762939,-0.0987244,-0.46772,0.0542831,0.029068,-0.0251389,-0.154495
18,5,10.0097,-0.000305176,0.000610352,-2.42928,0.0532396,-0.0768941,0.0526021,0.0691393,-0.0946723,0.140741,-0.127292,-0.0874532,-0.00556946,0.0135422,0.00759125,0.0132751,0.0357819,-0.0586319,0.0562668,0.0159073,-9.97986,0.0401306,0.00473022,-0.103149,-0.466576,0.0635147,0.030365,-0.0284958,-0.151253
18,6,10.0097,0,0.000610352,-2.42867,0.0547655,-0.0747579,0.0522969,0.0694445,-0.0943672,0.143487,-0.127598,-0.085317,-0.0324249,0.0094223,0.00411987,0.0114822,0.0348282,-0.0246048,0.0606918,0.0266266,-9.97986,0.080986,0.00339508,-0.102005,-0.448227,0.0685501,0.0257874,-0.0266647,-0.142479
18,7,10.0097,0.00152588,0.00106812,-2.42837,0.0544603,-0.0747579,0.0532125,0.0700548,-0.0928413,0.142267,-0.127292,-0.0847066,-0.0412369,0.01091,0.00450134,0.00999451,0.0336456,0.0138474,0.0540161,0.0299454,-9.97986,0.111427,0.00522614,-0.0967407,-0.443382,0.0773621,0.0259781,-0.0327682,-0.129623
18,8,10.0097,0.000305176,0.00152588,-2.42837,0.055681,-0.0744527,0.0535176,0.07036,-0.0925361,0.144708,-0.125766,-0.0837911,-0.0263977,0.0117493,0.00240326,0.00617981,0.032196,0.0334549,0.0519943,0.0270081,-9.97986,0.107002,0.0050354,-0.0958633,-0.421791,0.0829697,0.0238037,-0.0251007,-0.119514
18,9,10.0097,0.000610352,0.00228882,-2.42714,0.0559862,-0.0747579,0.0529073,0.0694445,-0.0925361,0.144708,-0.126072,-0.0828756,-0.0278473,0.00556946,0.00183105,0.00602722,0.0279999,0.0365067,0.0495911,0.0346375,-9.97986,0.0727081,0.00888824,-0.0908661,-0.398712,0.0914764,0.0199509,-0.0209045,-0.110512
19,0,10.0097,0.000610352,0.00289917,-2.42653,0.055681,-0.0738423,0.054128,0.0697496,-0.0922309,0.146539,-0.12363,-0.0819601,-0.0479889,0.00579834,0.00312805,0.00312805,0.0225067,0.0307846,0.0466919,0.0354767,-9.97986,0.0455475,0.000343323,-0.0899124,-0.374069,0.0925446,0.0191116,-0.0244522,-0.103645
19,1,10.0097,0.000915527,0.00198364,-2.4247,0.0569017,-0.0744527,0.0535176,0.0697496,-0.0922309,0.146539,-0.124546,-0.0810445,-0.0576401,0.00469208,-0.000267029,0.00587463,0.0159454,0.0362015,0.0442505,0.0321198,-9.97986,0.0205231,0.000801086,-0.0840759,-0.34832,0.0926971,0.0177383,-0.0230408,-0.101547
19,2,10.0097,0.000915527,0.00289917,-2.42531,0.0569017,-0.0726216,0.0544332,0.07036,-0.0910102,0.147455,-0.124546,-0.0804342,-0.0376511,0.0136566,-0.000152588,0.00278473,0.0122452,0.0378036,0.0381851,0.0341415,-9.97986,0.00617981,0.0103378,-0.0749588,-0.316429,0.089035,0.0178146,-0.0276184,-0.0957489
19,3,10.0097,0.000610352,0.00320435,-2.42592,0.0559862,-0.0735371,0.0550435,0.0712755,-0.0910102,0.146234,-0.12363,-0.0798238,-0.0134277,0.00961304,0.00408173,0.00411987,0.01091,0.0403976,0.0318146,0.0315857,-9.97986,0.0128174,0.00770569,-0.0687408,-0.281372,0.0941086,0.0182343,-0.0298691,-0.0930786
19,4,10.0097,-0.000305176,0.00396729,-2.4244,0.0562914,-0.073232,0.0550435,0.0715807,-0.090705,0.14776,-0.124241,-0.0795187,-0.00213623,0.0147247,0.00766754,0.00331879,0.00480652,0.0301361,0.0286102,0.0370407,-9.97986,0.0260544,0.0069046,-0.0669479,-0.23983,0.0944901,0.019455,-0.023613,-0.0889969
19,5,10.0097,-0.000305176,0.00457764,-2.42592,0.055681,-0.073232,0.055959,0.0731066,-0.090705,0.146844,-0.125156,-0.0795187,0.0139618,0.0144196,0.010643,0.00621796,0.00335693,0.0143814,0.0300598,0.0317001,-9.97986,0.045433,0.00606537,-0.0500488,-0.19165,0.0951385,0.0275803,-0.0231552,-0.0846481
19,6,10.0097,-0.000915527,0.00427246,-2.42562,0.0565965,-0.0741475,0.0547383,0.0578478,-0.0934516,0.146844,-0.126072,-0.0795187,0.0373459,0.0164032,0.0147247,0.00839233,-0.00114441,0.0102615,0.0226212,0.0239944,-9.97986,0.0634003,0.00900269,-0.045166,-0.137634,0.095253,0.022583,-0.0210571,-0.0878525
19,7,10.0097,0.000305176,0.00564575,-2.42714,0.0553758,-0.0738423,0.0544332,0.0627306,-0.0919257,0.145624,-0.125766,-0.0810445,0.0510788,0.0246429,0.0164032,0.0117493,-0.00732422,0.00156403,0.0169373,0.0223923,-9.97986,0.0883484,0.0161743,-0.033493,-0.0876236,0.0941467,0.020256,-0.0223541,-0.0865173
19,8,10.0097,0.00152588,0.00473022,-2.42531,0.0547655,-0.0744527,0.0547383,0.0694445,-0.0916206,0.145624,-0.125766,-0.0816549,0.0640869,0.0178909,0.0165558,0.00995636,-0.00930786,0.00663757,0.0175476,0.0225449,-9.97986,0.108795,0.0120163,-0.019722,-0.0367737,0.0925446,0.0183105,-0.0219727,-0.0829697
19,9,10.0097,0.000305176,0.00579834,-2.42684,0.0550706,-0.0756734,0.0544332,0.077379,-0.0925361,0.146844,-0.124546,-0.0816549,0.063324,0.0244904,0.0163269,0.00541687,-0.0128174,0.00980377,0.0114059,0.0206757,-9.97986,0.110168,0.00923157,-0.00900269,0.0194168,0.0964355,0.0168228,-0.0194931,-0.0811005
20,0,10.0097,-0.000610352,0.0062561,-2.42928,0.0541551,-0.0756734,0.0532125,0.0779894,-0.0949775,0.143182,-0.126072,-0.0844015,0.0543976,0.0241852,0.0194168,0.00968933,-0.0206375,0.0094223,0.00827789,0.0243759,-9.97986,0.100784,0.00946045,-0.00133514,0.0710678,0.0922394,0.0201035,-0.0190735,-0.0843048
20,1,10.0097,0,0.00564575,-2.42837,0.0526292,-0.075063,0.0513814,0.0715807,-0.094062,0.142572,-0.126682,-0.0859274,0.0400543,0.0268555,0.0162125,0.0134277,-0.0222397,-0.000953674,0.0100708,0.0203323,-9.97986,0.0886917,0.0161362,0.00766754,0.124855,0.0938797,0.021286,-0.015564,-0.0819778
20,2,10.0097,0.0012207,0.00488281,-2.42806,0.0532396,-0.075063,0.0535176,0.0679186,-0.0949775,0.143182,-0.126987,-0.0868429,0.00366211,0.0287247,0.0221634,0.0149155,-0.0249863,-0.00602722,0.00709534,0.0162506,-9.97986,0.0688171,0.0146866,0.0125885,0.167618,0.0920868,0.0226212,-0.0150299,-0.0813675
20,3,10.0097,0.000915527,0.00457764,-2.42684,0.0538499,-0.0756734,0.0529073,0.0694445,-0.0952827,0.142572,-0.126682,-0.0856222,-0.0247574,0.0268936,0.0244904,0.0087738,-0.0249863,-0.000610352,0.00110626,0.0159454,-9.97986,0.03479,0.00747681,0.0164795,0.221825,0.0914383,0.0221634,-0.0107574,-0.0775909
20,4,10.0097,0.000610352,0.00488281,-2.42959,0.0529344,-0.0756734,0.0522969,0.0694445,-0.094062,0.143792,-0.127292,-0.085317,-0.015564,0.0288391,0.0231171,0.0138474,-0.0254822,-0.00705719,0.00747681,0.0226212,-9.97986,0.0204086,0.0123596,0.0301361,0.278893,0.0942612,0.0242996,-0.00461578,-0.0699997
20,5,10.0097,0.000915527,0.00442505,-2.42837,0.0529344,-0.0759786,0.0526021,0.0694445,-0.0931465,0.144403,-0.127598,-0.0862325,0.0320816,0.0254059,0.019722,0.00694275,-0.028801,-0.00537872,-0.00190735,0.0191879,-9.97986,0.025444,0.0112915,0.0406647,0.320396,0.0873184,0.0283051,-0.00167847,-0.0682831
20,6,10.0097,0,0.00457764,-2.42867,0.0547655,-0.0744527,0.0532125,0.0697496,-0.0943672,0.144098,-0.126682,-0.0847066,0.0807571,0.0201035,0.0202942,0.00617981,-0.026741,-0.0104523,0.00148773,0.0278091,-9.97986,0.02491,0.0133896,0.0494766,0.367393,0.0927353,0.0242615,-0.00205994,-0.0616455
20,7,10.0097,-0.000305176,0.00457764,-2.42776,0.0562914,-0.0744527,0.0535176,0.0697496,-0.0937568,0.145013,-0.126987,-0.0834859,0.0823593,0.0157928,0.0182343,0.00679016,-0.025444,-0.0105286,-0.00297546,0.0318909,-9.97986,0.0284576,0.00976563,0.0611877,0.41729,0.0954056,0.0186157,-0.00331879,-0.0603485
20,8,10.0097,-0.000610352,0.00488281,-2.42714,0.0553758,-0.075063,0.0522969,0.0679186,-0.0925361,0.144098,-0.126377,-0.0837911,0.0443268,0.0197983,0.0159454,0.0106049,-0.026741,-0.0116348,0.00148773,0.0299072,-9.97986,0.0292969,0.00843048,0.0695419,0.464478,0.0935364,0.0178146,0.00244141,-0.0512314
20,9,10.0097,0.000305176,0.00488281,-2.42653,0.0553758,-0.0744527,0.0529073,0.0685289,-0.094062,0.145624,-0.125156,-0.0831808,-0.00549316,0.0194168,0.0128174,0.00396729,-0.0242233,-0.0116348,-0.00171661,0.0261688,-9.97986,0.0151825,0.00812531,0.0740814,0.513763,0.0937271,0.0154495,0.000114441,-0.0507736
21,0,10.0097,-0.000305176,0.00457764,-2.42501,0.0559862,-0.0753682,0.0544332,0.0700548,-0.0919257,0.145624,-0.124851,-0.0804342,-0.0279236,0.0157166,0.0138474,0.00701904,-0.0188065,-0.0100708,0.000267029,0.0235748,-9.97986,0.00675201,0.00530243,0.0690842,0.557899,0.0939941,0.00778198,0.00312805,-0.0426102
21,1,10.0097,0,0.00442505,-2.42623,0.055681,-0.0738423,0.0535176,0.0709703,-0.0919257,0.145013,-0.124241,-0.0807394,-0.0229645,0.0162506,0.0141907,0.00537872,-0.0121307,-0.0104904,-0.00370026,0.0231934,-9.97986,-0.00274658,0.00453949,0.0682449,0.600433,0.0963974,0.00736237,0.00617981,-0.0336075
21,2,10.0097,-0.000610352,0.00335693,-2.42379,0.0569017,-0.0738423,0.054128,0.0712755,-0.0919257,0.146234,-0.123935,-0.0795187,0.00858307,0.0189972,0.0157547,0.00671387,-0.00102997,-0.0148773,-0.00389099,0.0292969,-9.97986,-0.0180054,0.00392914,0.0655746,0.637093,0.0934219,0.00495911,0.00740051,-0.0324631
21,3,10.0097,0.00152588,0.00396729,-2.42501,0.0562914,-0.0735371,0.055959,0.0700548,-0.0913154,0.147455,-0.12302,-0.080129,0.0366974,0.0200272,0.0205231,0.00526428,0.00614166,-0.0135422,-0.00396729,0.025177,-9.97986,-0.0314331,-0.000572205,0.0666046,0.670853,0.0864792,0.00782013,0.0108719,-0.0231552
21,4,10.0097,0.00152588,0.00320435,-2.42562,0.0550706,-0.073232,0.0535176,0.0706652,-0.0925361,0.146234,-0.124851,-0.0804342,0.0214386,0.0235748,0.0182724,0.00999451,0.00549316,-0.0113297,-0.0101471,0.0264359,-9.97986,-0.0484085,0.00289917,0.0614166,0.706902,0.0944519,0.0111771,0.014267,-0.0167465
21,5,10.0097,-0.00183105,0.0038147,-2.4244,0.0562914,-0.0741475,0.0550435,0.0712755,-0.0922309,0.146844,-0.12363,-0.080129,0.00225067,0.0238037,0.0225067,0.00858307,0.0106049,-0.015564,-0.0115585,0.0212097,-9.97986,-0.0479889,-0.00198364,0.0555038,0.732231,0.0931168,0.011673,0.0120163,-0.0138474
21,6,10.0097,0.0012207,0.00320435,-2.42623,0.0572069,-0.0741475,0.054128,0.0578478,-0.0931465,0.146539,-0.126377,-0.0816549,-0.00564575,0.034256,0.0247955,0.0180054,0.0231934,-0.0132751,-0.00720978,0.026207,-9.97986,-0.0297546,0.0056076,0.0591278,0.774727,0.09758,0.0145721,0.0191879,-0.00263214
21,7,10.0097,-0.000305176,0.00228882,-2.42562,0.0553758,-0.0741475,0.054128,0.0639513,-0.0916206,0.144098,-0.125156,-0.0810445,-0.0184631,0.0214386,0.0191116,0.00896454,0.0166702,-0.0206757,-0.0205612,0.00461578,-9.97986,-0.0207138,-0.00289917,0.0471115,0.789642,0.0923538,0.000953674,0.0149918,-0.0107956
21,8,10.0097,0.000915527,0.00244141,-2.42562,0.0550706,-0.0753682,0.0550435,0.07036,-0.0910102,0.145624,-0.125156,-0.0816549,0.0327682,0.0300598,0.0235367,0.0138092,0.0267792,-0.00835419,-0.0166702,0.00888824,-9.97986,0.01297,0.00267029,0.0515747,0.814323,0.0954056,0.00526428,0.0230408,-0.0019455
21,9,10.0097,0.0012207,0.00244141,-2.42623,0.0553758,-0.0747579,0.0556539,0.0776842,-0.0922309,0.145929,-0.125156,-0.0828756,0.0822449,0.0229263,0.0162888,0.0111771,0.0247574,-0.00816345,-0.02388,0.0140762,-9.97986,0.0382614,0.00282288,0.0471878,0.833244,0.0932312,0.00526428,0.028801,0.00179291
22,0,10.0097,0,0.00350952,-2.42776,0.0538499,-0.075063,0.0522969,0.0798204,-0.0934516,0.142877,-0.126682,-0.0840963,0.0622559,0.0235367,0.0177765,0.0140762,0.031929,-0.0082016,-0.0317764,0.0154877,-9.97986,0.037117,-0.0019455,0.0403214,0.851135,0.0969315,0.00843048,0.0293732,0.00606537
22,1,10.0097,0.000610352,0.00228882,-2.4302,0.0529344,-0.0762837,0.0522969,0.0706652,-0.0949775,0.144403,-0.126987,-0.0859274,0.00988007,0.0175858,0.0187302,0.0106049,0.0340652,-0.00644684,-0.0278854,0.0181961,-9.97986,0.0347137,-0.00358582,0.0373077,0.873795,0.0925827,0.0105667,0.0351715,0.00976563
22,2,10.0097,0.000610352,0.00137329,-2.42867,0.0532396,-0.0759786,0.0513814,0.07036,-0.0952827,0.144708,-0.128513,-0.0859274,0.00541687,0.0233459,0.0143433,0.0115585,0.0360489,-0.00648499,-0.0389481,0.0136185,-9.97986,0.0247955,-0.00389099,0.0364685,0.889473,0.0935745,0.00946045,0.0445557,0.0137329
22,3,10.0097,0.000610352,0.00244141,-2.42898,0.0547655,-0.0765889,0.0522969,0.0694445,-0.0946723,0.143182,-0.126987,-0.085317,0.0114822,0.0171661,0.00953674,0.00915527,0.0376129,-0.00526428,-0.04776,0.0154114,-9.97986,0.022049,-0.00888824,0.0270081,0.907402,0.0918198,0.0110626,0.0485611,0.0178146
22,4,10.0097,0,0.00152588,-2.42898,0.0550706,-0.0765889,0.0513814,0.0706652,-0.0946723,0.142877,-0.127292,-0.0862325,0.00812531,0.0175476,0.00598907,0.0131226,0.0421524,0.00576019,-0.0524902,0.024147,-9.97986,0.0146866,-0.0154114,0.0270081,0.923347,0.090065,0.0144196,0.0566101,0.0188065
22,5,10.0097,0.00183105,0.00106812,-2.42928,0.0532396,-0.0756734,0.0526021,0.0700548,-0.0952827,0.143792,-0.127598,-0.0856222,0.0167084,0.015564,0.00770569,0.0111389,0.0439072,0.0118256,-0.0553894,0.0212479,-9.97986,0.0131226,-0.0125504,0.0196838,0.937538,0.0878906,0.0100708,0.0592422,0.0240707
22,6,10.0097,-0.000305176,0.0012207,-2.42714,0.0535448,-0.0762837,0.050771,0.07036,-0.0934516,0.143792,-0.127292,-0.085317,0.0344849,0.0123215,0.00453949,0.00831604,0.0468826,0.00614166,-0.0564957,0.0180817,-9.97986,0.0258255,-0.00522614,0.0101089,0.954056,0.0864029,0.00591278,0.0697327,0.0207901
22,7,10.0097,0.000305176,0.00137329,-2.42653,0.0550706,-0.075063,0.0535176,0.0706652,-0.0937568,0.144708,-0.126377,-0.0847066,0.0411987,0.00774384,0.00530243,0.0147247,0.050087,0.0232315,-0.0640106,0.0208282,-9.97986,0.033226,0.00110626,0.00572205,0.965385,0.0881958,0.0031662,0.0718689,0.0217438
22,8,10.0097,0.000610352,0.00183105,-2.42653,0.0541551,-0.0753682,0.0535176,0.0697496,-0.0925361,0.145013,-0.125766,-0.0847066,0.0558853,0.0125504,0.00759125,0.0156403,0.059166,0.022316,-0.0649643,0.0208282,-9.97986,0.0281525,0.00858307,0.00141144,0.979118,0.086441,0.00350952,0.0815582,0.0252151
22,9,10.0097,-0.000610352,0.00198364,-2.42684,0.0544603,-0.0744527,0.0532125,0.0694445,-0.0931465,0.145318,-0.125766,-0.0831808,0.0389862,0.0117874,0.00656128,0.0163269,0.0602341,0.025444,-0.074501,0.0198364,-9.97986,0.0153732,0.00255585,-0.0031662,0.988617,0.08461,-0.000610352,0.0839996,0.015564
23,0,10.0097,0.000915527,0.00137329,-2.42592,0.0569017,-0.0747579,0.0535176,0.0700548,-0.0931465,0.146234,-0.125156,-0.0813497,0.0062561,0.0187302,0.00984192,0.017662,0.0636292,0.031929,-0.0762939,0.0255966,-9.97986,0.00915527,-0.00278473,-0.00835419,1.00437,0.0867081,0.000114441,0.0896835,0.0217438
23,1,10.0097,-0.000610352,0.00106812,-2.4247,0.0562914,-0.0738423,0.0547383,0.0706652,-0.0922309,0.145624,-0.123935,-0.0813497,-0.00541687,0.0202179,0.0111008,0.0160599,0.067215,0.0326538,-0.0773621,0.0238037,-9.97986,0.00350952,0.0025177,-0.0203323,1.01116,0.0813293,-0.00225067,0.0965118,0.0183868
23,2,10.0097,0.000610352,0.00152588,-2.42562,0.0569017,-0.0741475,0.054128,0.0718859,-0.0925361,0.146234,-0.124546,-0.0807394,-0.00171661,0.0146103,0.00972748,0.01297,0.0704575,0.0354004,-0.0803757,0.0199127,-9.97986,0.00213623,0.00762939,-0.0296783,1.02184,0.0800323,-0.00267029,0.1054,0.0167465
23,3,10.0097,0.000305176,0.00106812,-2.42531,0.0553758,-0.0741475,0.0550435,0.07036,-0.090705,0.14776,-0.123935,-0.080129,0.00648499,0.0148392,0.00759125,0.0119781,0.0749588,0.0358582,-0.0825119,0.021019,-9.97986,0.00774384,-0.00209808,-0.0354385,1.02661,0.0730133,-0.00328064,0.108032,0.0163269
23,4,10.0097,0.000305176,0.000305176,-2.42562,0.0553758,-0.0747579,0.0553487,0.0709703,-0.0910102,0.145929,-0.12363,-0.0810445,0.0175858,0.0120926,0.00812531,0.0156403,0.0764847,0.0329971,-0.082016,0.0197983,-9.97986,0.0157928,-0.00816345,-0.0422287,1.02539,0.0763321,0.00148773,0.1091,0.0124741
23,5,10.0097,-0.000610352,0.000152588,-2.4244,0.0569017,-0.0738423,0.0550435,0.0712755,-0.0922309,0.145013,-0.125156,-0.0810445,0.021286,0.0101089,0.00789642,0.0159454,0.0749207,0.0405884,-0.0800705,0.0163269,-9.97986,0.0235367,-0.00957489,-0.0450897,1.01734,0.067482,0.0038147,0.114822,0.0109863
23,6,10.0097,-0.000305176,-0.000915527,-2.42501,0.0565965,-0.0738423,0.0538228,0.0578478,-0.0928413,0.146234,-0.126072,-0.0840963,0.0271606,0.00995636,0.00843048,0.0131989,0.0803375,0.0414276,-0.0810623,0.0135803,-9.97986,0.0276184,-0.0162888,-0.0553131,1.00971,0.0675201,0.000610352,0.116119,0.00789642
23,7,10.0097,0,-0.00137329,-2.42623,0.0559862,-0.0729268,0.0550435,0.0621202,-0.0922309,0.145929,-0.125461,-0.0822652,0.0314713,0.00831604,0.00709534,0.0127792,0.0805664,0.0403595,-0.0854874,0.00766754,-9.97986,0.0404358,-0.0172424,-0.0587082,0.995216,0.0604248,0.0030899,0.120697,0.0025177
23,8,10.0097,0.0012207,0.000152588,-2.42562,0.0565965,-0.0741475,0.0553487,0.0694445,-0.0922309,0.144098,-0.124241,-0.0828756,0.034523,0.0135803,0.00610352,0.0168991,0.0790024,0.0465775,-0.077095,0.00923157,-9.97986,0.0503159,-0.015564,-0.0562286,0.976028,0.0582123,0.00648499,0.121613,-0.00335693
23,9,10.0097,0.000305176,-0.000762939,-2.42837,0.0550706,-0.075063,0.0544332,0.0776842,-0.0903999,0.145624,-0.125156,-0.0837911,0.0442505,0.00965118,0.00919342,0.0164032,0.0809097,0.0439072,-0.0772858,0.00396729,-9.97986,0.0787354,-0.0183868,-0.0606537,0.966682,0.0484467,0.00732422,0.117149,-0.00694275
24,0,10.0097,0.000915527,-0.000457764,-2.42867,0.0541551,-0.0759786,0.0526021,0.0792101,-0.0952827,0.143487,-0.126072,-0.085317,0.0413513,0.0144577,0.00938416,0.0157166,0.0780869,0.0377274,-0.0745392,0.00343323,-9.97986,0.105553,-0.0182724,-0.057373,0.950737,0.0445557,0.00850677,0.118599,-0.0115204
24,1,10.0097,0,-0.000915527,-2.42928,0.0532396,-0.0762837,0.0522969,0.0728014,-0.0946723,0.142572,-0.127903,-0.0868429,0.0254822,0.0151443,0.0171661,0.0156021,0.0810623,0.0376511,-0.0669098,0.00141144,-9.97986,0.112038,-0.0232697,-0.0530243,0.931396,0.0392151,0.0106812,0.118637,-0.0181961
24,2,10.0097,-0.000915527,-0.00152588,-2.42898,0.0529344,-0.0756734,0.0516866,0.0706652,-0.0946723,0.143487,-0.126987,-0.0880636,0.0121689,0.0141907,0.0163651,0.0175476,0.0782394,0.0323105,-0.0651169,0.000152588,-9.97986,0.097847,-0.0222015,-0.0546265,0.913544,0.0320435,0.00595093,0.122566,-0.0210953
24,3,10.0097,0.00183105,-0.00183105,-2.42898,0.0535448,-0.0762837,0.0486348,0.0676134,-0.095893,0.143792,-0.127292,-0.0865377,-0.00930786,0.0157166,0.0180054,0.0129318,0.080452,0.0331116,-0.0600052,-0.00133514,-9.97986,0.067215,-0.0177383,-0.0482559,0.893402,0.0199509,0.00442505,0.124969,-0.0270462
24,4,10.0097,-0.00152588,-0.00167847,-2.42867,0.0544603,-0.0759786,0.0504659,0.0666979,-0.0937568,0.143487,-0.128208,-0.0871481,-0.0219727,0.0133133,0.019989,0.0123978,0.0775909,0.0279236,-0.0575638,0.00526428,-9.97986,0.0404358,-0.0189209,-0.0404358,0.873032,0.01091,0.00144958,0.121307,-0.0294876
24,5,10.0097,0.0012207,-0.00228882,-2.42898,0.0544603,-0.0756734,0.0522969,0.0685289,-0.095893,0.143792,-0.127598,-0.0871481,-0.0115204,0.0136185,0.022049,0.017662,0.0799561,0.0161743,-0.0492477,0.00244141,-9.97986,0.0175858,-0.0148773,-0.0322723,0.844879,-0.000419617,-0.00404358,0.121803,-0.0304031
24,6,10.0097,0.000610352,-0.00213623,-2.42776,0.0535448,-0.0753682,0.0498555,0.0694445,-0.094062,0.144098,-0.127598,-0.0871481,-0.00854492,0.0168228,0.0179672,0.0118637,0.0737762,0.00385284,-0.0449371,0.00873566,-9.97986,0.0101471,-0.0188828,-0.0191116,0.824547,-0.00999451,-0.0122833,0.124741,-0.0326157
24,7,10.0097,0.00152588,-0.00274658,-2.42745,0.0535448,-0.0753682,0.0529073,0.0682238,-0.0946723,0.143487,-0.126072,-0.0859274,-0.00637054,0.0188828,0.0206375,0.0138855,0.0785446,0.00896454,-0.0453949,0.00972748,-9.97986,0.0117493,-0.0063324,-0.00617981,0.797577,-0.0157166,-0.0152969,0.115967,-0.0318146
24,8,10.0097,0,-0.00289917,-2.42806,0.0553758,-0.0753682,0.054128,0.0715807,-0.094062,0.142877,-0.126377,-0.0859274,-0.0152969,0.0153351,0.0200653,0.0123215,0.0733566,0.00507355,-0.0391769,0.0105667,-9.97986,0.0214386,-0.00114441,0.00602722,0.768242,-0.0246048,-0.020752,0.110817,-0.0376892
24,9,10.0097,0.000305176,-0.00183105,-2.42745,0.0550706,-0.075063,0.0535176,0.07036,-0.0928413,0.144098,-0.125766,-0.0844015,-0.0203705,0.0186157,0.0205231,0.0117493,0.0711441,0.00190735,-0.0291443,0.00404358,-9.97986,0.0315857,-0.000114441,0.0147247,0.739212,-0.0370026,-0.0209808,0.104141,-0.0443268
25,0,10.0097,0.0012207,-0.00213623,-2.42562,0.0565965,-0.0735371,0.054128,0.0697496,-0.0934516,0.146539,-0.125156,-0.0837911,-0.0207138,0.0163651,0.020752,0.00888824,0.0676346,0.00598907,-0.0240326,0.00541687,-9.97986,0.0339127,-0.00244141,0.029335,0.71373,-0.0469208,-0.0175476,0.104523,-0.0451279
25,1,10.0097,0.000610352,-0.00259399,-2.4244,0.0569017,-0.0744527,0.0553487,0.0706652,-0.0916206,0.145318,-0.125461,-0.0822652,-0.00816345,0.0202942,0.0254822,0.0107956,0.0710297,0.00217438,-0.0196457,0.00541687,-9.97986,0.0214005,-0.00427246,0.038681,0.692558,-0.0577164,-0.0260544,0.099144,-0.0472641
25,2,10.0097,0.000610352,-0.00167847,-2.42653,0.0553758,-0.0738423,0.0522969,0.0709703,-0.0910102,0.146539,-0.124241,-0.0819601,0.0120926,0.0239182,0.0302505,0.0121689,0.0671005,0.0100327,-0.00606537,0.000152588,-9.97986,0.00679016,-0.00198364,0.0489044,0.664177,-0.0642776,-0.0274658,0.0991058,-0.0520706
25,3,10.0097,0.00305176,-0.00244141,-2.42531,0.0559862,-0.0738423,0.0553487,0.0691393,-0.0916206,0.147455,-0.125156,-0.0810445,0.029068,0.0273514,0.0279999,0.00919342,0.063324,0.00972748,0.0025177,0.00770569,-9.97986,-0.00602722,0.00152588,0.0558853,0.650444,-0.0727081,-0.0257492,0.0940704,-0.0543976
25,4,10.0097,0,-0.00167847,-2.42562,0.0565965,-0.073232,0.0556539,0.0712755,-0.0913154,0.14776,-0.123935,-0.0789083,0.0392914,0.0203705,0.0292206,0.0112152,0.0601959,0.0141144,0.00770569,0.00747681,-9.97986,-0.0180817,0.00106812,0.0638962,0.644035,-0.0793076,-0.0268936,0.0961304,-0.054245
25,5,10.0097,0.000305176,-0.000915527,-2.42653,0.0575121,-0.0738423,0.0538228,0.0718859,-0.0913154,0.146844,-0.124546,-0.0816549,0.0331879,0.0230789,0.0357819,0.00713348,0.0572968,0.0137329,0.0174332,0.001297,-9.97986,-0.0254822,3.8147e-005,0.0664139,0.630226,-0.0906372,-0.0300217,0.087738,-0.0576019
25,6,10.0097,0.0012207,-0.00198364,-2.42684,0.0565965,-0.0744527,0.054128,0.0569322,-0.0931465,0.145318,-0.122104,-0.0825704,0.0315094,0.0279617,0.0304794,0.00865936,0.0476074,0.0104523,0.0232697,0.00213623,-9.97986,-0.0300598,0.000305176,0.0741577,0.618973,-0.0962067,-0.0286865,0.0893021,-0.059166
25,7,10.0097,-0.00152588,-0.00244141,-2.42623,0.0553758,-0.073232,0.0547383,0.0624254,-0.0931465,0.146539,-0.125766,-0.0822652,0.0357819,0.0259781,0.0309753,0.0113297,0.0421524,0.0152588,0.0318909,-0.000419617,-9.97986,-0.0352097,-0.00190735,0.0747299,0.59761,-0.106201,-0.0333405,0.0883865,-0.0668335
25,8,10.0097,0.000305176,-0.00183105,-2.4247,0.0550706,-0.075063,0.0550435,0.0685289,-0.0919257,0.145624,-0.125461,-0.0834859,0.0284958,0.0286484,0.0369263,0.00850677,0.0416946,0.0102234,0.0412369,0.00175476,-9.97986,-0.0317764,0.00164032,0.0762939,0.578423,-0.108795,-0.0357437,0.0880814,-0.0685883
25,9,10.0097,0.000915527,-0.00213623,-2.42653,0.0547655,-0.0753682,0.0544332,0.0761583,-0.090705,0.146234,-0.125766,-0.0844015,0.0144196,0.0267792,0.0294495,0.00602722,0.0388718,0.0094223,0.0518036,0.0030899,-9.97986,-0.031662,0.0038147,0.0775909,0.543976,-0.117035,-0.0378036,0.0877762,-0.0698471
26,0,10.0097,0.00152588,-0.00274658,-2.42898,0.0544603,-0.075063,0.054128,0.0779894,-0.0943672,0.143792,-0.125766,-0.0868429,-0.00179291,0.0238037,0.0255966,0.00366211,0.0334549,0.0112152,0.0566483,-0.000152588,-9.97986,-0.041008,0.00301361,0.0864792,0.498924,-0.121689,-0.043335,0.080452,-0.0697327
26,1,10.0097,0.00213623,-0.0050354,-2.42837,0.0535448,-0.0756734,0.0519917,0.0734117,-0.0946723,0.143792,-0.126987,-0.0874532,-0.00572205,0.0247574,0.0271225,0.00358582,0.0314331,0.018959,0.0595856,0.00228882,-9.97986,-0.0416946,0.00232697,0.0947189,0.447922,-0.126572,-0.0367355,0.0754166,-0.0638962
26,2,10.0097,0.00152588,-0.00534058,-2.42837,0.0538499,-0.075063,0.0519917,0.0700548,-0.0946723,0.143487,-0.127292,-0.0883688,-0.00675201,0.0243759,0.0280762,0.00621796,0.022316,0.0253677,0.0634384,0.00263214,-9.97986,-0.0440979,0.00530243,0.101204,0.383148,-0.131226,-0.0400162,0.0711823,-0.0613785
26,3,10.0097,-0.000305176,-0.00671387,-2.42989,0.0535448,-0.0756734,0.0519917,0.0691393,-0.0961982,0.143487,-0.127292,-0.0868429,-0.0152206,0.0243759,0.0276566,0.00389099,0.025444,0.0307083,0.0737381,0.00114441,-9.97986,-0.0518036,0.00419617,0.107384,0.316658,-0.137405,-0.0447464,0.0629044,-0.0579071
26,4,10.0097,0.00213623,-0.00778198,-2.42898,0.0541551,-0.0753682,0.0526021,0.0682238,-0.0949775,0.142267,-0.127292,-0.0886739,-0.0159073,0.0183487,0.0276947,0.0043869,0.0172806,0.0297928,0.0755692,0.00701904,-9.97986,-0.0500107,0.00938416,0.114326,0.240784,-0.143547,-0.038414,0.0526428,-0.0576782
26,5,10.0097,-0.000610352,-0.00762939,-2.42959,0.0523241,-0.0762837,0.0522969,0.0673082,-0.0946723,0.143487,-0.126377,-0.0886739,-0.0159073,0.0201416,0.0301361,0.00598907,0.0215149,0.0292587,0.0767899,0.00350952,-9.97986,-0.050354,0.00553131,0.116348,0.160751,-0.14473,-0.0363922,0.0458145,-0.0510406
26,6,10.0097,-0.000915527,-0.00732422,-2.42867,0.0544603,-0.0756734,0.0526021,0.0682238,-0.0946723,0.144708,-0.126682,-0.0883688,-0.0123596,0.0257492,0.0270081,0.00205994,0.0197601,0.0279236,0.0780869,0.00774384,-9.97986,-0.0455856,0.00961304,0.118752,0.086937,-0.142097,-0.0418472,0.0304413,-0.0442886
26,7,10.0097,0.000915527,-0.00732422,-2.42837,0.0547655,-0.0753682,0.0535176,0.0679186,-0.0931465,0.143792,-0.126072,-0.0880636,-0.00946045,0.0233459,0.0331497,0.00480652,0.011673,0.0279236,0.0847244,0.0108719,-9.97986,-0.0468063,0.0123978,0.127754,0.00930786,-0.147018,-0.0421524,0.0180435,-0.0345993
26,8,10.0097,0.000305176,-0.00732422,-2.42745,0.0550706,-0.0753682,0.0538228,0.0697496,-0.0925361,0.145624,-0.126072,-0.0865377,-0.00831604,0.0268936,0.0303268,0.00793457,0.0162506,0.0283051,0.0823212,0.01194,-9.97986,-0.0481415,0.00865936,0.129471,-0.0665665,-0.14473,-0.0386429,0.0128555,-0.0315857
26,9,10.0097,0.00335693,-0.00701904,-2.42714,0.0550706,-0.0756734,0.0532125,0.0697496,-0.0937568,0.145013,-0.126377,-0.0856222,-0.0154877,0.0279617,0.0300217,0.00476837,0.0069046,0.0324631,0.0797653,0.00946045,-9.97986,-0.0397873,0.00591278,0.13382,-0.139656,-0.147133,-0.0377655,-0.000419617,-0.0208282
27,0,10.0097,0.000305176,-0.00747681,-2.42531,0.0565965,-0.0729268,0.055959,0.0700548,-0.0919257,0.146234,-0.124851,-0.0840963,-0.0126648,0.021553,0.030098,0.0134659,0.0037384,0.0365448,0.0751495,0.00671387,-9.97986,-0.0300217,0.00583649,0.134506,-0.214767,-0.142097,-0.0319672,-0.0127411,-0.00793457
27,1,10.0097,-0.000610352,-0.00701904,-2.42531,0.0565965,-0.075063,0.0544332,0.0706652,-0.0928413,0.146539,-0.124851,-0.0844015,-0.0154495,0.0229645,0.0287247,0.00865936,0.00522614,0.0379181,0.0701904,0.00320435,-9.97986,-0.0298691,-0.00156403,0.14019,-0.287018,-0.138168,-0.0361633,-0.0165176,0.00190735
27,2,10.0097,0.000610352,-0.00671387,-2.42562,0.0562914,-0.069875,0.0550435,0.0712755,-0.0913154,0.147149,-0.125156,-0.0816549,-0.00930786,0.0250244,0.0264359,0.00873566,0.00205994,0.0323868,0.0568008,0.00694275,-9.97986,-0.0275421,0.000457764,0.138969,-0.353012,-0.137558,-0.0279236,-0.0281906,0.018158
27,3,10.0097,0.000305176,-0.00579834,-2.42562,0.0565965,-0.0726216,0.0556539,0.0718859,-0.0910102,0.147455,-0.125156,-0.0831808,-0.00766754,0.0221634,0.0268173,0.0101852,-0.00225067,0.0325775,0.0405121,0.00953674,-9.97986,-0.0263977,0.00267029,0.146255,-0.415649,-0.135231,-0.0322723,-0.0341034,0.0289536
27,4,10.0097,0.000610352,-0.00518799,-2.4247,0.0559862,-0.0741475,0.054128,0.0697496,-0.0916206,0.149591,-0.124241,-0.0825704,-0.00808716,0.0229263,0.0265503,0.0101852,0.00286102,0.0349808,0.0289154,0.0103378,-9.97986,-0.0102997,0.000305176,0.149536,-0.454826,-0.12867,-0.0486374,-0.0430679,0.0404739
27,5,10.0097,0.00152588,-0.0038147,-2.4244,0.0553758,-0.0738423,0.0553487,0.0709703,-0.0922309,0.147149,-0.124546,-0.0822652,-0.0025177,0.0211334,0.0266266,0.00968933,-0.00160217,0.0375366,0.0044632,0.0127029,-9.97986,0.00228882,0.00396729,0.15419,-0.488205,-0.121956,-0.0539017,-0.050087,0.0541687
27,6,10.0097,0,-0.00366211,-2.42562,0.0562914,-0.0747579,0.0544332,0.0569322,-0.0934516,0.146234,-0.124851,-0.0828756,-0.00514984,0.0232315,0.0269699,0.00782013,-0.0094986,0.0549316,-0.0122833,0.00499725,-9.97986,0.0135422,-0.00370026,0.154915,-0.51506,-0.112877,-0.0519943,-0.0583649,0.0733185
27,7,10.0097,0.000305176,-0.00320435,-2.42653,0.055681,-0.0738423,0.0532125,0.0630358,-0.0925361,0.145929,-0.125461,-0.0844015,-0.00988007,0.0174332,0.0220871,0.0123978,-0.00995636,0.0556564,-0.0337219,0.00968933,-9.97986,0.0269318,-0.00289917,0.148697,-0.531845,-0.109978,-0.0430298,-0.0772858,0.0846863
27,8,10.0097,0.0012207,-0.0012207,-2.42592,0.0553758,-0.0738423,0.0544332,0.0691393,-0.0919257,0.146539,-0.125461,-0.0831808,-0.00522614,0.0243759,0.0204468,0.0172424,-0.00946045,0.0598145,-0.047493,0.0127792,-9.97986,0.0305939,-0.00164032,0.155487,-0.544167,-0.0968552,-0.0324249,-0.0862122,0.10128
27,9,10.0097,0.000915527,-0.000915527,-2.42684,0.0553758,-0.0747579,0.0553487,0.0779894,-0.0913154,0.145624,-0.126072,-0.0831808,0.000572205,0.0205994,0.0247574,0.0161362,-0.015831,0.0647736,-0.051918,0.0109863,-9.97986,0.0356293,-0.00434875,0.147705,-0.557365,-0.0849915,-0.0281525,-0.102005,0.115433
28,0,10.0097,0.0012207,0,-2.42898,0.0550706,-0.0753682,0.0522969,0.0779894,-0.0937568,0.144098,-0.126377,-0.0856222,0.0082016,0.0234985,0.0241852,0.0118637,-0.0152588,0.0539017,-0.0477982,0.0112534,-9.97986,0.0246048,-0.000495911,0.147209,-0.560684,-0.0790024,-0.0218582,-0.118828,0.136528
28,1,10.0097,0.000610352,0.000152588,-2.42837,0.0532396,-0.0759786,0.0522969,0.0715807,-0.0949775,0.144098,-0.127598,-0.0856222,0.0133514,0.0196075,0.0228119,0.0164032,-0.0169754,0.0449753,-0.0276184,0.018692,-9.97986,0.0189209,0.000114441,0.147057,-0.550461,-0.0703812,-0.00663757,-0.123711,0.151176
28,2,10.0097,0.000610352,0.000457764,-2.42837,0.0544603,-0.0759786,0.0529073,0.0688341,-0.0943672,0.143792,-0.127598,-0.0859274,0.0210953,0.0208282,0.0218964,0.0175095,-0.0183487,0.0530243,-0.00984192,0.0172043,-9.97986,0.00511169,0.00038147,0.148506,-0.539436,-0.0626755,-0.0128174,-0.13504,0.167999
28,3,10.0097,0,0.00137329,-2.42898,0.0541551,-0.0759786,0.0516866,0.0691393,-0.094062,0.143792,-0.126987,-0.0862325,0.0128937,0.0173187,0.023613,0.0165939,-0.0218964,0.062027,0.00659943,0.0200653,-9.97986,-0.00213623,0.001297,0.150604,-0.524788,-0.0517273,-0.0170898,-0.148926,0.185242
28,4,10.0097,0.000305176,0.00198364,-2.42837,0.0559862,-0.0759786,0.0513814,0.0685289,-0.0949775,0.144098,-0.127292,-0.0859274,-0.00587463,0.0209427,0.018692,0.018692,-0.0252151,0.0772858,0.026474,0.0159073,-9.97986,0.00156403,-0.00328064,0.150719,-0.501251,-0.0418854,-0.0196838,-0.155487,0.201035
28,5,10.0097,0.000610352,0.00198364,-2.42898,0.0538499,-0.0762837,0.0519917,0.0688341,-0.0946723,0.143487,-0.127903,-0.0865377,-0.0187683,0.018425,0.0214386,0.0186157,-0.0260544,0.0817108,0.0416946,0.018692,-9.97986,0.013237,-0.00270844,0.153351,-0.473442,-0.0294495,-0.0174713,-0.162582,0.21225
28,6,10.0097,0.000610352,0.00183105,-2.42867,0.0529344,-0.0759786,0.0529073,0.0694445,-0.0934516,0.144098,-0.127598,-0.0856222,-0.0216293,0.0176239,0.0202942,0.0149918,-0.029068,0.0850677,0.0592041,0.016098,-9.97986,0.0235748,-0.00553131,0.1548,-0.443573,-0.0183487,-0.0087738,-0.169601,0.219803
28,7,10.0097,0.000915527,0.00289917,-2.42806,0.0547655,-0.0753682,0.0538228,0.0697496,-0.0931465,0.145013,-0.126377,-0.0831808,-0.0177383,0.0209427,0.0208664,0.0186539,-0.0308228,0.0933456,0.0798798,0.0123215,-9.97986,0.0323105,-0.00705719,0.156822,-0.412712,-0.00762939,-0.00656128,-0.176697,0.226212
28,8,10.0097,0.0012207,0.00274658,-2.42867,0.0547655,-0.0744527,0.054128,0.0700548,-0.094062,0.145318,-0.125766,-0.0840963,-0.0131226,0.0217438,0.0248337,0.0200272,-0.0251007,0.09655,0.103188,0.00888824,-9.97986,0.0214005,-0.00164032,0.159416,-0.379677,3.8147e-005,-0.0124741,-0.18219,0.237083
28,9,10.0097,0.00274658,0.00305176,-2.42714,0.0544603,-0.0747579,0.054128,0.0700548,-0.0925361,0.145624,-0.126377,-0.0837911,0.00289917,0.0207901,0.0224686,0.02285,-0.0263596,0.107765,0.117149,0.00862122,-9.97986,0.0246429,-0.00205994,0.158844,-0.354729,0.00846863,-0.0131226,-0.187569,0.239639
29,0,10.0097,0.0012207,0.00213623,-2.42531,0.0562914,-0.0744527,0.055959,0.0694445,-0.0931465,0.145929,-0.124241,-0.0813497,0.00854492,0.0208282,0.0246048,0.0190353,-0.0271988,0.110741,0.13485,0.0154495,-9.97986,0.020256,-0.00366211,0.160904,-0.332375,0.0149155,-0.0123978,-0.192146,0.247383
29,1,10.0097,0.000915527,0.0012207,-2.42531,0.0559862,-0.0741475,0.0532125,0.0718859,-0.0925361,0.145929,-0.124851,-0.0810445,0.0102615,0.0181961,0.0233459,0.019455,-0.0261688,0.117073,0.142975,0.0112915,-9.97986,0.0207901,-0.00450134,0.157127,-0.312767,0.018158,-0.017128,-0.194321,0.239601
29,2,10.0097,0.000305176,0.00244141,-2.4247,0.055681,-0.0744527,0.0556539,0.07036,-0.0919257,0.147455,-0.124546,-0.0810445,-0.0120163,0.0243759,0.0257874,0.0184631,-0.0299072,0.117874,0.15976,0.0154495,-9.97986,0.019989,-0.00621796,0.153885,-0.29335,0.0257874,-0.0123978,-0.189667,0.237083
29,3,10.0097,0.00183105,0.00198364,-2.42623,0.0562914,-0.073232,0.0571797,0.0715807,-0.0913154,0.145929,-0.125156,-0.0810445,-0.0352859,0.0195694,0.0237656,0.0173187,-0.0336456,0.123405,0.168915,0.0167465,-9.97986,0.0152588,-0.00938416,0.147667,-0.269241,0.0295639,-0.00473022,-0.18177,0.240021
29,4,10.0097,0.0012207,0.00244141,-2.42501,0.0565965,-0.073232,0.0544332,0.0724962,-0.0916206,0.147455,-0.123935,-0.0807394,-0.0185776,0.0215149,0.019722,0.02285,-0.0318909,0.116348,0.175056,0.0168228,-9.97986,0.00350952,-0.00244141,0.139847,-0.258865,0.0343704,-0.0031662,-0.168762,0.236397
29,5,10.0097,0,0.00213623,-2.42348,0.0565965,-0.0738423,0.0556539,0.0697496,-0.0900947,0.146844,-0.124546,-0.0813497,0.00354767,0.024147,0.0226593,0.0230789,-0.0378799,0.112038,0.18528,0.0183487,-9.97986,-0.000610352,-0.0125504,0.131493,-0.236855,0.0364685,-0.00541687,-0.154724,0.233002
29,6,10.0097,0.000915527,0.00152588,-2.42714,0.0559862,-0.0741475,0.0547383,0.0566271,-0.0919257,0.145929,-0.125766,-0.0825704,0.0358582,0.0252533,0.0230026,0.0166321,-0.0347137,0.116768,0.186234,0.0156784,-9.97986,-0.0179291,-0.00961304,0.12146,-0.218887,0.0381088,-0.00934601,-0.141068,0.228081
29,7,10.0097,-0.00183105,0.00137329,-2.42653,0.0559862,-0.0747579,0.0538228,0.0621202,-0.0919257,0.145929,-0.126377,-0.0810445,0.0569153,0.0196075,0.0228119,0.0159073,-0.0380325,0.118256,0.192757,0.0183868,-9.97986,-0.0304413,-0.0031662,0.118561,-0.208092,0.0406647,-0.00900269,-0.121841,0.217667
29,8,10.0097,0,0.00106812,-2.42592,0.0550706,-0.0741475,0.0547383,0.0679186,-0.0931465,0.145929,-0.125461,-0.0825704,0.0429535,0.0244904,0.0207901,0.0202942,-0.0314331,0.114365,0.19043,0.0224304,-9.97986,-0.0331879,-0.00270844,0.106697,-0.191193,0.0457764,-0.00274658,-0.107155,0.212059
29,9,10.0097,-0.000610352,0.00228882,-2.42776,0.0544603,-0.0756734,0.0550435,0.0770738,-0.0910102,0.144708,-0.125461,-0.0828756,0.036087,0.0262451,0.0207138,0.0172043,-0.0310135,0.110893,0.184479,0.0235748,-9.97986,-0.0317764,0.000228882,0.108223,-0.171394,0.0524139,0.000610352,-0.0917435,0.211105
30,0,10.0097,0,0.00274658,-2.42745,0.0547655,-0.0753682,0.0532125,0.0801256,-0.0925361,0.144098,-0.126682,-0.085317,0.0341034,0.0219345,0.019722,0.0122833,-0.0371552,0.106239,0.17746,0.0304794,-9.97986,-0.0255203,-0.00534058,0.112686,-0.152779,0.0664902,0.00118256,-0.0758362,0.200844
30,1,10.0097,-0.00305176,0.000915527,-2.42898,0.0547655,-0.0765889,0.0519917,0.0743273,-0.0946723,0.144403,-0.126682,-0.0859274,0.0293732,0.0181961,0.022316,0.0140381,-0.0374985,0.101318,0.169563,0.0318527,-9.97986,-0.0216675,-0.00648499,0.111275,-0.142174,0.0751495,0.000724792,-0.0606918,0.191536
30,2,10.0097,0.000305176,0.00106812,-2.42806,0.0541551,-0.0759786,0.0519917,0.07036,-0.0943672,0.144098,-0.126377,-0.0862325,0.0349045,0.0241852,0.0211716,0.0168991,-0.0386429,0.100861,0.164528,0.0359344,-9.97986,-0.00453949,-0.00350952,0.124779,-0.134354,0.0873947,0.000724792,-0.0439835,0.188141
30,3,10.0097,-0.000305176,0.000762939,-2.42867,0.0535448,-0.0762837,0.0529073,0.0682238,-0.094062,0.143182,-0.127292,-0.0859274,0.0326538,0.0201416,0.0155258,0.0177002,-0.0455856,0.0947189,0.149269,0.0296783,-9.97986,0.000991821,-0.0012207,0.131607,-0.129509,0.0934219,0.00087738,-0.0359726,0.180016
30,4,10.0097,0.00305176,-0.000305176,-2.42898,0.0532396,-0.0762837,0.0526021,0.07036,-0.0952827,0.144098,-0.126987,-0.0871481,0.025444,0.0189209,0.0144196,0.0159073,-0.0441742,0.0939178,0.14019,0.0349808,-9.97986,0.0111389,-0.00408173,0.148048,-0.128021,0.0966644,-0.00114441,-0.0290298,0.171928
30,5,10.0097,-0.00152588,0.000152588,-2.42959,0.0547655,-0.0759786,0.0529073,0.0697496,-0.0946723,0.145013,-0.126987,-0.0865377,0.0246811,0.0202179,0.0156403,0.017128,-0.0503922,0.0859451,0.125389,0.0227737,-9.97986,0.0175858,-0.00930786,0.16037,-0.117035,0.0988007,0.00331879,-0.0270462,0.16674
30,6,10.0097,-0.0012207,0,-2.42745,0.0541551,-0.0759786,0.0532125,0.0691393,-0.0934516,0.143182,-0.123935,-0.0859274,0.0335312,0.016098,0.0172043,0.0125504,-0.0579453,0.0822067,0.11097,0.00465393,-9.97986,0.0308228,-0.00686646,0.16922,-0.108643,0.0944138,0.00305176,-0.0266647,0.160675
30,7,10.0097,0.00183105,-0.000305176,-2.42776,0.0544603,-0.0753682,0.0532125,0.0715807,-0.0922309,0.144708,-0.126377,-0.085317,0.0473022,0.0207901,0.0152588,0.0157166,-0.0678635,0.0748444,0.0933456,-0.000686646,-9.97986,0.0342941,0.00473022,0.181999,-0.107422,0.0925064,0.00183105,-0.0227737,0.154381
30,8,10.0097,-0.00152588,0.000610352,-2.42745,0.0541551,-0.0738423,0.0529073,0.0694445,-0.0922309,0.144098,-0.126072,-0.0847066,0.0708771,0.0233078,0.0178146,0.019455,-0.0727844,0.0729752,0.0871277,-0.00293732,-9.97986,0.0317383,-0.00205994,0.191956,-0.102692,0.0944901,-0.00507355,-0.0215149,0.150681
30,9,10.0097,-0.000610352,0.000915527,-2.42684,0.0550706,-0.075063,0.0538228,0.0697496,-0.0949775,0.145624,-0.126682,-0.0840963,0.0646591,0.020752,0.0172806,0.01194,-0.0814056,0.0629425,0.0715256,0.00171661,-9.97986,0.0241089,-0.00984192,0.196152,-0.0913239,0.0958252,-0.00522614,-0.0181961,0.144157
31,0,10.0097,0.00213623,0.00167847,-2.42562,0.0559862,-0.0738423,0.0550435,0.0700548,-0.0922309,0.145929,-0.125461,-0.0819601,0.0265503,0.0196457,0.0147629,0.01297,-0.0887299,0.0618362,0.0541687,0.00888824,-9.97986,0.0188446,-0.0127792,0.198097,-0.0693893,0.0984955,-0.00259399,-0.0136566,0.144844
31,1,10.0097,0.000915527,0.00198364,-2.42592,0.0547655,-0.0744527,0.0568746,0.07036,-0.090705,0.145624,-0.124546,-0.0810445,-0.00862122,0.0181961,0.00701904,0.0144577,-0.0960541,0.0630951,0.0378799,0.0184631,-9.97986,0.0128937,-0.00617981,0.196953,-0.054512,0.0955582,0.00198364,-0.0109863,0.143547
31,2,10.0097,0.00213623,0.00106812,-2.42501,0.0572069,-0.0723164,0.0556539,0.07036,-0.0910102,0.14776,-0.124851,-0.0810445,-0.0342178,0.0175476,0.00465393,0.0111771,-0.107841,0.0650024,0.0295639,0.0205994,-9.97986,0.0221252,0.00328064,0.188293,-0.0383759,0.0918961,0.00869751,-0.0082016,0.145111
31,3,10.0097,0.000610352,0.00167847,-2.4247,0.0572069,-0.0735371,0.0550435,0.0709703,-0.0916206,0.146844,-0.124546,-0.080129,-0.030899,0.0186157,0.00484467,0.00545502,-0.101852,0.0707626,0.0152206,0.0365067,-9.97986,0.0141144,0.00137329,0.18692,-0.022049,0.0968933,0.0181961,-0.00938416,0.143013
31,4,10.0097,0,0.00152588,-2.42501,0.055681,-0.073232,0.055959,0.0700548,-0.0913154,0.145318,-0.123935,-0.0798238,-0.0265503,0.0107956,0.00217438,0.00404358,-0.0916672,0.0803375,0.00511169,0.0407028,-9.97986,7.62939e-005,0.000610352,0.176201,-0.00255585,0.092392,0.019455,-0.00991821,0.141411
31,5,10.0097,-0.000915527,0.00244141,-2.42623,0.055681,-0.0735371,0.0553487,0.07036,-0.0916206,0.147455,-0.123935,-0.0798238,-0.0236511,0.00873566,0.00370026,0.00331879,-0.0871658,0.0817871,-0.00587463,0.0426102,-9.97986,-0.0253296,-0.00743866,0.158844,0.0289154,0.0919724,0.0195313,-0.0141144,0.138893
31,6,10.0097,0.00183105,0.00244141,-2.42592,0.0550706,-0.0747579,0.0532125,0.054796,-0.0934516,0.145013,-0.125766,-0.0810445,-0.01194,0.00751495,0.000190735,0.000648499,-0.080452,0.0917435,-0.00717163,0.0489426,-9.97986,-0.0483322,-0.00450134,0.141754,0.0639343,0.0901413,0.00789642,-0.0178146,0.138817
31,7,10.0097,0.000610352,0.00320435,-2.42592,0.055681,-0.075063,0.0538228,0.0630358,-0.0922309,0.145624,-0.125766,-0.0807394,0.0069046,0.0115204,0.00228882,0.00301361,-0.0738525,0.0918198,-0.0122833,0.0447464,-9.97986,-0.0616837,-0.00278473,0.128593,0.0995255,0.0877762,0.0094223,-0.0193024,0.137444
31,8,10.0097,0.000610352,0.00396729,-2.42592,0.055681,-0.0747579,0.0538228,0.0682238,-0.0922309,0.145624,-0.125156,-0.0813497,0.0106049,0.0128937,0.000915527,-0.0012207,-0.0665665,0.0950623,-0.0144958,0.0440979,-9.97986,-0.0499725,-0.00530243,0.100441,0.14328,0.0874329,0.0132751,-0.0270844,0.136337
31,9,10.0097,-0.000610352,0.00473022,-2.42592,0.0547655,-0.075063,0.054128,0.0782946,-0.0916206,0.145624,-0.125461,-0.0819601,0.0144958,0.0141907,0.00377655,0.00347137,-0.0642395,0.101013,-0.0204468,0.0388336,-9.97986,-0.0133896,-0.00499725,0.0865936,0.187874,0.0808716,0.00556946,-0.034523,0.13298
32,0,10.0097,0.00244141,0.00488281,-2.42745,0.0538499,-0.0753682,0.0526021,0.0795153,-0.0937568,0.145318,-0.126987,-0.0844015,0.0319672,0.0149155,0.00831604,0.00408173,-0.057106,0.102119,-0.0150299,0.0367737,-9.97986,0.0264359,-0.0104141,0.0702667,0.22213,0.0693512,0.00141144,-0.0424957,0.137291
32,1,10.0097,0.00152588,0.00183105,-2.42806,0.0526292,-0.0759786,0.0513814,0.0734117,-0.0949775,0.143792,-0.127598,-0.0859274,0.0461197,0.0121689,0.00751495,0.00339508,-0.05867,0.0978851,-0.0196457,0.0340271,-9.97986,0.0491333,-0.00469208,0.0450897,0.217552,0.0617599,-0.00328064,-0.046196,0.140114
32,2,10.0097,0.000305176,-0.00167847,-2.42928,0.0538499,-0.0747579,0.0529073,0.0706652,-0.0952827,0.143487,-0.127292,-0.0874532,0.0502014,0.0143814,0.012207,0.00770569,-0.0437927,0.0947571,-0.0140381,0.0389481,-9.97986,0.0605392,0.00343323,0.0297165,0.191498,0.0469208,-0.00137329,-0.0475311,0.133438
32,3,10.0097,0.0012207,-0.000915527,-2.42837,0.0538499,-0.0765889,0.0513814,0.0682238,-0.0961982,0.143182,-0.128818,-0.0868429,0.0503922,0.018425,0.0114059,0.00293732,-0.0352097,0.0950623,-0.0191879,0.0363159,-9.97986,0.0676346,0.00427246,0.00991821,0.191841,0.0386047,0.00431061,-0.0481033,0.125923
32,4,10.0097,0.00183105,0.00244141,-2.42898,0.0535448,-0.0759786,0.0516866,0.0715807,-0.0946723,0.143182,-0.127598,-0.085317,0.0309753,0.022316,0.01297,0.00289917,-0.0286102,0.103989,-0.0172806,0.0333023,-9.97986,0.0781631,0.000343323,-0.00869751,0.239372,0.0312805,0.0112915,-0.0417328,0.127411
32,5,10.0097,0.000915527,0.00457764,-2.42867,0.0535448,-0.0759786,0.050771,0.0685289,-0.095893,0.143487,-0.126377,-0.0862325,0.0242615,0.0209808,0.0138092,0.00270844,-0.0233459,0.1017,-0.0208282,0.0268936,-9.97986,0.0746155,-0.00133514,-0.0288773,0.30159,0.0198364,0.0137711,-0.0384903,0.118828
32,6,10.0097,0.000610352,0.00305176,-2.42837,0.0535448,-0.0753682,0.0526021,0.0682238,-0.0952827,0.143792,-0.127292,-0.0844015,0.0265503,0.0236893,0.0138855,0.00556946,-0.0252151,0.0959396,-0.0174332,0.0195313,-9.97986,0.0701904,-0.000534058,-0.0551224,0.327225,0.0321579,0.0144577,-0.0308609,0.113335
32,7,10.0097,-0.000610352,0.00213623,-2.42684,0.0535448,-0.075063,0.0526021,0.07036,-0.0925361,0.145318,-0.125766,-0.0847066,0.0325012,0.0234985,0.0167084,0.00659943,-0.0177002,0.0934982,-0.0152588,0.0224304,-9.97986,0.0827026,-0.00354767,-0.0784683,0.339851,0.0360107,0.0134277,-0.0339127,0.103073
32,8,10.0097,0.00183105,0.00213623,-2.42806,0.0541551,-0.0756734,0.0522969,0.0694445,-0.0931465,0.144403,-0.126072,-0.0825704,0.0362778,0.0205612,0.0204086,0.00934601,-0.0112152,0.0928879,-0.0137329,0.0173569,-9.97986,0.105247,-0.0129318,-0.098381,0.362625,0.0378799,0.0190353,-0.0284958,0.0962067
32,9,10.0097,-0.0012207,0.000457764,-2.42989,0.0547655,-0.0747579,0.0535176,0.0712755,-0.0931465,0.143487,-0.125766,-0.0844015,0.0215149,0.0244141,0.0123215,0.00797272,-0.00244141,0.0880051,-0.0150299,0.0149155,-9.97986,0.128593,-0.00801086,-0.114784,0.360298,0.0192261,0.0257874,-0.0249863,0.0919342
33,0,10.0097,0.000305176,0.000457764,-2.42562,0.0572069,-0.0744527,0.054128,0.07036,-0.0931465,0.145624,-0.124546,-0.0819601,-0.00801086,0.0252914,0.0103378,0.00587463,0.00602722,0.0873566,-0.0112534,0.0177765,-9.97986,0.128784,0.00495911,-0.131264,0.352859,0.000953674,0.0279617,-0.020752,0.0824356
33,1,10.0097,0,-0.000457764,-2.42592,0.0562914,-0.0738423,0.0550435,0.07036,-0.0925361,0.145318,-0.125156,-0.0786031,-0.0264359,0.0202942,0.0159454,0.00484467,0.0117493,0.0760269,-0.00270844,0.0272369,-9.97986,0.126686,0.0150681,-0.145111,0.348549,-0.0217438,0.02491,-0.0139999,0.0732422
33,2,10.0097,-0.000610352,-0.000610352,-2.42684,0.0559862,-0.0744527,0.054128,0.0706652,-0.0910102,0.145624,-0.124546,-0.0816549,-0.0346756,0.019722,0.013504,0.00312805,0.00736237,0.0701523,-0.001297,0.03582,-9.97986,0.115547,0.00907898,-0.162888,0.338326,-0.0265503,0.0246429,-0.00808716,0.0630951
33,3,10.0097,0.000305176,-0.00106812,-2.42501,0.0553758,-0.0747579,0.054128,0.0691393,-0.0919257,0.145318,-0.124851,-0.0813497,-0.0312805,0.0206375,0.0161362,0.00591278,0.011673,0.0610352,0.00469208,0.0408173,-9.97986,0.0931931,0.0063324,-0.183754,0.322113,-0.039978,0.0165558,0.00766754,0.0541687
33,4,10.0097,0,-0.00167847,-2.42501,0.0572069,-0.0735371,0.0544332,0.0715807,-0.0913154,0.146844,-0.12363,-0.0810445,-0.0200272,0.0209808,0.0168991,0.00751495,0.00965118,0.0521088,0.0102615,0.0362778,-9.97986,0.0667191,0.0056839,-0.198517,0.299187,-0.0568008,0.0166321,0.0191116,0.0389481
33,5,10.0097,-0.000305176,-0.00106812,-2.4244,0.0572069,-0.0729268,0.0544332,0.0709703,-0.0916206,0.14837,-0.123935,-0.0813497,-0.0260162,0.0202179,0.0174713,0.00293732,0.0148392,0.0395203,0.0104904,0.0423813,-9.97986,0.0443268,-0.00297546,-0.215569,0.287552,-0.0669098,0.0179672,0.0321579,0.0276566
33,6,10.0097,0.000305176,-0.000610352,-2.4247,0.0572069,-0.0744527,0.0532125,0.0544908,-0.094062,0.145929,-0.126072,-0.0822652,-0.0282669,0.0185394,0.0187302,0.00591278,0.0114441,0.0305939,0.01194,0.0443268,-9.97986,0.0255203,0.00114441,-0.231094,0.280151,-0.0799179,0.0128174,0.0456238,0.0139236
33,7,10.0097,-0.000305176,-0.00106812,-2.42623,0.0553758,-0.0744527,0.0538228,0.0618151,-0.0931465,0.145318,-0.124851,-0.0840963,-0.0265503,0.0214386,0.018959,0.00663757,0.0114441,0.0203323,0.0156403,0.0427628,-9.97986,-0.000610352,-0.000419617,-0.243874,0.27504,-0.0928497,0.0130844,0.055275,-0.00385284
33,8,10.0097,0.000915527,-0.000610352,-2.42867,0.0565965,-0.0741475,0.0550435,0.0694445,-0.0925361,0.144403,-0.124851,-0.0825704,-0.0265503,0.028038,0.0197983,0.0108719,0.00740051,0.0154877,0.0209427,0.0413132,-9.97986,-0.0111771,0.00640869,-0.247421,0.2705,-0.0972748,0.0179672,0.0716019,-0.00896454
33,9,10.0097,0,-0.00167847,-2.42684,0.0547655,-0.0744527,0.054128,0.0758531,-0.0913154,0.144403,-0.124851,-0.0831808,-0.0164413,0.0159454,0.00995636,0.00465393,-0.00255585,-0.00534058,0.00850677,0.0247192,-9.97986,-0.0422668,-0.00591278,-0.263481,0.233879,-0.109406,0.00614166,0.0741196,-0.0307846
34,0,10.0097,-0.000915527,-0.000457764,-2.42867,0.0544603,-0.0759786,0.0526021,0.0795153,-0.0946723,0.143792,-0.126377,-0.0868429,0.0185013,0.0255203,0.0222778,0.012207,0.0143051,-0.0123596,0.0118637,0.0175095,-9.97986,-0.0421524,-0.0069046,-0.259438,0.227203,-0.105896,0.0141907,0.0828552,-0.037384
34,1,10.0097,-0.00152588,-0.00183105,-2.42745,0.0535448,-0.0762837,0.0526021,0.0731066,-0.0943672,0.145013,-0.126682,-0.0856222,0.0182343,0.0228119,0.0186157,0.00614166,0.0173569,-0.0317001,0.00232697,0.0112534,-9.97986,-0.0365829,-0.00789642,-0.259819,0.208511,-0.0990295,0.00934601,0.0941849,-0.0487518
34,2,10.0097,0.000305176,-0.00274658,-2.42837,0.0541551,-0.0762837,0.0532125,0.0682238,-0.0937568,0.143182,-0.127598,-0.0865377,0.0138474,0.0272369,0.0193787,0.0131989,0.0230789,-0.0395966,0.000839233,0.0115585,-9.97986,-0.019455,-0.00907898,-0.258942,0.189438,-0.0845337,0.00141144,0.0991821,-0.0600815
34,3,10.0097,0.000305176,-0.00305176,-2.42989,0.0535448,-0.0756734,0.0526021,0.0694445,-0.094062,0.143182,-0.127292,-0.0871481,0.00793457,0.02285,0.0162506,0.00980377,0.0360489,-0.0502396,-0.000152588,0.0128174,-9.97986,-0.00640869,-0.00801086,-0.259285,0.164986,-0.0727844,-0.00392914,0.105286,-0.0745773
34,4,10.0097,-0.000610352,-0.00244141,-2.42928,0.0538499,-0.0756734,0.0519917,0.0691393,-0.0943672,0.142877,-0.128513,-0.0871481,-0.00320435,0.0281143,0.0201035,0.0105667,0.0388718,-0.0675964,-0.00583649,0.0216675,-9.97986,0.00465393,-0.00293732,-0.251274,0.142059,-0.0606918,-0.00328064,0.114365,-0.0858688
34,5,10.0097,-0.0012207,-0.00350952,-2.42989,0.0538499,-0.0759786,0.0529073,0.0682238,-0.0946723,0.143792,-0.127903,-0.0880636,-0.0141907,0.0282288,0.0222778,0.00648499,0.0552368,-0.0806046,-0.0127792,0.0203323,-9.97986,0.0094986,0.00453949,-0.246429,0.106659,-0.0427246,-0.00347137,0.12104,-0.0977325
34,6,10.0097,-0.000610352,-0.00427246,-2.4302,0.0538499,-0.0762837,0.0516866,0.0700548,-0.094062,0.143792,-0.126377,-0.0871481,-0.0187683,0.0254822,0.0174713,0.0101852,0.0668716,-0.0939941,-0.0163269,0.0220871,-9.97986,0.0202179,0.0012207,-0.245934,0.0630569,-0.0312424,0.000839233,0.130997,-0.102158
34,7,10.0097,-0.000610352,-0.00427246,-2.42684,0.0541551,-0.0747579,0.0529073,0.0700548,-0.0931465,0.145318,-0.127292,-0.0862325,-0.00354767,0.0282288,0.0224686,0.00415802,0.0746536,-0.106583,-0.0189972,0.0191879,-9.97986,0.0423431,-0.00648499,-0.249062,0.0126648,-0.0279617,-0.00087738,0.137825,-0.112228
34,8,10.0097,0.000610352,-0.00457764,-2.42776,0.0550706,-0.0753682,0.0532125,0.0712755,-0.094062,0.144403,-0.125156,-0.085317,0.0168228,0.021286,0.0201035,0.00442505,0.0945663,-0.112839,-0.0227356,0.0219345,-9.97986,0.0595093,0.00148773,-0.231934,-0.0359344,-0.0245285,0.00686646,0.141678,-0.120316
34,9,10.0097,0.000610352,-0.00473022,-2.42653,0.0550706,-0.0747579,0.0538228,0.0691393,-0.0931465,0.144403,-0.126072,-0.0844015,-0.00434875,0.021553,0.0115967,0.0043869,0.105934,-0.126915,-0.0231171,0.0212479,-9.97986,0.0530243,3.8147e-005,-0.226936,-0.0898361,-0.0268173,0.00709534,0.142326,-0.127754
35,0,10.0097,0.00183105,-0.00518799,-2.42684,0.0569017,-0.0747579,0.054128,0.0709703,-0.0922309,0.145929,-0.124546,-0.0847066,0.00106812,0.0272751,0.018425,0.00743866,0.117073,-0.138397,-0.0184631,0.0255585,-9.97986,0.062294,0.00179291,-0.215302,-0.147018,-0.0214386,0.0128174,0.14492,-0.128098
35,1,10.0097,-0.000610352,-0.00732422,-2.42531,0.0550706,-0.0735371,0.0547383,0.0718859,-0.0919257,0.146234,-0.123935,-0.0840963,0.0269318,0.02491,0.0219727,0.00804901,0.128555,-0.148544,-0.0277328,0.0278473,-9.97986,0.0683594,0.00205994,-0.211563,-0.237694,-0.0173569,0.0141144,0.146255,-0.137138
35,2,10.0097,-0.000915527,-0.00747681,-2.42501,0.0559862,-0.0738423,0.0547383,0.0706652,-0.0897895,0.145929,-0.124546,-0.0844015,0.0644302,0.0274277,0.0153732,0.0109482,0.141716,-0.155487,-0.0258636,0.0296021,-9.97986,0.0717926,-0.00125885,-0.201378,-0.317154,-0.0115967,0.0186539,0.149498,-0.138588
35,3,10.0097,0.000915527,-0.00686646,-2.42623,0.0553758,-0.0741475,0.0550435,0.0709703,-0.0919257,0.147455,-0.123935,-0.0825704,0.0757599,0.0234222,0.0173569,0.00537872,0.147896,-0.167694,-0.0287628,0.0226974,-9.97986,0.071106,-0.00671387,-0.187454,-0.381775,-0.00038147,0.0179672,0.147667,-0.144157
35,4,10.0097,0.000305176,-0.00579834,-2.4244,0.0565965,-0.0735371,0.0550435,0.0700548,-0.0931465,0.147149,-0.12363,-0.0822652,0.0776672,0.0262451,0.0141144,0.010643,0.148277,-0.166626,-0.025177,0.0264359,-9.97986,0.0582123,-0.00450134,-0.166779,-0.438614,0.0102615,0.0248718,0.149345,-0.143738
35,5,10.0097,0.000610352,-0.00549316,-2.4247,0.0562914,-0.0738423,0.054128,0.0697496,-0.0913154,0.146844,-0.124241,-0.0822652,0.0720215,0.0278854,0.0117874,0.0130844,0.151253,-0.172691,-0.0327301,0.0266266,-9.97986,0.0437164,-0.00278473,-0.152245,-0.490112,0.0104904,0.0320053,0.14698,-0.145493
35,6,10.0097,0.000610352,-0.00854492,-2.42623,0.0569017,-0.0723164,0.0547383,0.0560167,-0.0949775,0.146234,-0.125766,-0.0844015,0.067482,0.0312805,0.018959,0.0100327,0.15152,-0.172501,-0.0282288,0.02388,-9.97986,0.0338364,0.000915527,-0.131416,-0.585709,0.0190353,0.0309753,0.140305,-0.146027
35,7,10.0097,0.0012207,-0.00839233,-2.42562,0.0550706,-0.0738423,0.0550435,0.0621202,-0.0925361,0.145624,-0.126377,-0.0844015,0.0626373,0.0279999,0.0164032,0.00946045,0.153008,-0.176926,-0.031395,0.0224304,-9.97986,0.033493,0.00267029,-0.115891,-0.667839,0.0260544,0.0327682,0.13855,-0.146332
35,8,10.0097,0.00183105,-0.00686646,-2.42684,0.0553758,-0.075063,0.0556539,0.0682238,-0.0931465,0.145318,-0.124546,-0.0850118,0.0509262,0.0230026,0.0204468,0.0103378,0.14534,-0.178795,-0.033989,0.0159073,-9.97986,0.0317383,0.00453949,-0.100975,-0.728416,0.0226974,0.0289917,0.133476,-0.147247
35,9,10.0097,0.00183105,-0.00534058,-2.42989,0.0553758,-0.0744527,0.0556539,0.0764635,-0.0931465,0.144403,-0.126072,-0.0844015,0.0210953,0.0270844,0.0179672,0.0103378,0.142059,-0.181046,-0.0379944,0.00934601,-9.97986,0.0285721,0.00205994,-0.0860214,-0.778503,0.0231552,0.030899,0.126991,-0.144539
36,0,10.0097,0,-0.0050354,-2.42776,0.0541551,-0.0747579,0.0516866,0.0779894,-0.0934516,0.144708,-0.125461,-0.0868429,-0.00953674,0.0282669,0.0205994,0.0130844,0.136986,-0.17952,-0.0328445,0.00995636,-9.97986,0.0162125,-0.00293732,-0.0799561,-0.838852,0.0151825,0.0325775,0.12146,-0.142593
36,1,10.0097,0.0012207,-0.00595093,-2.42928,0.0544603,-0.0747579,0.0522969,0.0728014,-0.0949775,0.143487,-0.127292,-0.0868429,-0.0347519,0.0287628,0.0209808,0.0114059,0.115395,-0.181007,-0.0386047,0.0140381,-9.97986,0.00476837,0.00366211,-0.0733948,-0.899162,0.0103378,0.0302124,0.119209,-0.144424
36,2,10.0097,0,-0.00366211,-2.42989,0.0547655,-0.0756734,0.0516866,0.0685289,-0.0949775,0.142267,-0.126682,-0.0871481,-0.0487518,0.0330734,0.0164413,0.0126648,0.106888,-0.178642,-0.0369263,0.0178146,-9.97986,-0.00637054,0.0102615,-0.0644302,-0.916557,0.00732422,0.0307465,0.110321,-0.141335
36,3,10.0097,0.000305176,-0.00152588,-2.42928,0.0541551,-0.0768941,0.0538228,0.07036,-0.0943672,0.144098,-0.127598,-0.0865377,-0.0537109,0.0281906,0.0254059,0.017662,0.0885773,-0.18528,-0.0340652,0.00827789,-9.97986,-0.00419617,-0.00556946,-0.0651169,-0.915871,-0.0110245,0.0268936,0.105019,-0.141792
36,4,10.0097,0.000305176,-0.00228882,-2.42928,0.0538499,-0.0756734,0.0522969,0.0700548,-0.0952827,0.143792,-0.127598,-0.0871481,-0.0349045,0.0292206,0.0223541,0.0128174,0.0729752,-0.180817,-0.0377655,0.00526428,-9.97986,0.0154877,-0.00331879,-0.0569916,-0.935593,-0.0274277,0.0288391,0.0967407,-0.140152
36,5,10.0097,0.000305176,-0.00305176,-2.42867,0.0538499,-0.0759786,0.0513814,0.0679186,-0.0946723,0.142267,-0.126682,-0.0877584,-0.0203323,0.0267792,0.0203705,0.0130844,0.0610733,-0.174599,-0.0402832,0.0139999,-9.97986,0.0339127,-0.00198364,-0.0516891,-0.960312,-0.0435638,0.0248337,0.0909042,-0.136986
36,6,10.0097,0.00152588,-0.00244141,-2.42837,0.0538499,-0.0756734,0.0538228,0.0697496,-0.0946723,0.144403,-0.127598,-0.0868429,-0.00869751,0.0284958,0.0190353,0.0118256,0.0408554,-0.178337,-0.0426483,0.00930786,-9.97986,0.0416183,0.00324249,-0.0450134,-0.976791,-0.0528336,0.0189209,0.0811768,-0.136871
36,7,10.0097,0.000915527,-0.000152588,-2.42867,0.0544603,-0.0747579,0.0529073,0.07036,-0.0937568,0.145624,-0.126072,-0.0847066,0.00736237,0.0279617,0.0234604,0.00965118,0.0320816,-0.175629,-0.0434494,0.00892639,-9.97986,0.0257111,0.00595093,-0.0387192,-0.958672,-0.05867,0.0164413,0.0790405,-0.129585
36,8,10.0097,0.0012207,0.000915527,-2.42714,0.0541551,-0.0753682,0.0538228,0.0688341,-0.094062,0.144403,-0.125766,-0.0837911,0.0415802,0.033226,0.0214767,0.0137711,0.0210571,-0.173569,-0.0494003,0.0107574,-9.97986,0.00717163,0.00377655,-0.0434875,-0.935593,-0.0655746,0.0153351,0.0684738,-0.127983
36,9,10.0097,0.00152588,0.0012207,-2.42684,0.055681,-0.0741475,0.054128,0.0697496,-0.0934516,0.143792,-0.125156,-0.0844015,0.0507736,0.0285339,0.025177,0.0146484,0.00759125,-0.17395,-0.0520706,0.00709534,-9.97986,-0.0122833,0.0044632,-0.0417328,-0.923424,-0.0677109,0.0151062,0.0615692,-0.124664
37,0,10.0097,-0.000610352,0.000762939,-2.42562,0.0553758,-0.0744527,0.0556539,0.0700548,-0.0925361,0.146234,-0.124851,-0.0828756,0.0287628,0.0257111,0.0265503,0.014534,0.00125885,-0.174446,-0.0535583,0.0115967,-9.97986,-0.0250626,0.00534058,-0.0405502,-0.926666,-0.067482,0.0165176,0.0567245,-0.115814
37,1,10.0097,0.000915527,-0.000305176,-2.42562,0.0559862,-0.0738423,0.0547383,0.0709703,-0.0925361,0.145929,-0.124851,-0.0810445,0.0269699,0.030365,0.0283051,0.0111771,0.00247955,-0.170555,-0.0504684,0.0107574,-9.97986,-0.0356674,0.00419617,-0.0428391,-0.923576,-0.0698471,0.0128937,0.0515366,-0.112152
37,2,10.0097,0.00274658,0.00244141,-2.42562,0.0562914,-0.0735371,0.0544332,0.0712755,-0.0925361,0.146234,-0.123935,-0.080129,0.0310516,0.0273514,0.0236893,0.0125885,-0.00904083,-0.166702,-0.0449753,0.00831604,-9.97986,-0.0335693,0.00453949,-0.042572,-0.892868,-0.0733566,0.0111389,0.0423813,-0.109558
37,3,10.0097,0.000305176,0.00320435,-2.42501,0.0562914,-0.0744527,0.0547383,0.0709703,-0.0910102,0.145624,-0.12302,-0.0807394,0.0315094,0.0290298,0.0190353,0.0143051,-0.0207138,-0.166855,-0.0417328,0.00946045,-9.97986,-0.0281143,0.00263214,-0.03582,-0.854416,-0.0744247,0.00816345,0.0335693,-0.113182
37,4,10.0097,0.00183105,0.00320435,-2.42501,0.0575121,-0.0744527,0.0550435,0.0706652,-0.0928413,0.146539,-0.123325,-0.0795187,0.0159073,0.0307846,0.0253677,0.0141907,-0.0267792,-0.156517,-0.0300217,0.0118637,-9.97986,-0.0153351,-0.00297546,-0.0299835,-0.831566,-0.0751114,0.0107574,0.0302887,-0.114059
37,5,10.0097,0,0.00289917,-2.42592,0.0565965,-0.0726216,0.0553487,0.07036,-0.0919257,0.145624,-0.123935,-0.0804342,0.016098,0.0252914,0.0201416,0.00701904,-0.0373459,-0.151787,-0.0254822,0.0149918,-9.97986,-0.00968933,-0.00038147,-0.019455,-0.795479,-0.0725555,0.00770569,0.0234222,-0.125237
37,6,10.0097,0.0012207,0.00442505,-2.42562,0.0550706,-0.0747579,0.0529073,0.0557115,-0.0943672,0.146234,-0.126377,-0.0807394,0.014534,0.0284195,0.0207138,0.0112915,-0.0378036,-0.12661,-0.0126266,0.0149918,-9.97986,-0.0127029,-0.000801086,-0.0112915,-0.71743,-0.0576019,0.00263214,0.0165176,-0.134583
37,7,10.0097,0.00335693,0.00686646,-2.42623,0.0544603,-0.073232,0.0547383,0.0627306,-0.0919257,0.146234,-0.125766,-0.080129,0.01297,0.0265121,0.0197601,0.0101471,-0.0438309,-0.10334,-0.00301361,0.0135803,-9.97986,-0.00778198,-0.00728607,-0.00572205,-0.645065,-0.0419998,0.00167847,0.0139236,-0.139656
37,8,10.0097,0.000915527,0.00610352,-2.42623,0.0550706,-0.0747579,0.0544332,0.0682238,-0.0928413,0.146234,-0.125156,-0.0804342,0.0236893,0.0246429,0.0229263,0.00946045,-0.0436401,-0.0694656,0.00743866,0.0102234,-9.97986,-0.0170517,-0.00465393,-0.00911713,-0.592575,-0.0235367,-0.00282288,0.00747681,-0.148392
37,9,10.0097,-0.000305176,0.00442505,-2.42623,0.055681,-0.0756734,0.054128,0.0776842,-0.0916206,0.145624,-0.125156,-0.0816549,0.0326157,0.0271988,0.0240326,0.0120163,-0.0450897,-0.0432205,0.0169373,0.00404358,-9.97986,-0.0341034,-0.00377655,-0.0214005,-0.569611,0.00968933,-0.00171661,0.00408173,-0.153275
38,0,10.0097,0.000915527,0.00274658,-2.42867,0.0541551,-0.0756734,0.0529073,0.0792101,-0.0925361,0.145624,-0.125766,-0.0844015,0.038414,0.0276184,0.0269699,0.0147247,-0.057373,-0.0156784,0.0289154,0,-9.97986,-0.0391006,-0.00289917,-0.0391388,-0.560341,0.0484467,-0.000915527,0.00270844,-0.153809
38,1,10.0097,0.0012207,0.00213623,-2.42959,0.0541551,-0.075063,0.0519917,0.072191,-0.095893,0.144708,-0.126682,-0.0850118,0.0362015,0.0276566,0.0268173,0.0125885,-0.0559616,0.0105286,0.0400925,-0.00427246,-9.97986,-0.0395203,-0.00377655,-0.0677872,-0.534019,0.0880814,-0.00587463,-0.000762939,-0.150681
38,2,10.0097,0.00152588,0.00183105,-2.42806,0.0547655,-0.0759786,0.0513814,0.0700548,-0.0937568,0.145624,-0.128513,-0.0865377,0.00804901,0.0285339,0.0255203,0.0162125,-0.068512,0.0361252,0.0500488,-0.0118256,-9.97986,-0.0427246,-0.00587463,-0.0984955,-0.513382,0.132332,-0.01091,-0.011673,-0.14637
38,3,10.0097,0.000610352,-0.000152588,-2.42837,0.0541551,-0.0759786,0.050771,0.0691393,-0.094062,0.145929,-0.127292,-0.0874532,-0.00873566,0.0302124,0.0281525,0.0139236,-0.0806808,0.0733566,0.0607681,-0.01194,-9.97986,-0.051918,-0.00530243,-0.134621,-0.527573,0.15583,-0.00881195,-0.0164032,-0.131302
38,4,10.0097,0.00183105,-0.000305176,-2.42867,0.0535448,-0.075063,0.0504659,0.0694445,-0.0946723,0.143182,-0.126987,-0.0868429,-0.0224686,0.0344467,0.0227737,0.0107193,-0.0857925,0.103912,0.0697327,-0.00938416,-9.97986,-0.04776,-0.00137329,-0.174751,-0.520554,0.141716,-0.0112152,-0.019989,-0.118637
38,5,10.0097,0.00183105,0.000762939,-2.42806,0.0538499,-0.0756734,0.0513814,0.0676134,-0.0946723,0.144708,-0.128513,-0.0871481,-0.0250626,0.0272751,0.0212097,0.0133133,-0.0825119,0.133438,0.0775528,-0.00335693,-9.97986,-0.0387192,0.000228882,-0.223045,-0.509758,0.127792,-0.00831604,-0.0236511,-0.105743
38,6,10.0097,0.000610352,0.000305176,-2.42867,0.0538499,-0.0753682,0.0522969,0.0700548,-0.094062,0.144098,-0.126377,-0.0865377,-0.0236893,0.0291824,0.0231171,0.0124741,-0.079155,0.149727,0.076828,0.000991821,-9.97986,-0.0448227,-0.00892639,-0.255547,-0.50045,0.111504,-0.010376,-0.0248718,-0.0899506
38,7,10.0097,-0.000915527,0.000152588,-2.42745,0.0553758,-0.0771993,0.0522969,0.0697496,-0.0946723,0.143487,-0.127598,-0.0850118,-0.0075531,0.0317383,0.0236511,0.0172043,-0.0747681,0.161896,0.0806427,-0.000572205,-9.97986,-0.0505447,-0.00362396,-0.26844,-0.507469,0.0885391,-0.0140381,-0.0275421,-0.0866318
38,8,10.0097,0.00213623,0,-2.42745,0.0550706,-0.0747579,0.0538228,0.0697496,-0.0919257,0.145318,-0.126072,-0.0850118,0.00305176,0.0276566,0.021286,0.0134659,-0.0762558,0.167732,0.0802231,0.00263214,-9.97986,-0.0478363,-0.0025177,-0.266495,-0.503464,0.0740051,-0.0183105,-0.0322723,-0.0835419
38,9,10.0097,0.00183105,0.00244141,-2.42745,0.0535448,-0.0747579,0.054128,0.0715807,-0.0928413,0.144098,-0.124851,-0.0828756,0.0220108,0.0285721,0.0146866,0.0123978,-0.0688171,0.168419,0.0763321,0.0012207,-9.97986,-0.0411987,0.000114441,-0.259628,-0.464745,0.0623703,-0.0172806,-0.0326157,-0.0849152
39,0,10.0097,-0.000915527,0.00473022,-2.42592,0.0553758,-0.0741475,0.0550435,0.0712755,-0.0903999,0.146234,-0.125461,-0.080129,0.03479,0.029068,0.0123978,0.00968933,-0.0632477,0.171432,0.0812531,0.00457764,-9.97986,-0.0104523,-0.00198364,-0.245934,-0.412216,0.0564194,-0.0208282,-0.0298691,-0.084343
39,1,10.0097,-0.000610352,0.00579834,-2.42501,0.055681,-0.0744527,0.0544332,0.0718859,-0.0931465,0.141656,-0.124546,-0.0798238,0.0376892,0.0254059,0.0094986,0.0145721,-0.0529861,0.170479,0.0786209,0.00312805,-9.97986,0.0328064,-0.00415802,-0.229263,-0.335808,0.042305,-0.0215149,-0.032959,-0.0883102
39,2,10.0097,0.00396729,0.00793457,-2.42409,0.0565965,-0.0744527,0.0565694,0.072191,-0.0925361,0.147455,-0.124546,-0.0789083,0.0317764,0.0229263,0.00637054,0.00827789,-0.0389862,0.162773,0.0812149,0.00289917,-9.97986,0.0323868,0.00331879,-0.209236,-0.238113,0.0336456,-0.0191879,-0.0309753,-0.0928879
39,3,10.0097,-0.000305176,0.00915527,-2.42562,0.0562914,-0.0747579,0.0556539,0.0712755,-0.0922309,0.147149,-0.123935,-0.078298,0.0169373,0.0218964,0.00911713,0.0146103,-0.0240326,0.161819,0.0822449,0.00114441,-9.97986,0.0418854,0.0012207,-0.187035,-0.135422,0.0191116,-0.0276947,-0.0326538,-0.0931931
39,4,10.0097,0.0012207,0.00946045,-2.42562,0.0553758,-0.0738423,0.055959,0.072191,-0.0922309,0.146234,-0.123935,-0.078298,0.00846863,0.0242615,0.0126266,0.0112915,-0.0131226,0.147514,0.0786209,-0.00507355,-9.97986,0.0502014,0.00312805,-0.144501,-0.0313187,0.0128937,-0.0225449,-0.0294876,-0.0848389
39,5,10.0097,0,0.0088501,-2.42348,0.0559862,-0.0747579,0.0568746,0.0709703,-0.0913154,0.147149,-0.12363,-0.0786031,0.0149155,0.028038,0.0136948,0.0119781,0.00553131,0.137978,0.0811005,-0.00164032,-9.97986,0.046463,0.000610352,-0.101395,0.0447845,0.00339508,-0.0262451,-0.0293732,-0.0790024
39,6,10.0097,0,0.00701904,-2.42714,0.0559862,-0.0738423,0.0556539,0.0578478,-0.0943672,0.145318,-0.126072,-0.0810445,0.0350952,0.0294113,0.0124359,0.0110626,0.0172806,0.128098,0.080452,0.00171661,-9.97986,0.0387573,0.000343323,-0.0561905,0.111847,-0.00541687,-0.0244904,-0.0301743,-0.0709915
39,7,10.0097,-0.000610352,0.00488281,-2.42714,0.0541551,-0.0747579,0.055959,0.0624254,-0.0934516,0.147149,-0.124851,-0.0813497,0.0403595,0.0294495,0.0122833,0.00911713,0.0292969,0.118446,0.0794983,0.00289917,-9.97986,0.0337982,-0.00270844,-0.0171661,0.152931,-0.00759125,-0.0260925,-0.0272751,-0.0634766
39,8,10.0097,0.000305176,0.00457764,-2.42592,0.0550706,-0.0744527,0.0553487,0.0676134,-0.0903999,0.145318,-0.126987,-0.0819601,0.0199509,0.0262451,0.00553131,0.00965118,0.0418091,0.103722,0.0743103,0.00312805,-9.97986,0.0440979,0.000686646,0.0312424,0.19043,-0.0158691,-0.0240707,-0.0265503,-0.0504684
39,9,10.0097,0.000610352,0.00396729,-2.42653,0.0553758,-0.075063,0.0550435,0.0789049,-0.0919257,0.145318,-0.126377,-0.0831808,0.0235748,0.02491,0.00926971,0.0088501,0.0510025,0.101433,0.0739288,0.00659943,-9.97986,0.0527191,0.00137329,0.068512,0.22377,-0.0203323,-0.0226974,-0.024147,-0.0462723
40,0,10.0097,0.000305176,0.0038147,-2.42959,0.0538499,-0.0756734,0.054128,0.0779894,-0.0934516,0.143792,-0.125461,-0.0850118,0.0230026,0.0260544,0.00675201,0.0063324,0.0564957,0.0957489,0.0747299,0.00930786,-9.97986,0.0489807,0.000343323,0.112648,0.240669,-0.0241089,-0.0191498,-0.0256729,-0.0390625
40,1,10.0097,0.000610352,0.00167847,-2.42959,0.0538499,-0.0759786,0.0522969,0.0715807,-0.0949775,0.143792,-0.126987,-0.0859274,0.0196075,0.0279617,0.0114822,0.0043869,0.0580597,0.0926971,0.0718689,0.00843048,-9.97986,0.0410843,-0.00144958,0.148697,0.248451,-0.030365,-0.0209808,-0.0261688,-0.0296783
40,2,10.0097,0.00213623,0.000610352,-2.42806,0.0547655,-0.0759786,0.0532125,0.0697496,-0.0943672,0.144403,-0.126987,-0.0865377,0.00682831,0.0266266,0.00789642,0.00816345,0.0562286,0.088768,0.0687027,0.00915527,-9.97986,0.0370026,0.000915527,0.191383,0.247421,-0.0310898,-0.0247574,-0.0282288,-0.0243378
40,3,10.0097,0.000610352,-0.000610352,-2.42928,0.0538499,-0.0753682,0.054128,0.0697496,-0.0952827,0.144403,-0.127598,-0.0862325,-0.0194931,0.0312042,0.0174332,0.0115585,0.0532913,0.0870514,0.0703049,0.00984192,-9.97986,0.0305939,-0.00167847,0.218697,0.229568,-0.0271988,-0.0251007,-0.0291824,-0.0214386
40,4,10.0097,0.00274658,-0.00137329,-2.42928,0.0562914,-0.0753682,0.0550435,0.0691393,-0.0952827,0.143182,-0.126987,-0.0886739,-0.0408173,0.0318527,0.0156403,0.0105286,0.0569534,0.0761032,0.0660324,0.00656128,-9.97986,0.0140381,-0.00465393,0.251579,0.218353,-0.0266266,-0.02285,-0.031395,-0.0167847
40,5,10.0097,-0.000305176,-0.0012207,-2.42959,0.0541551,-0.0738423,0.0535176,0.0706652,-0.0949775,0.143792,-0.127903,-0.0877584,-0.0649261,0.0297165,0.0201035,0.00946045,0.046463,0.0760651,0.0662613,-0.000228882,-9.97986,0.00782013,-0.00465393,0.285873,0.211525,-0.0308609,-0.0256729,-0.0339508,-0.0161743
40,6,10.0097,0.000610352,-0.000915527,-2.42837,0.0538499,-0.0753682,0.0535176,0.0679186,-0.094062,0.143487,-0.126377,-0.0862325,-0.0573349,0.0300598,0.0238037,0.0143814,0.0479507,0.0730896,0.0618744,-0.00782013,-9.97986,-0.00663757,-0.00198364,0.3088,0.194359,-0.0363922,-0.0263596,-0.0363541,-0.00705719
