
Devices
1200
,,BP Load cell - Voltage,String Length - Voltage,Clutch Active - Voltage,#7 iPecs - Voltage,,,,,,,,,EMG 1-8 Left - Voltage,,,,,,,,Pylon Force - Voltage,EMG 9-16 Right - Voltage,,,,,,,,
Frame,Sub Frame,BP Load Cell,String Length,From Arduino Logic,A45,A135,A225,A315,S0,S90,S180,S270,ZSum,EMG 1 Glut Max,EMG 2 Glut Med,EMG 3 Biceps Femoris Long,EMG 4 Rectus Femoris,EMG 5 Vastus Medialis,EMG 6 Tib Ant,EMG 7 Med Gas,EMG 8 Soleus,Pylon volts,EMG 9 Glut Max,EMG 10 Glut Med,EMG 11 Biceps Femoris Long,EMG 12 Rectus Femoris,EMG 13 Vastus Medialis,EMG 14 Tib Ant,EMG 15 Med Gas,EMG 16 Soleus
,,V,V,V,V,V,V,V,V,V,V,V,V,V,V,V,V,V,V,V,V,V,V,V,V,V,V,V,V,V
1,0,10.0097,0.000610352,-0.000457764,-2.42745,0.0526292,-0.075063,0.0532125,0.0700548,-0.0931465,0.144098,-0.126072,-0.0850118,0.0123596,0.0247192,0.0217438,0.00968933,0.018959,-0.00507355,0.0232315,0.0196457,-9.97986,0.0153351,-0.000457764,0.0136566,0.00995636,0.0168228,0.0160217,0.00537872,0.000801086
1,1,10.0097,0,0.000305176,-2.42745,0.055681,-0.0747579,0.0535176,0.07036,-0.0928413,0.145929,-0.126072,-0.0834859,0.00965118,0.0245285,0.0202179,0.00808716,0.0173187,-0.00392914,0.0218201,0.017128,-9.97986,0.0134277,-0.0044632,0.0146866,0.0110626,0.0109863,0.0100327,0.00453949,0.00118256
1,2,10.0097,0.000305176,0.000152588,-2.4247,0.0553758,-0.0747579,0.0565694,0.0706652,-0.0916206,0.145624,-0.123935,-0.0822652,0.0131989,0.0242615,0.0201797,0.00934601,0.0200653,-0.0056076,0.020256,0.0152969,-9.97986,0.0184631,-0.000495911,0.0149918,0.0113297,0.0167847,-0.000534058,0.0104523,0.00495911
1,3,10.0097,0,-0.000152588,-2.42592,0.055681,-0.0735371,0.0547383,0.0709703,-0.0916206,0.145318,-0.124546,-0.0807394,0.0102997,0.025177,0.0223923,0.0104523,0.0166321,-0.00213623,0.0169754,0.0162125,-9.97986,0.0122452,-0.00473022,0.0123215,0.0114822,0.0153351,0.00732422,0.0135803,0.000572205
1,4,10.0097,-0.000610352,0,-2.4244,0.0565965,-0.0744527,0.0544332,0.07036,-0.0919257,0.146234,-0.124241,-0.0810445,0.00896454,0.0250626,0.0177765,0.00686646,0.0204468,-0.000610352,0.0220108,0.0188828,-9.97986,0.0141907,-0.00324249,0.0149536,0.0125885,0.0173187,0.0063324,0.0120163,0.00148773
1,5,10.0097,0.000305176,0.000457764,-2.42501,0.0553758,-0.0747579,0.055959,0.0712755,-0.0919257,0.145318,-0.124546,-0.0807394,0.0075531,0.0284576,0.0175476,0.00686646,0.0181198,0.00125885,0.0242996,0.0192261,-9.97986,0.011673,0.000114441,0.0164413,0.0117874,0.0165558,0.00431061,0.00682831,0.00492096
1,6,10.0097,0.000610352,-0.000762939,-2.42592,0.0565965,-0.073232,0.0547383,0.072191,-0.0919257,0.145929,-0.124241,-0.0804342,0.00827789,0.0242615,0.0189972,0.00434875,0.0139236,-0.000305176,0.0274277,0.015831,-9.97986,0.0133514,-0.000457764,0.0166321,0.0126266,0.0208664,0.00595093,0.00915527,0.0031662
1,7,10.0097,0.000305176,-0.00167847,-2.42623,0.0559862,-0.0735371,0.0532125,0.0438097,-0.0955879,0.145624,-0.126072,-0.0819601,0.00629425,0.0222778,0.0214005,0.0044632,0.0158691,-0.000114441,0.0273132,0.0180435,-9.97986,0.017395,-0.00156403,0.0164413,0.0111389,0.0193787,0.00526428,0.00484467,-0.000534058
1,8,8.47432,0,-0.00137329,-2.4247,0.0553758,-0.0738423,0.0538228,0.0435045,-0.0931465,0.147149,-0.125766,-0.0822652,0.0102997,0.0242615,0.0243759,0.00907898,0.0177765,0.00038147,0.0226974,0.014534,-9.97986,0.0136566,0.000991821,0.0167084,0.0123215,0.0192261,0.00263214,0.00644684,0.00396729
1,9,7.26399,0.000610352,-0.000610352,-2.42653,0.0547655,-0.0744527,0.0535176,0.0566271,-0.0928413,0.146844,-0.126072,-0.0822652,0.00591278,0.0217056,0.020752,0.00408173,0.0154877,-0.00198364,0.0193024,0.0143814,-9.97986,0.0137711,-0.00389099,0.0149918,0.0131607,0.0165176,0.00232697,0.00843048,0.001297
2,0,7.12422,-0.000610352,0.000305176,-2.42531,0.0553758,-0.0756734,0.054128,0.0645616,-0.0922309,0.145318,-0.126072,-0.0828756,0.00972748,0.0215912,0.0217056,0.00457764,0.0183868,0.00362396,0.0159836,0.0179672,-9.97986,0.0152588,0.000724792,0.0149536,0.0115585,0.0195313,0.00202179,0.0056076,0.00221252
2,1,7.43001,0.000610352,0.000305176,-2.42592,0.0547655,-0.075063,0.0553487,0.0728014,-0.0922309,0.144403,-0.125156,-0.0831808,0.00919342,0.0192642,0.0222015,0.00171661,0.0163651,0.000686646,0.0177002,0.0194931,-9.97986,0.0122833,-0.00522614,0.0147247,0.0122833,0.016098,0.00766754,0.00705719,0.00289917
2,2,9.30837,0.000610352,0.0012207,-2.42531,0.0544603,-0.0747579,0.0535176,0.0975206,-0.0894843,0.143792,-0.124546,-0.0831808,0.00534058,0.0201416,0.0200653,0.00312805,0.0143814,0.00175476,0.0178146,0.0149155,-9.97986,0.0135422,-0.0056076,0.0117493,0.00915527,0.0206757,0.00915527,0.00576019,0.000267029
2,3,10.0097,-0.00183105,0.00183105,-2.42867,0.0529344,-0.0756734,0.0519917,0.0932482,-0.0937568,0.143487,-0.125461,-0.0865377,0.0108719,0.0231171,0.0234222,0.00495911,0.0157547,0.00133514,0.0146866,0.0144577,-9.97986,0.0166321,0.00244141,0.0148773,0.00923157,0.0208664,0.00854492,0.00797272,0.00133514
2,4,10.0097,-0.000610352,0.000305176,-2.42989,0.0523241,-0.0756734,0.0526021,0.0776842,-0.0961982,0.142572,-0.126682,-0.0868429,0.00465393,0.0203323,0.0159073,0.00431061,0.0161362,0.000114441,0.0163651,0.016098,-9.97986,0.0138092,-0.000534058,0.0193405,0.00530243,0.0209045,0.00858307,0.00888824,-0.001297
2,5,10.0097,0.0012207,-0.000610352,-2.42837,0.0529344,-0.0762837,0.0522969,0.0706652,-0.0949775,0.143487,-0.126987,-0.0862325,0.00545502,0.0252151,0.0211334,0.00217438,0.0184631,0.0030899,0.0117874,0.0151825,-9.97986,0.0139236,-0.000953674,0.0148773,0.00591278,0.0195694,0.00911713,0.0114059,0.00255585
2,6,10.0097,-0.0012207,-0.000762939,-2.42867,0.0532396,-0.0762837,0.050771,0.07036,-0.0955879,0.144098,-0.126987,-0.0868429,0.0088501,0.0204849,0.0178528,0.00312805,0.0174713,0.00259399,0.0173569,0.0132751,-9.97986,0.0143433,0.00282288,0.0131607,0.00484467,0.0220871,0.00965118,0.00873566,0.00389099
2,7,10.0097,0.000915527,-0.000305176,-2.42837,0.0541551,-0.0759786,0.0532125,0.0697496,-0.0949775,0.143182,-0.127903,-0.0865377,0.00606537,0.0203323,0.0160217,0.00141144,0.0160217,0.0019455,0.0201416,0.0154877,-9.97986,0.015831,0.00209808,0.0149155,0.000724792,0.0205994,0.00370026,0.00656128,0.00202179
2,8,10.0097,-0.000305176,-0.00106812,-2.42959,0.0538499,-0.0756734,0.0535176,0.0691393,-0.0946723,0.143792,-0.126377,-0.0868429,0.00511169,0.018158,0.0196075,0.00179291,0.0167084,0.0063324,0.0186157,0.012207,-9.97986,0.0147247,0.00362396,0.0163651,0.00228882,0.0187683,0.00530243,0.00728607,0.00274658
2,9,10.0097,-0.00183105,-0.000152588,-2.42928,0.0547655,-0.0759786,0.0526021,0.0682238,-0.0931465,0.143792,-0.126682,-0.085317,0.0088501,0.0190353,0.0224686,0.00301361,0.0160217,0.00785828,0.0178146,0.0170517,-9.97986,0.018959,0.0031662,0.0202942,0.0037384,0.0227737,0.0088501,0.00934601,0.00389099
3,0,10.0097,-0.000305176,0.000152588,-2.42623,0.0547655,-0.075063,0.0526021,0.0691393,-0.0937568,0.144403,-0.126987,-0.0847066,0.0113297,0.0201416,0.0208282,0.00621796,0.0164413,0.00816345,0.018959,0.016098,-9.97986,0.0169754,-0.00102997,0.015564,-0.00228882,0.018158,0.00759125,0.00328064,0.00499725
3,1,10.0097,0.000610352,0.000152588,-2.42592,0.0547655,-0.0747579,0.0544332,0.0700548,-0.094062,0.145624,-0.126072,-0.0837911,0.0141907,0.0161743,0.0201035,0.0056839,0.0128937,0.00888824,0.0225449,0.0138474,-9.97986,0.0146103,0.001297,0.0169754,-0.000495911,0.0160217,-0.00278473,0.00183105,0.00659943
3,2,10.0097,0.000915527,0.000762939,-2.42623,0.0559862,-0.075063,0.0547383,0.0718859,-0.0928413,0.145929,-0.125156,-0.0825704,0.0124359,0.0230026,0.0217819,0.00148773,0.0221252,0.00465393,0.02388,0.0138474,-9.97986,0.0168228,0.000686646,0.0170898,-0.00766754,0.0209808,-0.00110626,0.000991821,0.00274658
3,3,10.0097,0,0.000305176,-2.42562,0.055681,-0.0729268,0.0550435,0.0706652,-0.0910102,0.146844,-0.125156,-0.0813497,0.00988007,0.017128,0.0215149,0.00423431,0.0171661,0.0117874,0.0281525,0.0167465,-9.97986,0.0206375,0.000267029,0.0173187,0.000495911,0.0180435,-0.00457764,0.000610352,0.000534058
3,4,10.0097,0.00152588,-0.000152588,-2.42379,0.0572069,-0.0744527,0.0544332,0.0715807,-0.0922309,0.14776,-0.125156,-0.0807394,0.0104523,0.0181961,0.0175476,0.00167847,0.0156021,0.00762939,0.0313568,0.0169373,-9.97986,0.0165558,-0.000419617,0.0131989,0.00183105,0.0182343,-0.00782013,0.000839233,-0.000114441
3,5,10.0097,0.000305176,-0.000305176,-2.42592,0.0572069,-0.073232,0.0547383,0.0712755,-0.0900947,0.147149,-0.124241,-0.0813497,0.0094986,0.0185394,0.0186539,0.00232697,0.0158691,0.00850677,0.0282288,0.0139999,-9.97986,0.0175858,0.000152588,0.0172806,-0.00175476,0.0190353,-0.00324249,0.00221252,0.00133514
3,6,10.0097,-0.000610352,0.000457764,-2.42501,0.0569017,-0.0741475,0.0544332,0.0718859,-0.0922309,0.14837,-0.12302,-0.0810445,0.0133896,0.0198746,0.0217819,0.00606537,0.0209808,0.014801,0.0245285,0.0165939,-9.97986,0.0117874,-0.000457764,0.0139236,-0.00270844,0.0201797,-0.00312805,0.0100708,-0.000305176
3,7,10.0097,0.0012207,-0.00137329,-2.42714,0.0562914,-0.0741475,0.0538228,0.0435045,-0.0949775,0.145624,-0.126072,-0.0828756,0.00728607,0.0218201,0.0220108,0.00667572,0.016098,0.0138855,0.0134277,0.0149536,-9.97986,0.0110245,-0.000495911,0.0170898,-0.00442505,0.0201416,-0.00125885,0.0152206,0.00255585
3,8,8.40291,0.0012207,-0.00167847,-2.4244,0.0565965,-0.0723164,0.0547383,0.0438097,-0.0922309,0.146234,-0.126377,-0.0819601,0.00774384,0.0230789,0.0204086,0.00629425,0.0200653,0.0156403,0.0152588,0.0143051,-9.97986,0.0168991,0.00137329,0.0174713,-0.0063324,0.0239182,0.0025177,0.0182724,0.00431061
3,9,7.24202,0.000610352,-0.00152588,-2.42623,0.0578172,-0.0741475,0.054128,0.0578478,-0.0928413,0.145013,-0.126377,-0.0822652,0.0056839,0.0197983,0.0196075,0.00911713,0.0163651,0.0179672,0.00991821,0.0115204,-9.97986,0.0129318,0.00087738,0.0157166,-0.0112152,0.0196075,0.0044632,0.0198364,0.000343323
4,0,7.04885,0.00183105,0,-2.42592,0.0547655,-0.0756734,0.054128,0.0636461,-0.0925361,0.146539,-0.126072,-0.0834859,0.00957489,0.023613,0.02285,0.00873566,0.0191116,0.0215912,0.011673,0.0152206,-9.97986,0.0154877,-0.000991821,0.018692,-0.00736237,0.0171661,0.00480652,0.0153732,0.00259399
4,1,7.31008,0.000915527,0.000610352,-2.42379,0.0553758,-0.0735371,0.0556539,0.0740221,-0.0913154,0.145013,-0.125156,-0.0831808,0.00854492,0.0196838,0.0180435,0.00240326,0.0133514,0.0205231,0.0117111,0.0153732,-9.97986,0.0144958,-0.00347137,0.0144196,-0.0111008,0.0167084,0.0031662,0.00976563,0.000991821
4,2,9.15151,0.000915527,0.00106812,-2.42776,0.0547655,-0.0744527,0.0547383,0.0932482,-0.0922309,0.145624,-0.12302,-0.0834859,0.0123978,0.0226212,0.0178528,-0.000305176,0.0156021,0.0150299,0.00743866,0.0149536,-9.97986,0.0123978,0.00167847,0.0127411,-0.00797272,0.0157166,0.00507355,0.0104904,0.00221252
4,3,10.0097,-0.000610352,0.00228882,-2.42989,0.0544603,-0.0768941,0.0519917,0.0941637,-0.0931465,0.143792,-0.125461,-0.0840963,0.0107193,0.0226593,0.0212479,-0.00476837,0.0162888,0.0179672,0.00606537,0.0139999,-9.97986,0.0110245,0.000267029,0.0191116,-0.00652313,0.0185776,0.0123215,0.011673,0.00640869
4,4,10.0097,0.000305176,0,-2.42684,0.0532396,-0.0768941,0.0513814,0.0776842,-0.0946723,0.143182,-0.126377,-0.0868429,0.0120163,0.0183868,0.0163651,-0.0133133,0.00938416,0.0160217,0.0025177,0.0126266,-9.97986,0.0165558,0.00148773,0.0127411,-0.0088501,0.0162125,0.0172043,0.0116348,0.00221252
4,5,10.0097,0.000610352,0.000610352,-2.42867,0.0538499,-0.0759786,0.0516866,0.0746324,-0.0949775,0.144708,-0.126682,-0.0862325,0.0131607,0.0224304,0.0155258,-0.0213623,0.0173187,0.0222778,0.00862122,0.021286,-9.97986,0.0211716,0.00179291,0.0115967,-0.00537872,0.0190353,0.0182343,0.0127411,0.00492096
4,6,10.0097,0.000610352,-0.00106812,-2.42928,0.0529344,-0.0759786,0.0529073,0.0691393,-0.0949775,0.142877,-0.127292,-0.0880636,0.00835419,0.0208282,0.0137711,-0.0378036,0.016098,0.0216675,0.0148392,0.0133133,-9.97986,0.0133896,-0.00213623,0.0182343,-0.00328064,0.0210571,0.0161743,0.0139999,0.00541687
4,7,10.0097,-0.000610352,0,-2.43203,0.0535448,-0.0771993,0.0516866,0.0700548,-0.0952827,0.144403,-0.127598,-0.0874532,0.00980377,0.0206757,0.0161362,-0.0512314,0.0146103,0.0231171,0.019722,0.0162125,-9.97986,0.0167847,-0.00133514,0.0194931,-0.00209808,0.020256,0.0241852,0.0145721,0.00415802
4,8,10.0097,0.000610352,0.000152588,-2.42837,0.0544603,-0.0765889,0.0532125,0.0691393,-0.0937568,0.145624,-0.126072,-0.0862325,0.00415802,0.0241089,0.0177383,-0.0321579,0.0110245,0.0224304,0.0345993,0.0176239,-9.97986,0.0128555,0.000839233,0.0164413,0.00102997,0.0190735,0.0246811,0.0120163,0.00713348
4,9,10.0097,0.0012207,0.000152588,-2.42745,0.0553758,-0.0762837,0.0526021,0.0709703,-0.0937568,0.144403,-0.126072,-0.0877584,0.00617981,0.022583,0.0215149,0.00621796,0.0112152,0.0172043,0.037384,0.0207901,-9.97986,0.0129318,0.00263214,0.0227737,0.00473022,0.0193024,0.023613,0.0149536,0.00743866
5,0,10.0097,0,0.000915527,-2.42348,0.055681,-0.075063,0.0529073,0.0694445,-0.0931465,0.144098,-0.127292,-0.0847066,0.00843048,0.0230026,0.0154495,0.0181198,0.00900269,0.0224686,0.0368118,0.0194168,-9.97986,0.0143433,0.00823975,0.0185776,0.00484467,0.0213623,0.017662,0.0137711,0.0123978
5,1,10.0097,-0.000305176,0,-2.42684,0.0550706,-0.0744527,0.0522969,0.0694445,-0.0934516,0.145929,-0.126072,-0.0847066,0.00614166,0.0233459,0.0169754,-0.00419617,0.00915527,0.0168991,0.0321198,0.0171661,-9.97986,0.00900269,0.0044632,0.0232697,0.00110626,0.0225067,0.0111771,0.00888824,0.0118637
5,2,10.0097,0.000915527,-0.000152588,-2.42409,0.0569017,-0.0738423,0.0544332,0.0709703,-0.0931465,0.146234,-0.124851,-0.0825704,0.000419617,0.0259399,0.0226212,-0.0229645,0.0105667,0.0216675,0.0294495,0.0166702,-9.97986,0.0106812,0.000724792,0.0197601,-0.000686646,0.0226974,0.00652313,0.0143814,0.0144958
5,3,10.0097,0,0.000610352,-2.42714,0.0550706,-0.0744527,0.0538228,0.0682238,-0.0916206,0.145624,-0.123935,-0.0810445,0.00217438,0.0268555,0.0243378,-0.0313187,0.00709534,0.0165939,0.0226593,0.0165176,-9.97986,0.0100708,0.000648499,0.0213242,-0.000953674,0.0263596,0.001297,0.0126266,0.0152969
5,4,10.0097,0.000610352,-0.000305176,-2.42562,0.0569017,-0.0738423,0.0550435,0.07036,-0.0913154,0.146234,-0.12363,-0.0810445,-0.00141144,0.0199509,0.0203323,-0.021553,0.00785828,0.0201416,0.0239944,0.0165176,-9.97986,0.00953674,0.00148773,0.0223923,-0.00259399,0.027771,0.00556946,0.00850677,0.0130463
5,5,10.0097,0.00183105,-0.000305176,-2.42531,0.0559862,-0.0738423,0.0547383,0.0715807,-0.0922309,0.145929,-0.123935,-0.0837911,0.00667572,0.02285,0.0263214,0.0273132,0.0141907,0.0212097,0.019989,0.0121307,-9.97986,0.00911713,-0.000686646,0.0196075,-0.00427246,0.0279999,0.00392914,0.0113297,0.0178909
5,6,10.0097,0.000305176,0.000152588,-2.42776,0.0565965,-0.0738423,0.055959,0.0712755,-0.0916206,0.147149,-0.123325,-0.0816549,0.0144196,0.0252533,0.0266266,0.0729752,0.0144958,0.0222778,0.0223541,0.0136566,-9.97986,0.00766754,0.00621796,0.0188065,-0.00205994,0.0255966,-0.00205994,0.0117874,0.0170517
5,7,10.0097,0.000610352,-0.00137329,-2.42562,0.0562914,-0.0741475,0.0532125,0.0450304,-0.094062,0.147455,-0.125766,-0.0816549,0.0188065,0.0265503,0.0313187,0.0789642,0.0186539,0.0230026,0.0226212,0.0152588,-9.97986,0.0102234,-0.001297,0.0188446,-0.00476837,0.0281906,-0.00827789,0.0132751,0.0156784
5,8,8.4023,0.000305176,-0.00106812,-2.42562,0.0572069,-0.075063,0.054128,0.0435045,-0.094062,0.147149,-0.126377,-0.0850118,0.0319672,0.0230408,0.0357437,0.0696945,0.0156403,0.0234985,0.0265121,0.0183105,-9.97986,0.00785828,0.0012207,0.018692,0.000190735,0.0272751,-0.00335693,0.00999451,0.0179672
5,9,7.18831,0,-0.000762939,-2.4247,0.0559862,-0.0738423,0.054128,0.0554064,-0.0913154,0.145013,-0.125766,-0.0819601,0.0416183,0.0235367,0.0286865,0.0649643,0.0185013,0.0246048,0.0215912,0.0175858,-9.97986,0.00896454,0.00297546,0.0159073,-0.00175476,0.0247192,0.00133514,0.0107193,0.0159454
6,0,6.96034,-0.000305176,-0.000305176,-2.42714,0.0559862,-0.0744527,0.0544332,0.0627306,-0.0922309,0.145624,-0.126682,-0.0825704,0.033226,0.0256348,0.029068,0.0547028,0.0161362,0.0268936,0.0210571,0.0191116,-9.97986,0.00541687,0.00137329,0.0171661,-0.0030899,0.0268936,-0.00293732,0.0104904,0.0151062
6,1,7.24721,0.0012207,0,-2.42684,0.055681,-0.0744527,0.0544332,0.0715807,-0.090705,0.145318,-0.126682,-0.0844015,0.016098,0.0247955,0.0212097,0.0440216,0.0226212,0.0246811,0.0261307,0.018158,-9.97986,0.00938416,0.000801086,0.0183105,0.00457764,0.0263596,-0.00125885,0.00793457,0.0172043
6,2,9.08315,-0.000610352,0.000915527,-2.42745,0.0553758,-0.0747579,0.0547383,0.0975206,-0.0897895,0.144098,-0.124241,-0.0840963,0.00873566,0.0237274,0.0211716,0.03685,0.0225067,0.0244141,0.0256348,0.01297,-9.97986,0.0088501,-0.00198364,0.0175095,-0.00423431,0.0261307,0.000228882,0.00610352,0.0154877
6,3,10.0097,0.000610352,0.00183105,-2.42989,0.0544603,-0.0756734,0.0516866,0.0953844,-0.0937568,0.144708,-0.125766,-0.0859274,0.00656128,0.0235748,0.00831604,0.0375748,0.019989,0.0264359,0.0255203,0.0131989,-9.97986,-0.00320435,-0.000190735,0.0181961,0.0037384,0.0249481,-0.00484467,0.00858307,0.0126266
6,4,10.0097,-0.000305176,0.000457764,-2.42959,0.0535448,-0.0759786,0.0522969,0.0767687,-0.0952827,0.142877,-0.126072,-0.0862325,0.0125504,0.0219345,0.0062561,0.033493,0.0160599,0.0247574,0.0226974,0.0108337,-9.97986,-0.00591278,-0.000152588,0.0156784,-0.000648499,0.0226212,-0.00610352,0.00930786,0.0172424
6,5,10.0097,0.000915527,-0.000305176,-2.42959,0.0538499,-0.0759786,0.0538228,0.0728014,-0.0952827,0.143792,-0.127292,-0.0859274,0.00934601,0.0257111,-0.00419617,0.0333786,0.0206757,0.0234604,0.0246048,0.0156403,-9.97986,-0.00324249,0.0012207,0.0173569,-0.0030899,0.0242996,-0.0101852,0.00526428,0.0188446
6,6,10.0097,0.000305176,-0.000305176,-2.42959,0.0547655,-0.0756734,0.0526021,0.0712755,-0.0946723,0.144098,-0.127292,-0.0871481,0.00984192,0.0185776,-0.00267029,0.0325775,0.0204468,0.0266647,0.0252914,0.00953674,-9.97986,0.0143433,0.00183105,0.0147629,0.00370026,0.0242233,-0.0123978,0.00747681,0.0157547
6,7,10.0097,0.000610352,-0.000915527,-2.42837,0.0532396,-0.075063,0.0522969,0.0706652,-0.0943672,0.143487,-0.127598,-0.0862325,0.00934601,0.01297,-0.00640869,0.0249863,0.0177765,0.0249481,0.0229645,0.017395,-9.97986,0.0346756,-0.00228882,0.0175858,0.00144958,0.0243759,-0.00984192,0.00831604,0.0125504
6,8,10.0097,0.0012207,-0.000762939,-2.42714,0.0550706,-0.0741475,0.0513814,0.0682238,-0.0946723,0.144708,-0.127292,-0.0856222,0.0115967,0.0111389,-0.00110626,0.0277328,0.0177002,0.0198746,0.0229263,0.0178146,-9.97986,0.0456619,-0.0031662,0.0146866,0.00217438,0.0200653,0.000953674,0.00926971,0.0144196
6,9,10.0097,-0.000610352,0,-2.42776,0.055681,-0.075063,0.0532125,0.0691393,-0.094062,0.144098,-0.126377,-0.0859274,0.0136948,0.016098,-0.00137329,0.0218201,0.022316,0.0251389,0.0231552,0.0130081,-9.97986,0.0532913,-0.00156403,0.0161362,-0.00385284,0.0174713,0.00911713,0.00667572,0.0139236
7,0,10.0097,-0.000305176,0,-2.42684,0.0550706,-0.0747579,0.0522969,0.0706652,-0.0937568,0.144403,-0.125766,-0.0847066,0.0149918,0.0148392,-0.00263214,0.021553,0.019989,0.0246429,0.0270081,0.0180054,-9.97986,0.0498962,-0.00167847,0.0152588,0.00221252,0.0185394,0.0141907,0.0082016,0.0165176
7,1,10.0097,-0.000610352,0.000305176,-2.42867,0.0535448,-0.0741475,0.054128,0.0694445,-0.0928413,0.143792,-0.125461,-0.0844015,0.0113297,0.0178909,0.000343323,0.0200272,0.0173187,0.0209808,0.0217056,0.0171661,-9.97986,0.0376511,-0.00541687,0.0162888,-0.00106812,0.0167465,0.0168228,0.0062561,0.0122833
7,2,10.0097,0.00213623,0.000305176,-2.42653,0.0550706,-0.075063,0.054128,0.07036,-0.0931465,0.146234,-0.124851,-0.0825704,0.0121689,0.0209427,0.00297546,0.0186157,0.0158691,0.0257874,0.0253677,0.0154114,-9.97986,0.034523,-0.00865936,0.0170517,0.00358582,0.0125885,0.0212479,0.00881195,0.013237
7,3,10.0097,0.00244141,0.000152588,-2.42501,0.0575121,-0.0738423,0.0550435,0.0709703,-0.090705,0.146234,-0.124241,-0.0813497,0.0140381,0.0222778,-3.8147e-005,0.0178146,0.0185776,0.0228119,0.0241089,0.0174713,-9.97986,0.024147,-0.00766754,0.0134659,0.0043869,0.0175095,0.0219345,0.00804901,0.0127411
7,4,10.0097,0.00152588,-0.000152588,-2.42562,0.0578172,-0.0729268,0.054128,0.0709703,-0.0916206,0.146539,-0.124851,-0.0816549,0.0109482,0.0221634,0.00415802,0.00915527,0.020256,0.021019,0.0226212,0.01297,-9.97986,0.0221252,-0.0246429,0.0154495,-0.0030899,0.0191116,0.0141525,0.00682831,0.0160217
7,5,10.0097,0.000610352,-0.000152588,-2.42531,0.0569017,-0.0735371,0.0550435,0.0712755,-0.0913154,0.146234,-0.125156,-0.0810445,0.0101089,0.0246048,0.00682831,-0.000534058,0.0195694,0.0238037,0.0231552,0.0168228,-9.97986,0.0236893,-0.030632,0.018425,0.00305176,0.0159836,0.0094223,0.00797272,0.0123215
7,6,10.0097,0.00183105,0.000457764,-2.4247,0.0572069,-0.0735371,0.0550435,0.07036,-0.0922309,0.14776,-0.124546,-0.0804342,0.0126648,0.0197983,0.00793457,-0.00858307,0.0183105,0.0231171,0.0194168,0.0150299,-9.97986,0.0204086,-0.0329208,0.0179672,0.0031662,0.0177383,0.00919342,0.0105667,0.0117111
7,7,10.0097,0.000610352,-0.0012207,-2.42806,0.0572069,-0.0741475,0.054128,0.0438097,-0.0949775,0.145013,-0.126377,-0.0819601,0.0124359,0.020256,0.0150681,-0.00865936,0.0182343,0.0249863,0.0244904,0.0166702,-9.97986,0.0139618,-0.034256,0.0139999,0.00267029,0.0170898,0.00522614,0.00732422,0.0106049
7,8,8.41176,0.000305176,-0.00152588,-2.42653,0.0565965,-0.0735371,0.0522969,0.0438097,-0.0931465,0.147149,-0.126072,-0.0819601,0.0146484,0.0285339,0.0130463,-0.0123978,0.019722,0.021553,0.0260544,0.0154877,-9.97986,0.0139999,-0.035553,0.0173569,0.00667572,0.0132751,-0.000114441,0.0112152,0.0104523
7,9,7.24965,0.000305176,-0.000610352,-2.42562,0.0553758,-0.0744527,0.0532125,0.054796,-0.0916206,0.145624,-0.125766,-0.0831808,0.0142288,0.019989,0.0138474,-0.0134659,0.0183868,0.0232315,0.0257111,0.0140762,-9.97986,0.0195313,-0.0287628,0.0138474,0.00171661,0.012207,0.000343323,0.00892639,0.00881195
8,0,7.04183,0.000305176,-0.000152588,-2.42592,0.0550706,-0.0753682,0.0535176,0.0630358,-0.0919257,0.144708,-0.125766,-0.0828756,0.0120926,0.0251007,0.0204849,-0.0189972,0.0207138,0.0235748,0.025444,0.0178528,-9.97986,0.019989,-0.0284195,0.0191116,0.00400543,0.0139236,-0.00396729,0.00511169,0.00743866
8,1,7.27681,-0.000610352,0,-2.42653,0.0559862,-0.0747579,0.054128,0.0718859,-0.0931465,0.146234,-0.126682,-0.0828756,0.0131607,0.02491,0.0202179,-0.0275421,0.0181961,0.0226974,0.0211716,0.0150681,-9.97986,0.0168228,-0.0248337,0.0131226,0.00804901,0.0124359,-0.0082016,0.00457764,0.00911713
8,2,9.17073,0,0.000610352,-2.42562,0.0538499,-0.0741475,0.0547383,0.0950792,-0.0894843,0.145013,-0.12302,-0.0850118,0.0105286,0.0240707,0.0237274,-0.0339508,0.0144958,0.021553,0.0216293,0.014267,-9.97986,0.0149918,-0.0233459,0.0145721,0.0101471,0.0109863,-0.00991821,0.00408173,0.00953674
8,3,10.0097,0.000305176,0.00213623,-2.42806,0.0541551,-0.0768941,0.0513814,0.0953844,-0.0937568,0.144098,-0.126072,-0.0862325,0.0122833,0.0233078,0.0332642,-0.0294495,0.0173187,0.0197601,0.0191879,0.0128937,-9.97986,0.014534,-0.0143051,0.0167465,0.00656128,0.0123596,-0.0114822,0.0044632,0.00843048
8,4,10.0097,0.000610352,0.000762939,-2.42959,0.0544603,-0.0759786,0.0513814,0.0779894,-0.0946723,0.143487,-0.126682,-0.0868429,0.0102997,0.0210953,0.0396729,-0.029335,0.0138855,0.0208282,0.0178528,0.00911713,-9.97986,0.0131989,-0.016098,0.017128,0.00720978,0.0120544,-0.00343323,0.00518799,0.0069809
8,5,10.0097,0.000305176,0.000457764,-2.42928,0.0535448,-0.0759786,0.0519917,0.0718859,-0.0949775,0.143792,-0.126072,-0.0868429,0.0107193,0.0260544,0.0477219,-0.0120163,0.0205231,0.0176239,0.0208664,0.0140762,-9.97986,0.0129318,-0.0139236,0.0156403,0.00610352,0.00988007,-0.00537872,0.0131607,0.00873566
8,6,10.0097,-0.0012207,-0.000152588,-2.42867,0.0547655,-0.0759786,0.0516866,0.07036,-0.0961982,0.142572,-0.126682,-0.0862325,0.0133514,0.0231934,0.0521851,0.0277328,0.0147629,0.0198364,0.0217819,0.0181198,-9.97986,0.0137329,-0.0120163,0.0141907,0.00602722,0.0112534,-0.00522614,0.0141525,0.0062561
8,7,10.0097,-0.000305176,-0.000305176,-2.42898,0.0535448,-0.0759786,0.0513814,0.0691393,-0.0952827,0.143487,-0.126377,-0.0868429,0.0105286,0.0205612,0.0509262,0.0271606,0.0162888,0.0188446,0.0230026,0.0210571,-9.97986,0.0118256,-0.0146103,0.0140381,0.00461578,0.00774384,-0.00591278,0.0114441,0.00606537
8,8,10.0097,0.000610352,0.000457764,-2.42837,0.0547655,-0.0753682,0.0519917,0.0697496,-0.0931465,0.144098,-0.127292,-0.0862325,0.00926971,0.0224304,0.0491333,0.0104904,0.0172424,0.0191498,0.0233078,0.0297928,-9.97986,0.0127411,-0.0208664,0.0173187,0.0100708,0.0113678,-0.00328064,0.0148773,0.00522614
8,9,10.0097,-0.000915527,-0.000152588,-2.42867,0.0535448,-0.0762837,0.0532125,0.0691393,-0.0934516,0.145929,-0.126682,-0.0850118,0.00968933,0.0161362,0.0349808,0.0199509,0.0182724,0.014801,0.0225449,0.0297928,-9.97986,0.00972748,-0.0248337,0.0180435,0.00213623,0.0104523,-0.000953674,0.0140381,0.00606537
9,0,10.0097,0.000610352,-0.000305176,-2.42684,0.0547655,-0.0735371,0.0535176,0.07036,-0.0955879,0.144403,-0.126072,-0.0847066,0.0087738,0.0173569,0.0273895,0.0259781,0.0189972,0.0159836,0.0205994,0.0405121,-9.97986,0.00896454,-0.0286484,0.0179672,0.00686646,0.00846863,0.00419617,0.0141907,0.0087738
9,1,10.0097,-0.000915527,-0.000152588,-2.42714,0.0553758,-0.0747579,0.0538228,0.07036,-0.0934516,0.145013,-0.124851,-0.0840963,0.0101852,0.0242996,0.0294495,0.00473022,0.0167847,0.0163651,0.0197601,0.0391388,-9.97986,0.00606537,-0.0350189,0.0206375,0.00549316,0.00766754,0.00171661,0.0132751,0.00423431
9,2,10.0097,0,0.000305176,-2.4247,0.0562914,-0.0744527,0.054128,0.0697496,-0.0916206,0.145624,-0.124851,-0.0822652,0.0125885,0.0234222,0.0260925,-0.0050354,0.0171661,0.0212097,0.018158,0.0429535,-9.97986,0.00488281,-0.0437546,0.0219727,0.00648499,0.00679016,0.000228882,0.0116348,0.00545502
9,3,10.0097,-0.00244141,0.000305176,-2.42531,0.0584276,-0.0741475,0.0547383,0.0715807,-0.0922309,0.146234,-0.124546,-0.0819601,0.00999451,0.0320053,0.0257874,-0.0137711,0.0206757,0.0192642,0.0183868,0.0406647,-9.97986,0.00545502,-0.038681,0.0159073,0.0030899,0.0106812,-0.00240326,0.0163269,0.00793457
9,4,10.0097,0.000610352,-0.000457764,-2.42409,0.0581224,-0.0744527,0.0553487,0.0709703,-0.0922309,0.147455,-0.124851,-0.0816549,0.0113297,0.03582,0.0378799,-0.0377655,0.0162125,0.0164032,0.0180817,0.0283432,-9.97986,0.00747681,-0.0297546,0.0184631,0.00778198,0.00972748,-0.00762939,0.0175095,0.00766754
9,5,10.0097,-0.000915527,0.000610352,-2.42562,0.0553758,-0.0738423,0.0550435,0.0709703,-0.0916206,0.145624,-0.125156,-0.0816549,0.00656128,0.0531769,0.0516891,-0.054512,0.0172806,0.0181198,0.0234222,0.0316238,-9.97986,0.000610352,-0.0255203,0.0160599,0.00335693,0.014267,-0.00148773,0.0142288,0.00606537
9,6,10.0097,0.00274658,0.000305176,-2.4247,0.0572069,-0.0738423,0.0532125,0.07036,-0.090705,0.14776,-0.123935,-0.0813497,0.00705719,0.0570297,0.0518799,0.00564575,0.0179291,0.0169373,0.0220108,0.0328064,-9.97986,0.0018692,-0.0220108,0.0152206,0.0069046,0.0094223,0.00343323,0.0164032,0.0043869
9,7,10.0097,0.000915527,-0.00137329,-2.42653,0.0559862,-0.0738423,0.0522969,0.0438097,-0.095893,0.146234,-0.126072,-0.0816549,0.0050354,0.0655365,0.0588989,0.0495911,0.0172043,0.021019,0.0226593,0.0275803,-9.97986,0.00137329,-0.0227356,0.0188828,0.00766754,0.0126648,0.00087738,0.0217056,0.00740051
9,8,8.47493,0.000915527,-0.00152588,-2.42684,0.0565965,-0.0741475,0.054128,0.0441149,-0.0931465,0.146234,-0.125156,-0.0819601,0.0069046,0.0778198,0.0559998,0.0380707,0.0183487,0.0104141,0.0216293,0.0205231,-9.97986,0.00274658,-0.0172424,0.0165558,0.00911713,0.00995636,0.0056839,0.0189972,0.00530243
9,9,7.34975,0.000915527,-0.000915527,-2.42592,0.0569017,-0.0738423,0.0556539,0.054796,-0.0925361,0.147149,-0.126682,-0.0819601,0.00549316,0.0950241,0.0646591,0.00621796,0.0207901,0.0142288,0.0246048,0.010643,-9.97986,0.00102997,-0.0123978,0.0177002,0.00640869,0.0132751,0.00621796,0.018158,0.0069046
10,0,7.15871,-0.0012207,0.000457764,-2.42653,0.0559862,-0.075063,0.0550435,0.0645616,-0.0922309,0.145624,-0.125766,-0.0837911,0.0094223,0.118752,0.0824356,0.0138474,0.0242996,0.016098,0.019455,0.00717163,-9.97986,3.8147e-005,-0.0130081,0.0201035,0.00366211,0.0165176,0.0103378,0.0173187,0.00583649
10,1,7.45931,0.000915527,-0.000305176,-2.42745,0.055681,-0.0744527,0.054128,0.0740221,-0.0925361,0.145929,-0.124851,-0.0831808,0.0113678,0.135994,0.0884247,0.0519562,0.0211716,0.0151825,0.0216675,-0.00293732,-9.97986,-0.00221252,-0.00576019,0.0186539,0.0056076,0.016861,0.00850677,0.0147247,0.00732422
10,2,9.29097,0.00152588,0.00152588,-2.42714,0.0538499,-0.0744527,0.0544332,0.098131,-0.0897895,0.145318,-0.124546,-0.0831808,0.0131607,0.133667,0.0859451,0.0689316,0.0157166,0.0133514,0.018692,-0.0135803,-9.97986,-0.0019455,-0.00534058,0.0163269,0.00221252,0.0161362,0.00598907,0.0134277,0.00530243
10,3,10.0097,0.000610352,0.00152588,-2.42898,0.0529344,-0.0765889,0.0519917,0.092943,-0.0934516,0.142572,-0.125766,-0.0871481,0.0152588,0.126724,0.082016,0.0678253,0.0169754,0.0152206,0.0149536,-0.0127411,-9.97986,0.00171661,-0.00499725,0.0205612,0.00701904,0.0122833,0.000457764,0.0150299,0.0075531
10,4,10.0097,0.0012207,-0.000152588,-2.42898,0.0541551,-0.0762837,0.0535176,0.0779894,-0.0961982,0.142877,-0.127903,-0.0865377,0.00984192,0.0870514,0.0615311,0.0821304,0.0159454,0.0154495,0.018959,-0.00907898,-9.97986,0.00751495,0.00465393,0.0176239,0.01091,0.0109863,-0.000610352,0.014534,0.00400543
10,5,10.0097,-0.000305176,0.000305176,-2.42867,0.0532396,-0.0765889,0.0522969,0.0724962,-0.0952827,0.143487,-0.126072,-0.0871481,0.0088501,0.0343704,0.0439072,0.084343,0.0190353,0.0127029,0.019455,-0.0094986,-9.97986,0.014534,0.00907898,0.0172043,0.00686646,0.0136566,-0.00102997,0.0120544,0.00873566
10,6,10.0097,-0.00152588,-0.00106812,-2.42989,0.0529344,-0.0765889,0.0526021,0.0706652,-0.0943672,0.142877,-0.127292,-0.0865377,0.00980377,0.0162506,0.0151062,0.0774002,0.0174713,0.0157166,0.0185013,-0.0124741,-9.97986,0.0204849,0.00274658,0.0183868,0.00835419,0.0124359,0.00526428,0.0154877,0.00598907
10,7,10.0097,-0.000305176,-0.000457764,-2.42867,0.0535448,-0.0762837,0.0522969,0.0682238,-0.095893,0.143182,-0.126682,-0.0874532,0.00923157,0.00957489,-0.0122452,0.055809,0.0199509,0.00995636,0.0220871,-0.0104523,-9.97986,0.0285721,0.00160217,0.0151443,0.00255585,0.0075531,0.00164032,0.0106049,0.00617981
10,8,10.0097,-0.00244141,-0.000762939,-2.42806,0.0544603,-0.0762837,0.0526021,0.07036,-0.0965034,0.143182,-0.126072,-0.0862325,0.0094223,-0.0212479,-0.043335,0.033493,0.0154495,0.0144577,0.018692,-0.00900269,-9.97986,0.0360489,0.00679016,0.0154495,0.00453949,0.00785828,-0.00102997,0.0104523,0.00526428
10,9,10.0097,0.00152588,-0.000305176,-2.42837,0.0541551,-0.075063,0.0532125,0.07036,-0.0943672,0.143487,-0.126377,-0.0856222,0.00747681,-0.0341415,-0.0606537,0.0263214,0.0137329,0.00976563,0.0231934,-0.000343323,-9.97986,0.0392914,0.0144958,0.0183868,0.00461578,0.00740051,-0.000152588,0.00774384,0.00396729
11,0,10.0097,0.0012207,0.000152588,-2.42623,0.0550706,-0.0747579,0.0522969,0.0685289,-0.0931465,0.144098,-0.126072,-0.0850118,0.00980377,-0.0167084,-0.0642014,0.0239944,0.010643,0.0121689,0.0208282,0.00728607,-9.97986,0.0379944,0.0180054,0.0173187,0.00553131,0.00881195,0.00198364,0.0115585,0.00591278
11,1,10.0097,-0.00183105,-0.000305176,-2.42684,0.055681,-0.0747579,0.0526021,0.0712755,-0.0934516,0.145318,-0.125156,-0.0837911,0.0122452,-0.0235748,-0.0654221,0.0275421,0.0161362,0.0118256,0.0209427,0.00724792,-9.97986,0.0366592,0.0125122,0.0154495,0.00434875,0.00488281,-0.000610352,0.00831604,0.00389099
11,2,10.0097,0.0012207,0.000305176,-2.42592,0.0559862,-0.0735371,0.0547383,0.0700548,-0.0931465,0.145624,-0.124851,-0.0825704,0.00938416,-0.0535202,-0.0857162,0.039978,0.0155258,0.0102234,0.0189972,0.0117874,-9.97986,0.0346375,0.00919342,0.0211716,0.00900269,0.00804901,0.000305176,0.00801086,0.00480652
11,3,10.0097,0.00152588,0.000152588,-2.4247,0.0550706,-0.0738423,0.0553487,0.0700548,-0.0913154,0.144708,-0.124241,-0.0810445,0.010376,-0.0731659,-0.0975418,0.0428009,0.015564,0.0109482,0.0178146,0.0104904,-9.97986,0.0326538,0.0114822,0.0163269,0.00511169,0.00530243,-0.000915527,0.00740051,0.00465393
11,4,10.0097,0.00244141,-0.000152588,-2.4247,0.0569017,-0.0744527,0.0538228,0.0709703,-0.0913154,0.146234,-0.123935,-0.0813497,0.013504,-0.0788498,-0.0827789,0.0399399,0.0139236,0.0109863,0.0189972,0.0136948,-9.97986,0.0363159,0.0170135,0.0185013,0.00556946,0.00896454,-0.00434875,0.00999451,0.00720978
11,5,10.0097,0.00244141,0.000152588,-2.42501,0.0569017,-0.0741475,0.0547383,0.0706652,-0.0916206,0.146234,-0.124241,-0.0810445,0.00904083,-0.0715637,-0.0694656,0.0362015,0.0147247,0.0075531,0.0188446,0.0156021,-9.97986,0.0363922,0.0174332,0.0219727,0.00770569,0.00740051,-0.00480652,0.00843048,0.0043869
11,6,10.0097,-0.0012207,0.000762939,-2.42684,0.0565965,-0.0738423,0.0538228,0.0715807,-0.0925361,0.147149,-0.12363,-0.0813497,0.0101089,-0.0587845,-0.0625229,0.0315857,0.0116348,0.00911713,0.0253677,0.0143433,-9.97986,0.0341797,0.017395,0.0169754,0.0082016,0.0107956,-0.00846863,0.00995636,0.00331879
11,7,10.0097,0.0012207,-0.00167847,-2.42684,0.0562914,-0.0735371,0.0529073,0.0450304,-0.0983344,0.146844,-0.126072,-0.0819601,0.00766754,-0.0502014,-0.0537109,0.0270844,0.0177765,0.0114441,0.0184631,0.0160217,-9.97986,0.0343323,0.0202179,0.0212479,0.00778198,0.0112915,-0.00492096,0.00873566,0.00408173
11,8,8.48256,0.000305176,-0.00106812,-2.42562,0.055681,-0.0741475,0.054128,0.0431993,-0.0922309,0.146539,-0.126377,-0.0825704,0.00976563,-0.0302505,-0.0374985,0.027771,0.0128174,0.0128555,0.0150681,0.017662,-9.97986,0.0260544,0.0179291,0.0186157,0.0132751,0.0123978,-0.00213623,0.0120926,0.00652313
11,9,7.33632,-0.000610352,-0.000610352,-2.42501,0.0562914,-0.0741475,0.054128,0.0551012,-0.0928413,0.145624,-0.126072,-0.0822652,0.0113297,-0.0195694,-0.0153351,0.0215912,0.0120926,0.00526428,0.0193024,0.0127411,-9.97986,0.0254822,0.0180054,0.0216293,0.0107193,0.00816345,-0.00621796,0.00923157,0.00789642
12,0,7.10134,0.000610352,0.000762939,-2.42684,0.0553758,-0.0747579,0.0547383,0.0639513,-0.0943672,0.145624,-0.125461,-0.0828756,0.0128555,-0.00259399,-0.00862122,0.0123978,0.0141907,0.0100708,0.0181198,0.0220871,-9.97986,0.0250244,0.0147247,0.0163269,0.014267,0.0108337,-0.00839233,0.0117874,0.00392914
12,1,7.36379,0.0012207,0.000152588,-2.42592,0.0562914,-0.0741475,0.054128,0.0715807,-0.0922309,0.145624,-0.125156,-0.0822652,0.00888824,0.00938416,0.00507355,0.0127411,0.0157547,0.0104523,0.0182343,0.0335312,-9.97986,0.016098,0.013237,0.0187302,0.0140762,0.0122833,-0.00747681,0.00736237,0.00415802
12,2,9.18202,0.000915527,0.000762939,-2.42714,0.0535448,-0.0747579,0.0544332,0.0972155,-0.0900947,0.145318,-0.12363,-0.0834859,0.0102615,0.00823975,0.0117493,0.00656128,0.0115204,0.00694275,0.0173187,0.0349045,-9.97986,0.0188065,0.0130463,0.0187683,0.0193787,0.0119781,-0.00953674,0.00965118,0.00331879
12,3,10.0097,0.0012207,0.00198364,-2.42867,0.0535448,-0.0759786,0.0529073,0.094774,-0.0891792,0.143182,-0.125461,-0.0862325,0.00869751,0.0169373,0.0244522,0.00823975,0.0157166,0.0108337,0.0216675,0.035553,-9.97986,0.0151062,0.0262451,0.0212097,0.0200653,0.0124359,-0.0050354,0.00617981,0.000686646
12,4,10.0097,0.000610352,0.000610352,-2.42959,0.0532396,-0.0747579,0.0513814,0.0779894,-0.0955879,0.143487,-0.126682,-0.0871481,0.0132751,0.023613,0.0362396,0.00659943,0.0193787,0.00831604,0.0198364,0.0317764,-9.97986,0.0125504,0.0253296,0.0223541,0.024147,0.0114441,-0.00732422,0.00881195,0.00583649
12,5,10.0097,0.000305176,0.000305176,-2.42959,0.048662,-0.0747579,0.0526021,0.0724962,-0.0961982,0.143182,-0.126377,-0.0862325,0.0140381,0.0318146,0.0434494,0.00717163,0.0162506,0.00720978,0.0192261,0.0397491,-9.97986,0.00953674,0.0213242,0.019722,0.0207901,0.0132751,-0.00976563,0.00968933,0.00362396
12,6,10.0097,0.00213623,-0.000610352,-2.42928,0.0541551,-0.0762837,0.0513814,0.07036,-0.0934516,0.142267,-0.127292,-0.0868429,0.0138855,0.036087,0.0489807,0.0111771,0.0128937,0.0112534,0.0189972,0.0390625,-9.97986,0.00419617,0.022049,0.0184631,0.022583,0.0129318,-0.00984192,0.0116348,0.001297
12,7,10.0097,0.00152588,0.000457764,-2.4305,0.0541551,-0.0765889,0.0513814,0.0694445,-0.0952827,0.143182,-0.127292,-0.0871481,0.0116348,0.0362015,0.0444031,0.00839233,0.0164032,0.00831604,0.0162888,0.0526428,-9.97986,0.00457764,0.0284195,0.0241852,0.021019,0.0147247,-0.00751495,0.00679016,0.00350952
12,8,10.0097,0.0012207,0.000152588,-2.42837,0.0507982,-0.0759786,0.0526021,0.07036,-0.0931465,0.143792,-0.126987,-0.0862325,0.00488281,0.0277328,0.0358582,0.00686646,0.0168228,0.0118256,0.0193405,0.0498962,-9.97986,0.00701904,0.0275421,0.02285,0.0217819,0.00957489,-0.00442505,0.00782013,0.00270844
12,9,10.0097,0.00183105,-0.000457764,-2.42714,0.0553758,-0.0744527,0.0535176,0.0697496,-0.0946723,0.145624,-0.126377,-0.0859274,0.0125122,0.0222397,0.039978,0.00301361,0.0144577,0.0113297,0.0198746,0.04673,-9.97986,0.0050354,0.0254059,0.0260925,0.0233078,0.013504,-0.00804901,0.00823975,0.00396729
13,0,10.0097,0.00183105,0.000457764,-2.42714,0.0547655,-0.0738423,0.054128,0.0691393,-0.0928413,0.145624,-0.126682,-0.0847066,0.0094986,0.0307846,0.0512314,0.00259399,0.0144196,0.0110626,0.0157547,0.0397491,-9.97986,-0.00312805,0.020256,0.0265884,0.0182724,0.0147247,-0.01091,0.00797272,0.00518799
13,1,10.0097,-0.000305176,0.000762939,-2.42714,0.0507982,-0.075063,0.0532125,0.0706652,-0.0949775,0.145318,-0.125766,-0.0844015,0.00854492,0.0252533,0.0595093,-0.00301361,0.0140762,0.00965118,0.0228119,0.0241089,-9.97986,0.00255585,0.0163269,0.0253296,0.0228119,0.0144196,-0.00835419,0.00495911,0.00339508
13,2,10.0097,0.00244141,0.000762939,-2.42562,0.0562914,-0.0738423,0.0544332,0.0706652,-0.0910102,0.148065,-0.124546,-0.0822652,0.011673,0.0440598,0.0696945,0.00144958,0.0169373,0.0120926,0.0224686,0.0150681,-9.97986,0.0025177,0.0146866,0.0195313,0.0302124,0.0135803,-0.00644684,0.00778198,0.00747681
13,3,10.0097,-0.000610352,0.00152588,-2.42531,0.0553758,-0.0741475,0.0547383,0.0718859,-0.0910102,0.147149,-0.12363,-0.0813497,0.0165558,0.0574493,0.0848389,-0.00156403,0.0181198,0.0130463,0.0174332,0.0103378,-9.97986,0.000152588,0.0185013,0.0247192,0.0298691,0.0144577,-0.00522614,0.00461578,0.00492096
13,4,10.0097,0.000305176,0.000152588,-2.42501,0.0553758,-0.075063,0.0544332,0.0712755,-0.0913154,0.14776,-0.124546,-0.0813497,0.0131989,0.0603485,0.0933838,-0.0121307,0.014801,0.01091,0.0197601,0.00534058,-9.97986,0.00244141,0.0139236,0.0240326,0.0352097,0.016861,-0.0087738,0.00293732,0.00518799
13,5,10.0097,0.000915527,0.000152588,-2.42623,0.0559862,-0.075063,0.0544332,0.0712755,-0.0913154,0.146844,-0.124546,-0.0813497,0.014534,0.0843811,0.0928116,-0.01091,0.0164413,0.0109482,0.0220871,0.0134277,-9.97986,-0.00087738,0.0165939,0.0215912,0.0311279,0.015831,-0.0124741,0.00751495,0.000114441
13,6,10.0097,0.000610352,0,-2.42501,0.0562914,-0.073232,0.0544332,0.07036,-0.0900947,0.147149,-0.12363,-0.0813497,0.0170517,0.0831985,0.0842667,-0.0166702,0.0124359,0.00640869,0.0186539,0.0152588,-9.97986,0.00171661,0.0127792,0.0228119,0.0266266,0.0199127,-0.0215149,0.00473022,0.0031662
13,7,10.0097,-0.0012207,-0.00106812,-2.42684,0.0590379,-0.0744527,0.0532125,0.0462511,-0.0955879,0.146234,-0.125766,-0.0810445,0.0125122,0.0746536,0.0768661,-0.0165176,0.0117111,0.00850677,0.0217819,0.013237,-9.97986,0.00785828,0.0130463,0.020256,0.03479,0.0162506,-0.0242615,0.00598907,0.0044632
13,8,8.47737,0.000305176,-0.00152588,-2.42531,0.0562914,-0.0744527,0.054128,0.0435045,-0.0928413,0.145624,-0.126377,-0.0816549,0.0142288,0.0461578,0.0506973,-0.0177765,0.0173187,0.0104904,0.0244141,0.00980377,-9.97986,0.0110245,0.0191498,0.0244141,0.0259781,0.0184631,-0.0178909,0.00991821,0.00488281
13,9,7.32686,-0.00152588,-0.00198364,-2.42623,0.0559862,-0.0744527,0.0544332,0.0554064,-0.0928413,0.146234,-0.125156,-0.0825704,0.00999451,0.0539017,0.0274277,-0.0111389,0.0173569,0.0103378,0.0194931,-0.0088501,-9.97986,0.0130844,0.0196457,0.0204849,0.0255203,0.0189972,-0.0179291,0.00854492,0.00400543
14,0,7.10439,0.000915527,-0.000762939,-2.42714,0.0575121,-0.075063,0.0553487,0.0645616,-0.0925361,0.146539,-0.125461,-0.0825704,0.0193024,0.123024,0.00644684,-0.00762939,0.0156784,0.00782013,0.0234985,-0.0294495,-9.97986,0.0121307,0.0172806,0.0234985,0.019989,0.0177765,-0.0174332,0.00370026,0.00453949
14,1,7.38179,0.000610352,0.000305176,-2.42623,0.0541551,-0.0747579,0.0556539,0.0734117,-0.0916206,0.146844,-0.124241,-0.0834859,0.0158691,0.149193,-0.00648499,-0.00953674,0.0138092,0.00984192,0.02388,-0.0333023,-9.97986,0.0165939,0.0102234,0.0254822,0.0195694,0.0157547,-0.0130463,0.00747681,0.00385284
14,2,9.23116,0.000915527,0.0012207,-2.42684,0.0544603,-0.0747579,0.0553487,0.0987413,-0.088874,0.146234,-0.124241,-0.0834859,0.0195313,0.141335,-0.0214767,-0.00442505,0.0133133,0.00743866,0.0217819,-0.0242996,-9.97986,0.0246811,0.0127792,0.0212479,0.0254822,0.0193405,-0.00579834,0.00782013,0.00457764
14,3,10.0097,-0.000610352,0.00183105,-2.42989,0.0541551,-0.0756734,0.0532125,0.094774,-0.094062,0.139825,-0.125156,-0.0856222,0.0141144,0.0744629,-0.0561523,-0.00358582,0.00911713,0.00427246,0.0206375,-0.016098,-9.97986,0.0247574,0.0114441,0.0225449,0.0245285,0.0185394,0.00534058,0.00583649,0.00526428
14,4,10.0097,0,0.000762939,-2.42867,0.0535448,-0.075063,0.0516866,0.0782946,-0.0952827,0.141046,-0.126682,-0.0868429,0.010643,-0.0221634,-0.0709152,0.00717163,0.0123978,0.0117493,0.0204849,0.0038147,-9.97986,0.0332642,0.0167084,0.0231934,0.0271225,0.0217819,0.013504,0.01297,0.00663757
14,5,10.0097,-0.000610352,-0.000152588,-2.42959,0.0535448,-0.0753682,0.0516866,0.072191,-0.0955879,0.141961,-0.127292,-0.0868429,0.0118256,-0.102005,-0.0878143,0.00583649,0.0094223,0.00534058,0.019989,0.00583649,-9.97986,0.0344467,0.014267,0.0251007,0.0202942,0.0219727,0.0143051,0.0145721,0.00782013
14,6,10.0097,0,-0.000152588,-2.42959,0.0544603,-0.0756734,0.0486348,0.0697496,-0.094062,0.143182,-0.126682,-0.0874532,0.00926971,-0.144577,-0.088768,0.00999451,0.0148773,0.00770569,0.0222015,0.00652313,-9.97986,0.0448227,0.00923157,0.0252533,0.0202942,0.0197983,0.0135803,0.011673,0.00553131
14,7,10.0097,0.00183105,-0.000457764,-2.42837,0.0538499,-0.0759786,0.0516866,0.0694445,-0.095893,0.144403,-0.126072,-0.0868429,0.00873566,-0.142708,-0.0696945,0.00900269,0.0130081,0.0100708,0.0241852,0.000915527,-9.97986,0.0411606,0.0104904,0.0257874,0.021286,0.021553,0.0144958,0.0117111,0.00789642
14,8,10.0097,0.00305176,0,-2.42837,0.0538499,-0.0756734,0.0532125,0.0679186,-0.0946723,0.145624,-0.127598,-0.085317,0.0134277,-0.10643,-0.0357437,0.0110626,0.0124359,0.0103378,0.0230026,0.00537872,-9.97986,0.0342178,0.00816345,0.0257492,0.0175476,0.022583,0.00991821,0.0128937,0.00846863
14,9,10.0097,0.000610352,-0.000457764,-2.42745,0.0559862,-0.0759786,0.0486348,0.0685289,-0.0946723,0.145929,-0.126987,-0.0844015,0.0121307,-0.0563812,-0.00694275,0.00511169,0.0176239,0.00961304,0.0235367,0.00610352,-9.97986,0.0312805,0.00911713,0.0260925,0.0107956,0.0209045,0.0113678,0.0150681,0.00961304
15,0,10.0097,0.00366211,0.000457764,-2.42684,0.0544603,-0.0741475,0.0529073,0.0700548,-0.0934516,0.14776,-0.127903,-0.0850118,0.00873566,-0.00911713,0.0196838,-0.00202179,0.020752,0.0121689,0.0255585,0.00728607,-9.97986,0.0208664,0.0141907,0.0295258,0.00926971,0.0226974,0.00747681,0.0161743,0.00404358
15,1,10.0097,0.000305176,0.000610352,-2.42745,0.0550706,-0.075063,0.0535176,0.0697496,-0.0928413,0.146539,-0.125461,-0.0840963,0.0110626,0.0313187,0.0426102,-0.00434875,0.0188446,0.0107574,0.0254822,0.00686646,-9.97986,0.0232315,0.0157928,0.0291824,0.0175095,0.0212097,0.00480652,0.0146103,0.00705719
15,2,10.0097,-0.000610352,0.000152588,-2.42501,0.055681,-0.0747579,0.0492452,0.0712755,-0.0919257,0.146234,-0.124241,-0.0828756,0.0094223,0.0450516,0.0555038,-0.0105667,0.0223541,0.0100327,0.0225449,0.000915527,-9.97986,0.0193787,0.0128555,0.0271606,0.0182343,0.026741,-0.00175476,0.0160217,0.00465393
15,3,10.0097,0.00183105,-0.000152588,-2.42501,0.0565965,-0.0744527,0.0544332,0.0706652,-0.0919257,0.147455,-0.12363,-0.0807394,0.00995636,0.0544739,0.0574493,-0.0112915,0.0273514,0.0158691,0.0223541,-0.00419617,-9.97986,0.0166321,0.00720978,0.0271988,0.0144958,0.026207,-0.00362396,0.0164795,0.00720978
15,4,10.0097,0.000305176,-0.000152588,-2.42501,0.0572069,-0.0738423,0.0550435,0.0715807,-0.0903999,0.146844,-0.124241,-0.0813497,0.0114822,0.0617218,0.0572205,-0.00713348,0.0213623,0.0127029,0.022583,-0.00270844,-9.97986,0.0106049,-0.00492096,0.0285339,0.0189972,0.0249863,-0.0031662,0.0192261,0.0056839
15,5,10.0097,0.000610352,0,-2.4247,0.0553758,-0.0741475,0.0577901,0.07036,-0.0928413,0.146539,-0.125156,-0.0807394,0.0123215,0.0717545,0.0480652,0.000648499,0.0245285,0.0125504,0.0230789,0.00873566,-9.97986,0.0115967,-0.0050354,0.0263214,0.0154114,0.0285339,-0.00148773,0.0205612,0.00621796
15,6,10.0097,-0.000305176,0.000915527,-2.4247,0.0562914,-0.0741475,0.0544332,0.0709703,-0.0913154,0.146539,-0.121494,-0.080129,0.0110245,0.0658035,0.0478745,0.00873566,0.0170898,0.0156021,0.0304794,0.0211334,-9.97986,0.00938416,-0.00999451,0.0315094,0.0193405,0.0283432,0.000419617,0.02388,0.00675201
15,7,10.0097,0.00213623,-0.000915527,-2.42623,0.0553758,-0.0738423,0.0532125,0.0447252,-0.0943672,0.145624,-0.125766,-0.0819601,0.0100708,0.019722,0.0344086,0.00946045,0.0170898,0.0120926,0.0228119,0.0376892,-9.97986,0.00751495,-0.0160599,0.0291824,0.0168991,0.0279617,-0.00514984,0.0251007,0.00587463
15,8,8.26283,0.0012207,-0.000457764,-2.42562,0.0553758,-0.0744527,0.0553487,0.0438097,-0.0922309,0.145929,-0.126377,-0.0819601,0.00652313,-0.0288391,0.0205994,0.01297,0.0206757,0.00621796,0.0247192,0.0495529,-9.97986,0.0127411,-0.00801086,0.0264359,0.0234604,0.0283051,-0.00293732,0.0302887,0.00522614
15,9,7.12819,0.000610352,0.000152588,-2.42531,0.0565965,-0.0741475,0.054128,0.054796,-0.0922309,0.146234,-0.125766,-0.0825704,0.00801086,-0.0305939,0.0149918,0.0168991,0.0177002,0.00812531,0.0266647,0.0609589,-9.97986,0.0138855,-0.0062561,0.0326157,0.0296402,0.0295258,-0.00736237,0.0311279,0.00576019
16,0,6.9164,0.0012207,-0.000152588,-2.42592,0.055681,-0.0738423,0.0553487,0.0627306,-0.0922309,0.145318,-0.126377,-0.0828756,0.00423431,-0.0338745,0.0115967,0.0169754,0.0190353,0.00728607,0.0299835,0.0645828,-9.97986,0.01091,-0.00225067,0.0256729,0.022316,0.0240326,-0.0069046,0.0332642,0.00476837
16,1,7.19289,0.000305176,0.000457764,-2.42745,0.055681,-0.0744527,0.059316,0.0718859,-0.0922309,0.145929,-0.125461,-0.0825704,0.00778198,-0.0314713,0.0204849,0.0208664,0.0185776,0.00823975,0.0278091,0.0608063,-9.97986,0.0143814,-0.0134277,0.0305176,0.0170517,0.0257874,-0.00469208,0.0340652,0.00640869
16,2,9.02181,0.00183105,0.000762939,-2.42653,0.0550706,-0.0744527,0.0547383,0.0969103,-0.0910102,0.144403,-0.127903,-0.0834859,0.00579834,-0.0160217,0.0540161,0.0177765,0.0144577,0.00873566,0.0225449,0.0486374,-9.97986,0.00534058,-0.0134659,0.0295258,0.00888824,0.0236893,-0.00637054,0.0340652,0.00526428
16,3,10.0097,0.0012207,0.00106812,-2.42837,0.0538499,-0.0765889,0.0522969,0.0953844,-0.0934516,0.144403,-0.126072,-0.0862325,0.00354767,0.00244141,0.0729752,0.0165939,0.0135803,0.00999451,0.0251389,0.0363159,-9.97986,0.0012207,-0.0162506,0.0338745,0.00484467,0.0254822,-0.00572205,0.0353241,0.00267029
16,4,10.0097,-0.00183105,0.000915527,-2.42959,0.0550706,-0.0762837,0.050771,0.0782946,-0.0949775,0.144098,-0.126682,-0.0868429,0.00846863,0.0253296,0.0901794,0.00713348,0.0165176,0.0127411,0.0258255,0.0234604,-9.97986,0.00102997,-0.0126648,0.034256,0.00839233,0.0259781,-0.00301361,0.0376892,0.00183105
16,5,10.0097,0.000305176,0.000915527,-2.42928,0.0532396,-0.0744527,0.0519917,0.0734117,-0.0955879,0.144403,-0.12302,-0.0871481,0.0108719,0.0506592,0.0969315,-0.00652313,0.0156021,0.0106812,0.0252151,0.00675201,-9.97986,0.00522614,0.00888824,0.0363541,0.0189972,0.0246048,0.00110626,0.0406265,0.00354767
16,6,10.0097,0.00244141,0,-2.42867,0.0547655,-0.0753682,0.0513814,0.07036,-0.0949775,0.144098,-0.127292,-0.0871481,0.00965118,0.0820923,0.10334,-0.0157547,0.00919342,0.00854492,0.0267792,-0.0140381,-9.97986,0.000686646,0.0179291,0.0351334,0.019989,0.0274277,0.000915527,0.0430298,0.00640869
16,7,10.0097,0.000610352,0,-2.4302,0.0541551,-0.0753682,0.050771,0.0688341,-0.0949775,0.143792,-0.126682,-0.0871481,0.016098,0.109673,0.11219,-0.0135803,0.0107193,0.0111389,0.0269318,-0.0296783,-9.97986,-0.00732422,0.0236511,0.0334549,0.0166702,0.0240326,0.00556946,0.0379562,0.00221252
16,8,10.0097,0.000305176,0,-2.42806,0.0538499,-0.0759786,0.0519917,0.0700548,-0.0943672,0.144708,-0.126072,-0.0859274,0.015831,0.123405,0.10807,-0.00492096,0.00785828,0.0069046,0.0220108,-0.0357056,-9.97986,-0.0110626,0.00694275,0.0342178,0.0204086,0.0218582,0.001297,0.0422287,0.00270844
16,9,10.0097,-0.00213623,0.000305176,-2.42806,0.0550706,-0.0744527,0.0532125,0.0679186,-0.0943672,0.143792,-0.127292,-0.085317,0.0151443,0.114441,0.0962067,0.00297546,0.00862122,0.00541687,0.0234222,-0.0334549,-9.97986,-0.0114822,-0.00255585,0.030899,0.0238037,0.0172806,-0.00228882,0.0409317,0.00545502
17,0,10.0097,0,0.0012207,-2.42653,0.055681,-0.0753682,0.0584004,0.0694445,-0.0946723,0.144708,-0.126072,-0.0847066,0.0211716,0.112991,0.0705719,0.018425,0.010643,0.0025177,0.0271606,-0.0128174,-9.97986,-0.0124359,-0.0128174,0.0259018,0.0292969,0.0206375,-0.00293732,0.0439453,0.00396729
17,1,10.0097,-0.000610352,0.000762939,-2.42684,0.0550706,-0.0756734,0.054128,0.0706652,-0.0925361,0.146234,-0.127598,-0.0844015,0.0141525,0.127602,0.038681,0.02388,0.00659943,0.000419617,0.0257111,0.0106049,-9.97986,-0.00225067,-0.00827789,0.0258255,0.0326538,0.0218582,-0.00278473,0.0466156,0.00469208
17,2,10.0097,-0.000610352,0,-2.4244,0.0559862,-0.0738423,0.0544332,0.0706652,-0.0922309,0.144098,-0.124851,-0.0822652,0.01194,0.102539,0.00537872,0.0289536,0.00652313,0.00278473,0.0243759,0.0195313,-9.97986,0.00473022,0.0181961,0.0207901,0.0223541,0.0213242,-0.00423431,0.0465393,0.00427246
17,3,10.0097,-0.000305176,-0.000457764,-2.42501,0.0559862,-0.0735371,0.054128,0.0715807,-0.0925361,0.145318,-0.124851,-0.0822652,0.0082016,0.044899,-0.0069809,0.0231171,0.00713348,-0.00377655,0.0250244,0.0339127,-9.97986,0.00740051,0.032196,0.0135803,0.0136185,0.0211334,-0.00389099,0.0434494,0.00267029
17,4,10.0097,-0.000305176,0.000762939,-2.42501,0.0565965,-0.0726216,0.0544332,0.07036,-0.0910102,0.145013,-0.121189,-0.0807394,0.00389099,-0.00160217,-0.0204086,0.00728607,-0.000648499,-0.00740051,0.0234985,0.0408554,-9.97986,0.0193024,0.00614166,0.00801086,0.0261688,0.0212097,-0.00370026,0.0444031,0.00232697
17,5,10.0097,0,0.00106812,-2.42531,0.0559862,-0.073232,0.0553487,0.0709703,-0.090705,0.146234,-0.126072,-0.0804342,0.00411987,-0.0160217,-0.015831,0.00652313,0.00324249,-0.00946045,0.0261688,0.0463486,-9.97986,0.0152206,-0.0315475,0.00835419,0.0372314,0.0222015,-0.000839233,0.0449371,0.00598907
17,6,10.0097,0.000915527,0.00228882,-2.42531,0.0569017,-0.0738423,0.0480245,0.0724962,-0.0922309,0.14776,-0.125156,-0.0807394,0.00827789,0.0115204,0.0138474,0.00587463,0.00736237,-0.00457764,0.0225449,0.032692,-9.97986,0.00972748,-0.0301743,-0.00385284,0.0461197,0.0246048,-0.00385284,0.0452423,0.00179291
17,7,10.0097,0.000610352,-0.000610352,-2.42623,0.0575121,-0.0735371,0.0535176,0.0441149,-0.0949775,0.14776,-0.130039,-0.0819601,0.00923157,0.0415421,0.0353241,0.0031662,0.0069046,-0.0069809,0.0222778,0.0152588,-9.97986,0.00789642,-0.0125504,-0.00293732,0.0481415,0.0226974,-0.00389099,0.0403595,0.000724792
17,8,8.31716,0.00183105,-0.00137329,-2.42623,0.0562914,-0.0729268,0.0532125,0.0438097,-0.0937568,0.146539,-0.126072,-0.0825704,0.00530243,0.0653458,0.0600433,-0.00312805,0.00675201,-0.00087738,0.0270081,-0.00526428,-9.97986,0.00244141,-0.00598907,-0.0135422,0.0519562,0.0207901,-0.0030899,0.0473785,0.0012207
17,9,7.13735,-0.000305176,-0.000152588,-2.42653,0.0553758,-0.0735371,0.0513814,0.0538805,-0.0913154,0.147455,-0.125766,-0.0822652,0.0104904,0.0941849,0.0681305,-0.00808716,0.00717163,-0.00400543,0.0283432,-0.0191879,-9.97986,0.00259399,-0.0149918,-0.0186539,0.0558472,0.0259781,-0.00175476,0.0448227,0.00526428
18,0,6.87612,-0.000305176,0.000152588,-2.42653,0.0547655,-0.0744527,0.054128,0.0642565,-0.0922309,0.145013,-0.125766,-0.0831808,0.0128174,0.0997543,0.065155,-0.0178146,0.0118256,-0.00221252,0.0246811,-0.0386047,-9.97986,0.00572205,-0.0341034,-0.0278091,0.0604248,0.026741,-3.8147e-005,0.0473785,-0.00228882
18,1,7.13552,0,0.000762939,-2.42592,0.0550706,-0.0756734,0.0544332,0.0731066,-0.0922309,0.145624,-0.126377,-0.0837911,0.0166702,0.0787354,0.0503922,-0.018425,0.0117493,-0.000953674,0.0272369,-0.0419998,-9.97986,0.01194,-0.0434875,-0.0356293,0.0660324,0.0273132,-0.00358582,0.0467682,-0.00366211
18,2,8.94124,-0.000610352,0.000762939,-2.42714,0.0553758,-0.075063,0.0516866,0.0975206,-0.0891792,0.145013,-0.12363,-0.0834859,0.017395,0.0934982,0.0222778,-0.0174332,0.0118256,0.00171661,0.0289154,-0.0399399,-9.97986,0.0171661,-0.0517654,-0.0357056,0.0574112,0.0260925,-0.0062561,0.0483322,-0.000648499
18,3,10.0097,-0.00274658,0.00152588,-2.42867,0.0523241,-0.0759786,0.0526021,0.0962999,-0.0931465,0.143182,-0.125461,-0.0868429,0.0211716,0.0730896,-0.0241089,-0.00648499,0.0157928,7.62939e-005,0.0255585,-0.0439453,-9.97986,0.022316,-0.0526047,-0.0387955,0.055542,0.0251007,-0.00484467,0.0530624,-0.00213623
18,4,10.0097,-0.00183105,0.000610352,-2.42898,0.0535448,-0.075063,0.0522969,0.0792101,-0.0949775,0.139825,-0.126377,-0.0859274,0.0212479,-0.0480652,-0.0785065,0.000419617,0.0182343,0.00236511,0.0308228,-0.0421906,-9.97986,0.0330353,-0.0379181,-0.0410461,0.0547409,0.0262833,-0.00198364,0.0557709,-0.00255585
18,5,10.0097,0.000915527,-0.000152588,-2.42898,0.0544603,-0.0762837,0.0486348,0.0731066,-0.0946723,0.141351,-0.127292,-0.0865377,0.0154495,-0.1511,-0.135956,-0.00160217,0.0153732,-0.00289917,0.0263977,-0.0384903,-9.97986,0.0463104,-0.0240326,-0.0400925,0.0531387,0.0275803,0.000267029,0.0512314,-0.00282288
18,6,10.0097,0.000915527,0.000152588,-2.42837,0.0550706,-0.0759786,0.0513814,0.0706652,-0.0946723,0.142267,-0.128208,-0.0862325,0.0162125,-0.167732,-0.185432,-0.00164032,0.0209427,-0.00297546,0.0319672,-0.010643,-9.97986,0.0547791,-0.0231934,-0.0405121,0.0586319,0.0261307,0.000648499,0.0505829,-0.00465393
18,7,10.0097,-0.0012207,0.000610352,-2.42867,0.0535448,-0.0765889,0.0522969,0.0691393,-0.0949775,0.142267,-0.127903,-0.0877584,0.0147629,-0.179825,-0.210762,0.00263214,0.0185013,-0.00953674,0.0348663,0.01091,-9.97986,0.0647354,-0.0107574,-0.0439453,0.0690842,0.0265884,0.00923157,0.0485229,-0.00534058
18,8,10.0097,0.0012207,0.000610352,-2.42714,0.0547655,-0.075063,0.054128,0.0700548,-0.0955879,0.143487,-0.127598,-0.0865377,0.00930786,-0.221977,-0.201569,0.00209808,0.0188828,-0.0141907,0.030098,0.0219345,-9.97986,0.0681686,-0.0167847,-0.0401688,0.0722885,0.0257874,0.0112534,0.0484467,-0.00518799
18,9,10.0097,0.00152588,-0.000305176,-2.42745,0.0547655,-0.0753682,0.0522969,0.0688341,-0.0949775,0.144708,-0.125156,-0.085317,0.0146103,-0.225372,-0.175438,0.0107956,0.0172424,-0.0128555,0.0337982,0.0244904,-9.97986,0.0670624,-0.086937,-0.0437927,0.0617599,0.0250244,0.0141144,0.0471878,-0.00289917
19,0,10.0097,0.00183105,-0.000457764,-2.42623,0.0544603,-0.0744527,0.0538228,0.0694445,-0.0931465,0.145013,-0.126377,-0.085317,0.0104904,-0.192375,-0.141068,0.00972748,0.0205231,-0.0168991,0.0296402,0.0264359,-9.97986,0.0666428,-0.130043,-0.0384903,0.0570679,0.0276947,0.013237,0.0463867,-0.0019455
19,1,10.0097,0.00305176,-0.000762939,-2.42714,0.0544603,-0.0747579,0.0538228,0.0709703,-0.0931465,0.145929,-0.125766,-0.0840963,0.00812531,-0.147743,-0.11631,0.0125885,0.0188065,-0.0146484,0.0353241,0.0245285,-9.97986,0.055809,-0.130997,-0.0394058,0.0484085,0.0263596,0.01091,0.0453949,-0.00492096
19,2,10.0097,0.00183105,0.000152588,-2.42501,0.0562914,-0.0747579,0.0532125,0.0700548,-0.0925361,0.147149,-0.125156,-0.0822652,0.00541687,-0.11837,-0.0971222,0.00545502,0.014267,-0.0171661,0.0305557,0.0190735,-9.97986,0.0474548,-0.141869,-0.0404739,0.0312042,0.0251389,0.00572205,0.0427628,-0.0069046
19,3,10.0097,-0.0012207,-0.000457764,-2.42653,0.0559862,-0.0741475,0.054128,0.0709703,-0.0900947,0.147149,-0.124241,-0.0819601,0.00934601,-0.0955582,-0.0831985,0.0147629,0.0139236,-0.021019,0.0333405,0.00659943,-9.97986,0.0388336,-0.0987244,-0.033989,0.0209427,0.0265503,0.00663757,0.0403595,-0.00709534
19,4,10.0097,0.000610352,-0.000152588,-2.42623,0.0565965,-0.075063,0.0568746,0.0718859,-0.0919257,0.14776,-0.123935,-0.0810445,0.00778198,-0.0735474,-0.0600815,0.0144196,0.00751495,-0.0199509,0.0358963,0.00156403,-9.97986,0.0298309,-0.064621,-0.0355911,0.0242996,0.0242996,0.0031662,0.0401688,-0.00770569
19,5,10.0097,0.00183105,0.000305176,-2.42501,0.055681,-0.0744527,0.054128,0.0718859,-0.0916206,0.151422,-0.122715,-0.0816549,0.00957489,-0.0508118,-0.0329208,0.0163651,0.00804901,-0.015564,0.0326538,0.00331879,-9.97986,0.0215149,-0.0727463,-0.0255585,0.0245667,0.028038,0.00267029,0.0439072,-0.00289917
19,6,10.0097,0.000610352,-0.000762939,-2.42592,0.0569017,-0.0738423,0.0550435,0.07036,-0.0919257,0.14776,-0.124546,-0.0810445,0.0120544,-0.0385284,-0.0167847,0.0159073,0.00892639,-0.0207138,0.0302505,-0.00175476,-9.97986,0.0152588,-0.10498,-0.0285721,0.0127029,0.0246048,-0.000534058,0.0413513,-0.0094223
19,7,10.0097,-0.000305176,-0.00137329,-2.42684,0.0565965,-0.075063,0.0544332,0.0441149,-0.0946723,0.147455,-0.126377,-0.0822652,0.00789642,-0.0208282,-0.00202179,0.0172043,0.00267029,-0.0157928,0.0356674,0.000114441,-9.97986,0.0201416,-0.133934,-0.0265884,0.0128555,0.0281525,-0.00289917,0.0460434,-0.0117493
19,8,8.40779,0.0012207,-0.00152588,-2.4244,0.0547655,-0.0738423,0.054128,0.0441149,-0.0934516,0.145929,-0.126682,-0.0813497,0.00736237,-0.00717163,0.00808716,0.0152969,0.00144958,-0.0136948,0.0338745,0.00724792,-9.97986,0.0162506,-0.132828,-0.0201416,0.0190735,0.0286865,-0.00514984,0.0453949,-0.0082016
19,9,7.34456,0.00183105,-0.000152588,-2.42592,0.0559862,-0.0744527,0.0544332,0.0557115,-0.0919257,0.14837,-0.125461,-0.0825704,0.00801086,0.00587463,0.0193787,0.0184631,0.00591278,-0.0180435,0.0329208,0.019989,-9.97986,0.0135803,-0.10952,-0.0180435,0.0160599,0.030899,-0.00324249,0.0415421,-0.0133133
20,0,7.09798,0.000610352,0.000457764,-2.42745,0.055681,-0.0729268,0.054128,0.0636461,-0.0931465,0.145013,-0.125461,-0.0834859,0.0082016,0.0133514,0.0248718,0.0153351,0.00740051,-0.00946045,0.0337601,0.0233459,-9.97986,0.0101471,-0.107689,-0.0208664,0.0164413,0.0320816,-0.00221252,0.0418854,-0.0138855
20,1,7.36623,-0.00183105,0.000152588,-2.42653,0.0547655,-0.0756734,0.0532125,0.0731066,-0.0919257,0.147455,-0.123325,-0.0822652,0.0121307,0.0215912,0.0308609,0.018959,0.0156021,-0.0128174,0.0378799,0.0254059,-9.97986,0.0122833,-0.110931,-0.0202942,0.00995636,0.0310516,-0.00469208,0.0432968,-0.0144196
20,2,9.22627,0.000305176,0.00167847,-2.42684,0.0562914,-0.075063,0.0547383,0.0987413,-0.0897895,0.146234,-0.124241,-0.0834859,0.0094986,0.0287628,0.0346375,0.0199509,0.0159836,-0.0123215,0.0303268,0.028038,-9.97986,0.00667572,-0.097084,-0.0162888,0.00835419,0.0297165,-0.00724792,0.0416183,-0.0162888
20,3,10.0097,-0.000305176,0.00213623,-2.42806,0.0529344,-0.0787251,0.0538228,0.0944689,-0.0949775,0.142267,-0.125156,-0.0859274,0.00835419,0.0365067,0.0364685,0.0148773,0.0217056,-0.0102615,0.0357819,0.0282669,-9.97986,0.0102997,-0.0786209,-0.0123596,0.0117111,0.0310135,-0.00682831,0.0424957,-0.0173569
20,4,10.0097,0.000305176,0.000457764,-2.42959,0.0538499,-0.0765889,0.0510762,0.077379,-0.0946723,0.143182,-0.127292,-0.0868429,0.00999451,0.0424194,0.0444794,0.0175095,0.026207,-0.0112152,0.036087,0.0304413,-9.97986,0.00839233,-0.0630951,-0.00808716,0.00747681,0.0338364,-0.00431061,0.0439835,-0.0196838
20,5,10.0097,0.000305176,-0.000457764,-2.42898,0.0538499,-0.0753682,0.0510762,0.0728014,-0.0943672,0.143792,-0.126377,-0.0868429,0.0106812,0.0458145,0.0472641,0.0170517,0.0280762,-0.0130844,0.0354004,0.0279617,-9.97986,0.00492096,-0.0476456,-0.00617981,0.00110626,0.0276947,-0.0043869,0.0420761,-0.0203705
20,6,10.0097,0,-0.000305176,-2.42867,0.0532396,-0.07842,0.0532125,0.07036,-0.0949775,0.142877,-0.127292,-0.0868429,0.0145721,0.0533295,0.0547028,0.0228882,0.0371933,-0.00572205,0.0348282,0.0327301,-9.97986,0.00297546,-0.0455475,-0.00434875,0.00286102,0.030365,-0.00526428,0.0436401,-0.0214386
20,7,10.0097,0.00152588,0.000457764,-2.42806,0.0541551,-0.0762837,0.0529073,0.0700548,-0.0946723,0.144098,-0.126072,-0.0865377,0.0154495,0.051918,0.0555801,0.0226593,0.0366211,-0.00804901,0.0344086,0.0324249,-9.97986,0.00396729,-0.0606918,0.00350952,0.0148392,0.0336456,-0.00118256,0.0407791,-0.0234604
20,8,10.0097,0.000610352,0.000457764,-2.42837,0.0541551,-0.0771993,0.0526021,0.0688341,-0.0955879,0.143792,-0.126377,-0.0865377,0.0160217,0.0577164,0.0640106,0.0216675,0.0407028,-0.00682831,0.0349426,0.0387192,-9.97986,0.000190735,-0.0594711,0.00621796,0.0262451,0.0289536,0.00038147,0.0417709,-0.0255585
20,9,10.0097,-0.000610352,0.00106812,-2.42653,0.0544603,-0.0771993,0.054128,0.0697496,-0.0937568,0.145318,-0.125156,-0.0859274,0.012207,0.0643539,0.0611877,0.0239182,0.0389099,-0.00873566,0.0359344,0.039711,-9.97986,-0.00267029,-0.045433,-0.000190735,0.0370789,0.0260925,0.00217438,0.0461197,-0.0252914
21,0,10.0097,0.00213623,0.000610352,-2.42867,0.0550706,-0.0747579,0.0535176,0.0694445,-0.0928413,0.143182,-0.127903,-0.0831808,0.0103378,0.0652695,0.0634766,0.0223923,0.0400162,-0.0100708,0.0327301,0.0395203,-9.97986,-0.0012207,-0.00785828,-0.00652313,0.0428009,0.0289154,-0.00335693,0.0463867,-0.0258636
21,1,10.0097,0.000305176,0.00106812,-2.42592,0.0553758,-0.0753682,0.0538228,0.0694445,-0.0931465,0.144708,-0.125156,-0.0844015,0.0111008,0.0689316,0.0621414,0.0245285,0.0361633,-0.00713348,0.0348282,0.0439835,-9.97986,-0.000190735,0.0239182,-0.00328064,0.0507355,0.0291061,-0.00686646,0.0556183,-0.020752
21,2,10.0097,-0.00152588,0.000457764,-2.42592,0.0569017,-0.0775044,0.0526021,0.07036,-0.0919257,0.146234,-0.124546,-0.0819601,0.0139618,0.0729752,0.068512,0.0261688,0.0346756,-0.00659943,0.0344849,0.0431824,-9.97986,0.00156403,0.0313187,-0.00171661,0.0471115,0.0269699,-0.0114441,0.0572205,-0.0252151
21,3,10.0097,0.000610352,-0.000305176,-2.42501,0.0550706,-0.0726216,0.055959,0.07036,-0.0919257,0.145318,-0.125461,-0.0807394,0.01091,0.0696564,0.0681686,0.0249863,0.0349045,-0.00473022,0.033226,0.0439835,-9.97986,-0.00183105,0.019455,-0.00106812,0.0428772,0.0327301,-0.0106812,0.0608826,-0.0254059
21,4,10.0097,-0.000610352,0.000152588,-2.42501,0.0578172,-0.0744527,0.0544332,0.0712755,-0.0922309,0.145318,-0.123935,-0.0810445,0.0104904,0.0678635,0.0749207,0.0260162,0.0306702,-0.00198364,0.0346375,0.0373077,-9.97986,0.0019455,0.0232697,0.00350952,0.0393677,0.0283051,-0.00835419,0.067482,-0.0278473
21,5,10.0097,0,-0.000152588,-2.42592,0.0562914,-0.0768941,0.0553487,0.0718859,-0.090705,0.146539,-0.124851,-0.080129,0.0104141,0.0699997,0.0696564,0.0210953,0.0238419,0.00102997,0.027771,0.0397491,-9.97986,-0.00270844,0.0301361,0.000991821,0.0292969,0.0265884,-0.00576019,0.0704956,-0.0310898
21,6,10.0097,-0.000915527,0,-2.42623,0.0553758,-0.0744527,0.0544332,0.0712755,-0.090705,0.146844,-0.122715,-0.0810445,0.0114822,0.0726318,0.0745773,0.0233841,0.02491,0.000190735,0.035553,0.0434494,-9.97986,0.00202179,0.0246048,0.00282288,0.0205231,0.0309372,-0.00400543,0.0784302,-0.030098
21,7,10.0097,-0.000305176,-0.00167847,-2.42623,0.0553758,-0.0735371,0.0529073,0.0441149,-0.094062,0.146234,-0.126072,-0.0825704,0.00976563,0.0756073,0.0673676,0.0206757,0.0156784,-0.00171661,0.0269699,0.0374985,-9.97986,-0.00106812,0.00808716,-0.00228882,0.00846863,0.0226974,-0.0050354,0.0762558,-0.0322342
21,8,8.39467,0,-0.00198364,-2.42623,0.0562914,-0.0710957,0.055959,0.0447252,-0.0937568,0.146234,-0.125766,-0.0819601,0.0121307,0.0758362,0.0721359,0.0233078,0.0176239,0.0119781,0.030899,0.0386047,-9.97986,0.00209808,0.0178146,0.00545502,0.00667572,0.0279999,0.00179291,0.0810623,-0.0358582
21,9,7.282,-0.000305176,-0.000915527,-2.42623,0.0562914,-0.0741475,0.054128,0.0560167,-0.0919257,0.145013,-0.125461,-0.0819601,0.00926971,0.074234,0.0681305,0.0220871,0.0152206,0.0125885,0.0308228,0.0350952,-9.97986,-0.000686646,0.0337982,0.00766754,-0.00419617,0.0266266,0.00259399,0.090332,-0.0395584
22,0,7.03755,0.000305176,-0.00137329,-2.42653,0.0544603,-0.0747579,0.0538228,0.0645616,-0.0919257,0.145929,-0.126072,-0.0828756,0.0114822,0.0728607,0.0674438,0.0226212,0.0219345,0.0228882,0.0340652,0.0435257,-9.97986,-0.00179291,0.019455,0.00221252,-0.0147629,0.0288391,0.00965118,0.0898361,-0.0365829
22,1,7.30001,0.00213623,-0.00152588,-2.42592,0.0547655,-0.0735371,0.054128,0.0724962,-0.0916206,0.146234,-0.125156,-0.0837911,0.00961304,0.0726318,0.0708771,0.0189972,0.0201797,0.0319672,0.0325775,0.0460815,-9.97986,0.000801086,-0.000267029,0.000991821,-0.0293732,0.0275421,0.0125504,0.0906754,-0.0357056
22,2,9.18538,0.00152588,-0.000610352,-2.42714,0.0550706,-0.0744527,0.0556539,0.0993517,-0.090705,0.144708,-0.125766,-0.0844015,0.00770569,0.0702286,0.0663757,0.0217819,0.0181198,0.0366974,0.0262833,0.0413513,-9.97986,-0.00469208,0.0109863,-0.000801086,-0.0469971,0.0237656,0.00831604,0.0864792,-0.0368881
22,3,10.0097,0.0012207,0.0012207,-2.42867,0.0550706,-0.0747579,0.0526021,0.0953844,-0.0931465,0.143792,-0.126377,-0.0874532,0.00865936,0.0697708,0.0691223,0.0255585,0.0174713,0.0434113,0.0314713,0.0428772,-9.97986,0.00473022,0.0282288,0.0088501,-0.0552368,0.0282669,0.0151062,0.0907135,-0.0254059
22,4,10.0097,-0.000305176,-0.000610352,-2.42898,0.0535448,-0.0753682,0.0522969,0.0789049,-0.0943672,0.143182,-0.125156,-0.0874532,0.00831604,0.07061,0.0614548,0.0158691,0.0192261,0.0523376,0.0257874,0.0414658,-9.97986,0.00213623,0.0320435,0.0149536,-0.0683594,0.0218964,0.0110626,0.0907898,-0.0238419
22,5,10.0097,0.000915527,-0.000610352,-2.42837,0.0535448,-0.0753682,0.0529073,0.072191,-0.095893,0.143487,-0.127598,-0.0874532,0.0120926,0.071106,0.0662613,0.0187683,0.018692,0.0693893,0.0279236,0.038414,-9.97986,-0.000152588,0.0387955,0.0167084,-0.0786591,0.0227737,0.0044632,0.0902939,-0.0181961
22,6,10.0097,0.00213623,-0.00137329,-2.42776,0.0532396,-0.0759786,0.0532125,0.0700548,-0.0946723,0.142267,-0.127598,-0.0871481,0.00831604,0.0677872,0.0652695,0.0185013,0.0138474,0.0751495,0.0294113,0.0370789,-9.97986,0.00255585,0.0448227,0.0244522,-0.0845718,0.0238419,0.00350952,0.0871658,-0.00812531
22,7,10.0097,0,-0.0012207,-2.42898,0.0547655,-0.0753682,0.0516866,0.0694445,-0.0952827,0.143792,-0.127903,-0.0880636,0.00759125,0.071106,0.0606155,0.0174332,0.0149536,0.0887299,0.0260162,0.0406265,-9.97986,0.0018692,0.0426102,0.0296783,-0.0902557,0.0244904,0.00629425,0.0895309,-0.0025177
22,8,10.0097,0.00152588,-0.000610352,-2.42867,0.0544603,-0.075063,0.054128,0.0679186,-0.0946723,0.144098,-0.128208,-0.0859274,0.0119019,0.0713348,0.0566864,0.0141144,0.0122833,0.0933456,0.0249863,0.0331497,-9.97986,0.000686646,0.0492477,0.0349808,-0.087738,0.0274658,0.00705719,0.0866318,0.00526428
22,9,10.0097,0.000305176,-0.000305176,-2.42714,0.0541551,-0.0753682,0.0522969,0.0685289,-0.0937568,0.144403,-0.126987,-0.0856222,0.0151062,0.0584793,0.0587845,0.0155258,0.00988007,0.0988007,0.0268555,0.0375366,-9.97986,0.00183105,0.0520325,0.0270081,-0.0888443,0.0220871,0.00366211,0.0817108,0.0116348
23,0,10.0097,0,0.000305176,-2.42806,0.0550706,-0.0753682,0.0535176,0.0700548,-0.0937568,0.145624,-0.125766,-0.0844015,0.0116348,0.066185,0.0534821,0.0130081,0.0139236,0.0939941,0.0218201,0.0375366,-9.97986,0.00152588,0.0590897,0.0249481,-0.0849915,0.0239944,0.00240326,0.0791931,0.0187302
23,1,10.0097,-0.000305176,0.0012207,-2.42653,0.0553758,-0.0753682,0.054128,0.0694445,-0.0934516,0.145624,-0.126377,-0.0825704,0.00782013,0.0582886,0.055275,0.016098,0.00965118,0.0943375,0.0244904,0.0383377,-9.97986,0.000801086,0.0613403,0.0140381,-0.0771332,0.0210953,-0.00198364,0.081749,0.0310516
23,2,10.0097,0.000610352,0.000762939,-2.42562,0.0565965,-0.0741475,0.0544332,0.0706652,-0.0925361,0.146844,-0.124851,-0.0819601,0.0120163,0.0584412,0.0549698,0.0141525,0.00961304,0.0930023,0.0201797,0.0345993,-9.97986,0.000724792,0.0658035,0.00804901,-0.063591,0.019455,-0.00534058,0.0779343,0.0331116
23,3,10.0097,0.00152588,0.00137329,-2.42562,0.0569017,-0.0747579,0.0565694,0.07036,-0.0919257,0.148065,-0.124851,-0.0810445,0.0131989,0.0615692,0.0521469,0.0120163,0.00930786,0.0833893,0.0242615,0.0328064,-9.97986,0.00587463,0.0659561,0.00747681,-0.0491333,0.0183868,-0.00499725,0.0733566,0.043335
23,4,10.0097,0,0.00198364,-2.42562,0.0562914,-0.0741475,0.0538228,0.0709703,-0.0913154,0.146234,-0.123325,-0.0813497,0.0134277,0.0606155,0.0486374,0.0115585,0.0133896,0.0717545,0.021286,0.0389099,-9.97986,0.00324249,0.0727081,0.0116348,-0.0226593,0.0194931,-0.00541687,0.0662613,0.0526428
23,5,10.0097,0.00152588,0.00198364,-2.42409,0.0569017,-0.0744527,0.0538228,0.0712755,-0.0922309,0.147455,-0.12363,-0.0813497,0.00747681,0.0551605,0.0476074,0.0104904,0.0178909,0.0667191,0.0222015,0.0371552,-9.97986,0.00896454,0.0749207,0.0178146,-0.00419617,0.0244904,-0.0107574,0.0582886,0.0587845
23,6,10.0097,0.000305176,0.00228882,-2.42501,0.0559862,-0.0741475,0.0562642,0.0718859,-0.0913154,0.145929,-0.12363,-0.080129,0.0104141,0.0553131,0.0462341,0.0106812,0.0247574,0.0563812,0.0201035,0.0333405,-9.97986,0.0105286,0.0691605,0.0294113,0.0159836,0.0221252,-0.00926971,0.0559616,0.0714874
23,7,10.0097,0.000610352,0.000915527,-2.42653,0.0572069,-0.075063,0.054128,0.0459459,-0.0943672,0.147149,-0.125766,-0.0813497,0.0120926,0.0550461,0.0453568,0.0133514,0.0304031,0.0525284,0.0222015,0.035553,-9.97986,0.0110626,0.0783539,0.0364304,0.029335,0.0209045,-0.0141907,0.0489044,0.0791168
23,8,8.65499,0.000610352,0.000610352,-2.42623,0.0569017,-0.0735371,0.055959,0.0431993,-0.0931465,0.147149,-0.127292,-0.0813497,0.0107574,0.0534058,0.0432968,0.0130463,0.0321198,0.0379944,0.021019,0.0353241,-9.97986,0.00957489,0.0769806,0.0435638,0.0527954,0.0193787,-0.0218582,0.0439453,0.0852203
23,9,7.54689,0,0.000762939,-2.42592,0.0562914,-0.073232,0.0550435,0.0554064,-0.0928413,0.145624,-0.126072,-0.0816549,0.00808716,0.0521469,0.0378036,0.0128937,0.0263214,0.0272369,0.0187683,0.0333023,-9.97986,0.0132751,0.0798416,0.0526047,0.0715256,0.0212479,-0.0212479,0.0302505,0.0889206
24,0,7.30001,0.00152588,0.00213623,-2.42653,0.0553758,-0.0747579,0.054128,0.0639513,-0.0922309,0.146539,-0.126682,-0.0825704,0.0151062,0.0506973,0.0365067,0.0142288,0.0224686,0.0212479,0.0200272,0.0367355,-9.97986,0.0117111,0.0798798,0.0517654,0.0967026,0.0238037,-0.0147247,0.032196,0.0970459
24,1,7.54872,0.000610352,0.00289917,-2.42623,0.0559862,-0.073232,0.0553487,0.072191,-0.0925361,0.145318,-0.125766,-0.0831808,0.0130844,0.0481033,0.0307083,0.0104904,0.02491,0.0125504,0.0131226,0.036087,-9.97986,0.00839233,0.0779724,0.0515366,0.11795,0.0226974,-0.00663757,0.0273132,0.0996399
24,2,9.35964,0.000610352,0.00274658,-2.42562,0.0547655,-0.075063,0.0556539,0.0996569,-0.0894843,0.144708,-0.123325,-0.0837911,0.00587463,0.0530624,0.0339508,0.00988007,0.0255203,0.00526428,0.0168228,0.0360489,-9.97986,0.0137329,0.0793839,0.0581741,0.141716,0.0256729,0.00404358,0.0201797,0.106049
24,3,10.0097,0,0.00350952,-2.4302,0.0529344,-0.0753682,0.0522969,0.0926378,-0.0937568,0.142572,-0.126682,-0.0859274,0.0105667,0.047226,0.0329208,0.0122833,0.0239944,-0.000610352,0.015564,0.032692,-9.97986,0.00888824,0.0735474,0.0540161,0.159264,0.0229645,0.00362396,0.014534,0.10849
24,4,10.0097,-0.000610352,0.00183105,-2.42898,0.0544603,-0.0756734,0.0516866,0.0776842,-0.0949775,0.143487,-0.126377,-0.0868429,0.01194,0.0481796,0.0361252,0.0104523,0.0188065,-0.00637054,0.010376,0.0349045,-9.97986,0.00782013,0.0804901,0.0573349,0.169945,0.0209427,0.0056839,0.0043869,0.107651
24,5,10.0097,-0.000915527,0.000610352,-2.42959,0.0553758,-0.0759786,0.0513814,0.072191,-0.0952827,0.143487,-0.126682,-0.085317,0.00774384,0.0492859,0.0341034,0.0114822,0.0179291,-0.0146484,0.0117874,0.0368118,-9.97986,0.0100327,0.0817108,0.0608826,0.176697,0.0235367,0.00492096,-0.00450134,0.108795
24,6,10.0097,0.000305176,0.000762939,-2.42928,0.0529344,-0.0762837,0.0519917,0.0700548,-0.0971137,0.143182,-0.127292,-0.0874532,0.00988007,0.0455475,0.0293732,0.0102234,0.017128,-0.0164413,0.00904083,0.0349045,-9.97986,0.00259399,0.0858307,0.0561905,0.183105,0.0192261,0.00659943,-0.0131226,0.106392
24,7,10.0097,-0.000610352,0.000152588,-2.42837,0.0541551,-0.0753682,0.0516866,0.0688341,-0.0955879,0.142877,-0.127598,-0.0871481,0.0166321,0.0448227,0.0249863,0.00427246,0.0140381,-0.0185013,0.00900269,0.0329971,-9.97986,0.00804901,0.0936508,0.0570297,0.186691,0.0154495,0.0056839,-0.0113297,0.102768
24,8,10.0097,0,0.000305176,-2.42867,0.0535448,-0.0756734,0.0516866,0.0682238,-0.0949775,0.143792,-0.126987,-0.085317,0.01297,0.0393677,0.0312042,0.00713348,0.0104523,-0.0269699,0.00972748,0.0299072,-9.97986,0.00659943,0.0928879,0.0557327,0.203934,0.0164413,0.000114441,-0.0185394,0.104828
24,9,10.0097,0,0.00183105,-2.42745,0.0541551,-0.0759786,0.0535176,0.0697496,-0.0943672,0.144403,-0.125156,-0.0844015,0.0130081,0.0418091,0.0283051,0.00865936,0.0177383,-0.0270844,0.0088501,0.0324631,-9.97986,0.0127029,0.140076,0.0572205,0.226402,0.0138092,0.00137329,-0.0253296,0.103645
25,0,10.0097,0.000915527,0.00167847,-2.42837,0.0553758,-0.0756734,0.0510762,0.0697496,-0.0943672,0.144403,-0.126987,-0.0837911,0.00919342,0.0362015,0.022316,0.00724792,0.0270844,-0.0274658,0.00850677,0.032692,-9.97986,0.0164795,0.189056,0.0453949,0.235977,0.00747681,0.00209808,-0.0333405,0.0991058
25,1,10.0097,0,0.00167847,-2.42684,0.0547655,-0.0738423,0.054128,0.0706652,-0.0934516,0.145929,-0.126682,-0.0828756,0.0062561,0.0344086,0.0240707,0.00869751,0.0234222,-0.0292206,0.0062561,0.0278854,-9.97986,0.0187683,0.194855,0.0398254,0.253983,0.0088501,0.00541687,-0.0354004,0.099678
25,2,10.0097,0.000915527,0.00198364,-2.4247,0.055681,-0.0735371,0.0544332,0.0709703,-0.0922309,0.145624,-0.124851,-0.0810445,0.00801086,0.0302887,0.0267029,0.0110245,0.0254822,-0.0370407,0.00591278,0.030899,-9.97986,0.024147,0.195084,0.0427246,0.27771,0.00240326,-0.00133514,-0.0419235,0.0963974
25,3,10.0097,0,0.00213623,-2.42653,0.0559862,-0.073232,0.0553487,0.0718859,-0.0916206,0.145624,-0.124241,-0.0816549,0.00663757,0.0322342,0.0217438,0.00743866,0.0312042,-0.0365829,0.0062561,0.033226,-9.97986,0.0252533,0.186653,0.0417328,0.295563,0.00167847,-0.00106812,-0.0447845,0.0919724
25,4,10.0097,0,0.0012207,-2.4247,0.0562914,-0.0744527,0.0556539,0.072191,-0.0913154,0.147149,-0.124851,-0.0810445,0.0128937,0.0275803,0.023613,0.00553131,0.0339127,-0.0368881,0.00335693,0.0305557,-9.97986,0.0238037,0.177231,0.0444412,0.300674,0.000572205,0.00377655,-0.0455856,0.0946045
25,5,10.0097,-0.000610352,0.000305176,-2.42562,0.055681,-0.0753682,0.0538228,0.0712755,-0.0922309,0.146539,-0.125156,-0.0819601,0.0088501,0.0323486,0.016861,0.0062561,0.0368118,-0.0430298,0.0031662,0.0281525,-9.97986,0.0193405,0.165329,0.0361633,0.280876,0.00152588,0.00549316,-0.0505447,0.0951385
25,6,10.0097,-0.000610352,-0.00305176,-2.42531,0.0559862,-0.0741475,0.0547383,0.0709703,-0.0925361,0.146539,-0.12363,-0.0816549,0.00160217,0.0262833,0.0173187,0.00968933,0.041275,-0.0366211,-0.00720978,0.0357056,-9.97986,0.0162506,0.154572,0.0305557,0.233536,-0.00579834,0.0088501,-0.0514984,0.0890732
25,7,10.0097,0.00274658,-0.00396729,-2.42623,0.0553758,-0.0744527,0.0538228,0.0450304,-0.0946723,0.146234,-0.126682,-0.0837911,0.00839233,0.0284576,0.0168991,0.0101852,0.0421143,-0.0374603,-0.00190735,0.0283432,-9.97986,0.0185013,0.143509,0.0224686,0.197945,-0.00179291,0.00656128,-0.0521088,0.08461
25,8,8.51338,-0.00213623,-0.0050354,-2.42592,0.0553758,-0.0747579,0.0538228,0.0441149,-0.0937568,0.147455,-0.126072,-0.0825704,0.000686646,0.0216293,0.0188065,0.0107574,0.0381851,-0.050354,-0.00980377,0.0314331,-9.97986,0.0185776,0.12886,0.0108337,0.155106,-0.00148773,0.00183105,-0.0525284,0.0873566
25,9,7.44832,0,-0.00473022,-2.42592,0.0553758,-0.0744527,0.0538228,0.0541857,-0.0922309,0.145929,-0.126072,-0.0828756,-0.011673,0.0276947,0.0201416,0.0101471,0.045166,-0.0537872,-0.00907898,0.0344467,-9.97986,0.0223541,0.122986,0.00442505,0.111198,-0.00843048,0.00572205,-0.0508499,0.0832748
26,0,7.22737,0.00183105,-0.0038147,-2.42745,0.0547655,-0.075063,0.054128,0.0645616,-0.0916206,0.145929,-0.125156,-0.0831808,-0.0117493,0.0223923,0.0141525,0.0126648,0.0456238,-0.0548172,-0.00736237,0.0357056,-9.97986,0.02388,0.110092,0.00614166,0.080719,-0.00888824,0.00167847,-0.0529099,0.0766373
26,1,7.46938,0.0518799,-0.00244141,-2.42714,0.0565965,-0.0747579,0.0532125,0.0718859,-0.090705,0.161798,-0.124851,-0.0837911,-0.00038147,0.020752,0.0113678,0.0100708,0.0429535,-0.0654984,-0.01091,0.0363541,-9.97986,0.0208664,0.103798,0.00442505,0.0569534,-0.00923157,-0.00495911,-0.0544739,0.0733185
26,2,9.41976,0.00488281,-0.00152588,-2.42745,0.0541551,-0.0756734,0.0547383,0.098131,-0.0897895,0.151422,-0.12302,-0.0837911,0.00682831,0.0236511,0.0181198,0.0153351,0.0469971,-0.0738525,-0.0107956,0.0318909,-9.97986,0.0208282,0.0963593,0.00171661,0.0320816,-0.00926971,-0.00656128,-0.0507736,0.0703049
26,3,10.0097,0.000915527,-0.000762939,-2.42959,0.0532396,-0.0756734,0.0519917,0.0920275,-0.0949775,0.146539,-0.126682,-0.0865377,0.0189972,0.0240326,0.0115204,0.014267,0.0488281,-0.0772095,-0.00648499,0.0354767,-9.97986,0.0170517,0.0804138,0.00492096,0.0112915,-0.00923157,-0.00846863,-0.0562286,0.0696945
26,4,10.0097,0.00213623,-0.00152588,-2.42989,0.0535448,-0.0768941,0.0519917,0.0770738,-0.0965034,0.145013,-0.127292,-0.0871481,0.0282669,0.022049,0.0113678,0.00976563,0.0444031,-0.0772858,-0.0101089,0.0339127,-9.97986,0.0163269,0.0703812,0.014801,-0.00549316,-0.0101471,-0.00911713,-0.0671768,0.0628281
26,5,10.0097,0.000610352,-0.00167847,-2.42867,0.0544603,-0.0759786,0.0529073,0.0715807,-0.0937568,0.143182,-0.126072,-0.0868429,0.0372696,0.0229263,0.0189209,0.0141907,0.0460434,-0.0756836,-0.0111008,0.0320816,-9.97986,0.0156403,0.0631332,0.0127029,-0.0200272,-0.010376,-0.00740051,-0.066452,0.0612259
26,6,10.0097,0.00183105,-0.00167847,-2.42959,0.0535448,-0.0765889,0.0522969,0.07036,-0.0943672,0.142877,-0.127292,-0.0880636,0.0382614,0.0245667,0.0130081,0.0153351,0.044136,-0.0748062,-0.00827789,0.0286484,-9.97986,0.0183868,0.0574875,0.0220871,-0.0220871,-0.0113678,-0.00038147,-0.0676727,0.0583649
26,7,10.0097,0.0012207,-0.00137329,-2.42806,0.0544603,-0.0756734,0.0526021,0.0697496,-0.0952827,0.143182,-0.126987,-0.0871481,0.0281525,0.0198746,0.0130463,0.00907898,0.0387955,-0.0727081,-0.00888824,0.0234604,-9.97986,0.0181961,0.0498962,0.0238419,-0.0358963,-0.0111771,-0.00587463,-0.0667572,0.0562286
26,8,10.0097,0.000915527,-0.000915527,-2.42837,0.0538499,-0.0753682,0.0532125,0.0691393,-0.0955879,0.143487,-0.128208,-0.0862325,0.0270081,0.022316,0.0141144,0.015831,0.0381851,-0.0618744,-0.00694275,0.0204468,-9.97986,0.0175095,0.0397491,0.0286484,-0.0416565,-0.0125122,-0.00453949,-0.07164,0.0562286
26,9,10.0097,-0.000610352,-0.000762939,-2.42837,0.0544603,-0.075063,0.0529073,0.0691393,-0.094062,0.144098,-0.126987,-0.0844015,0.0206757,0.0185013,0.014801,0.0121689,0.0351334,-0.0621414,-0.00778198,0.0177383,-9.97986,0.0204468,0.0322723,0.0347137,-0.0557327,-0.0119019,-0.00530243,-0.0720978,0.0508881
27,0,10.0097,0.00152588,-0.0012207,-2.42592,0.0547655,-0.0753682,0.054128,0.0694445,-0.0925361,0.144098,-0.126377,-0.0847066,0.00728607,0.0206757,0.0137711,0.0157928,0.0438309,-0.0576019,-0.00484467,0.0111389,-9.97986,0.0181198,0.0279999,0.0372314,-0.0707245,-0.0128174,-0.00907898,-0.0733185,0.0512314
27,1,10.0097,0.000915527,-0.00137329,-2.42745,0.0538499,-0.075063,0.0550435,0.0697496,-0.094062,0.145318,-0.125461,-0.0850118,0.0108337,0.0217819,0.0121307,0.00797272,0.0359726,-0.0553513,-0.00762939,0.0117111,-9.97986,0.00644684,0.023613,0.0401306,-0.0867462,-0.00682831,-0.0107193,-0.0764465,0.0439453
27,2,10.0097,0.00183105,-0.00137329,-2.42562,0.0562914,-0.0747579,0.055959,0.0694445,-0.0910102,0.145624,-0.125156,-0.0831808,0.0100708,0.0180435,0.0101089,0.0137711,0.0341034,-0.0537109,-0.00305176,0.0150299,-9.97986,0.000991821,0.0125885,0.0494003,-0.106544,-0.01091,-0.0115204,-0.0780869,0.0357819
27,3,10.0097,0.00396729,-0.00183105,-2.42501,0.0565965,-0.073232,0.0547383,0.0709703,-0.0913154,0.145624,-0.124546,-0.0819601,0.00583649,0.0150299,0.0136185,0.0148773,0.0329208,-0.0442886,-0.00415802,0.0148773,-9.97986,-0.0131226,0.00652313,0.0549316,-0.128365,-0.0088501,-0.0106812,-0.0786209,0.0251389
27,4,10.0097,0,-0.00228882,-2.42531,0.0559862,-0.0744527,0.0538228,0.0709703,-0.090705,0.146539,-0.124546,-0.0813497,0.00770569,0.014801,0.0117111,0.0104904,0.0310135,-0.0364685,-0.00247955,0.0088501,-9.97986,0.001297,-0.00461578,0.0517273,-0.152435,-0.00713348,-0.0178146,-0.0797653,0.0139999
27,5,10.0097,-0.000305176,-0.00137329,-2.42531,0.0569017,-0.0744527,0.0550435,0.0715807,-0.0916206,0.145318,-0.124851,-0.0816549,0.010376,0.014534,0.00965118,0.0135422,0.027771,-0.0316238,0.00221252,0.00934601,-9.97986,0.0230789,-0.00534058,0.0580978,-0.16922,-0.0062561,-0.0175858,-0.076828,0.01091
27,6,10.0097,0.000915527,-0.00183105,-2.42623,0.0575121,-0.0741475,0.0556539,0.0715807,-0.0903999,0.147149,-0.128208,-0.0810445,0.0124741,0.0151062,0.00827789,0.0156021,0.0229645,-0.0294495,-7.62939e-005,0.00644684,-9.97986,0.0477219,-0.00804901,0.0639725,-0.180588,-0.00804901,-0.0190735,-0.0772858,0.00469208
27,7,10.0097,0.00183105,-0.00244141,-2.42501,0.0565965,-0.0744527,0.0535176,0.0459459,-0.0949775,0.146234,-0.126072,-0.0825704,0.0106049,0.0131226,0.0087738,0.0094986,0.0268936,-0.0304794,-0.00274658,0.00923157,-9.97986,0.0691223,-0.00785828,0.0723648,-0.195351,-0.00896454,-0.0209808,-0.077858,0.00507355
27,8,8.53963,0.000305176,-0.00320435,-2.42562,0.0569017,-0.0729268,0.0535176,0.0431993,-0.0931465,0.146539,-0.126377,-0.0816549,0.0133133,0.0112915,0.00537872,0.0111389,0.0205612,-0.0188446,0.00400543,0.00907898,-9.97986,0.062294,-0.013237,0.0751877,-0.21492,-0.00766754,-0.0270462,-0.079689,0.0131226
27,9,7.47762,-0.000305176,-0.00167847,-2.42714,0.055681,-0.0744527,0.0553487,0.054796,-0.0931465,0.146234,-0.126072,-0.0828756,0.00495911,0.0101471,0.0102234,0.00453949,0.0162125,-0.0217056,0.00110626,0.0116348,-9.97986,0.0405884,-0.0159073,0.086937,-0.221405,-0.00629425,-0.0280762,-0.0806808,0.0163269
28,0,7.2527,-0.000305176,-0.000457764,-2.42623,0.0541551,-0.0735371,0.0547383,0.0639513,-0.0916206,0.146234,-0.125156,-0.0822652,0.00648499,0.0126648,0.00595093,0.0104523,0.0156403,-0.0175476,0.00514984,0.0094223,-9.97986,0.0161743,-0.0206375,0.0943375,-0.226326,-0.00995636,-0.0236511,-0.0770187,0.0169373
28,1,7.54964,0.000610352,-0.000152588,-2.42714,0.0559862,-0.0738423,0.0584004,0.0728014,-0.0922309,0.145318,-0.125766,-0.0828756,0.00812531,0.0148392,0.0082016,0.0126648,0.0155258,-0.0156403,0.00362396,0.014534,-9.97986,-0.00823975,-0.0252151,0.10807,-0.226364,-0.00812531,-0.0165939,-0.0774765,0.0227737
28,2,9.48781,0.00152588,0.000457764,-2.42592,0.0538499,-0.075063,0.0556539,0.0975206,-0.090705,0.145624,-0.123935,-0.0834859,0.00572205,0.00919342,0.00518799,0.00595093,0.0101852,-0.00862122,0.00343323,0.0129318,-9.97986,-0.012207,-0.0289536,0.123482,-0.225906,-0.00720978,-0.0160599,-0.0696564,0.0245667
28,3,10.0097,0.00244141,0.0012207,-2.42837,0.0529344,-0.075063,0.0522969,0.0923326,-0.0934516,0.144098,-0.124546,-0.0862325,0.00972748,0.0131989,0.00835419,0.0114441,0.0056076,0.00602722,0.00629425,0.00812531,-9.97986,-0.000114441,-0.0311279,0.138283,-0.225639,-0.00572205,-0.0143433,-0.0662613,0.0296021
28,4,10.0097,0.0012207,-0.000457764,-2.42989,0.0544603,-0.0759786,0.0553487,0.0782946,-0.0943672,0.143792,-0.127292,-0.0871481,0.00602722,0.0132751,0.00770569,0.00873566,0.00118256,0.0094986,0.0056839,0.0152206,-9.97986,0.0134659,-0.0326157,0.145416,-0.234985,-0.00457764,-0.0144958,-0.062027,0.034256
28,5,10.0097,-0.000305176,-0.000305176,-2.42898,0.0544603,-0.0759786,0.0519917,0.0718859,-0.0949775,0.144098,-0.127598,-0.0868429,0.0101471,0.0123978,0.0069809,0.00545502,0.00209808,0.0137711,0.00518799,0.0151825,-9.97986,0.0221252,-0.0321198,0.14782,-0.234261,-0.00137329,-0.0141525,-0.0554276,0.0381851
28,6,10.0097,0.00183105,-0.000762939,-2.42898,0.0529344,-0.0759786,0.0513814,0.0712755,-0.0946723,0.143792,-0.127292,-0.0871481,0.00465393,0.0100708,0.00450134,0.00408173,-0.00255585,0.0151443,0.00511169,0.0131226,-9.97986,0.0320435,-0.0290298,0.137672,-0.232277,-0.00190735,-0.0124359,-0.04776,0.0434494
28,7,10.0097,0.00183105,-0.000152588,-2.42867,0.0553758,-0.0768941,0.0547383,0.0709703,-0.0943672,0.144708,-0.126377,-0.0871481,0.0094986,0.01091,0.00629425,0.00759125,-0.00102997,0.0151443,0.00389099,0.0117493,-9.97986,0.0350952,-0.0315094,0.108871,-0.231285,0,-0.0133514,-0.0333023,0.0510025
28,8,10.0097,0,0.000457764,-2.42989,0.0529344,-0.075063,0.0529073,0.0694445,-0.0949775,0.142572,-0.125461,-0.0868429,0.00812531,0.0165939,0.00663757,0.00709534,-0.000915527,0.0152588,0.00904083,0.0205231,-9.97986,0.032196,-0.0282288,0.0683212,-0.224113,0.000114441,-0.0130463,-0.018692,0.055809
28,9,10.0097,0.000610352,-0.000610352,-2.42714,0.0538499,-0.0756734,0.0526021,0.0694445,-0.0937568,0.145318,-0.126072,-0.0844015,0.00534058,0.0127029,0.00335693,0.00911713,-0.00846863,0.0124359,0.00526428,0.0142288,-9.97986,0.0226974,-0.0331497,0.0333786,-0.225029,-0.00652313,-0.0135803,-0.0111008,0.0593948
29,0,10.0097,-0.000305176,0,-2.42745,0.0535448,-0.0753682,0.0565694,0.0700548,-0.0937568,0.145929,-0.126377,-0.0847066,0.0159454,0.0180435,0.00946045,0.0119019,-0.00396729,0.0257874,0.01091,0.0130081,-9.97986,0.0297546,-0.034256,-0.00236511,-0.224304,0.00259399,-0.0131226,-0.00415802,0.065155
29,1,10.0097,0.000610352,-0.000305176,-2.42776,0.0572069,-0.0735371,0.0516866,0.0712755,-0.0928413,0.145318,-0.124851,-0.0840963,0.0126648,0.0137711,0.00358582,0.0121689,-0.0138474,0.0234222,0.00850677,0.0157166,-9.97986,0.0282288,-0.0345993,-0.0373077,-0.229607,0.00255585,-0.0107193,0.00133514,0.0711823
29,2,10.0097,0,0.000762939,-2.42653,0.0565965,-0.0738423,0.0532125,0.0688341,-0.0916206,0.146539,-0.124241,-0.0819601,0.0138474,0.0183868,0.00720978,0.00740051,-0.00778198,0.0310516,0.010376,0.011673,-9.97986,0.0271225,-0.0429916,-0.0717163,-0.231743,-0.00175476,-0.00972748,0.0114441,0.0772476
29,3,10.0097,0.0012207,0.000915527,-2.4247,0.0559862,-0.0738423,0.0498555,0.07036,-0.0919257,0.146234,-0.124546,-0.0822652,0.0144196,0.0154114,0.0101852,0.00965118,-0.00602722,0.0310516,0.0107574,0.0141525,-9.97986,0.0230026,-0.0386429,-0.106773,-0.22892,-0.000762939,-0.00511169,0.0237656,0.0770569
29,4,10.0097,0.000915527,-0.00137329,-2.4247,0.0575121,-0.0738423,0.0538228,0.0715807,-0.0919257,0.147149,-0.126072,-0.0813497,0.00915527,0.0186539,0.00656128,0.00862122,-0.0056839,0.0391388,0.00679016,0.0131607,-9.97986,0.0254822,-0.042305,-0.130157,-0.245667,-0.00141144,-0.0118637,0.0295639,0.0765228
29,5,10.0097,-0.0012207,-0.0012207,-2.42592,0.0569017,-0.0747579,0.0550435,0.07036,-0.0922309,0.14776,-0.125156,-0.0816549,-0.0231552,0.0191879,0.0100327,0.00938416,-0.0101089,0.0488281,0.00740051,0.0159836,-9.97986,0.030899,-0.0480652,-0.151024,-0.260201,-0.00160217,-0.00621796,0.0336075,0.0712204
29,6,10.0097,-0.000305176,-0.000457764,-2.4244,0.0562914,-0.073232,0.0544332,0.0712755,-0.0928413,0.145929,-0.12363,-0.0807394,-0.0413895,0.0242615,0.0125504,0.0119781,-0.00492096,0.0498962,0.00530243,0.0190735,-9.97986,0.0273895,-0.0458908,-0.169296,-0.270119,-0.00419617,-0.00720978,0.0394058,0.0709915
29,7,10.0097,0.000915527,-0.00213623,-2.42592,0.0565965,-0.0741475,0.0522969,0.04442,-0.0943672,0.146844,-0.126377,-0.0819601,-0.0478745,0.021553,0.0110245,0.00946045,-0.0113297,0.0547028,0.00484467,0.0232315,-9.97986,0.0228119,-0.0475311,-0.179291,-0.275764,-0.00610352,-0.00854492,0.0436401,0.0695419
29,8,8.41695,0.00305176,-0.00183105,-2.42531,0.0562914,-0.0738423,0.0538228,0.0450304,-0.0943672,0.146539,-0.126072,-0.0834859,-0.0476074,0.0284958,0.0137329,0.00961304,-0.00537872,0.0569153,0.00751495,0.015831,-9.97986,0.0162888,-0.0479889,-0.192261,-0.293694,-0.00457764,-0.00507355,0.0531769,0.0631714
29,9,7.35402,0.000305176,-0.00213623,-2.42562,0.0553758,-0.075063,0.0522969,0.0551012,-0.0922309,0.145318,-0.126072,-0.0828756,-0.0285721,0.0257111,0.0170517,0.00846863,-0.00354767,0.0575638,0.0102615,0.0239563,-9.97986,0.0094223,-0.0514221,-0.19474,-0.313301,-0.00118256,-0.00747681,0.0548172,0.0528336
30,0,7.13979,0.000915527,-0.00152588,-2.42531,0.0547655,-0.0741475,0.054128,0.0645616,-0.0919257,0.144708,-0.124851,-0.0828756,-0.0109863,0.0272369,0.0104904,0.0123978,-0.00526428,0.0598907,0.0148773,0.0270081,-9.97986,-0.000495911,-0.0522614,-0.197258,-0.329094,-0.00339508,-0.0125122,0.0656509,0.0396347
30,1,7.43032,0.000610352,-0.00137329,-2.42714,0.0544603,-0.075063,0.054128,0.0731066,-0.0925361,0.144708,-0.125766,-0.0834859,0.0147247,0.0255585,0.0179672,0.0153732,-0.00328064,0.0613403,0.01297,0.0279236,-9.97986,-0.00904083,-0.0498199,-0.194054,-0.342331,-0.00160217,-0.00686646,0.066452,0.0190735
30,2,9.30532,-0.000610352,0.000152588,-2.42653,0.055681,-0.0744527,0.054128,0.0996569,-0.0897895,0.143487,-0.124241,-0.0837911,0.0403214,0.030899,0.0184631,0.00675201,0.00141144,0.0592422,0.015831,0.0305939,-9.97986,-0.0252533,-0.0495911,-0.18795,-0.355415,0.000228882,-0.00785828,0.0748825,-0.0105667
30,3,10.0097,0.00183105,0.00167847,-2.42959,0.0541551,-0.0753682,0.0522969,0.0917223,-0.0928413,0.142267,-0.125461,-0.0862325,0.0437927,0.0260544,0.0177002,0.0111008,-0.000114441,0.0477982,0.0146484,0.0209808,-9.97986,-0.0398636,-0.0520325,-0.181351,-0.357742,0.0018692,-0.00606537,0.0785828,-0.0427246
30,4,10.0097,-0.000305176,0,-2.42989,0.0535448,-0.0756734,0.0532125,0.0770738,-0.0949775,0.142877,-0.127292,-0.0871481,0.042572,0.0277328,0.0183868,0.0131989,0.00610352,0.0445557,0.017128,0.0183487,-9.97986,-0.0457382,-0.0521088,-0.171471,-0.35759,0.000305176,-0.00804901,0.085144,-0.0653839
30,5,10.0097,-0.000610352,0.000762939,-2.42837,0.0559862,-0.0759786,0.0522969,0.0728014,-0.0937568,0.143182,-0.127292,-0.0871481,0.0258255,0.0274658,0.0193024,0.011673,0.00484467,0.0431442,0.0192261,0.0100708,-9.97986,-0.050354,-0.0494766,-0.162811,-0.358582,0.00518799,-0.00846863,0.0862885,-0.0900269
30,6,10.0097,0.000915527,-0.000457764,-2.42928,0.0547655,-0.0768941,0.0526021,0.0712755,-0.0949775,0.143487,-0.127598,-0.0874532,0.0138474,0.0307465,0.0197601,0.0137711,-0.000572205,0.0365067,0.0205994,0.0043869,-9.97986,-0.0535202,-0.0522995,-0.150185,-0.361252,0.00484467,-0.00728607,0.0941467,-0.106506
30,7,10.0097,0.000610352,-0.000457764,-2.42928,0.0538499,-0.0756734,0.0519917,0.0694445,-0.0943672,0.141656,-0.126682,-0.0868429,0.0128174,0.0336075,0.0214005,0.0128174,0.00785828,0.033989,0.0251389,0.000152588,-9.97986,-0.033989,-0.057373,-0.145302,-0.362015,0.00671387,-0.00968933,0.0992203,-0.116768
30,8,10.0097,0.000915527,-0.000610352,-2.42745,0.0550706,-0.075063,0.0526021,0.0685289,-0.094062,0.143487,-0.128208,-0.0859274,0.0212097,0.0338745,0.0220108,0.0143814,0.00499725,0.0357056,0.024147,-0.00526428,-9.97986,-0.0287628,-0.0551605,-0.13176,-0.369377,0.0107956,-0.00701904,0.101852,-0.129204
30,9,10.0097,-0.000305176,-0.000152588,-2.42714,0.0544603,-0.0756734,0.0538228,0.0715807,-0.0934516,0.143792,-0.126682,-0.0856222,0.0213623,0.0307846,0.0195313,0.0113297,0.00579834,0.0262833,0.0213623,-0.00572205,-9.97986,-0.0246429,-0.0498199,-0.120697,-0.37159,0.0142288,-0.00751495,0.101967,-0.138855
31,0,10.0097,0,-0.000152588,-2.42806,0.0538499,-0.0747579,0.0526021,0.0688341,-0.0934516,0.145013,-0.126072,-0.0844015,0.0128174,0.0272751,0.017128,0.0113678,0.00984192,0.0255203,0.0284195,-0.00591278,-9.97986,-0.0184631,-0.0528336,-0.11364,-0.367661,0.0133133,-0.00797272,0.105362,-0.150223
31,1,10.0097,0.000610352,0.00167847,-2.42653,0.0541551,-0.0747579,0.0538228,0.07036,-0.0928413,0.144403,-0.125461,-0.0828756,0.0202942,0.0239944,0.0172424,0.014267,0.0101089,0.0174713,0.0303268,-0.0117493,-9.97986,0.01091,-0.0517273,-0.100555,-0.348244,0.0196075,-0.0082016,0.105438,-0.155716
31,2,10.0097,0.000610352,0.00213623,-2.42501,0.0562914,-0.0741475,0.0547383,0.072191,-0.0919257,0.146539,-0.124851,-0.0822652,0.0262451,0.025444,0.0127411,0.00892639,0.0120163,0.020752,0.0278091,-0.00602722,-9.97986,0.0453949,-0.0508881,-0.0905609,-0.333595,0.021286,-0.00328064,0.105667,-0.161514
31,3,10.0097,0,0.00228882,-2.4247,0.0569017,-0.0762837,0.0547383,0.072191,-0.0922309,0.146539,-0.124851,-0.0807394,0.0149918,0.0178909,0.00984192,0.00839233,0.0116348,0.0201797,0.0286865,-0.00473022,-9.97986,0.057373,-0.0461197,-0.0775909,-0.323067,0.0235367,-0.00328064,0.100174,-0.162125
31,4,10.0097,-0.000610352,0.00213623,-2.4244,0.0559862,-0.0741475,0.055959,0.0709703,-0.0937568,0.146539,-0.124546,-0.0804342,0.00396729,0.017395,0.0115585,0.0122833,0.0135422,0.017662,0.0309372,0.000228882,-9.97986,0.0597382,-0.0477219,-0.067749,-0.289764,0.0224686,-0.00640869,0.0938034,-0.158043
31,5,10.0097,0.000305176,0.00213623,-2.42501,0.0559862,-0.0744527,0.054128,0.0712755,-0.0910102,0.146844,-0.125156,-0.0810445,-0.00469208,0.0172806,0.0063324,0.0118256,0.0230789,0.00667572,0.03479,0.0044632,-9.97986,0.07164,-0.0510788,-0.060463,-0.268898,0.0255203,-0.0025177,0.0940704,-0.155296
31,6,10.0097,0.00183105,0.00335693,-2.4244,0.0572069,-0.0738423,0.055959,0.07036,-0.0922309,0.147149,-0.12363,-0.0798238,-0.00759125,0.0147629,0.00720978,0.0109482,0.0172806,0.0104523,0.0339127,0.000839233,-9.97986,0.0839233,-0.0464249,-0.0532532,-0.237961,0.0288391,-0.00312805,0.0885391,-0.156708
31,7,10.0097,-0.000305176,0.000915527,-2.42684,0.0562914,-0.075063,0.0550435,0.0447252,-0.095893,0.146844,-0.126072,-0.0816549,-0.0158691,0.0109863,0.0043869,0.00988007,0.0117874,0.022583,0.0318909,0.00301361,-9.97986,0.0759888,-0.0468445,-0.0485992,-0.215225,0.0280762,-0.00728607,0.0783157,-0.157547
31,8,8.50087,0.00244141,0.00106812,-2.42562,0.0559862,-0.0735371,0.0553487,0.0441149,-0.0931465,0.147455,-0.126072,-0.0816549,-0.0154114,0.0117111,0.00591278,0.00873566,0.0141144,0.0460434,0.0331116,0.00984192,-9.97986,0.0726318,-0.0415421,-0.0378799,-0.199127,0.0299454,-0.00682831,0.0728226,-0.154877
31,9,7.36928,0.000915527,0.000762939,-2.42592,0.055681,-0.0744527,0.0553487,0.0541857,-0.0913154,0.144708,-0.125766,-0.0828756,0.00831604,0.0138092,0.00804901,0.00907898,0.0131989,0.0667953,0.0310135,0.00640869,-9.97986,0.052948,-0.0392914,-0.0335693,-0.1828,0.0268173,-0.00629425,0.0542068,-0.149193
32,0,7.15108,0.000305176,0.00183105,-2.42592,0.0562914,-0.0735371,0.0532125,0.0645616,-0.0928413,0.145013,-0.125766,-0.0822652,0.0396729,0.0170898,0.00892639,0.0123215,0.0115967,0.0894547,0.0372314,0.00766754,-9.97986,0.0385284,-0.0302887,-0.0262451,-0.161057,0.0324631,-0.0062561,0.055275,-0.144081
32,1,7.44039,0.00244141,0.00259399,-2.42623,0.0547655,-0.0744527,0.0544332,0.0718859,-0.0916206,0.145013,-0.125766,-0.0822652,0.0421906,0.00778198,0.00526428,0.00999451,0.0117874,0.110588,0.0370026,0.0150681,-9.97986,0.0107574,-0.0352478,-0.0250626,-0.150795,0.0331497,-0.0112152,0.0428009,-0.139465
32,2,9.21315,0.00183105,0.00198364,-2.42714,0.0547655,-0.0747579,0.0547383,0.0984362,-0.0900947,0.144098,-0.124546,-0.0840963,0.0317764,0.00671387,0.00320435,0.00652313,0.0163651,0.124016,0.0350571,0.0176239,-9.97986,-0.001297,-0.0311661,-0.0144196,-0.140381,0.0324631,-0.00770569,0.0343323,-0.131836
32,3,10.0097,0,0.00305176,-2.42867,0.0541551,-0.0753682,0.0532125,0.0923326,-0.0934516,0.143792,-0.126682,-0.085317,0.0292206,0.0114059,0.00709534,0.0111771,0.0123978,0.135956,0.0395203,0.0189209,-9.97986,0.00572205,-0.0298691,-0.00534058,-0.130577,0.0346375,-0.00736237,0.02491,-0.12928
32,4,10.0097,0.000305176,0.00152588,-2.42959,0.0529344,-0.0759786,0.0513814,0.0767687,-0.0955879,0.143487,-0.126987,-0.0862325,0.0240326,0.0104904,0.00740051,0.0102615,0.00957489,0.133209,0.039978,0.023613,-9.97986,0.0315475,-0.0313187,0.00495911,-0.117416,0.0374985,-0.00137329,0.0189972,-0.12249
32,5,10.0097,-0.000305176,0.000457764,-2.42898,0.0541551,-0.0759786,0.0529073,0.072191,-0.0952827,0.143487,-0.127292,-0.0868429,0.030899,0.00679016,0.00450134,0.00514984,0.0123978,0.131226,0.0421143,0.0201797,-9.97986,0.0735092,-0.0304413,0.0163269,-0.129738,0.0343704,-0.00038147,0.0100708,-0.120506
32,6,10.0097,-0.000610352,-0.00213623,-2.42959,0.0544603,-0.0768941,0.0526021,0.0712755,-0.0952827,0.143792,-0.127598,-0.0877584,0.0452042,0.00808716,0.00720978,0.00919342,0.013237,0.125809,0.0423431,0.0197983,-9.97986,0.08461,-0.0276184,0.0287628,-0.168304,0.0362396,-0.00312805,-0.000190735,-0.116158
32,7,10.0097,0.00213623,-0.00167847,-2.42959,0.0535448,-0.0759786,0.0526021,0.0685289,-0.0943672,0.143792,-0.127903,-0.0877584,0.0506592,0.0111008,0.00522614,0.00835419,0.00957489,0.12207,0.0454712,0.0231552,-9.97986,0.0740814,-0.0272369,0.0321198,-0.181389,0.0345612,-0.00396729,-0.00732422,-0.10498
32,8,10.0097,-0.000305176,-0.000915527,-2.42867,0.0541551,-0.0756734,0.0522969,0.0676134,-0.095893,0.144098,-0.128208,-0.0862325,0.0506973,0.0111008,0.00209808,0.0116348,0.0152206,0.114059,0.0418091,0.0210953,-9.97986,0.0656128,-0.0230026,0.0531006,-0.189934,0.0354385,-0.00110626,-0.0124359,-0.100937
32,9,10.0097,-0.000305176,-0.000305176,-2.42745,0.0553758,-0.075063,0.0529073,0.0691393,-0.094062,0.145013,-0.126072,-0.085317,0.0448227,0.00988007,0.00534058,0.0130844,0.00957489,0.111427,0.0448227,0.022583,-9.97986,0.0643539,-0.0246429,0.0574875,-0.190353,0.0389481,0.00110626,-0.0227356,-0.0942612
33,0,10.0097,0.00152588,0.000610352,-2.42714,0.0541551,-0.0756734,0.0532125,0.0688341,-0.0934516,0.144098,-0.125461,-0.085317,0.0355911,0.00759125,0.00713348,0.0113678,0.0178146,0.114784,0.0455093,0.0209427,-9.97986,0.0811386,-0.0223923,0.0650024,-0.186501,0.0370407,-0.000762939,-0.0325012,-0.0933075
33,1,10.0097,0.00152588,0.00167847,-2.42745,0.0550706,-0.0744527,0.0544332,0.0688341,-0.0928413,0.145318,-0.126377,-0.0837911,0.0381088,0.0115204,0.00740051,0.0127029,0.014801,0.113487,0.0419617,0.0254059,-9.97986,0.077858,-0.0178146,0.0778961,-0.170593,0.0394821,-0.00377655,-0.0363159,-0.0879669
33,2,10.0097,-0.000610352,0.00335693,-2.42562,0.0559862,-0.0741475,0.0553487,0.07036,-0.0922309,0.145929,-0.125156,-0.0810445,0.0246048,0.00858307,0.00732422,0.0112152,0.0107193,0.106964,0.0439072,0.0206757,-9.97986,0.0620651,-0.0218964,0.0858688,-0.13588,0.0416183,0.00179291,-0.0397873,-0.0827408
33,3,10.0097,0.000915527,0.00427246,-2.42531,0.0562914,-0.0747579,0.0556539,0.0700548,-0.0931465,0.146234,-0.123935,-0.0807394,0.0107956,0.0141144,0.00980377,0.0130463,0.0177765,0.104446,0.0447083,0.0242615,-9.97986,0.0476837,-0.0127792,0.0884247,-0.0918961,0.0356674,-0.000724792,-0.0452423,-0.0766754
33,4,10.0097,0.0012207,0.00427246,-2.4247,0.0562914,-0.0735371,0.0562642,0.0706652,-0.0910102,0.146844,-0.123935,-0.0810445,0.00244141,0.0177383,0.0146866,0.0136185,0.0199509,0.0982285,0.039444,0.0190735,-9.97986,0.0270081,-0.0104141,0.100098,-0.0629044,0.0385284,-0.000305176,-0.0486374,-0.0712585
33,5,10.0097,0.000305176,0.00350952,-2.42592,0.0572069,-0.0738423,0.0544332,0.07036,-0.0919257,0.145929,-0.124546,-0.0810445,-0.00656128,0.0153351,0.0151825,0.00896454,0.0177765,0.0977707,0.0450134,0.019722,-9.97986,0.0273895,-0.00659943,0.105667,-0.0375366,0.0353241,0.00289917,-0.0495911,-0.0656509
33,6,10.0097,-0.00152588,0.0038147,-2.42623,0.0578172,-0.073232,0.0556539,0.07036,-0.0916206,0.14776,-0.124546,-0.080129,-0.0115204,0.0200653,0.0147247,0.0114441,0.0240326,0.0938416,0.0492477,0.0180435,-9.97986,0.0221252,-0.00114441,0.112267,-0.0172424,0.0341797,0.00751495,-0.0549316,-0.0626373
33,7,10.0097,0,0.00106812,-2.42653,0.0559862,-0.0741475,0.0538228,0.04442,-0.0949775,0.145624,-0.125461,-0.0810445,-0.00823975,0.018425,0.0213623,0.0115204,0.0214005,0.0830078,0.044632,0.0252151,-9.97986,0.0124741,0.0138855,0.118828,-0.00629425,0.0337982,0.00976563,-0.0542831,-0.0596619
33,8,8.38185,-0.000305176,-0.000305176,-2.4247,0.055681,-0.0744527,0.054128,0.0441149,-0.0931465,0.147455,-0.126072,-0.0810445,-0.00328064,0.0164795,0.0130081,0.014801,0.0196457,0.0786972,0.043869,0.0207901,-9.97986,0.0171661,0.026207,0.116272,-0.00320435,0.0365829,0.0114441,-0.0574875,-0.0524902
33,9,7.37111,0.00183105,0.00167847,-2.42531,0.055681,-0.075063,0.0553487,0.054796,-0.0934516,0.146539,-0.126072,-0.0816549,0.0044632,0.018425,0.0205231,0.0112534,0.0239944,0.071907,0.0443268,0.0244904,-9.97986,0.0131607,0.0281906,0.114555,0.00705719,0.0314713,0.0112152,-0.0559235,-0.0484848
34,0,7.08821,0.000610352,0.00167847,-2.42653,0.055681,-0.0747579,0.054128,0.0645616,-0.0910102,0.145013,-0.126377,-0.0822652,0.0101852,0.0160599,0.017128,0.00923157,0.0263214,0.0635529,0.0404739,0.0286484,-9.97986,0.0144196,0.0308609,0.122986,0.0263596,0.0312424,0.0138474,-0.056076,-0.0408173
34,1,7.36379,-0.000305176,0.00183105,-2.42562,0.0553758,-0.0738423,0.0529073,0.0731066,-0.0919257,0.145929,-0.125156,-0.0828756,0.0216293,0.0146103,0.0152206,0.00782013,0.0234985,0.0605392,0.0420761,0.0246048,-9.97986,0.0131226,0.0376129,0.115852,0.0366211,0.0293732,0.0169754,-0.0553894,-0.0376129
34,2,9.20857,-0.0012207,0.00244141,-2.42592,0.0538499,-0.0744527,0.0550435,0.098131,-0.088874,0.144708,-0.123935,-0.0837911,0.0253296,0.0141144,0.0186157,0.01091,0.0309372,0.0566864,0.0405884,0.0283813,-9.97986,0.0148392,0.0499725,0.116425,0.0419235,0.0289154,0.011673,-0.0521088,-0.0331116
34,3,10.0097,0.000305176,0.00289917,-2.42989,0.0535448,-0.0762837,0.0526021,0.0950792,-0.0934516,0.144708,-0.125766,-0.0859274,0.030365,0.0188065,0.0211334,0.0115585,0.0326538,0.055809,0.0408173,0.0250244,-9.97986,0.00282288,0.0521088,0.11795,0.0498199,0.029335,0.0109863,-0.0508881,-0.030899
34,4,10.0097,0.000610352,0.00244141,-2.42837,0.0541551,-0.0765889,0.0519917,0.0840929,-0.095893,0.144403,-0.126072,-0.0862325,0.0242615,0.0160599,0.0193405,0.00682831,0.0401688,0.0563812,0.0431061,0.0265884,-9.97986,0.0056076,0.0529099,0.111618,0.0692368,0.0262451,0.0106049,-0.0407791,-0.0258255
34,5,10.0097,0.000610352,0.00213623,-2.42776,0.0541551,-0.0762837,0.050771,0.0728014,-0.0952827,0.143487,-0.127292,-0.0859274,0.00675201,0.0217819,0.0236511,0.00915527,0.0354767,0.0551987,0.0386047,0.0283432,-9.97986,0.0119019,0.0428772,0.110931,0.0821304,0.0268555,0.00968933,-0.0368118,-0.0220871
34,6,10.0097,0.0012207,0.00274658,-2.42837,0.0535448,-0.0775044,0.0529073,0.0697496,-0.0949775,0.145013,-0.128208,-0.0871481,-0.00534058,0.0224304,0.020256,0.0111771,0.0363159,0.0534821,0.0389481,0.0258255,-9.97986,0.0112152,0.042305,0.10704,0.111389,0.0280762,0.00576019,-0.0258255,-0.0172424
34,7,10.0097,0.000305176,0.00228882,-2.42928,0.0547655,-0.075063,0.0529073,0.0728014,-0.094062,0.143487,-0.127598,-0.085317,-0.0108719,0.0237274,0.0203705,0.0101089,0.0338364,0.0496674,0.0376129,0.02491,-9.97986,0.0243759,0.0382996,0.0993729,0.136642,0.0211716,-0.000610352,-0.0178528,-0.0141525
34,8,10.0097,0,0.00228882,-2.42928,0.0544603,-0.0753682,0.0516866,0.0688341,-0.0931465,0.143792,-0.126987,-0.085317,-0.00362396,0.0267029,0.0254822,0.0173187,0.0365448,0.0487518,0.0449371,0.0310898,-9.97986,0.0300598,0.038414,0.0953674,0.152206,0.0250626,0.0056839,-0.00694275,-0.00541687
34,9,10.0097,0,0.00213623,-2.42867,0.0550706,-0.075063,0.0535176,0.0691393,-0.0922309,0.144708,-0.127903,-0.0847066,-0.0128555,0.0213623,0.0169754,0.00591278,0.0289536,0.0366211,0.0388718,0.0227356,-9.97986,0.020752,0.0318527,0.0888062,0.168915,0.0209427,-0.000228882,-0.0115585,-0.00648499
35,0,10.0097,-0.000610352,0.00274658,-2.42714,0.0553758,-0.075063,0.0538228,0.0673082,-0.094062,0.145318,-0.126072,-0.0840963,-0.00694275,0.0271225,0.0233459,0.017395,0.0320816,0.0389481,0.0395584,0.030365,-9.97986,0.00988007,0.0274277,0.0863647,0.193481,0.0138092,-0.000915527,0.000457764,-0.000190735
35,1,10.0097,0.000610352,0.00167847,-2.42776,0.055681,-0.0735371,0.0538228,0.07036,-0.0925361,0.146844,-0.125766,-0.0837911,-0.00736237,0.0257111,0.0260925,0.013237,0.0353241,0.0240707,0.0448227,0.0300598,-9.97986,0.0187302,0.0223541,0.0818634,0.195923,0.0214767,0.0038147,0.00556946,0.01194
35,2,10.0097,-0.000610352,0.0012207,-2.42226,0.055681,-0.0738423,0.0550435,0.07036,-0.0916206,0.145318,-0.124851,-0.0825704,-0.00873566,0.026474,0.0222397,0.0109482,0.0308609,0.0192642,0.0349426,0.0217438,-9.97986,0.0260925,0.0222397,0.0767136,0.187416,0.0209808,0.00156403,0.00923157,0.0101471
35,3,10.0097,0.000610352,0.000305176,-2.42501,0.0569017,-0.075063,0.0550435,0.075548,-0.0913154,0.146234,-0.125156,-0.0834859,0.00385284,0.0252533,0.024147,0.0146103,0.0315857,0.017395,0.037117,0.0240326,-9.97986,0.0385284,0.0153732,0.0710678,0.189896,0.017395,0.00205994,0.015564,0.0185776
35,4,10.0097,-0.000915527,-0.000152588,-2.42501,0.0572069,-0.0735371,0.054128,0.0724962,-0.0916206,0.146234,-0.123935,-0.0786031,0.0266647,0.0191879,0.0215149,0.0136185,0.0355148,0.0104523,0.0363922,0.0253296,-9.97986,0.0465775,0.00614166,0.0672913,0.189133,0.0152206,0.00305176,0.0161743,0.0203705
35,5,10.0097,0.000915527,0.00244141,-2.4244,0.0559862,-0.0729268,0.0547383,0.0709703,-0.0900947,0.145624,-0.125461,-0.0816549,0.0281906,0.0272751,0.0231171,0.0117111,0.0302124,0.00663757,0.0318909,0.0300598,-9.97986,0.0525284,0.00713348,0.057106,0.208511,0.0154495,0.00507355,0.0196838,0.0211716
35,6,10.0097,0.00152588,0.00152588,-2.42501,0.0565965,-0.0738423,0.0553487,0.0700548,-0.0928413,0.147455,-0.124546,-0.0810445,0.0188065,0.0244904,0.0226212,0.0123596,0.031662,-0.00320435,0.0340652,0.0292206,-9.97986,0.04776,0.00209808,0.0547409,0.211906,0.0166321,0.00709534,0.031662,0.0233459
35,7,10.0097,0.000610352,0.000152588,-2.42623,0.0572069,-0.0738423,0.0526021,0.0438097,-0.0946723,0.146539,-0.126682,-0.0786031,0.0103378,0.026474,0.0230408,0.0125504,0.0307083,-0.00827789,0.0323105,0.0299454,-9.97986,0.0434494,-0.000724792,0.0574875,0.219116,0.0154877,0.00339508,0.0337982,0.0248337
35,8,8.37728,0.000305176,0.000305176,-2.42501,0.0565965,-0.0738423,0.0550435,0.04442,-0.0937568,0.145929,-0.126682,-0.0813497,0.0056076,0.0226593,0.0208664,0.00923157,0.0279236,-0.0149918,0.0294876,0.0252533,-9.97986,0.0411987,-0.00553131,0.0483704,0.235634,0.0146866,0.000305176,0.0400925,0.0254059
35,9,7.32595,-0.000610352,0.00106812,-2.42623,0.0565965,-0.0738423,0.0544332,0.0514391,-0.0913154,0.146539,-0.125766,-0.0825704,0.0025177,0.0246811,0.0249863,0.00854492,0.0260925,-0.0159836,0.0338364,0.0205231,-9.97986,0.0315094,-0.00167847,0.0465775,0.24437,0.0114822,0.00366211,0.0468063,0.0222778
36,0,7.0995,0.00152588,0.00167847,-2.42653,0.0547655,-0.0741475,0.0535176,0.0630358,-0.0919257,0.145929,-0.126072,-0.085317,0.00202179,0.0223923,0.0247574,0.00988007,0.0254822,-0.0179291,0.029068,0.0241089,-9.97986,0.026741,-0.00255585,0.044899,0.255318,0.0120544,-0.000953674,0.0507355,0.0247955
36,1,7.37233,0.00213623,0.00244141,-2.4247,0.0559862,-0.0741475,0.054128,0.0728014,-0.0916206,0.146234,-0.125156,-0.0825704,-0.00419617,0.0239944,0.0261688,0.00923157,0.0294876,-0.0228119,0.0338364,0.0246811,-9.97986,0.0305176,-0.0111389,0.0417328,0.279846,0.0159454,-0.00637054,0.0602722,0.0215912
36,2,9.2397,-0.000610352,0.00518799,-2.42776,0.0544603,-0.0756734,0.0550435,0.103014,-0.0897895,0.144708,-0.123935,-0.0831808,0.00179291,0.0260162,0.0238037,0.0123978,0.0286102,-0.0323868,0.0314713,0.0213242,-9.97986,0.0346756,-0.00862122,0.0393677,0.322342,0.0147629,-0.00881195,0.0679016,0.0237274
36,3,10.0097,0.000610352,0.00549316,-2.42928,0.0526292,-0.0759786,0.0522969,0.0935533,-0.0919257,0.143792,-0.125156,-0.0834859,0.0211334,0.0253677,0.0210953,0.014267,0.0288391,-0.0341797,0.0307083,0.0221634,-9.97986,0.0291061,-0.0111771,0.0346756,0.356941,0.00938416,-0.00686646,0.0751877,0.023613
36,4,10.0097,0.000610352,0.0038147,-2.43355,0.0526292,-0.0765889,0.0519917,0.0767687,-0.0946723,0.142572,-0.126072,-0.085317,0.0286102,0.021553,0.0244904,0.0123596,0.0209045,-0.041008,0.0292587,0.0190735,-9.97986,0.0194931,-0.0164032,0.0350571,0.380936,0.0127792,-0.0143814,0.0755692,0.0239944
36,5,10.0097,0.000305176,0.0038147,-2.42806,0.0544603,-0.0762837,0.0538228,0.0770738,-0.0946723,0.143792,-0.127292,-0.0859274,0.0219727,0.0233841,0.0207901,0.00980377,0.0232697,-0.0314713,0.0285339,0.0263214,-9.97986,0.0138855,-0.0131607,0.0368881,0.40966,0.00900269,-0.0018692,0.0751114,0.0241089
36,6,10.0097,0.000915527,0.00289917,-2.42898,0.0550706,-0.0762837,0.0513814,0.0697496,-0.0952827,0.143182,-0.126377,-0.0859274,0.0158691,0.0233459,0.0233459,0.01297,0.0221634,-0.0357437,0.0276566,0.0212479,-9.97986,0.0063324,-0.0189972,0.032692,0.427246,0.00679016,0.000762939,0.0732422,0.0263596
36,7,10.0097,-0.000915527,0.00228882,-2.42714,0.0544603,-0.0765889,0.0526021,0.0688341,-0.0952827,0.143487,-0.126987,-0.0862325,0.0130463,0.0225449,0.0259781,0.0173569,0.0209808,-0.0371552,0.0317764,0.0179672,-9.97986,0.000572205,-0.0163651,0.0336075,0.442467,0.00789642,0.00442505,0.0719452,0.0280762
36,8,10.0097,0.000610352,0.00167847,-2.42745,0.0550706,-0.0756734,0.0516866,0.0624254,-0.0946723,0.145013,-0.126682,-0.0859274,0.00350952,0.0212097,0.0228119,0.0167465,0.0207901,-0.0358582,0.0266647,0.0204086,-9.97986,-0.00606537,-0.0196075,0.0329971,0.451469,0.00812531,0.000190735,0.0688553,0.0283432
36,9,10.0097,-0.00274658,0.00137329,-2.42806,0.0541551,-0.0747579,0.0532125,0.0694445,-0.0931465,0.145318,-0.126987,-0.0816549,0.00679016,0.0204086,0.0200272,0.0115585,0.0222015,-0.0346375,0.0232697,0.0195694,-9.97986,-0.00808716,-0.02491,0.0328445,0.45433,0.00637054,-0.00465393,0.064888,0.0275421
37,0,10.0097,0.000610352,0.00198364,-2.42776,0.0550706,-0.0744527,0.0529073,0.0700548,-0.0934516,0.144708,-0.126682,-0.0837911,0.0069809,0.017662,0.0232315,0.0121689,0.017395,-0.0421143,0.0215912,0.0216293,-9.97986,-0.00263214,-0.0201416,0.0338364,0.462837,0.00713348,-0.00728607,0.0647736,0.0269318
37,1,10.0097,0.000610352,0.00152588,-2.42684,0.0553758,-0.0744527,0.0535176,0.0700548,-0.0925361,0.146234,-0.125766,-0.0847066,0.0094986,0.0229645,0.017662,0.00827789,0.015831,-0.0357056,0.0238419,0.0177765,-9.97986,-0.00286102,-0.024147,0.0294113,0.468102,0.00465393,-0.0069809,0.0631332,0.0257111
37,2,10.0097,0.000610352,0.000610352,-2.42684,0.0550706,-0.0744527,0.0544332,0.0712755,-0.0925361,0.146234,-0.124851,-0.0819601,0.00785828,0.0246048,0.0216675,0.0138474,0.0139236,-0.0356674,0.0242996,0.0137711,-9.97986,0.00640869,-0.0183868,0.0302505,0.466919,0.00495911,-0.00869751,0.0636673,0.0251007
37,3,10.0097,-0.0012207,0.0012207,-2.42592,0.055681,-0.0735371,0.0550435,0.0718859,-0.0913154,0.146844,-0.124851,-0.0819601,0.00629425,0.0250626,0.0235367,0.0104523,0.0130844,-0.0274658,0.0273132,0.0210571,-9.97986,0.013504,-0.0230408,0.0297928,0.464439,0.00541687,-0.0121689,0.0615311,0.0220871
37,4,10.0097,-0.000305176,0.000915527,-2.42592,0.0572069,-0.0729268,0.0553487,0.077379,-0.0925361,0.146844,-0.123325,-0.0813497,0.00797272,0.0272751,0.0235748,0.0157928,0.0123978,-0.0215912,0.0359726,0.0202179,-9.97986,0.0118256,-0.0192261,0.0323868,0.460396,0.00572205,-0.0137711,0.0637054,0.0157547
37,5,10.0097,0.000305176,0.0012207,-2.42501,0.0550706,-0.0738423,0.0547383,0.0715807,-0.0910102,0.145318,-0.124241,-0.0792135,0.00747681,0.0252533,0.0209808,0.010376,0.0117493,-0.0163269,0.0254822,0.0169373,-9.97986,0.00923157,-0.0243759,0.0310898,0.464401,0.00679016,-0.0136948,0.0640869,0.0146484
37,6,10.0097,-0.0012207,0.000152588,-2.42653,0.0575121,-0.0726216,0.0553487,0.0715807,-0.0916206,0.147455,-0.124241,-0.0816549,0.0082016,0.0221252,0.0230026,0.0119781,0.00846863,-0.0170517,0.0281906,0.0126648,-9.97986,0.013504,-0.0242996,0.0269318,0.457344,0.000190735,-0.0176239,0.0660706,0.0189209
37,7,10.0097,0.000915527,-0.00274658,-2.42653,0.0565965,-0.0735371,0.0544332,0.04442,-0.0943672,0.145929,-0.126072,-0.0834859,0.00923157,0.0224304,0.0222778,0.015564,0.0133896,-0.0104141,0.030632,0.018692,-9.97986,0.0108337,-0.0220108,0.024147,0.428848,0.00221252,-0.0199127,0.0644302,0.0151062
37,8,8.30831,0.00152588,-0.00244141,-2.42592,0.0565965,-0.0735371,0.0547383,0.042589,-0.0934516,0.145624,-0.126072,-0.0825704,0.00907898,0.0278473,0.023613,0.0117874,0.00686646,-0.0100708,0.025444,0.015564,-9.97986,0.0107193,-0.0228119,0.0274277,0.41378,0.00434875,-0.0156784,0.0644302,0.015831
37,9,7.27712,0.0012207,-0.00152588,-2.43111,0.0559862,-0.075063,0.0544332,0.0557115,-0.0922309,0.146539,-0.126377,-0.0822652,0.00961304,0.0213242,0.0223541,0.0120544,0.00415802,-0.00801086,0.030098,0.0146484,-9.97986,0.00827789,-0.0205994,0.028801,0.390091,0.0031662,-0.0222015,0.0642395,0.0175476
38,0,7.00734,0.000915527,-0.00198364,-2.42776,0.0541551,-0.0735371,0.054128,0.0578478,-0.0922309,0.145318,-0.126072,-0.0831808,0.00846863,0.0244522,0.0206757,0.0144577,0.00339508,-0.00659943,0.0265884,0.0147247,-9.97986,0.00583649,-0.0268555,0.0285339,0.358963,0.00526428,-0.0177002,0.0668716,0.0201797
38,1,7.28871,-0.000610352,-0.000457764,-2.42592,0.0559862,-0.0741475,0.0544332,0.0728014,-0.0916206,0.146539,-0.125766,-0.0816549,0.0105667,0.0239563,0.021019,0.0117493,0.00236511,-0.00415802,0.0222397,0.0144196,-9.97986,0.00205994,-0.0266266,0.0284195,0.346184,0.00553131,-0.0148773,0.0654984,0.0201416
38,2,9.09322,0.00183105,0.000152588,-2.42287,0.0553758,-0.0753682,0.0556539,0.0975206,-0.0903999,0.145318,-0.124546,-0.0834859,0.0087738,0.0228119,0.0172424,0.0147629,-0.000457764,-0.00270844,0.0217438,0.01297,-9.97986,-0.00133514,-0.0263596,0.0262451,0.329018,0.00267029,-0.0129318,0.0654984,0.0177383
38,3,10.0097,-0.000610352,0.000915527,-2.42898,0.0532396,-0.0765889,0.0529073,0.0935533,-0.0931465,0.143487,-0.123935,-0.0871481,0.0107574,0.0231934,0.019722,0.0131989,0.0018692,-0.0109482,0.0214005,0.0127029,-9.97986,-0.00102997,-0.0173187,0.0240326,0.307961,0.00278473,-0.0145721,0.0646973,0.0182724
38,4,10.0097,-0.000305176,-0.0012207,-2.42928,0.0541551,-0.0762837,0.0513814,0.0779894,-0.0971137,0.143487,-0.126072,-0.0892843,0.00774384,0.0299835,0.0202179,0.0117111,0.00247955,-0.00999451,0.0156021,0.0128174,-9.97986,0.000991821,-0.0211334,0.0276184,0.279846,0.00392914,-0.0122833,0.0667953,0.0201797
38,5,10.0097,-0.000305176,-0.00274658,-2.42989,0.0547655,-0.0759786,0.0513814,0.0734117,-0.0965034,0.143487,-0.126987,-0.0874532,0.00865936,0.0294113,0.0159836,0.0117111,0.00656128,-0.00831604,0.0102615,0.0102234,-9.97986,-0.00442505,-0.0197983,0.0252914,0.235901,0.00358582,-0.0127029,0.0666428,0.0218201
38,6,10.0097,0.00183105,-0.00274658,-2.42898,0.0529344,-0.0747579,0.0516866,0.0706652,-0.0946723,0.144098,-0.127292,-0.0880636,0.00972748,0.0283051,0.0247955,0.0118637,0.00507355,-0.00732422,0.0135422,0.0120544,-9.97986,-0.00301361,-0.0205231,0.0275421,0.205269,0.00492096,-0.0112152,0.062027,0.0198746
38,7,10.0097,0.000610352,-0.00228882,-2.42928,0.0538499,-0.0762837,0.0529073,0.0694445,-0.095893,0.143487,-0.127292,-0.0895895,0.00827789,0.0287247,0.0172424,0.0131607,0.0114822,-0.0138474,0.0174332,0.0111771,-9.97986,-0.00312805,-0.0217819,0.0235748,0.179062,0.00358582,-0.0103378,0.0613022,0.0202942
38,8,10.0097,0.000915527,-0.00198364,-2.43172,0.0541551,-0.0759786,0.0526021,0.0694445,-0.0934516,0.144708,-0.126987,-0.0874532,0.00637054,0.0268555,0.0211716,0.0121307,0.0117493,-0.00823975,0.0159454,0.0117874,-9.97986,-0.00785828,-0.0205612,0.0239182,0.149002,0.00404358,-0.00392914,0.0605011,0.023613
38,9,10.0097,-0.000610352,-0.000915527,-2.42714,0.0541551,-0.075063,0.0532125,0.07036,-0.0937568,0.144403,-0.127292,-0.0856222,0.00705719,0.0299072,0.0210571,0.0133514,0.0141907,-0.0145721,0.0230408,0.0094986,-9.97986,-0.00629425,-0.023613,0.0221634,0.136795,0.00488281,-0.0111008,0.0583649,0.026207
39,0,10.0097,-0.000305176,-0.00106812,-2.42653,0.0547655,-0.0747579,0.0532125,0.0700548,-0.0928413,0.145013,-0.126072,-0.0874532,0.0112915,0.0362396,0.0259781,0.0134277,0.011673,-0.0108337,0.0225449,0.00709534,-9.97986,-0.00434875,-0.0195694,0.0234985,0.1194,0.00728607,-0.00480652,0.0593948,0.0266266
39,1,10.0097,0.000610352,-0.00106812,-2.42684,0.0550706,-0.075063,0.0532125,0.0688341,-0.0925361,0.144708,-0.126987,-0.0847066,0.0115967,0.028801,0.0191498,0.0144958,0.00812531,-0.0118637,0.0144958,0.00930786,-9.97986,-0.00648499,-0.0222397,0.0168991,0.0918961,0.00915527,-0.000572205,0.058136,0.0249863
39,2,10.0097,0.000915527,-0.000457764,-2.4247,0.0562914,-0.0735371,0.054128,0.07036,-0.0925361,0.146539,-0.124851,-0.0828756,0.00801086,0.0272751,0.0232315,0.0115585,0.00984192,-0.010643,0.0215149,0.010376,-9.97986,-0.0069809,-0.0232697,0.0169754,0.082283,0.0123978,-0.00362396,0.0576782,0.0228882
39,3,10.0097,-0.000305176,0.000915527,-2.42531,0.0559862,-0.075063,0.054128,0.0697496,-0.0919257,0.145929,-0.12363,-0.0816549,0.00740051,0.0278091,0.0242615,0.0105286,0.00396729,-0.0132751,0.0219727,0.00843048,-9.97986,-0.00331879,-0.0173569,0.0268936,0.089798,0.0127029,-7.62939e-005,0.058403,0.0254822
39,4,10.0097,0.000305176,0.00183105,-2.42501,0.0553758,-0.0729268,0.054128,0.07036,-0.0913154,0.146539,-0.12363,-0.0810445,0.00583649,0.0312042,0.0249481,0.0118637,0.00717163,-0.0181961,0.0281143,0.00873566,-9.97986,-0.00728607,-0.0184631,0.0207901,0.104523,0.0102997,0,0.0570679,0.0250626
39,5,10.0097,-0.000305176,0.00289917,-2.42623,0.0562914,-0.0738423,0.0553487,0.0712755,-0.0922309,0.146539,-0.124546,-0.0804342,0.00759125,0.0268173,0.0216293,0.0113678,0.0094986,-0.0148392,0.0323105,0.00991821,-9.97986,-0.00358582,-0.0204086,0.0203323,0.126648,0.0139618,-0.000228882,0.0537109,0.0317001
39,6,10.0097,0,0.00228882,-2.42562,0.0562914,-0.0735371,0.0553487,0.0706652,-0.0913154,0.145929,-0.123325,-0.0819601,0.00946045,0.0302124,0.0222778,0.00976563,0.0087738,-0.0162888,0.0273895,0.00553131,-9.97986,-0.00682831,-0.0221252,0.0197983,0.134048,0.0122833,-0.00213623,0.0547791,0.0309372
39,7,10.0097,0.000305176,0.000305176,-2.42531,0.0565965,-0.0747579,0.0538228,0.042589,-0.0949775,0.145929,-0.126682,-0.0813497,0.00953674,0.0259399,0.0225067,0.0120926,0.0112534,-0.0127411,0.0285721,0.00850677,-9.97986,-0.00682831,-0.0227356,0.0193787,0.140114,0.0140381,-0.00617981,0.0478363,0.0330734
39,8,8.17494,0.0012207,0.000762939,-2.42592,0.0565965,-0.0747579,0.0532125,0.0410631,-0.0925361,0.146844,-0.126072,-0.0813497,0.00968933,0.0267792,0.0194931,0.00968933,0.0136185,-0.0173569,0.0247192,0.00858307,-9.97986,-0.0056076,-0.0214386,0.0196075,0.15831,0.0146103,-0.00144958,0.0453568,0.0349045
39,9,7.14864,-0.000610352,0.00198364,-2.42562,0.0559862,-0.0741475,0.0547383,0.0541857,-0.0922309,0.145929,-0.125461,-0.0816549,0.0110626,0.029335,0.0197983,0.00606537,0.0124359,-0.0196075,0.0272751,0.00808716,-9.97986,-0.00911713,-0.0193787,0.0191116,0.177345,0.0113678,-0.00328064,0.0355148,0.032196
40,0,6.82271,0.0012207,0.0012207,-2.42745,0.0553758,-0.0747579,0.0553487,0.0636461,-0.0931465,0.145318,-0.125461,-0.0831808,0.00858307,0.0245667,0.0196457,0.0132751,0.00995636,-0.0167465,0.0238037,0.0087738,-9.97986,-0.00396729,-0.0175095,0.0216293,0.183449,0.0135422,-0.00205994,0.0315857,0.0340652
40,1,7.01497,0.00152588,0.00198364,-2.42653,0.055681,-0.0744527,0.0535176,0.0740221,-0.0913154,0.144403,-0.126072,-0.0828756,0.0127029,0.0230789,0.019455,0.0113678,0.0134277,-0.00984192,0.0269699,0.00583649,-9.97986,-0.00614166,-0.0159454,0.014801,0.182266,0.00789642,0.000457764,0.0268555,0.0350571
40,2,8.82497,0.00152588,0.00152588,-2.42653,0.0535448,-0.0756734,0.054128,0.0990465,-0.0894843,0.144708,-0.12363,-0.0840963,0.00770569,0.0257111,0.02285,0.00804901,0.0172043,-0.0106049,0.0199127,0.00431061,-9.97986,-0.00675201,-0.018692,0.0196457,0.186234,0.0112152,0.00190735,0.019989,0.0325394
40,3,10.0097,0.0012207,0.00335693,-2.42867,0.0535448,-0.0765889,0.0522969,0.0975206,-0.0922309,0.144098,-0.125766,-0.0847066,0.00701904,0.0259781,0.0206375,0.00988007,0.017128,-0.012207,0.0179672,0.00709534,-9.97986,-0.00621796,-0.0187302,0.0213623,0.18959,0.0167847,0.00572205,0.014267,0.0342941
40,4,10.0097,0.000915527,0.00183105,-2.4305,0.0538499,-0.0759786,0.0504659,0.0779894,-0.0955879,0.143792,-0.126072,-0.0868429,0.0122452,0.0253296,0.0205612,0.0130081,0.0202179,-0.0149155,0.0159836,0.00900269,-9.97986,-0.00255585,-0.021286,0.0183868,0.195885,0.0149918,0.0019455,0.00812531,0.0336456
40,5,10.0097,0.0012207,0.00152588,-2.42898,0.0535448,-0.0756734,0.0535176,0.0740221,-0.095893,0.143182,-0.126987,-0.0862325,0.0111771,0.0214386,0.0190353,0.0131607,0.0217819,-0.0120163,0.022049,0.00770569,-9.97986,-0.00228882,-0.0145721,0.0154495,0.203438,0.0185013,0.00816345,0.00362396,0.0348282
