
Devices
1200
,,BP Load cell - Voltage,String Length - Voltage,Clutch Active - Voltage,#7 iPecs - Voltage,,,,,,,,,EMG 1-8 Left - Voltage,,,,,,,,Pylon Force - Voltage,EMG 9-16 Right - Voltage,,,,,,,,
Frame,Sub Frame,BP Load Cell,String Length,From Arduino Logic,A45,A135,A225,A315,S0,S90,S180,S270,ZSum,EMG 1 Glut Max,EMG 2 Glut Med,EMG 3 Biceps Femoris Long,EMG 4 Rectus Femoris,EMG 5 Vastus Medialis,EMG 6 Tib Ant,EMG 7 Med Gas,EMG 8 Soleus,Pylon volts,EMG 9 Glut Max,EMG 10 Glut Med,EMG 11 Biceps Femoris Long,EMG 12 Rectus Femoris,EMG 13 Vastus Medialis,EMG 14 Tib Ant,EMG 15 Med Gas,EMG 16 Soleus
,,V,V,V,V,V,V,V,V,V,V,V,V,V,V,V,V,V,V,V,V,V,V,V,V,V,V,V,V,V
1,0,10.0097,0,-0.00335693,-2.42898,0.0544603,-0.0738423,0.0547383,0.0679186,-0.0943672,0.142267,-0.128208,-0.0868429,0.0012207,-0.0221634,0.0258255,0.0110245,-0.572395,0.0337601,0.0509644,0.140762,-9.97986,-0.017395,0.0239182,-0.218353,-0.516815,-0.195274,-0.0206757,-0.0271225,-0.172653
1,1,10.0097,0.00152588,-0.00350952,-2.42745,0.0538499,-0.0753682,0.0547383,0.0688341,-0.094062,0.144403,-0.126377,-0.0859274,0.00976563,-0.0134277,0.0315857,0.00930786,-0.550423,0.0325394,0.0556183,0.162468,-9.97986,-0.0188065,0.0223923,-0.152779,-0.534325,-0.170822,-0.0162506,-0.0434494,-0.218315
1,2,10.0097,0.00183105,-0.00259399,-2.42776,0.0538499,-0.0747579,0.0538228,0.07036,-0.0919257,0.146234,-0.125766,-0.0847066,0.00846863,0.00682831,0.0419998,0.00415802,-0.484543,0.0358582,0.0577927,0.173454,-9.97986,-0.017128,0.0147629,-0.155792,-0.564308,-0.10704,-0.0135422,-0.0165176,-0.261612
1,3,10.0097,0.00274658,-0.00442505,-2.42653,0.055681,-0.0753682,0.054128,0.0718859,-0.0919257,0.14776,-0.126072,-0.0847066,0.00984192,0.0216293,0.0574493,0.00354767,-0.396118,0.0266647,0.0566101,0.162849,-9.97986,-0.017395,0.0100708,-0.130081,-0.583038,-0.0695419,-0.0123596,0.00843048,-0.223236
1,4,10.0097,0.000610352,-0.00137329,-2.42592,0.055681,-0.0741475,0.0553487,0.0694445,-0.0903999,0.145624,-0.124851,-0.0834859,0.0182724,0.02491,0.0643921,0.00183105,-0.350952,0.00915527,0.0646973,0.141144,-9.97986,-0.0101089,0.00492096,-0.0701904,-0.584755,-0.050621,-0.0088501,0.0333786,-0.146713
1,5,10.0097,-0.000915527,-0.00152588,-2.4244,0.0575121,-0.0741475,0.055959,0.0709703,-0.0910102,0.148675,-0.124546,-0.0822652,0.0168991,0.0268173,0.0637817,-0.0156403,-0.339355,-0.0129318,0.0709534,0.0554657,-9.97986,-0.00926971,0.000114441,-0.0106049,-0.594711,0.00930786,-0.00953674,0.0576401,-0.112457
1,6,10.0097,0.000915527,0.000610352,-2.42531,0.0565965,-0.0741475,0.055959,0.0712755,-0.0919257,0.147149,-0.123935,-0.0807394,0.0115204,0.0154114,0.066185,-0.0244904,-0.311165,-0.00789642,0.0567627,0.032959,-9.97986,-0.00366211,-0.00705719,0.0201035,-0.585709,0.0486755,-0.000534058,0.0883484,-0.0951767
1,7,10.0097,-0.000610352,0.000457764,-2.42623,0.0562914,-0.0741475,0.0556539,0.0700548,-0.0897895,0.145929,-0.123935,-0.0813497,0.00900269,-0.0069809,0.0686646,0.00205994,-0.301285,-0.00289917,0.0446701,0.049057,-9.97986,0.000762939,0.000228882,0.0227356,-0.571098,0.0547028,-0.000495911,0.100708,-0.0962448
1,8,10.0097,-0.000915527,0.00213623,-2.42562,0.0565965,-0.073232,0.0562642,0.0712755,-0.0900947,0.14837,-0.12302,-0.0798238,0.00152588,-0.00511169,0.0728226,0.0298309,-0.295219,-0.00892639,0.0414658,-0.0163269,-9.97986,-0.00244141,-0.0102615,0.0487137,-0.558853,0.0806427,-0.000495911,0.114517,-0.103645
1,9,10.0097,-0.00366211,0.00106812,-2.4244,0.0559862,-0.0744527,0.0553487,0.07036,-0.090705,0.14837,-0.12363,-0.0804342,-0.00198364,0.0198364,0.0728226,0.0160217,-0.265541,-0.00896454,0.0456619,-0.107956,-9.97986,-0.00907898,-0.0121689,0.0576782,-0.545158,0.101509,0.000534058,0.111351,-0.139618
2,0,10.0097,0.0012207,0.000457764,-2.42562,0.0572069,-0.073232,0.054128,0.0566271,-0.0977241,0.144403,-0.126682,-0.0819601,0.00324249,0.034256,0.0793457,0.0151825,-0.247993,-0.0185394,0.048027,-0.133781,-9.97986,-0.0105286,-0.00213623,0.0745392,-0.533752,0.106964,0.00335693,0.0772476,-0.198975
2,1,10.0097,0.000305176,0,-2.4247,0.0572069,-0.0741475,0.0526021,0.0590685,-0.0934516,0.148065,-0.124851,-0.0816549,0.0137711,0.0317764,0.0893784,0.0234222,-0.228195,-0.0353622,0.0634003,-0.103683,-9.97986,-0.00595093,-0.0114059,0.0939178,-0.52742,0.107841,0.010376,0.0272751,-0.244217
2,2,10.0097,-0.000305176,0.000762939,-2.4247,0.0553758,-0.0744527,0.0544332,0.0648668,-0.0922309,0.146234,-0.125461,-0.0828756,0.0254822,0.0728989,0.0870514,0.0211334,-0.221329,-0.0481033,0.0615311,-0.0597382,-9.97986,0.000915527,-0.0255203,0.118523,-0.517311,0.110474,0.014267,0.0043869,-0.252914
2,3,10.0097,0.00183105,0.00152588,-2.42653,0.055681,-0.0756734,0.055959,0.0709703,-0.0916206,0.145318,-0.125156,-0.0825704,0.0284576,0.0915909,0.079689,0.0205994,-0.21843,-0.059433,0.0580597,-0.0381851,-9.97986,-0.000457764,-0.0348663,0.146027,-0.509109,0.128212,0.0183868,-0.00724792,-0.256691
2,4,10.0097,0.000915527,0.00259399,-2.42623,0.0544603,-0.0744527,0.0550435,0.0905016,-0.0913154,0.144403,-0.124546,-0.0831808,0.0304413,0.0737381,0.0703812,0.00278473,-0.202599,-0.0620651,0.0505829,0.0288391,-9.97986,0.00328064,-0.0375748,0.126686,-0.48542,0.152092,0.0170898,-0.0184631,-0.258102
2,5,10.0097,0.00183105,0.00198364,-2.42867,0.0535448,-0.0756734,0.0516866,0.075548,-0.094062,0.144708,-0.126377,-0.0862325,0.0268555,0.0883102,0.0527191,-0.00209808,-0.168152,-0.0646973,0.0418091,0.139885,-9.97986,0.0111008,-0.0121307,0.0931931,-0.46608,0.178795,0.0225067,-0.0318146,-0.254097
2,6,10.0097,0,0.00213623,-2.42837,0.0532396,-0.0759786,0.0519917,0.0718859,-0.0949775,0.144098,-0.126682,-0.0862325,0.0228119,0.10849,0.0435257,-0.0133514,-0.135956,-0.066185,0.0275421,0.17437,-9.97986,0.00537872,-0.014801,0.0763702,-0.448418,0.206184,0.0198746,-0.0297165,-0.267982
2,7,10.0097,-0.00183105,0.00183105,-2.42867,0.0535448,-0.0756734,0.0516866,0.0700548,-0.0934516,0.143792,-0.126377,-0.0844015,0.0199509,0.103874,0.0333405,-0.00850677,-0.0774765,-0.0582123,0.0181961,0.123901,-9.97986,-0.000572205,-0.000801086,0.072937,-0.42366,0.222206,0.017128,-0.0191498,-0.284386
2,8,10.0097,0.00183105,0.000610352,-2.42989,0.0535448,-0.0759786,0.0513814,0.0691393,-0.095893,0.145013,-0.126682,-0.0871481,0.0157547,0.128708,0.0307465,0.000915527,-0.0405121,-0.0491333,0.00457764,0.0529099,-9.97986,-0.00835419,-0.0278854,0.0754547,-0.403137,0.226555,0.016098,0.00621796,-0.29213
2,9,10.0097,-0.000305176,0.00152588,-2.42867,0.0541551,-0.0762837,0.0519917,0.0682238,-0.0934516,0.142572,-0.126987,-0.0865377,0.0211334,0.123138,0.0653076,0.0263214,-0.0181961,-0.0274658,0.0056839,0.042305,-9.97986,-0.00686646,-0.0641632,0.0629044,-0.378723,0.25528,0.0126648,0.0437546,-0.304489
3,0,10.0097,0.0012207,0.00167847,-2.42837,0.0541551,-0.0759786,0.0522969,0.0691393,-0.0931465,0.142267,-0.126987,-0.0844015,0.0136948,0.0582123,0.0934982,0.0431061,0.00473022,-0.00999451,0.00389099,0.0750351,-9.97986,-0.00583649,-0.012207,0.0562286,-0.355072,0.278091,0.0105667,0.0639725,-0.313263
3,1,10.0097,-0.00183105,0.00366211,-2.42806,0.0538499,-0.075063,0.054128,0.0700548,-0.0934516,0.144403,-0.126072,-0.0850118,0.0146484,0.0312042,0.0889969,0.0250626,0.033989,-0.0127792,0.00602722,0.0595474,-9.97986,-0.00968933,0.00717163,0.0666046,-0.333176,0.303802,0.0115585,0.0617599,-0.324974
3,2,10.0097,-0.00213623,0.00274658,-2.42653,0.0547655,-0.0747579,0.054128,0.0691393,-0.0922309,0.145624,-0.126377,-0.0837911,0.00389099,0.0485229,0.072937,0.0203705,0.0297546,-0.0233078,0.00320435,-0.0445175,-9.97986,-0.0122452,-0.0230408,0.0972748,-0.308609,0.340347,0.0162125,0.0523758,-0.329704
3,3,10.0097,0.000610352,0.00213623,-2.42623,0.0541551,-0.0747579,0.054128,0.07036,-0.0925361,0.146539,-0.125156,-0.0834859,-0.0094223,0.0421524,0.052681,0.018959,0.0444412,-0.0333023,0.00518799,-0.0923157,-9.97986,-0.0139618,-0.0346756,0.144272,-0.283203,0.3619,0.0201035,0.0419617,-0.32486
3,4,10.0097,0,0.00244141,-2.42684,0.0562914,-0.0747579,0.0556539,0.0694445,-0.0925361,0.145318,-0.125766,-0.0819601,-0.00762939,-0.000305176,0.0218582,0.0152969,0.0421524,-0.026474,0.0153732,-0.0852966,-9.97986,-0.000267029,-0.0447464,0.166054,-0.260353,0.364532,0.0191498,0.0297928,-0.310669
3,5,10.0097,0.000305176,0.00152588,-2.42531,0.0544603,-0.0695699,0.054128,0.0691393,-0.0919257,0.146234,-0.124546,-0.0807394,-0.00553131,-0.0422668,0.00476837,0.0186157,0.0595856,-0.00724792,0.0253296,-0.107574,-9.97986,0.00801086,-0.053978,0.159073,-0.247841,0.371666,0.0242615,0.0258255,-0.284004
3,6,10.0097,0.000610352,0.00137329,-2.42531,0.0562914,-0.0738423,0.0553487,0.0706652,-0.0919257,0.149286,-0.125156,-0.0795187,-0.00686646,-0.0268555,-0.00579834,0.0237274,0.0774002,0.0167084,0.030632,-0.148125,-9.97986,0.00846863,-0.0467682,0.170021,-0.228081,0.376358,0.0215912,0.0145721,-0.261803
3,7,10.0097,0,0.00183105,-2.42531,0.0550706,-0.0738423,0.0547383,0.0709703,-0.0913154,0.147149,-0.123935,-0.080129,0.00339508,0.0167465,-0.016861,0.0269699,0.0835419,0.0291061,0.0265121,-0.161057,-9.97986,-0.000114441,-0.0106812,0.189781,-0.207138,0.387993,0.0226212,0.0113678,-0.244141
3,8,10.0097,0.00213623,0.00289917,-2.4247,0.0569017,-0.0741475,0.0553487,0.0706652,-0.090705,0.148675,-0.123935,-0.0789083,0.0145721,0.0548553,-0.00270844,0.0161362,0.0987625,0.0421524,0.0075531,-0.153122,-9.97986,0.00644684,-0.017128,0.193939,-0.177002,0.396004,0.0246811,0.0140381,-0.231438
3,9,10.0097,0.000610352,0.00305176,-2.42623,0.0562914,-0.0741475,0.055959,0.0715807,-0.0922309,0.148675,-0.123935,-0.0798238,0.022316,0.0738525,-0.00339508,-0.000801086,0.111618,0.0483322,-0.0139999,-0.109596,-9.97986,0.0144958,-0.0547791,0.194321,-0.139008,0.404701,0.0241089,0.0115204,-0.217133
4,0,10.0097,-0.000915527,0.00350952,-2.42623,0.0550706,-0.0741475,0.0535176,0.0566271,-0.0934516,0.145013,-0.126072,-0.0810445,0.0287628,0.0296402,-0.0475311,-0.0147629,0.117226,0.0547028,-0.0377274,-0.0748444,-9.97986,0.0305176,-0.0611496,0.194206,-0.0963593,0.417404,0.0200272,0.0140762,-0.198364
4,1,10.0097,0.000610352,0.00366211,-2.42592,0.0550706,-0.0729268,0.0544332,0.0596788,-0.0925361,0.143487,-0.126072,-0.0813497,0.0211716,-0.0982666,-0.101089,-0.0138855,0.134087,0.0575638,-0.0598907,-0.0406265,-9.97986,0.0477219,-0.0493622,0.177422,-0.0534439,0.425835,0.0227737,0.0163651,-0.186195
4,2,10.0097,0.000610352,0.00396729,-2.42653,0.055681,-0.0741475,0.0544332,0.067003,-0.0919257,0.145318,-0.125766,-0.0825704,0.0180817,-0.200424,-0.130234,-0.0286102,0.14328,0.0749588,-0.0815201,-0.0260925,-9.97986,0.0572968,-0.0498199,0.15583,-0.0205994,0.43251,0.0212479,0.0128555,-0.174217
4,3,10.0097,-0.000305176,0.00350952,-2.42653,0.0553758,-0.0756734,0.0532125,0.075548,-0.0910102,0.145318,-0.125156,-0.0819601,0.0214005,-0.177345,-0.121765,-0.0349808,0.149765,0.087471,-0.0748062,-0.0411224,-9.97986,0.0590897,-0.0121307,0.134048,0.0143814,0.437164,0.0242615,0.00926971,-0.165329
4,4,10.0097,0,0.00396729,-2.42592,0.0559862,-0.0756734,0.0538228,0.0895861,-0.0910102,0.145318,-0.125156,-0.0828756,0.0237656,-0.132217,-0.094223,0.00495911,0.148964,0.0997543,-0.0629807,-0.0989151,-9.97986,0.0662613,0.0199127,0.118904,0.0362396,0.435028,0.0221634,0.0012207,-0.164833
4,5,10.0097,0.00152588,0.00274658,-2.42898,0.0544603,-0.0759786,0.0513814,0.0752428,-0.0946723,0.142877,-0.126682,-0.0847066,0.0231171,-0.105515,-0.0778198,0.028801,0.129623,0.109787,-0.0574493,-0.129509,-9.97986,0.0717545,-0.0104141,0.107002,0.0587845,0.439415,0.0185013,0.00114441,-0.157433
4,6,10.0097,0.00274658,0.00183105,-2.42898,0.0526292,-0.0765889,0.0510762,0.0718859,-0.0946723,0.145929,-0.126682,-0.0865377,0.0196838,-0.0761032,-0.0695801,0.0138092,0.107117,0.114517,-0.0481796,-0.133209,-9.97986,0.0598526,-0.0551605,0.0945282,0.0829315,0.438538,0.0119019,0.00465393,-0.14492
4,7,10.0097,0.000915527,0.00228882,-2.42959,0.0538499,-0.0753682,0.0529073,0.0694445,-0.0949775,0.145318,-0.127292,-0.0862325,0.0221634,-0.02388,-0.0576019,-0.0385666,0.086174,0.124817,-0.0640106,-0.116196,-9.97986,0.0498199,-0.0391388,0.0965118,0.102005,0.436592,0.0116348,0.0094986,-0.125656
4,8,10.0097,0.000305176,0.00106812,-2.42959,0.0550706,-0.0759786,0.0513814,0.0706652,-0.0943672,0.143182,-0.126987,-0.0877584,0.0229645,0.00801086,-0.0555038,-0.0799561,0.0676346,0.127525,-0.0854492,-0.0842667,-9.97986,0.0470734,-0.0145721,0.0911713,0.113258,0.435944,0.00602722,0.00576019,-0.106125
4,9,10.0097,0.00183105,0.000457764,-2.42989,0.0532396,-0.0747579,0.0526021,0.0679186,-0.0943672,0.142877,-0.127598,-0.0862325,0.033226,-0.0188828,-0.0384903,-0.109978,0.0527191,0.137024,-0.10025,-0.0526047,-9.97986,0.0408554,0.000724792,0.0873184,0.120049,0.426598,0.00167847,0.00705719,-0.0909805
5,0,10.0097,-0.00183105,0.000762939,-2.42837,0.0538499,-0.0756734,0.0529073,0.0694445,-0.0916206,0.143792,-0.126987,-0.0859274,0.0325394,-0.0556564,-0.0301743,-0.130806,0.0378799,0.136681,-0.127487,-0.043869,-9.97986,0.0339127,0.00118256,0.0824356,0.125084,0.419769,-0.0050354,0.00850677,-0.079155
5,1,10.0097,0.000915527,-0.000152588,-2.42898,0.0550706,-0.0747579,0.0526021,0.0685289,-0.0946723,0.144403,-0.126072,-0.0850118,0.0253296,-0.0434113,-0.0286102,-0.122337,0.0218964,0.137711,-0.149193,-0.0286102,-9.97986,0.0275421,-0.0401306,0.0749969,0.129128,0.411148,-0.0115585,0.0150299,-0.0587463
5,2,10.0097,0.000610352,0.000762939,-2.42653,0.0541551,-0.075063,0.0532125,0.0682238,-0.0937568,0.143792,-0.126072,-0.0850118,0.0165558,-0.0586319,-0.0457001,-0.107994,0.0162888,0.136261,-0.158806,-0.0208282,-9.97986,0.0337982,-0.0696945,0.0809097,0.119896,0.405388,-0.0112152,0.0203705,-0.0413895
5,3,10.0097,-0.00183105,-0.000305176,-2.42653,0.0547655,-0.0735371,0.0544332,0.0700548,-0.0934516,0.145318,-0.125156,-0.0834859,0.0141907,-0.113297,-0.0669861,-0.116539,0.0050354,0.129242,-0.186386,-0.0163269,-9.97986,0.0338745,-0.0672531,0.0783157,0.120392,0.388451,-0.0144196,0.0267029,-0.0233078
5,4,10.0097,-0.000915527,0.000152588,-2.4244,0.0572069,-0.0744527,0.0544332,0.0697496,-0.0919257,0.146234,-0.125461,-0.0831808,0.0156403,-0.105438,-0.062294,-0.227127,0.00331879,0.11776,-0.203362,-0.015564,-9.97986,0.0406265,-0.0559998,0.0792313,0.120964,0.370712,-0.0160599,0.0261307,-0.0031662
5,5,10.0097,-0.000305176,0.00106812,-2.42409,0.0565965,-0.0735371,0.0547383,0.07036,-0.0919257,0.145318,-0.124241,-0.0813497,0.0209808,-0.0997925,-0.0554276,-0.340424,-0.00404358,0.106926,-0.216751,-0.0247192,-9.97986,0.0367737,-0.0318909,0.0731277,0.129433,0.352669,-0.0181198,0.0312042,0.0218964
5,6,10.0097,-0.000610352,0.000152588,-2.4247,0.0569017,-0.0738423,0.0544332,0.0712755,-0.0922309,0.146539,-0.123935,-0.0813497,0.0255966,-0.116501,-0.0489807,-0.237503,-0.0112534,0.100136,-0.217896,-0.0334549,-9.97986,0.0353241,-0.0375748,0.0753784,0.131721,0.336075,-0.0146866,0.0327301,0.0405502
5,7,10.0097,0.00213623,-0.000762939,-2.42623,0.0550706,-0.0735371,0.0544332,0.0697496,-0.0919257,0.146539,-0.125156,-0.0819601,0.0242615,-0.0959396,-0.0191879,0.0353241,-0.0158691,0.0783157,-0.222282,-0.0342941,-9.97986,0.028801,-0.0439835,0.0768661,0.117264,0.322533,-0.0168991,0.0340652,0.0619888
5,8,10.0097,0.000915527,-0.000152588,-2.4244,0.0572069,-0.0738423,0.0532125,0.0718859,-0.0903999,0.147149,-0.123935,-0.0804342,0.0237274,-0.0631714,0.0227737,0.232773,-0.0125885,0.0629425,-0.207748,-0.0309372,-9.97986,0.0236893,-0.0437546,0.0711441,0.112648,0.301361,-0.0198364,0.035553,0.0829697
5,9,10.0097,0.00244141,0.00137329,-2.42562,0.0569017,-0.0744527,0.0550435,0.072191,-0.0913154,0.14837,-0.12363,-0.0804342,0.0185776,-0.033226,0.0670624,0.241928,-0.0196075,0.0427246,-0.203743,-0.0217056,-9.97986,0.0257111,-0.0376129,0.0675583,0.132294,0.28595,-0.0236893,0.0326538,0.105629
6,0,10.0097,0.000610352,-0.000305176,-2.42501,0.055681,-0.0738423,0.0538228,0.054796,-0.0925361,0.14837,-0.125766,-0.0813497,0.0106049,0.0144196,0.105324,0.206146,-0.0144958,0.0296402,-0.197868,-0.00488281,-9.97986,0.0309753,-0.0577545,0.069809,0.140915,0.268784,-0.0214767,0.032196,0.12886
6,1,10.0097,0.000915527,-0.000305176,-2.42592,0.0562914,-0.0735371,0.0550435,0.0596788,-0.0928413,0.148065,-0.124851,-0.0828756,0.00495911,0.0566101,0.123253,0.203629,-0.0130081,0.0136185,-0.188217,0.0108719,-9.97986,0.0331497,-0.0504684,0.0626373,0.146446,0.251694,-0.0261688,0.0342941,0.146103
6,2,10.0097,0.000915527,-0.000152588,-2.42562,0.0559862,-0.0738423,0.0544332,0.0666979,-0.0919257,0.145624,-0.125156,-0.0825704,0.00583649,0.0644684,0.12928,0.151253,-0.0104141,-0.00282288,-0.184479,0.0224686,-9.97986,0.0404358,-0.00213623,0.0619125,0.147743,0.228081,-0.0193405,0.0304031,0.162086
6,3,10.0097,-0.00183105,0.00106812,-2.42714,0.0547655,-0.0759786,0.0526021,0.072191,-0.0922309,0.144708,-0.125766,-0.0828756,0.00484467,0.0542831,0.118675,0.112228,-0.0031662,-0.0181198,-0.182495,0.030098,-9.97986,0.0468826,0.0248718,0.0601959,0.161285,0.212517,-0.0265121,0.0287628,0.182419
6,4,10.0097,0.000305176,0.00289917,-2.42776,0.0547655,-0.0741475,0.0538228,0.0920275,-0.0894843,0.145624,-0.124851,-0.0834859,0.00297546,0.0571442,0.0987244,0.0915909,0.00228882,-0.0310898,-0.174141,0.0338364,-9.97986,0.0393295,0.0124359,0.0497818,0.187492,0.189133,-0.0199509,0.0331497,0.193825
6,5,10.0097,-0.000610352,0.00289917,-2.42806,0.0538499,-0.0756734,0.0526021,0.0752428,-0.0949775,0.143182,-0.126682,-0.085317,0.00736237,0.0653076,0.0536346,0.0705719,0.018158,-0.0495148,-0.169907,0.0399399,-9.97986,0.041275,0.0202942,0.0496674,0.216751,0.168991,-0.0183868,0.0366974,0.203743
6,6,10.0097,-0.000305176,0.00259399,-2.42959,0.0544603,-0.0765889,0.0513814,0.0724962,-0.095893,0.143487,-0.127598,-0.0868429,0.0115585,0.0773621,-0.00350952,0.0617981,0.0316238,-0.0535202,-0.159073,0.0482559,-9.97986,0.0450897,0.0141907,0.0504303,0.238457,0.151291,-0.0149155,0.0360489,0.215836
6,7,10.0097,-0.000915527,0.00167847,-2.42806,0.0532396,-0.075063,0.0526021,0.0682238,-0.0952827,0.143792,-0.127292,-0.085317,0.00782013,0.075798,-0.0652695,0.0459671,0.0385666,-0.0759125,-0.152206,0.0460815,-9.97986,0.0369644,-0.028038,0.0419998,0.255432,0.126266,-0.0239944,0.0337219,0.220337
6,8,10.0097,-0.000915527,0.0012207,-2.42867,0.0523241,-0.0771993,0.0519917,0.0688341,-0.0952827,0.141961,-0.126987,-0.0868429,0.0129318,0.0730133,-0.105095,0.0580597,0.0655746,-0.0897217,-0.140152,0.0510406,-9.97986,0.0310135,-0.0470734,0.0461578,0.259895,0.106964,-0.0181198,0.0387192,0.224838
6,9,10.0097,-0.0012207,-0.000610352,-2.42928,0.0541551,-0.0765889,0.0519917,0.0685289,-0.0955879,0.143792,-0.127598,-0.0874532,0.0121307,0.0574112,-0.128899,0.0757599,0.0844574,-0.100021,-0.126038,0.0566101,-9.97986,0.0303268,-0.0415802,0.0457382,0.248528,0.087738,-0.015564,0.0374985,0.228844
7,0,10.0097,-0.000305176,-0.000305176,-2.42898,0.0547655,-0.0762837,0.0526021,0.0691393,-0.0949775,0.142267,-0.127292,-0.0862325,0.0147629,0.0393677,-0.12352,0.078125,0.111122,-0.116692,-0.110893,0.0530624,-9.97986,0.0269318,-0.0170135,0.0457382,0.24601,0.0716019,-0.017128,0.0399017,0.231133
7,1,10.0097,0.00244141,0.000152588,-2.42806,0.0541551,-0.075063,0.0529073,0.0685289,-0.0946723,0.146234,-0.126377,-0.085317,0.0121689,0.0350571,-0.100708,0.134392,0.126038,-0.127258,-0.09552,0.0552368,-9.97986,0.0229645,-0.00659943,0.0434494,0.245018,0.0480652,-0.020752,0.0361252,0.234261
7,2,10.0097,-0.0012207,0.000152588,-2.42684,0.0544603,-0.075063,0.0538228,0.0682238,-0.094062,0.143792,-0.127598,-0.085317,0.0138092,0.0473022,-0.0730515,0.166168,0.141258,-0.139847,-0.0748825,0.055809,-9.97986,0.0274277,-0.00564575,0.0494385,0.251198,0.0333405,-0.0167465,0.037117,0.236855
7,3,10.0097,0.000915527,0.000457764,-2.42776,0.0559862,-0.0747579,0.0553487,0.0694445,-0.0946723,0.144403,-0.126377,-0.0840963,0.0134659,0.0281143,-0.044136,0.118103,0.157318,-0.151138,-0.0606155,0.064888,-9.97986,0.0236511,-0.0205994,0.0502396,0.253334,0.0101852,-0.0164413,0.0366974,0.233002
7,4,10.0097,0.00152588,0.0012207,-2.42653,0.0569017,-0.0738423,0.0544332,0.0706652,-0.0925361,0.145929,-0.124546,-0.0828756,0.0172806,0.0159836,-0.00514984,0.0699997,0.168037,-0.171928,-0.044632,0.0634766,-9.97986,0.0240707,-0.0350952,0.0526428,0.258789,-0.0230789,-0.0163269,0.0354385,0.229759
7,5,10.0097,0.00152588,-0.000152588,-2.4244,0.0559862,-0.0744527,0.0553487,0.0706652,-0.0922309,0.146234,-0.124851,-0.0813497,0.0133514,0.0284958,0.0281525,0.0644302,0.18364,-0.177841,-0.0249481,0.0696564,-9.97986,0.0149155,-0.0371552,0.0553131,0.249863,-0.0406647,-0.0143433,0.0317001,0.226326
7,6,10.0097,0.00152588,-0.000762939,-2.4244,0.0587328,-0.0735371,0.0553487,0.0715807,-0.0925361,0.146234,-0.125461,-0.0810445,0.0175095,0.0366211,0.0451279,0.0524139,0.196571,-0.187569,-0.00297546,0.0725174,-9.97986,0.0160599,-0.0242233,0.0592804,0.243568,-0.0572968,-0.0125122,0.0335693,0.221443
7,7,10.0097,0.000915527,-0.000152588,-2.42653,0.0562914,-0.0744527,0.0550435,0.07036,-0.0919257,0.146234,-0.124546,-0.0810445,0.0207138,0.0460052,0.0484467,0.0219345,0.207138,-0.194016,0.0118256,0.0737381,-9.97986,0.0105667,-0.0292206,0.0584412,0.24044,-0.0727463,-0.00930786,0.030365,0.217476
7,8,10.0097,0.000915527,-0.00167847,-2.42562,0.0572069,-0.0744527,0.0556539,0.0709703,-0.0916206,0.146234,-0.123325,-0.0813497,0.0145721,0.0523376,0.0509644,0.0088501,0.212898,-0.188751,0.0357437,0.0771332,-9.97986,0.00659943,-0.0257111,0.0566101,0.208626,-0.0898743,-0.0122833,0.0276566,0.210266
7,9,10.0097,-0.000305176,-0.00213623,-2.42623,0.0562914,-0.073232,0.0538228,0.07036,-0.0928413,0.145929,-0.124241,-0.0813497,0.0165176,0.0609207,0.0283813,0.02491,0.222206,-0.186539,0.0569534,0.071907,-9.97986,0.00759125,-0.0227356,0.060997,0.184059,-0.10498,-0.00644684,0.0257111,0.205307
8,0,10.0097,0.000915527,-0.00305176,-2.42623,0.0562914,-0.0738423,0.0556539,0.0560167,-0.094062,0.145624,-0.125461,-0.0816549,0.015831,0.0518799,0.00518799,0.0209427,0.231056,-0.188141,0.0744629,0.0678253,-9.97986,0.00469208,-0.0318527,0.0637436,0.172844,-0.125618,-0.0094223,0.0210571,0.197449
8,1,10.0097,0.00152588,-0.00244141,-2.42501,0.0559862,-0.0744527,0.0535176,0.058153,-0.0934516,0.145318,-0.125156,-0.0834859,0.0143814,0.0583267,-0.00679016,0.0062561,0.23838,-0.175323,0.088768,0.0663376,-9.97986,0.00801086,-0.0408554,0.0636292,0.145683,-0.138016,-0.0115967,0.0200653,0.191994
8,2,10.0097,0.000610352,-0.00213623,-2.42776,0.0553758,-0.0744527,0.0535176,0.067003,-0.0925361,0.145013,-0.125156,-0.0831808,0.0110245,0.0601959,-0.0218582,-0.0207901,0.241013,-0.168991,0.101662,0.0632095,-9.97986,0.00400543,-0.0465775,0.056572,0.122223,-0.15686,-0.00984192,0.014267,0.186996
8,3,10.0097,0.000610352,-0.00152588,-2.42714,0.0535448,-0.075063,0.0547383,0.0731066,-0.0928413,0.144098,-0.125766,-0.0844015,0.0151062,0.0642395,-0.0146866,-0.0397873,0.241356,-0.161324,0.115623,0.0576019,-9.97986,0.000991821,-0.0383759,0.0600052,0.0960541,-0.17067,-0.00682831,0.0110626,0.181351
8,4,10.0097,0.00152588,-0.00228882,-2.42623,0.0541551,-0.0738423,0.054128,0.0923326,-0.090705,0.144708,-0.12363,-0.0844015,0.0117111,0.0666046,-0.00984192,-0.0593567,0.241661,-0.150375,0.134735,0.0537872,-9.97986,0.00102997,-0.0418854,0.0546265,0.057106,-0.184746,-0.0038147,0.00717163,0.179062
8,5,10.0097,0.000610352,-0.00289917,-2.42928,0.0529344,-0.0759786,0.0526021,0.0764635,-0.0946723,0.143792,-0.126987,-0.0871481,0.0155258,0.0632095,0.00556946,-0.0442886,0.235786,-0.128593,0.150719,0.0490189,-9.97986,0.00656128,-0.0341797,0.053215,0.0112534,-0.193443,-0.00312805,0.00480652,0.171204
8,6,10.0097,0.00335693,-0.00473022,-2.42898,0.0529344,-0.0759786,0.0519917,0.0724962,-0.0949775,0.142877,-0.126987,-0.0877584,0.0177002,0.0691605,0.0374603,0.0368118,0.235176,-0.114365,0.16922,0.0475693,-9.97986,-3.8147e-005,-0.0292206,0.0497818,-0.0354385,-0.206642,-0.00205994,0.00190735,0.163651
8,7,10.0097,0.000610352,-0.00518799,-2.42806,0.0544603,-0.0759786,0.0519917,0.0706652,-0.0946723,0.144708,-0.126377,-0.0877584,0.0148773,0.0740814,0.071907,0.0868225,0.227623,-0.105553,0.189667,0.0478363,-9.97986,0.00247955,-0.0296783,0.042572,-0.0826263,-0.214043,-0.00553131,-0.00335693,0.160713
8,8,10.0097,0.000610352,-0.00457764,-2.42898,0.0517137,-0.0753682,0.0522969,0.0688341,-0.0961982,0.142877,-0.127292,-0.0883688,0.0160217,0.0865555,0.117416,0.101814,0.22049,-0.0975037,0.192757,0.0470352,-9.97986,0.00541687,-0.0400162,0.0429535,-0.129623,-0.225487,-0.000686646,-0.0102997,0.149879
8,9,10.0097,0.00183105,-0.00473022,-2.4302,0.0538499,-0.0762837,0.0522969,0.0688341,-0.0952827,0.142877,-0.127292,-0.0883688,0.0127792,0.0860214,0.149422,0.130577,0.210228,-0.0848389,0.195961,0.050354,-9.97986,0.00583649,-0.0388336,0.0404739,-0.173645,-0.224838,0.00225067,-0.0109863,0.148239
9,0,10.0097,0.000610352,-0.00427246,-2.42959,0.0547655,-0.0753682,0.0532125,0.0685289,-0.0952827,0.143182,-0.126682,-0.0871481,0.0122452,0.0727463,0.167313,0.122528,0.202522,-0.084343,0.177002,0.0524139,-9.97986,0.0101471,-0.0392151,0.0414276,-0.204735,-0.232353,0.00404358,-0.0168991,0.14019
9,1,10.0097,-0.000305176,-0.00366211,-2.42623,0.0535448,-0.0765889,0.0544332,0.0691393,-0.0934516,0.143487,-0.127292,-0.0859274,0.00988007,0.0704575,0.172577,0.0722504,0.18959,-0.0825119,0.159912,0.0484848,-9.97986,0.00862122,-0.0426102,0.0320435,-0.241127,-0.243073,0.00259399,-0.0255966,0.130844
9,2,10.0097,0.000305176,-0.00534058,-2.42898,0.0547655,-0.0741475,0.0522969,0.0700548,-0.0934516,0.145013,-0.125461,-0.0856222,0.0129318,0.0813675,0.164757,0.0428772,0.175362,-0.0598907,0.148315,0.0593185,-9.97986,0.0123215,-0.0379181,0.0368118,-0.300331,-0.246391,0.00606537,-0.0253677,0.132141
9,3,10.0097,0.0012207,-0.00534058,-2.42745,0.0550706,-0.0735371,0.0532125,0.0688341,-0.0928413,0.145013,-0.125766,-0.085317,0.00556946,0.0798035,0.127792,0.0262451,0.159988,-0.0440216,0.144653,0.0514603,-9.97986,0.00892639,-0.0364304,0.0325775,-0.343704,-0.249901,0.00541687,-0.0341034,0.123596
9,4,10.0097,-0.000915527,-0.00320435,-2.42531,0.0559862,-0.0735371,0.0547383,0.0688341,-0.0931465,0.145929,-0.125156,-0.0840963,0.0137329,0.0707626,0.0857162,0.0117111,0.149117,-0.0325775,0.141983,0.0517654,-9.97986,0.00663757,-0.032196,0.0279236,-0.379982,-0.251465,0.00736237,-0.0403976,0.116005
9,5,10.0097,-0.00183105,-0.00549316,-2.42531,0.0559862,-0.0738423,0.0526021,0.07036,-0.0931465,0.145624,-0.125156,-0.0834859,0.00999451,0.0505447,0.0426865,0.00419617,0.135574,-0.0178528,0.157776,0.0515747,-9.97986,0.00854492,-0.0232697,0.0281525,-0.442009,-0.248489,0.00896454,-0.045166,0.112839
9,6,10.0097,0.000610352,-0.00518799,-2.4247,0.0569017,-0.0735371,0.0550435,0.0712755,-0.0919257,0.145624,-0.123935,-0.0813497,0.0130081,0.0320435,0.0149155,-0.00400543,0.124741,-0.000953674,0.171471,0.0574112,-9.97986,0.00595093,-0.0240707,0.023613,-0.498161,-0.243988,0.00682831,-0.051384,0.1054
9,7,10.0097,0.00152588,-0.00473022,-2.42623,0.0565965,-0.0735371,0.054128,0.0709703,-0.0910102,0.147455,-0.123935,-0.0825704,0.0128174,0.0354004,-0.0107193,-0.0172806,0.104752,0.00659943,0.176582,0.057373,-9.97986,0.0082016,-0.0183105,0.0197601,-0.531731,-0.239563,0.00740051,-0.0548553,0.102158
9,8,10.0097,0.0012207,-0.00396729,-2.42592,0.0575121,-0.073232,0.0556539,0.0718859,-0.0916206,0.149286,-0.12302,-0.0819601,0.00976563,0.0289536,-0.0238419,-0.0452423,0.0938416,0.0196075,0.18219,0.0566483,-9.97986,0.0043869,-0.0189209,0.0202179,-0.573196,-0.238724,0.00896454,-0.056839,0.0922012
9,9,10.0097,-0.000610352,-0.00259399,-2.42409,0.055681,-0.0741475,0.0535176,0.0700548,-0.0910102,0.146234,-0.125766,-0.0825704,0.0108719,0.0216675,-0.0337982,-0.0918961,0.0820541,0.0191879,0.183983,0.0551224,-9.97986,0.0069809,-0.0247574,0.0227737,-0.601425,-0.236931,0.00511169,-0.0625992,0.0906754
10,0,10.0097,0.00152588,-0.00457764,-2.42623,0.0562914,-0.0747579,0.0535176,0.054796,-0.0934516,0.147149,-0.125766,-0.0828756,0.0152206,0.0276184,-0.0305176,-0.115547,0.0678635,0.0167465,0.188293,0.0506973,-9.97986,0.00160217,-0.0193787,0.0136566,-0.630989,-0.233765,0.00549316,-0.0629425,0.0878143
10,1,10.0097,-0.000610352,-0.00396729,-2.42623,0.0562914,-0.0738423,0.0562642,0.0590685,-0.0922309,0.146234,-0.125766,-0.0834859,0.0139999,0.0266647,-0.0144577,-0.0945282,0.0577164,0.0103378,0.192299,0.0455093,-9.97986,0.0044632,-0.00480652,0.0143814,-0.663605,-0.233192,0.00427246,-0.063591,0.076828
10,2,10.0097,0.000610352,-0.0038147,-2.42623,0.0575121,-0.0735371,0.054128,0.0663927,-0.0919257,0.145929,-0.125766,-0.0837911,0.0186539,0.0287247,0.00507355,-0.0908279,0.0437164,0.0125504,0.200119,0.0413132,-9.97986,0.00743866,-0.00217438,0.00843048,-0.713806,-0.234871,-0.000648499,-0.0654984,0.0730133
10,3,10.0097,0.000915527,-0.00427246,-2.42562,0.0559862,-0.0744527,0.0547383,0.0740221,-0.0928413,0.146234,-0.125766,-0.0850118,0.0156403,0.0266647,0.0232315,-0.0373077,0.0399017,0.0164795,0.215149,0.0417328,-9.97986,0.00747681,0.000801086,0.00221252,-0.762177,-0.247383,-0.000648499,-0.0640488,0.0689316
10,4,10.0097,0.000915527,-0.00320435,-2.42623,0.0559862,-0.0747579,0.0556539,0.0911119,-0.0900947,0.142877,-0.125766,-0.085317,0.0177002,0.0214386,0.0313568,-0.00709534,0.0295639,0.0227737,0.219116,0.0411987,-9.97986,0.0056839,-0.00087738,-0.00175476,-0.805511,-0.250015,0.00411987,-0.0626373,0.064621
10,5,10.0097,0.000610352,-0.00305176,-2.42989,0.0535448,-0.0741475,0.0522969,0.0767687,-0.0946723,0.143182,-0.126377,-0.0877584,0.0178909,0.0184631,0.0482941,-0.0327301,0.0196457,0.0310516,0.223312,0.0377274,-9.97986,0.00766754,-0.0088501,-0.00782013,-0.846672,-0.248985,0.00617981,-0.0543594,0.0659943
10,6,10.0097,0,-0.00427246,-2.42898,0.0529344,-0.0723164,0.0516866,0.0715807,-0.0937568,0.143182,-0.126377,-0.0871481,0.0166702,0.0231934,0.0664139,-0.00957489,0.0114822,0.0379181,0.232849,0.0401306,-9.97986,0.00774384,-0.00621796,-0.00926971,-0.895157,-0.245552,0.00511169,-0.0512695,0.0598145
10,7,10.0097,-0.000610352,-0.00350952,-2.42867,0.0541551,-0.075063,0.0504659,0.0709703,-0.0946723,0.142267,-0.127903,-0.0874532,0.0136566,0.0323868,0.0637054,0.0302124,0.00102997,0.0409698,0.241089,0.039978,-9.97986,0.0124741,-0.00564575,-0.0154495,-0.928383,-0.245628,0.00865936,-0.0474548,0.0535965
10,8,10.0097,0.000610352,-0.00534058,-2.4305,0.0532396,-0.0762837,0.0510762,0.0694445,-0.095893,0.143182,-0.128208,-0.0877584,0.00999451,0.0476837,0.0617599,0.0107956,-0.00144958,0.0282288,0.244827,0.0392914,-9.97986,0.0126648,-0.00320435,-0.0163269,-0.958443,-0.245857,0.00640869,-0.0428772,0.045929
10,9,10.0097,-0.000915527,-0.0038147,-2.43142,0.0541551,-0.0768941,0.0526021,0.0697496,-0.0937568,0.143182,-0.126682,-0.0883688,0.00888824,0.0507355,0.061264,-0.0156403,-0.00682831,0.0309753,0.252876,0.0365829,-9.97986,0.0190353,0.00400543,-0.0223923,-0.989685,-0.243912,0.00305176,-0.042305,0.0448227
11,0,10.0097,0,-0.0038147,-2.42776,0.0535448,-0.0753682,0.0483296,0.0682238,-0.0949775,0.145624,-0.127292,-0.0868429,0.0114441,0.0494385,0.0571823,-0.00205994,-0.00980377,0.0337601,0.259399,0.0343704,-9.97986,0.0163651,0,-0.0268555,-1.00548,-0.24395,0.00648499,-0.0432587,0.0402069
11,1,10.0097,0.000915527,-0.00259399,-2.42714,0.0544603,-0.0741475,0.0538228,0.0712755,-0.0946723,0.145013,-0.126377,-0.0856222,0.010643,0.0488281,0.0440216,0.0324631,-0.0192642,0.0448608,0.262451,0.0306702,-9.97986,0.0172043,-0.00587463,-0.029335,-1.02779,-0.242081,0.00427246,-0.0379181,0.0327682
11,2,10.0097,0.00152588,-0.00228882,-2.42714,0.0535448,-0.0747579,0.0532125,0.0691393,-0.0931465,0.144708,-0.125461,-0.0859274,0.0131989,0.0522614,0.0336838,0.0370789,-0.0224686,0.0611877,0.268784,0.0322723,-9.97986,0.0170898,0.00797272,-0.0311661,-1.0421,-0.231209,0.00415802,-0.0366592,0.0328827
11,3,10.0097,0.000610352,-0.00213623,-2.42684,0.0562914,-0.0747579,0.0547383,0.0694445,-0.0934516,0.144708,-0.126072,-0.0840963,0.0119019,0.0513458,0.0225449,0.0235367,-0.0297546,0.0707626,0.268593,0.0376892,-9.97986,0.0196838,0.0129318,-0.0334549,-1.06174,-0.226555,0.00576019,-0.0320435,0.0258255
11,4,10.0097,0.000610352,-0.00106812,-2.42562,0.0559862,-0.0747579,0.0532125,0.0709703,-0.0910102,0.145318,-0.125766,-0.0825704,0.0139999,0.0522232,0.0134659,0.00614166,-0.0333786,0.077095,0.269966,0.0402069,-9.97986,0.0154495,0.0019455,-0.0408936,-1.06785,-0.223579,0.0056076,-0.0276184,0.0219727
11,5,10.0097,-0.000305176,-0.000152588,-2.4247,0.055681,-0.0756734,0.0544332,0.0718859,-0.0913154,0.146234,-0.124241,-0.0813497,0.00854492,0.0449371,0.00198364,0.00354767,-0.0374222,0.0803375,0.268326,0.0406647,-9.97986,0.0187683,-0.00869751,-0.0432205,-1.05988,-0.218277,0.00873566,-0.0256348,0.0138474
11,6,10.0097,-0.0012207,0.000610352,-2.42501,0.0581224,-0.073232,0.0556539,0.0728014,-0.0919257,0.146234,-0.12363,-0.0807394,0.0109863,0.049324,-0.001297,0.0364304,-0.0397873,0.0968933,0.266953,0.0400162,-9.97986,0.0196838,-0.000343323,-0.0437164,-1.05179,-0.207329,0.00797272,-0.0205994,0.0056076
11,7,10.0097,0.000915527,0.00152588,-2.42562,0.0562914,-0.0738423,0.0553487,0.07036,-0.0910102,0.145318,-0.126072,-0.0810445,0.0157166,0.0455093,0.00038147,0.0463104,-0.0478745,0.0987625,0.260544,0.0355911,-9.97986,0.0181198,0.0163651,-0.0455093,-1.03348,-0.199966,0.0111008,-0.0162506,0.00141144
11,8,10.0097,-0.000305176,0.0012207,-2.42562,0.0562914,-0.0729268,0.0553487,0.0706652,-0.0913154,0.14776,-0.125156,-0.0804342,0.0134277,0.04879,0.00991821,0.0362778,-0.051384,0.0956726,0.253372,0.0351715,-9.97986,0.0151062,0.016098,-0.0449371,-1.02131,-0.18959,0.00396729,-0.0146484,0.00209808
11,9,10.0097,0,0.000762939,-2.4247,0.0562914,-0.0741475,0.054128,0.0700548,-0.0922309,0.14837,-0.123935,-0.0807394,0.0134659,0.0499344,0.0125885,0.0229263,-0.0548172,0.101547,0.241508,0.0327301,-9.97986,0.0140381,0.0113297,-0.050354,-1.02146,-0.178566,0.00366211,-0.00694275,-0.00587463
12,0,10.0097,0.000610352,0.00183105,-2.42531,0.0553758,-0.0747579,0.054128,0.0554064,-0.094062,0.145624,-0.125156,-0.0819601,0.0104523,0.0349808,0.00988007,0.0336075,-0.0579071,0.109787,0.22934,0.0328064,-9.97986,0.0163651,0.00816345,-0.0512314,-0.988235,-0.169029,0.000305176,-0.00595093,-0.00827789
12,1,10.0097,0,0.00198364,-2.42653,0.0565965,-0.075063,0.0556539,0.0602892,-0.0934516,0.145929,-0.125461,-0.0816549,0.0143433,0.0234604,0.0200653,0.0322342,-0.062027,0.117226,0.216293,0.0269318,-9.97986,0.0165558,0.00904083,-0.0533676,-0.95829,-0.156403,-0.00164032,-0.000228882,-0.01297
12,2,10.0097,0.000305176,0.00183105,-2.42684,0.055681,-0.0744527,0.0544332,0.0666979,-0.0910102,0.145929,-0.125156,-0.0819601,0.00892639,0.0182343,0.0344849,0.0131989,-0.0584793,0.115585,0.199661,0.0295639,-9.97986,0.0186157,0.00900269,-0.0580597,-0.942001,-0.148048,-0.00255585,0.00240326,-0.0191116
12,3,10.0097,-0.000610352,0.00335693,-2.42592,0.055681,-0.0756734,0.0538228,0.0737169,-0.0928413,0.145624,-0.125766,-0.0816549,0.0112152,0.0268555,0.0417709,-0.012207,-0.063858,0.094986,0.185394,0.0292587,-9.97986,0.0190735,0.0143433,-0.0523758,-0.889511,-0.14061,-0.000610352,0.00602722,-0.0203323
12,4,10.0097,0.000915527,0.00640869,-2.42684,0.0559862,-0.075063,0.054128,0.0901964,-0.0903999,0.145013,-0.124241,-0.0825704,0.01091,0.0254059,0.0435638,-0.0359726,-0.0585175,0.0860977,0.170746,0.0273132,-9.97986,0.0148773,0.0131226,-0.0593185,-0.826569,-0.133362,-0.00114441,0.0105667,-0.0265121
12,5,10.0097,0,0.00579834,-2.42898,0.0538499,-0.0759786,0.0526021,0.0776842,-0.0943672,0.143487,-0.125766,-0.0834859,0.00896454,0.0237656,0.0493622,-0.03582,-0.0581741,0.0757217,0.152779,0.020752,-9.97986,0.017395,0.0121689,-0.0539398,-0.759697,-0.124626,-0.00137329,0.013504,-0.030632
12,6,10.0097,-0.00183105,0.00808716,-2.42837,0.0538499,-0.0756734,0.0526021,0.0724962,-0.0952827,0.144708,-0.126377,-0.0840963,0.0130463,0.0259399,0.0436783,-0.018692,-0.0567245,0.069809,0.133514,0.00923157,-9.97986,0.013237,0.0162888,-0.0558472,-0.656052,-0.115929,0.0038147,0.0162888,-0.0322342
12,7,10.0097,-0.000610352,0.00991821,-2.42867,0.0538499,-0.0756734,0.0526021,0.0706652,-0.0946723,0.144403,-0.126682,-0.0831808,0.0121689,0.0216675,0.0413132,0.00331879,-0.0539398,0.0727463,0.111351,0.00255585,-9.97986,0.0105667,0.018692,-0.0538254,-0.516357,-0.115852,-0.000152588,0.025177,-0.0352478
12,8,10.0097,0.000305176,0.0109863,-2.42928,0.0535448,-0.0756734,0.0516866,0.0697496,-0.0946723,0.144098,-0.126682,-0.0837911,0.0124741,0.0174332,0.0409698,0.0179672,-0.0563431,0.0609589,0.0956726,0.00831604,-9.97986,0.0163269,0.0170898,-0.0536346,-0.403252,-0.100899,0.000572205,0.033493,-0.0384521
12,9,10.0097,0.00152588,0.0114441,-2.42928,0.0541551,-0.0762837,0.0519917,0.0688341,-0.0946723,0.144708,-0.127903,-0.0819601,0.0125504,0.0179672,0.0362015,-0.0242996,-0.0500488,0.0560379,0.0767517,0.021286,-9.97986,0.010376,0.0137329,-0.0535202,-0.263443,-0.0895691,0.00209808,0.0425339,-0.038414
13,0,10.0097,-0.00183105,0.0144958,-2.42806,0.0544603,-0.0753682,0.0526021,0.07036,-0.0931465,0.144403,-0.126987,-0.0822652,0.0118637,0.0102615,0.0438309,-0.0445938,-0.0517654,0.0441742,0.0570679,0.0286484,-9.97986,0.0151443,0.0218201,-0.0522614,-0.0887299,-0.0826645,0.00148773,0.0430679,-0.0436783
13,1,10.0097,-0.000610352,0.0141907,-2.42745,0.0547655,-0.075063,0.0538228,0.0694445,-0.094062,0.144708,-0.126072,-0.0813497,0.0136948,0.0107956,0.0386047,-0.0753021,-0.0489426,0.0392914,0.0361252,0.0289917,-9.97986,0.0186539,0.0195694,-0.0549698,0.0520325,-0.0692368,0.000991821,0.0473785,-0.0432587
13,2,10.0097,-0.0012207,0.0157166,-2.42684,0.0550706,-0.075063,0.0529073,0.0700548,-0.0928413,0.144403,-0.125156,-0.0798238,0.0124359,0.00175476,0.0309372,-0.125618,-0.0447464,0.0400925,0.022316,0.0307465,-9.97986,0.0173187,0.0115585,-0.0556564,0.220795,-0.0530624,0.00476837,0.0542068,-0.0440216
13,3,10.0097,0.00152588,0.0175476,-2.42684,0.0553758,-0.0744527,0.0532125,0.0685289,-0.0937568,0.145013,-0.125156,-0.0798238,0.0127411,-0.00358582,0.0338745,-0.130615,-0.04879,0.0409698,0.00164032,0.0273514,-9.97986,0.00862122,-0.0025177,-0.0537109,0.411339,-0.0402451,0.00305176,0.0583267,-0.0455093
13,4,10.0097,-0.00152588,0.0201416,-2.42531,0.0553758,-0.0756734,0.0544332,0.07036,-0.0934516,0.145318,-0.125461,-0.0761617,0.0137711,-0.0101471,0.0527954,-0.137329,-0.0441742,0.0410843,-0.00694275,0.0217438,-9.97986,0.011673,0.00301361,-0.0578308,0.618629,-0.0217438,0.0038147,0.0581741,-0.0455856
13,5,10.0097,-0.000305176,0.0224304,-2.42501,0.0562914,-0.0741475,0.0544332,0.0706652,-0.0910102,0.148065,-0.124241,-0.0755514,0.00961304,-0.0200653,0.0550079,-0.0827026,-0.0413513,0.0346756,-0.0180817,0.0230408,-9.97986,0.0153351,0.00846863,-0.0544357,0.875893,-0.00663757,-0.00263214,0.0619888,-0.04673
13,6,10.0097,-0.000915527,0.0257874,-2.42562,0.0559862,-0.0735371,0.0544332,0.0709703,-0.0922309,0.147149,-0.124241,-0.0740255,0.0136948,0.00167847,0.0384903,0.0311279,-0.0430298,0.0340652,-0.0266647,0.0214386,-9.97986,0.0182343,0.00858307,-0.0537491,1.15265,0.00953674,-0.00896454,0.0642395,-0.0516129
13,7,10.0097,0.000305176,0.0280762,-2.42501,0.0559862,-0.0741475,0.0553487,0.0673082,-0.0916206,0.147149,-0.123935,-0.0734151,0.00793457,0.0484848,0.0312042,0.0608063,-0.0379944,0.0285721,-0.0405121,0.0163269,-9.97986,0.0157547,0.0172806,-0.0501251,1.24996,0.0206375,-0.0156784,0.0647354,-0.0518417
13,8,10.0097,-0.000305176,0.0292969,-2.42501,0.0559862,-0.0738423,0.0562642,0.0709703,-0.090705,0.147455,-0.124241,-0.0728048,0.0117111,0.0667572,0.0403976,0.0169373,-0.037384,0.0357819,-0.0549316,0.0141525,-9.97986,0.0148773,0.0283813,-0.0439453,1.24996,0.0345993,-0.0100708,0.0683594,-0.0525284
13,9,10.0097,-0.0012207,0.027771,-2.4244,0.0569017,-0.0735371,0.0544332,0.0712755,-0.0922309,0.147455,-0.12363,-0.0734151,0.0069046,0.057869,0.0534058,-0.00453949,-0.0372696,0.0351715,-0.0786209,0.00759125,-9.97986,0.0100708,0.016861,-0.0403214,1.24996,0.0488281,-0.0162506,0.0696182,-0.0576401
14,0,10.0097,-0.000915527,0.0230408,-2.42653,0.0562914,-0.0747579,0.0544332,0.0538805,-0.0943672,0.142572,-0.125766,-0.0755514,0.0094986,0.0498581,0.0585556,0.0534821,-0.0389481,0.0299835,-0.0831223,0.0102615,-9.97986,0.00743866,0.00896454,-0.0369263,1.24996,0.0637054,-0.0105286,0.0764084,-0.0538254
14,1,10.0097,0,0.019989,-2.42501,0.0559862,-0.0738423,0.0535176,0.0572374,-0.0913154,0.146844,-0.124851,-0.0767721,0.00587463,0.0356293,0.0370407,0.113029,-0.0557327,0.0117874,-0.0917816,0.00823975,-9.97986,0.00946045,-0.00385284,-0.0360107,1.24996,0.0689316,-0.0172806,0.0717926,-0.0603485
14,2,10.0097,0.000610352,0.0177002,-2.42592,0.0562914,-0.0747579,0.0544332,0.0654772,-0.0916206,0.145013,-0.125461,-0.0776876,0.0139618,0.030098,0.0305557,0.156174,-0.049324,0.00572205,-0.0819778,0.0217056,-9.97986,0.00858307,0.0109482,-0.0280762,1.24996,0.0832367,-0.00900269,0.0839996,-0.0559235
14,3,10.0097,0.00244141,0.0141907,-2.42592,0.055681,-0.0744527,0.0538228,0.0728014,-0.0910102,0.145318,-0.124851,-0.0795187,0.000724792,0.0149536,0.0334167,0.142479,-0.0667191,-0.00366211,-0.0788879,0.0197601,-9.97986,0.0038147,0.0120544,-0.029335,1.24996,0.0875473,-0.0112152,0.0843048,-0.0604248
14,4,10.0097,-0.000915527,0.0134277,-2.42714,0.0544603,-0.0744527,0.054128,0.0923326,-0.0913154,0.144708,-0.124546,-0.0816549,0.00156403,0.0352478,0.0416183,0.0803757,-0.0619125,-0.00125885,-0.0648117,0.00423431,-9.97986,0.00167847,0.010643,-0.0231552,1.24996,0.0993347,-0.0125885,0.0920486,-0.0605774
14,5,10.0097,0.000915527,0.012207,-2.42837,0.0532396,-0.0744527,0.0529073,0.0776842,-0.0934516,0.144098,-0.126377,-0.0831808,-0.001297,0.0622559,0.0373459,0.030632,-0.0469971,-0.00400543,-0.0511932,0.0113678,-9.97986,0.00408173,0.00980377,-0.0168991,1.24996,0.105629,-0.00915527,0.0969315,-0.0562668
14,6,10.0097,0.00152588,0.00991821,-2.42898,0.0535448,-0.0747579,0.0522969,0.0728014,-0.0968086,0.142877,-0.127292,-0.0840963,0.00404358,0.0493622,0.0348663,0.0147629,-0.0418472,-0.00423431,-0.0554657,0.0262833,-9.97986,0.00392914,0.0256348,-0.0189209,1.24996,0.107689,-0.00343323,0.103073,-0.0582886
14,7,10.0097,0.00152588,0.00701904,-2.42928,0.0538499,-0.0762837,0.0529073,0.07036,-0.0949775,0.144708,-0.127598,-0.0850118,0.00324249,0.0289536,0.0405121,0.0234604,-0.046196,-0.00144958,-0.0415421,0.0221634,-9.97986,0.00659943,0.0402069,-0.014267,1.24996,0.118103,-0.00312805,0.106773,-0.0561142
14,8,10.0097,-0.000305176,0.00640869,-2.42959,0.0541551,-0.0756734,0.0522969,0.0691393,-0.0949775,0.142877,-0.127598,-0.0859274,0.00244141,0.0189972,0.0291824,0.055275,-0.0494385,0.000991821,-0.0463486,0.0349045,-9.97986,0.01194,0.0374985,-0.0117111,1.24996,0.122337,-0.0082016,0.114326,-0.058136
14,9,10.0097,0.000610352,0.00579834,-2.42898,0.0535448,-0.0762837,0.0535176,0.0694445,-0.0946723,0.139825,-0.127598,-0.0850118,0.00522614,0.0183868,0.00980377,0.0763702,-0.0523758,0.0037384,-0.0581741,0.0664902,-9.97986,0.0185394,0.0312042,-0.0151443,1.24996,0.122147,-0.00770569,0.110283,-0.0572968
15,0,10.0097,-0.000305176,0.00579834,-2.42837,0.0544603,-0.0753682,0.0522969,0.0691393,-0.094062,0.143487,-0.127598,-0.0847066,0.00534058,0.0286484,-0.00984192,0.0906754,-0.0541687,0.00656128,-0.0813293,0.0735092,-9.97986,0.0277328,0.018158,-0.0190735,1.24996,0.134125,-0.00484467,0.116196,-0.0549698
15,1,10.0097,-0.00244141,0.00671387,-2.42776,0.0541551,-0.0747579,0.0532125,0.07036,-0.0931465,0.144708,-0.125156,-0.0825704,0.0141144,0.014534,-0.0149918,0.107002,-0.050087,0.0157547,-0.106354,0.0551987,-9.97986,0.0402451,0.00900269,-0.0201416,1.24996,0.133286,-0.00637054,0.116577,-0.0553131
15,2,10.0097,0.000915527,0.00686646,-2.42776,0.0553758,-0.0753682,0.0526021,0.0712755,-0.0925361,0.143792,-0.127598,-0.0822652,0.0260544,-0.001297,-0.0168991,0.084343,-0.0485611,0.0218964,-0.115395,0.0368881,-9.97986,0.0323868,0.0185013,-0.0191498,1.24996,0.137634,-0.00354767,0.120659,-0.0547028
15,3,10.0097,-0.0012207,0.00808716,-2.42684,0.0562914,-0.0747579,0.0529073,0.0691393,-0.0931465,0.145013,-0.125461,-0.0813497,0.0229263,0.00778198,-0.0308228,0.0573349,-0.0476074,0.034256,-0.115547,0.0452042,-9.97986,0.0199509,0.0229645,-0.0215912,1.24996,0.146523,-0.00629425,0.117912,-0.0510025
15,4,10.0097,0.00152588,0.00717163,-2.42623,0.0547655,-0.0741475,0.0538228,0.0694445,-0.0916206,0.145929,-0.125461,-0.0807394,0.0265503,0.0139236,-0.0279999,0.0397491,-0.0497437,0.0389862,-0.105286,0.0555038,-9.97986,0.0160599,0.0200272,-0.0242996,1.24996,0.14698,-0.00549316,0.114555,-0.0518417
15,5,10.0097,-0.000610352,0.00442505,-2.42531,0.0569017,-0.0747579,0.054128,0.0697496,-0.0922309,0.146844,-0.123935,-0.0807394,0.0186539,0.0131989,-0.0239182,0.028038,-0.0444031,0.0486755,-0.0992584,0.0351715,-9.97986,0.0152206,0.0186157,-0.0266266,1.24996,0.151901,-0.00747681,0.113754,-0.04879
15,6,10.0097,-0.000610352,0.00152588,-2.42592,0.0569017,-0.0735371,0.0550435,0.0700548,-0.0916206,0.146844,-0.123935,-0.0813497,0.0131607,0.0138855,-0.0256348,0.0299835,-0.047226,0.0585556,-0.0999451,0.013504,-9.97986,0.0149536,0.0115967,-0.0276566,1.24996,0.150833,-0.00858307,0.110168,-0.0508118
15,7,10.0097,0.0012207,-0.00442505,-2.4247,0.0562914,-0.0744527,0.0553487,0.0709703,-0.0910102,0.147149,-0.124241,-0.0828756,0.00984192,0.0107193,-0.0239182,0.0259399,-0.0408173,0.0769424,-0.0902939,0.00652313,-9.97986,0.0163651,0.0120163,-0.0315857,1.24996,0.158005,-0.00743866,0.10498,-0.0451279
15,8,10.0097,-0.000305176,-0.0123596,-2.42379,0.0562914,-0.0726216,0.0556539,0.0715807,-0.0913154,0.146539,-0.12363,-0.0844015,0.00671387,0.0148392,-0.0135803,0.0248337,-0.0381088,0.0870514,-0.0886536,0.00526428,-9.97986,0.0230408,0.0148773,-0.0329971,1.24996,0.164604,-0.00743866,0.0968933,-0.0456619
15,9,10.0097,0.0012207,-0.0135803,-2.42592,0.0562914,-0.0744527,0.0562642,0.0718859,-0.0919257,0.146539,-0.12363,-0.085317,0.01091,0.0112915,-0.00801086,0.0188065,-0.0362015,0.101967,-0.0883484,0.0117111,-9.97986,0.0293732,0.0127411,-0.0335693,1.24996,0.161057,-0.00770569,0.0888824,-0.0439072
16,0,10.0097,-0.000305176,-0.0157166,-2.42562,0.0575121,-0.0744527,0.0532125,0.0551012,-0.094062,0.146234,-0.125766,-0.085317,0.0190735,0.0125504,-0.0030899,0.014801,-0.0289536,0.112839,-0.0775146,-0.0410843,-9.97986,0.0364304,0.0120926,-0.0349045,1.24996,0.162201,-0.0109482,0.0825119,-0.0404739
16,1,10.0097,0.0012207,-0.0158691,-2.42592,0.0562914,-0.0747579,0.054128,0.0596788,-0.0925361,0.144403,-0.125766,-0.0862325,0.0158691,0.00637054,0.00312805,0.010643,-0.0230026,0.118256,-0.0753021,-0.0898361,-9.97986,0.0402832,0.0172806,-0.0347519,1.24996,0.160828,-0.00652313,0.0792313,-0.0409317
16,2,10.0097,0.000305176,-0.0152588,-2.42714,0.0559862,-0.0747579,0.0538228,0.0666979,-0.0937568,0.147149,-0.125766,-0.0865377,0.0146484,0.0111771,0.0115585,0.00530243,-0.018425,0.126686,-0.0656891,-0.0802231,-9.97986,0.0418091,0.0123978,-0.0307465,1.24996,0.161018,-0.00869751,0.0698471,-0.0395966
16,3,10.0097,0.000610352,-0.0132751,-2.42684,0.0562914,-0.0747579,0.0532125,0.0728014,-0.0913154,0.146234,-0.125766,-0.0865377,0.00610352,0.0249481,0.0152588,0.00282288,-0.0180054,0.132256,-0.068512,-0.0713348,-9.97986,0.0314713,0.0160217,-0.0308609,1.24996,0.160065,-0.00453949,0.0568771,-0.0397491
16,4,10.0097,0.00244141,-0.0135803,-2.42714,0.0541551,-0.0741475,0.0535176,0.0914171,-0.0910102,0.144403,-0.125461,-0.0877584,0.00511169,0.0375366,0.0227737,-0.00133514,-0.0111771,0.134583,-0.0613022,-0.0425339,-9.97986,0.0289536,0.018425,-0.0288773,1.24996,0.155144,-0.0043869,0.0530624,-0.0360107
16,5,10.0097,0.000915527,-0.017395,-2.42867,0.0535448,-0.0747579,0.0522969,0.0764635,-0.0949775,0.143792,-0.126072,-0.0911153,0.00766754,0.0371933,0.0305557,-0.0100708,-0.00431061,0.133743,-0.055542,-0.0133514,-9.97986,0.0259781,0.0183105,-0.0289917,1.24996,0.154686,-0.00164032,0.0416946,-0.0395966
16,6,10.0097,0,-0.0224304,-2.42898,0.0538499,-0.0759786,0.0519917,0.0718859,-0.0952827,0.142572,-0.127292,-0.0926412,0.0094986,0.0280762,0.0267792,-0.00305176,0.00102997,0.149536,-0.0537109,0.00991821,-9.97986,0.0333023,0.0150299,-0.0305557,1.24996,0.152664,-0.00183105,0.030899,-0.0357437
16,7,10.0097,-0.000915527,-0.0224304,-2.42928,0.0550706,-0.0747579,0.0519917,0.0694445,-0.0931465,0.143487,-0.126987,-0.0926412,0.0116348,0.0111771,0.0244904,-0.00358582,0.0121307,0.145264,-0.0405884,0.0157166,-9.97986,0.0377274,0.00862122,-0.024147,1.24996,0.150261,0.00087738,0.026474,-0.03582
16,8,10.0097,0,-0.0216675,-2.42867,0.0541551,-0.0759786,0.0516866,0.0666979,-0.0934516,0.143487,-0.125461,-0.0932516,0.00747681,0.00602722,0.0265121,-0.00850677,0.0147629,0.148888,-0.0301743,-0.0247192,-9.97986,0.0365067,0.0107956,-0.0281525,1.24996,0.148964,0.00202179,0.013504,-0.0315857
16,9,10.0097,0.0012207,-0.0216675,-2.42806,0.0553758,-0.0759786,0.0526021,0.0688341,-0.0943672,0.143182,-0.127903,-0.0932516,0.0106049,0.0109863,0.027771,-0.0101089,0.0234985,0.150757,-0.0289154,-0.0449371,-9.97986,0.0358963,0.0128937,-0.0287628,1.09112,0.147896,0.00480652,0.00591278,-0.0325012
17,0,10.0097,0.0012207,-0.0216675,-2.42806,0.0547655,-0.075063,0.0519917,0.0676134,-0.0949775,0.143487,-0.127292,-0.0926412,0.013504,0.0378036,0.0329208,-0.00774384,0.022583,0.15255,-0.0289536,-0.0239182,-9.97986,0.0307083,-0.00141144,-0.0300217,0.886421,0.150719,0.00205994,-0.00297546,-0.0296402
17,1,10.0097,0.0012207,-0.0190735,-2.42745,0.0541551,-0.0765889,0.0529073,0.0694445,-0.0937568,0.144098,-0.126682,-0.090505,0.0140381,0.0456238,0.0169373,-0.00663757,0.0334549,0.148659,-0.033989,-0.00514984,-9.97986,0.0232697,-0.00152588,-0.0276184,0.705299,0.156174,0.000648499,-0.00904083,-0.0289154
17,2,10.0097,0.00183105,-0.0192261,-2.42684,0.055681,-0.0744527,0.054128,0.0706652,-0.094062,0.145013,-0.126072,-0.0901998,0.0104141,0.0147247,0.00797272,-0.00667572,0.0410843,0.156784,-0.0402832,0.00854492,-9.97986,0.026474,-0.00247955,-0.0271225,0.50106,0.153046,0.00236511,-0.0150299,-0.0304794
17,3,10.0097,-0.000915527,-0.0216675,-2.42806,0.0547655,-0.0753682,0.0532125,0.0679186,-0.0934516,0.144708,-0.128208,-0.0908102,0.0107956,-0.0135803,0.00881195,-0.0125885,0.0463486,0.151825,-0.0466156,0.00598907,-9.97986,0.0202942,-0.00354767,-0.0269699,0.249901,0.148926,0.00343323,-0.0215912,-0.0282288
17,4,10.0097,0,-0.0262451,-2.42501,0.055681,-0.0747579,0.0550435,0.07036,-0.0931465,0.145624,-0.125156,-0.0892843,0.0141907,-0.0271606,0.00602722,-0.018158,0.0452042,0.154343,-0.045929,0.00492096,-9.97986,0.0224304,-0.00530243,-0.0279617,-0.0494385,0.149727,0.00728607,-0.0265121,-0.0277328
17,5,10.0097,0.000610352,-0.030365,-2.42653,0.055681,-0.0741475,0.0535176,0.0709703,-0.094062,0.145624,-0.123325,-0.0911153,0.00659943,-0.0298309,0.000915527,-0.0222778,0.0566483,0.15419,-0.0455475,0.00114441,-9.97986,0.0207138,-0.0153351,-0.0310135,-0.389786,0.14782,0.00457764,-0.0272751,-0.0284195
17,6,10.0097,0.00152588,-0.0302124,-2.4244,0.0572069,-0.0726216,0.0556539,0.0697496,-0.090705,0.146234,-0.124851,-0.0901998,0.0104904,-0.0136566,0.00701904,-0.0226974,0.0644684,0.149536,-0.0418091,-0.00583649,-9.97986,0.0212479,-0.0102234,-0.0296402,-0.704689,0.140648,0.00572205,-0.0296402,-0.0247192
17,7,10.0097,0,-0.0309753,-2.42562,0.0550706,-0.0738423,0.0529073,0.07036,-0.0922309,0.146234,-0.124546,-0.0892843,0.00778198,0.0196838,0.0149155,-0.0257111,0.0704193,0.148621,-0.0395966,0.00202179,-9.97986,0.025177,0.00267029,-0.0257874,-1.01662,0.145645,0.0109482,-0.030899,-0.0265884
17,8,10.0097,0.000915527,-0.0286865,-2.42226,0.055681,-0.0738423,0.0544332,0.0706652,-0.0919257,0.147149,-0.124241,-0.0877584,0.00831604,0.0274277,0.0175858,-0.0224686,0.0743484,0.140419,-0.0188828,-0.0012207,-9.97986,0.0217056,-0.00862122,-0.0321579,-1.25,0.143929,0.0069809,-0.0331879,-0.0281525
17,9,10.0097,0.000610352,-0.0228882,-2.42501,0.0572069,-0.073232,0.0544332,0.0728014,-0.0913154,0.146539,-0.124546,-0.0859274,0.0114441,0.0217438,0.0127411,-0.0165176,0.0850296,0.139313,-0.00343323,-0.018692,-9.97986,0.0234604,-0.0234604,-0.0302887,-1.25,0.134354,0.00751495,-0.0337219,-0.0255203
18,0,10.0097,0.0012207,-0.0202942,-2.42684,0.055681,-0.0756734,0.0538228,0.054796,-0.094062,0.145929,-0.124851,-0.0883688,0.00797272,0.0193024,0.0151443,-0.014534,0.0924301,0.128593,0.00507355,-0.0230026,-9.97986,0.019722,-0.0205994,-0.033226,-1.25,0.130615,0.0069046,-0.034523,-0.0257111
18,1,10.0097,0.0012207,-0.0170898,-2.42562,0.0553758,-0.0738423,0.0529073,0.0593737,-0.0931465,0.145929,-0.125156,-0.0862325,0.0101089,0.0188446,0.0259018,-0.0125504,0.102196,0.12394,0.017395,-0.0216675,-9.97986,0.0141144,-0.039978,-0.0294876,-1.25,0.129623,0.0127411,-0.0407028,-0.0226593
18,2,10.0097,0.00244141,-0.0143433,-2.42562,0.0553758,-0.0747579,0.0538228,0.0660875,-0.0925361,0.145624,-0.124241,-0.0862325,0.00892639,0.022049,0.0285721,-0.0112534,0.104256,0.117264,0.0359344,-0.00499725,-9.97986,0.0174332,-0.0568771,-0.0305176,-1.25,0.121117,0.00682831,-0.0366974,-0.0239944
18,3,10.0097,0.0012207,-0.0115967,-2.42714,0.0572069,-0.0744527,0.0544332,0.0746324,-0.0916206,0.145318,-0.124851,-0.0859274,0.00938416,0.0333405,0.0347137,-0.00392914,0.108223,0.108604,0.0564957,0.0184631,-9.97986,0.0152206,-0.0426102,-0.03479,-1.25,0.117302,0.0108719,-0.0398254,-0.0212479
18,4,10.0097,0.000610352,-0.00701904,-2.42837,0.0544603,-0.0756734,0.050771,0.0905016,-0.0900947,0.144098,-0.124546,-0.0859274,0.0113678,0.0392151,0.0370407,0.00766754,0.113297,0.104256,0.0594711,0.0298691,-9.97986,0.0107193,-0.0260162,-0.0310516,-1.25,0.107994,0.00984192,-0.035553,-0.0217438
18,5,10.0097,-0.00152588,-0.00289917,-2.42989,0.0541551,-0.0768941,0.0529073,0.077379,-0.0965034,0.144098,-0.126377,-0.0868429,0.0102997,0.0399399,0.0329208,0.016098,0.116386,0.105019,0.0616074,0.027771,-9.97986,0.01194,-0.0179291,-0.0310135,-1.25,0.101891,0.00854492,-0.0353241,-0.0192261
18,6,10.0097,-0.00152588,-0.00152588,-2.42867,0.0544603,-0.0771993,0.0532125,0.0718859,-0.0943672,0.143792,-0.126987,-0.0859274,0.0103378,0.0317383,0.0350952,0.00770569,0.121269,0.0915527,0.0637436,0.0181961,-9.97986,0.0115204,-0.00976563,-0.0348663,-1.25,0.0892258,0.00812531,-0.0352478,-0.0180817
18,7,10.0097,0.0012207,-0.00228882,-2.42867,0.0535448,-0.0747579,0.0526021,0.07036,-0.0946723,0.142267,-0.127292,-0.0868429,0.00610352,0.0133133,0.0323105,-0.00247955,0.113449,0.0776672,0.0667572,0.00926971,-9.97986,0.00892639,-0.00495911,-0.0292206,-1.25,0.0761795,0.00930786,-0.0363922,-0.0191498
18,8,10.0097,-0.000305176,-0.00106812,-2.42928,0.0535448,-0.0762837,0.0529073,0.0663927,-0.0955879,0.141351,-0.127292,-0.0871481,0.0111389,0.0159073,0.032692,0.000686646,0.120964,0.0685883,0.0679398,-0.00724792,-9.97986,0.00534058,-0.00831604,-0.0234604,-1.25,0.0680161,0.00736237,-0.0319672,-0.028038
18,9,10.0097,0.00183105,-0.00137329,-2.42898,0.0523241,-0.0762837,0.0535176,0.0688341,-0.0952827,0.143182,-0.128513,-0.0871481,0.0101471,0.00469208,0.0258636,-0.00339508,0.112724,0.0526047,0.0712967,-0.022316,-9.97986,0.013504,-0.0233459,-0.026474,-1.25,0.0608444,0.00778198,-0.032692,-0.0222015
19,0,10.0097,0.000610352,0,-2.42806,0.0541551,-0.075063,0.0504659,0.07036,-0.0946723,0.145013,-0.126072,-0.0859274,0.0094223,3.8147e-005,0.019455,-0.00656128,0.110817,0.0482178,0.0740814,-0.0355148,-9.97986,0.0181961,-0.0245667,-0.0260925,-1.25,0.0557709,0.00778198,-0.0320816,-0.0257874
19,1,10.0097,-0.0012207,0.00320435,-2.42867,0.0544603,-0.0744527,0.0538228,0.0679186,-0.0946723,0.145013,-0.125461,-0.0834859,0.00728607,0.00331879,0.0207901,-0.00907898,0.104218,0.0350571,0.0810242,-0.0359726,-9.97986,0.0216293,-0.00869751,-0.0209808,-1.25,0.0501251,0.0120544,-0.0337219,-0.0175858
19,2,10.0097,0.00183105,0.00640869,-2.42776,0.0553758,-0.075063,0.0535176,0.0697496,-0.0931465,0.144403,-0.125461,-0.0822652,0.00919342,0.00370026,0.00904083,-0.00232697,0.100174,0.0296402,0.0826645,-0.0269318,-9.97986,0.0206375,0.0105286,-0.0134659,-1.25,0.0463867,0.0113678,-0.0318146,-0.0112152
19,3,10.0097,0.000915527,0.00915527,-2.42592,0.0559862,-0.0753682,0.0547383,0.0694445,-0.094062,0.145318,-0.126682,-0.0813497,0.010376,0.000190735,0.0121689,-0.00118256,0.0934982,0.0299072,0.0748444,0.00038147,-9.97986,0.0135803,0.00999451,-0.0148392,-1.25,0.0399399,0.00267029,-0.0325775,-0.00679016
19,4,10.0097,0.000610352,0.00915527,-2.42592,0.0553758,-0.0729268,0.0547383,0.0715807,-0.0913154,0.146539,-0.121799,-0.0789083,0.00644684,0.000228882,0.00656128,3.8147e-005,0.0857925,0.00869751,0.0704193,0.0346375,-9.97986,0.00854492,-0.00038147,-0.0122452,-1.25,0.0395584,0.0118256,-0.0282288,-0.00480652
19,5,10.0097,-0.000305176,0.00961304,-2.42531,0.0553758,-0.0741475,0.0544332,0.0694445,-0.0919257,0.146234,-0.124546,-0.0792135,-0.00152588,0.00968933,0.00602722,0.0025177,0.0734329,-0.00175476,0.0644684,0.0405502,-9.97986,0.00930786,-0.0109863,-0.00427246,-1.25,0.0402451,0.00530243,-0.028801,-7.62939e-005
19,6,10.0097,0.000305176,0.0100708,-2.4244,0.0569017,-0.0738423,0.0553487,0.0712755,-0.090705,0.148065,-0.124546,-0.0786031,0.00305176,0.0194168,0.00640869,-0.00389099,0.0719452,-0.0130463,0.0519943,0.0305939,-9.97986,0.01091,-0.0278473,-0.00160217,-1.25,0.0370026,0.00720978,-0.0289917,0.000419617
19,7,10.0097,0.000305176,0.0100708,-2.4244,0.0565965,-0.0744527,0.0535176,0.0724962,-0.0922309,0.145929,-0.123935,-0.0789083,0.00431061,0.0278473,0.0123596,0.000267029,0.0600052,-0.0255966,0.0490189,0.0361633,-9.97986,0.0153732,-0.0372314,0.00614166,-1.25,0.0391388,0.00896454,-0.0294495,0.0043869
19,8,10.0097,-0.000305176,0.0109863,-2.42531,0.0562914,-0.075063,0.0553487,0.0715807,-0.0910102,0.147149,-0.12302,-0.0779928,0.0128555,0.0214005,0.0167847,0.00385284,0.0496674,-0.0359726,0.0519562,0.0416946,-9.97986,0.0179672,-0.0303268,0.00526428,-1.22887,0.0346756,0.0120163,-0.0269699,0.00656128
19,9,10.0097,-0.000915527,0.0111389,-2.42562,0.0575121,-0.0741475,0.0550435,0.0709703,-0.0910102,0.146844,-0.12363,-0.0773824,0.0154495,0.0244141,0.0213242,0.00347137,0.0337601,-0.0518036,0.0521851,0.0405121,-9.97986,0.0177002,-0.0199127,0.0111389,-1.11259,0.0268555,0.00980377,-0.0245285,0.0120926
20,0,10.0097,-0.000305176,0.0109863,-2.4244,0.0565965,-0.0744527,0.0553487,0.0566271,-0.0928413,0.145013,-0.125766,-0.0776876,0.0139618,0.0376511,0.0159073,0.00324249,0.0201035,-0.0628281,0.0492859,0.036087,-9.97986,0.0198746,-0.0227737,0.0165939,-0.974121,0.0252151,0.00724792,-0.0252533,0.0106049
20,1,10.0097,-0.000305176,0.010376,-2.42653,0.0565965,-0.0744527,0.0553487,0.0593737,-0.0925361,0.147149,-0.125461,-0.0786031,0.0137329,0.0408936,0.0215912,-0.00282288,0.0135422,-0.0758743,0.0484467,0.0131989,-9.97986,0.0182343,-0.0318909,0.024147,-0.849457,0.0214386,0.0044632,-0.0271606,0.0114822
20,2,10.0097,0.000610352,0.0114441,-2.42684,0.0553758,-0.075063,0.0526021,0.0663927,-0.0925361,0.144098,-0.125461,-0.0795187,0.018158,0.0382996,0.0260162,-3.8147e-005,-0.00442505,-0.0920868,0.044632,-0.00343323,-9.97986,0.0211716,-0.0178146,0.0295639,-0.735588,0.0126648,0.00663757,-0.0255585,0.0151062
20,3,10.0097,-0.000610352,0.0119019,-2.42714,0.0562914,-0.0747579,0.0544332,0.0709703,-0.0928413,0.145013,-0.12363,-0.080129,0.0178909,0.0401306,0.0206757,0.00858307,-0.0182724,-0.0999451,0.037384,-0.00179291,-9.97986,0.0164413,-0.00564575,0.0337219,-0.61718,0.00850677,0.00556946,-0.0250626,0.0189972
20,4,10.0097,0.00213623,0.0128174,-2.42745,0.0550706,-0.0753682,0.0544332,0.0905016,-0.090705,0.145929,-0.125156,-0.0798238,0.0208664,0.0494766,0.0212097,0.00801086,-0.0283813,-0.11219,0.0326538,0.00473022,-9.97986,0.0190735,-0.00240326,0.042305,-0.498428,0.00534058,0.0056839,-0.0226593,0.0185013
20,5,10.0097,0.000610352,0.0119019,-2.42806,0.0535448,-0.0741475,0.0538228,0.0758531,-0.0949775,0.143487,-0.125461,-0.0825704,0.0144196,0.0434875,0.0105286,0.00789642,-0.0450516,-0.11528,0.0184631,0.0082016,-9.97986,0.0178909,0.00930786,0.0447083,-0.366783,-0.00278473,0.00389099,-0.0209427,0.019989
20,6,10.0097,-0.000915527,0.0131226,-2.42959,0.0547655,-0.0756734,0.0535176,0.0706652,-0.0952827,0.144403,-0.126682,-0.0828756,0.0131607,0.026474,0.0110626,0.010643,-0.0541306,-0.125504,0.0204849,0.0109863,-9.97986,0.0231171,0.025444,0.0485611,-0.231819,-0.00328064,0.00675201,-0.018959,0.0191498
20,7,10.0097,0.000915527,0.0119019,-2.42837,0.0541551,-0.0762837,0.0522969,0.0700548,-0.0943672,0.143487,-0.126987,-0.0831808,0.0143433,0.018425,0.0133133,0.00801086,-0.067749,-0.136375,0.0149918,0.0238037,-9.97986,0.0171661,0.0115204,0.0584412,-0.108948,-0.0044632,0.00434875,-0.0154877,0.022316
20,8,10.0097,-0.000610352,0.0112915,-2.42867,0.0532396,-0.0762837,0.0510762,0.0682238,-0.0955879,0.144403,-0.127292,-0.0844015,0.0125885,0.0268936,0.00984192,0.01194,-0.0839233,-0.142021,0.0175858,0.0429153,-9.97986,0.0138092,-0.00118256,0.0615692,-0.00339508,-0.00919342,0.0030899,-0.0147629,0.0238037
20,9,10.0097,-0.000305176,0.010376,-2.42928,0.0526292,-0.0759786,0.0526021,0.0682238,-0.0961982,0.144403,-0.127292,-0.0834859,0.0104141,0.0453186,0.016098,0.01194,-0.095253,-0.149879,0.0217819,0.0425339,-9.97986,0.0139236,-0.00511169,0.0675583,0.0984573,-0.0102997,-0.00347137,-0.0137711,0.0252151
21,0,10.0097,0.000915527,0.00808716,-2.42959,0.0544603,-0.0747579,0.0532125,0.0691393,-0.0943672,0.144403,-0.127292,-0.0840963,0.00743866,0.0417709,0.0164032,0.0187683,-0.114555,-0.15152,0.0288773,0.0428009,-9.97986,0.0130463,-0.017662,0.069809,0.169754,-0.0162888,-0.00347137,-0.0165176,0.0246429
21,1,10.0097,0.000305176,0.00701904,-2.42745,0.0541551,-0.0738423,0.0538228,0.0691393,-0.0943672,0.145013,-0.126682,-0.0828756,0.00541687,0.04673,0.0242996,0.0196075,-0.123253,-0.155449,0.0292969,0.0439072,-9.97986,0.0133896,-0.0179672,0.0712585,0.226555,-0.0164795,-0.00770569,-0.0121689,0.022049
21,2,10.0097,-0.000915527,0.00579834,-2.42745,0.0547655,-0.075063,0.0535176,0.0688341,-0.0934516,0.143792,-0.126377,-0.0834859,0.00587463,0.0449371,0.0296402,0.0172424,-0.134926,-0.153847,0.0253296,0.035553,-9.97986,0.0146484,-3.8147e-005,0.0740433,0.271454,-0.021019,-0.00659943,-0.00984192,0.0267792
21,3,10.0097,-0.000305176,0.00396729,-2.42714,0.0550706,-0.0747579,0.0532125,0.0688341,-0.0934516,0.145929,-0.125156,-0.0822652,0.0136185,0.0197601,0.0337219,0.019455,-0.14328,-0.159073,0.0131607,0.0198746,-9.97986,0.01194,0.0251389,0.0824356,0.293427,-0.0194931,-0.00492096,-0.0128555,0.0247955
21,4,10.0097,-0.000305176,0.00228882,-2.42562,0.0550706,-0.075063,0.0544332,0.07036,-0.0913154,0.145318,-0.125461,-0.0822652,0.0130081,0.00865936,0.0347519,0.0184631,-0.152969,-0.163765,-0.0135803,0.014267,-9.97986,0.0135803,0.0238037,0.0796127,0.292664,-0.0263214,-0.00972748,-0.0113678,0.0274658
21,5,10.0097,0,0.0012207,-2.42562,0.0562914,-0.0744527,0.0547383,0.0706652,-0.0916206,0.145624,-0.124851,-0.0822652,0.0122833,0.0157166,0.0317383,0.0159454,-0.161247,-0.16552,-0.0247574,0.0178146,-9.97986,0.0131226,0.0203323,0.0839996,0.28595,-0.0263977,-0.00656128,-0.0126266,0.0333405
21,6,10.0097,0.00152588,-0.00183105,-2.42653,0.0550706,-0.0741475,0.0544332,0.0688341,-0.0922309,0.14776,-0.124546,-0.0822652,0.00762939,0.0246811,0.0365829,0.0131226,-0.16777,-0.167236,-0.0325012,0.0230408,-9.97986,0.00839233,0.00736237,0.0867462,0.247574,-0.0276566,-0.0128555,-0.00846863,0.0281525
21,7,10.0097,0,-0.00457764,-2.42501,0.0565965,-0.0744527,0.0550435,0.07036,-0.0919257,0.147149,-0.12363,-0.0828756,0.00492096,0.0400543,0.0460815,0.0120926,-0.177078,-0.170555,-0.023613,0.0323868,-9.97986,0.0104904,-0.00793457,0.0917435,0.181198,-0.0320816,-0.00659943,-0.00717163,0.0289154
21,8,10.0097,0.000610352,-0.00579834,-2.42531,0.0575121,-0.0735371,0.054128,0.07036,-0.0897895,0.146234,-0.126377,-0.0828756,0.0110626,0.0524902,0.0507736,0.00740051,-0.187187,-0.167809,-0.0156784,0.0313568,-9.97986,0.0088501,-0.0268936,0.0895309,0.105362,-0.0339508,-0.00713348,-0.00846863,0.0268173
21,9,10.0097,0,-0.00701904,-2.42501,0.0562914,-0.0744527,0.054128,0.0709703,-0.0897895,0.147455,-0.123325,-0.0825704,0.0100708,0.0484085,0.0513077,0.00904083,-0.191879,-0.165901,-0.00904083,0.026741,-9.97986,0.0069809,-0.0230408,0.096817,0.00980377,-0.0381851,-0.0120163,-0.00831604,0.0263214
22,0,10.0097,0.000610352,-0.00915527,-2.42592,0.0559862,-0.073232,0.0544332,0.0557115,-0.0934516,0.147149,-0.125156,-0.0840963,0.0128555,0.0471878,0.0534439,0.0139999,-0.20153,-0.161819,-0.0145721,0.0283813,-9.97986,0.00514984,-0.00793457,0.096283,-0.0829697,-0.0396347,-0.00854492,-0.0038147,0.0252151
22,1,10.0097,0,-0.00930786,-2.42592,0.0550706,-0.075063,0.0538228,0.0590685,-0.0925361,0.146234,-0.124851,-0.0840963,0.0100327,0.0525665,0.0530243,0.0131989,-0.205879,-0.160446,-0.00972748,0.0214005,-9.97986,-0.000991821,-0.00888824,0.101509,-0.16571,-0.035553,-0.0128174,-0.00919342,0.0226593
22,2,10.0097,-0.000915527,-0.00747681,-2.42684,0.055681,-0.0741475,0.054128,0.0682238,-0.0928413,0.145013,-0.126072,-0.0844015,0.0131226,0.02285,0.0305557,0.0102234,-0.212364,-0.154228,-0.0157547,0.0215912,-9.97986,0.00915527,-0.0063324,0.103302,-0.236778,-0.034256,-0.0113297,-0.0103378,0.0203323
22,3,10.0097,0.0012207,-0.0062561,-2.42623,0.0544603,-0.0744527,0.0544332,0.0734117,-0.0916206,0.144708,-0.125766,-0.0856222,0.00953674,-0.0160599,0.00591278,0.00759125,-0.201149,-0.149155,-0.0112534,0.0241852,-9.97986,0.0104904,0.00286102,0.100136,-0.299911,-0.0347137,-0.012207,-0.0111008,0.021019
22,4,10.0097,-0.000305176,-0.00442505,-2.42776,0.0553758,-0.0747579,0.054128,0.0923326,-0.090705,0.144403,-0.123935,-0.085317,0.0117874,-0.0255585,-0.00335693,0.000114441,-0.191002,-0.147476,-0.0117874,0.019989,-9.97986,0.0125885,0.0150299,0.103912,-0.356293,-0.0292969,-0.0100708,-0.0125885,0.021553
22,5,10.0097,-0.000610352,-0.00427246,-2.42806,0.0538499,-0.0759786,0.0532125,0.0776842,-0.0943672,0.144098,-0.126987,-0.0874532,0.0128555,0.00694275,-0.00133514,0.00324249,-0.186043,-0.146942,-0.00835419,0.0137711,-9.97986,0.0126648,0.0169754,0.105515,-0.404663,-0.0233841,-0.0101852,-0.0141907,0.0139236
22,6,10.0097,0,-0.00579834,-2.42898,0.0541551,-0.075063,0.0526021,0.0712755,-0.0955879,0.144403,-0.127598,-0.0874532,0.014801,0.0408173,-0.00267029,0.00576019,-0.183563,-0.152473,-0.00804901,0.00770569,-9.97986,0.00839233,-0.0043869,0.1054,-0.470505,-0.0234985,-0.0069809,-0.0167084,0.0088501
22,7,10.0097,0.0012207,-0.00640869,-2.42745,0.0538499,-0.0768941,0.0529073,0.07036,-0.0934516,0.145624,-0.126682,-0.0883688,0.00808716,0.0836182,0.00141144,-0.0019455,-0.183525,-0.150528,-0.00499725,0.00259399,-9.97986,0.0144196,-0.0189972,0.104675,-0.5299,-0.0144196,-3.8147e-005,-0.0175858,0.00793457
22,8,10.0097,-0.000305176,-0.00579834,-2.42867,0.0535448,-0.0762837,0.0513814,0.0685289,-0.0952827,0.144403,-0.126377,-0.0883688,0.0105667,0.0831985,0.00461578,-0.000228882,-0.171013,-0.155945,-0.00766754,0.0142288,-9.97986,0.0199127,-0.0166321,0.111275,-0.583687,-0.00843048,-0.0018692,-0.0126648,0.0107193
22,9,10.0097,0,-0.00595093,-2.42959,0.0535448,-0.0765889,0.0516866,0.0679186,-0.0946723,0.141351,-0.127903,-0.0886739,0.00965118,0.000190735,0.00671387,0.0114441,-0.166931,-0.163345,-0.00686646,0.0191116,-9.97986,0.0165558,0.00247955,0.11673,-0.644798,-0.0030899,0.0030899,-0.0144577,0.0106049
23,0,10.0097,0.00183105,-0.00579834,-2.42959,0.0547655,-0.0753682,0.0538228,0.0685289,-0.0946723,0.142572,-0.126377,-0.0880636,0.011673,-0.0396729,0.00232697,0.0191498,-0.157089,-0.165939,-0.00400543,0.0277328,-9.97986,0.0147247,0.011673,0.110054,-0.702705,-0.00225067,0.00564575,-0.0119019,0.0154495
23,1,10.0097,0.000305176,-0.00534058,-2.42745,0.0547655,-0.0759786,0.0529073,0.0694445,-0.0928413,0.145013,-0.127598,-0.0874532,0.0107574,-0.019989,-0.00675201,0.0030899,-0.132866,-0.170097,-0.00514984,0.0293732,-9.97986,0.021553,-0.0115585,0.105743,-0.756683,0.00232697,0.00823975,-0.0127029,0.0152588
23,2,10.0097,0.000610352,-0.00564575,-2.42837,0.0547655,-0.0762837,0.0529073,0.0706652,-0.0922309,0.144403,-0.126377,-0.085317,0.00976563,-0.0330353,-0.0114441,0.00312805,-0.123215,-0.171814,-0.0063324,0.0406647,-9.97986,0.0171661,-0.0117493,0.106201,-0.813713,0.00259399,0.00556946,-0.00751495,0.00900269
23,3,10.0097,-0.000610352,-0.00549316,-2.42837,0.0547655,-0.0747579,0.0532125,0.0682238,-0.0928413,0.144708,-0.125156,-0.0856222,0.0122833,-0.0337982,-0.0200653,0.0136948,-0.112534,-0.169296,-0.00400543,0.0461578,-9.97986,0.0259018,0.0283051,0.107689,-0.858841,0.00751495,0.00377655,-0.0082016,0.00862122
23,4,10.0097,-0.000305176,-0.0050354,-2.42562,0.0562914,-0.0744527,0.0544332,0.0700548,-0.0922309,0.145013,-0.124546,-0.0831808,0.0127411,-0.00354767,-0.0173187,0.030365,-0.101089,-0.174179,-0.00358582,0.0406265,-9.97986,0.0228119,0.0310898,0.107155,-0.908012,0.0137329,0.00495911,-0.00606537,0.0100327
23,5,10.0097,0.000915527,-0.0050354,-2.42562,0.0572069,-0.0744527,0.0571797,0.0715807,-0.0903999,0.147455,-0.125156,-0.0837911,0.013237,0.032959,-0.00488281,0.0379562,-0.0905609,-0.163994,-0.00274658,0.0481415,-9.97986,0.0244522,0.0188065,0.100861,-0.960312,0.0205231,-0.00144958,-0.00759125,0.00812531
23,6,10.0097,-0.0012207,-0.00534058,-2.42501,0.0559862,-0.0735371,0.0547383,0.0724962,-0.0903999,0.147455,-0.124546,-0.0825704,0.0137329,0.0437927,-0.00190735,0.0313187,-0.0865936,-0.167198,-0.00747681,0.0445175,-9.97986,0.0231934,0.0156784,0.102997,-1.01124,0.0250244,-0.0037384,-0.0112534,0.00267029
23,7,10.0097,0,-0.00457764,-2.42531,0.0569017,-0.0738423,0.0547383,0.0715807,-0.0925361,0.145929,-0.124241,-0.0822652,0.0126648,0.0270081,-0.00541687,0.0301743,-0.0837326,-0.159302,-0.00244141,0.0449753,-9.97986,0.0263214,-0.0154495,0.0980377,-1.05675,0.0297165,-0.00606537,-0.00663757,0.00167847
23,8,10.0097,0,-0.00411987,-2.42531,0.0559862,-0.0741475,0.0547383,0.0712755,-0.0910102,0.145318,-0.124241,-0.0822652,0.00297546,0.0198364,-0.0120926,0.0249863,-0.0749588,-0.153122,-0.00637054,0.0622559,-9.97986,0.0223923,-0.0310898,0.0975418,-1.09058,0.0373077,-0.00827789,-0.00190735,-0.0018692
23,9,10.0097,0.00183105,-0.00396729,-2.4244,0.0559862,-0.0738423,0.0547383,0.0715807,-0.0919257,0.146234,-0.124241,-0.0822652,0.00087738,-0.000953674,-0.0169754,0.0231171,-0.0699615,-0.149422,-0.00652313,0.0750732,-9.97986,0.021553,-0.0198364,0.0901031,-1.13255,0.0419998,-0.00823975,0.000534058,-0.00419617
24,0,10.0097,0.0012207,-0.00335693,-2.42592,0.0575121,-0.0738423,0.0529073,0.0551012,-0.0931465,0.146844,-0.125766,-0.0828756,0.00358582,-0.00789642,-0.0111008,0.0276566,-0.0543213,-0.141487,-0.00770569,0.0912094,-9.97986,0.019455,-0.00106812,0.0976181,-1.1549,0.0417709,-0.0087738,0.00602722,7.62939e-005
24,1,10.0097,0.000305176,-0.00152588,-2.42562,0.0553758,-0.0738423,0.0547383,0.0596788,-0.0916206,0.147149,-0.125766,-0.0825704,0.00835419,-0.00114441,-0.0031662,0.0243378,-0.0338364,-0.137291,-0.00476837,0.0850677,-9.97986,0.0172806,0.0213242,0.100517,-1.15501,0.0510788,-0.000839233,0.0117874,-0.00659943
24,2,10.0097,0.000610352,-0.00366211,-2.42653,0.0559862,-0.0747579,0.0538228,0.0663927,-0.0919257,0.145624,-0.125156,-0.0834859,0.00823975,0.00110626,0.0185776,0.0214386,-0.0222778,-0.130424,-0.00740051,0.0415802,-9.97986,0.0115585,0.0296783,0.0893021,-1.21037,0.0624847,-0.00457764,0.0217819,-0.0334549
24,3,10.0097,-0.0012207,-0.00305176,-2.42592,0.0553758,-0.0735371,0.0556539,0.0731066,-0.0913154,0.145013,-0.125156,-0.0850118,0.0102997,-0.0112915,0.0216675,0.020256,-0.0222778,-0.128441,-0.00209808,-0.00328064,-9.97986,0.00793457,0.03582,0.0889206,-1.24199,0.0777054,-0.00576019,0.0260544,-0.0501251
24,4,10.0097,-0.000305176,0.000610352,-2.42776,0.0547655,-0.0747579,0.0538228,0.0923326,-0.0910102,0.144708,-0.124851,-0.0837911,0.0112152,0.00404358,0.0255966,0.0239563,-0.0143051,-0.138969,0.00282288,-0.0152588,-9.97986,-0.00675201,0.0387955,0.0899124,-1.22032,0.0762939,-0.0050354,0.0292206,-0.0547409
24,5,10.0097,0.00213623,0.000610352,-2.42867,0.0547655,-0.0756734,0.0529073,0.0767687,-0.0934516,0.143792,-0.127292,-0.0862325,0.021286,0.0162888,0.0279617,0.0236511,-0.00389099,-0.139389,0.00343323,-0.00434875,-9.97986,0.000267029,0.0338745,0.0784302,-1.21433,0.077095,-0.0114441,0.0396347,-0.0578308
24,6,10.0097,0.000610352,-0.000610352,-2.42837,0.0535448,-0.0753682,0.0532125,0.0724962,-0.0931465,0.143792,-0.126377,-0.0862325,0.0196838,0.0136185,0.0308228,0.0221252,0.00411987,-0.140152,0.000534058,-0.0012207,-9.97986,0.00038147,0.0174332,0.0820541,-1.20464,0.0784302,-0.0104141,0.0370026,-0.0567627
24,7,10.0097,0.000305176,0.00244141,-2.42928,0.0529344,-0.0768941,0.0532125,0.0697496,-0.094062,0.143182,-0.127903,-0.0859274,0.0272369,0.00629425,0.0326157,0.0188446,0.00747681,-0.134506,0.00518799,0.0118637,-9.97986,0.00431061,-0.00370026,0.106697,-1.16135,0.0826645,-0.00667572,0.0378799,-0.0481033
24,8,10.0097,0.00152588,0.00198364,-2.42928,0.0541551,-0.0765889,0.0519917,0.0682238,-0.0955879,0.143487,-0.128208,-0.0865377,0.0239944,0.00400543,0.0316238,0.0170517,0.00827789,-0.128593,0.00682831,0.023613,-9.97986,0.00995636,-0.0101471,0.1231,-1.14208,0.0777054,-0.0150299,0.0322342,-0.0373077
24,9,10.0097,0,0.00137329,-2.4305,0.0532396,-0.075063,0.0529073,0.0682238,-0.0946723,0.143792,-0.127292,-0.0871481,0.0143814,0.0139618,0.0304413,0.0204468,0.0246429,-0.122375,0.0101089,0.0415421,-9.97986,0.0179291,-0.0125122,0.117722,-1.12831,0.082016,-0.0174332,0.0318909,-0.013237
25,0,10.0097,-0.0012207,0.00167847,-2.42837,0.0514085,-0.0768941,0.0526021,0.0691393,-0.0931465,0.145013,-0.126377,-0.085317,0.0141144,0.0307465,0.0161362,0.0180817,0.0341034,-0.106964,0.00110626,0.0540161,-9.97986,0.0167465,-0.0166702,0.0976181,-1.10058,0.0772858,-0.0270081,0.031395,0.00488281
25,1,10.0097,0.000610352,0.00213623,-2.42837,0.0526292,-0.0753682,0.0532125,0.0688341,-0.0955879,0.145624,-0.126377,-0.0847066,0.0114822,0.0462723,-0.00102997,0.0167465,0.0438309,-0.0938034,0.00816345,0.0600433,-9.97986,0.0130081,-0.00934601,0.0857925,-1.06579,0.0761795,-0.0353241,0.0288391,0.0217056
25,2,10.0097,0.0012207,0.00274658,-2.42714,0.0559862,-0.075063,0.0532125,0.0697496,-0.0934516,0.144403,-0.126072,-0.0837911,0.00812531,0.0465393,0.0157166,0.0137329,0.0482559,-0.0826645,0.00507355,0.0418854,-9.97986,0.00774384,-0.00179291,0.077858,-1.02848,0.0745392,-0.0385666,0.0277328,0.0335312
25,3,10.0097,0.000610352,0.00335693,-2.42684,0.0569017,-0.0738423,0.0538228,0.0688341,-0.094062,0.144403,-0.125461,-0.0822652,0.0105667,0.0178909,0.0213623,0.00762939,0.0487518,-0.0754929,0.00549316,0.0272751,-9.97986,-0.00396729,0.00473022,0.0748825,-1.00037,0.0801468,-0.0296783,0.0263214,0.032196
25,4,10.0097,-0.000610352,0.00396729,-2.42592,0.0559862,-0.0753682,0.0538228,0.0697496,-0.0946723,0.146234,-0.124851,-0.0816549,0.00785828,-0.0056076,0.0206375,0.010376,0.0695801,-0.0645447,0.0122833,-0.00621796,-9.97986,-0.0109863,-0.00301361,0.0753784,-0.949554,0.086174,-0.0216675,0.0157166,0.0240707
25,5,10.0097,0.000610352,0.00473022,-2.42562,0.0565965,-0.0735371,0.0547383,0.0706652,-0.0925361,0.146539,-0.124546,-0.080129,0.00495911,-0.0075531,0.0216675,0.0205994,0.0839996,-0.0615692,0.0120163,-0.0275803,-9.97986,-0.00644684,-0.0062561,0.0781631,-0.900116,0.0876236,-0.00427246,0.0215149,0.0128555
25,6,10.0097,0.000610352,0.00442505,-2.42501,0.0562914,-0.0738423,0.0550435,0.0706652,-0.0897895,0.14776,-0.123935,-0.0795187,0.00431061,-0.000534058,0.0235367,0.0183868,0.093956,-0.0473022,0.0109482,-0.0184631,-9.97986,0.000228882,-0.00282288,0.0725555,-0.847206,0.0950623,-0.00453949,0.0405884,-0.00301361
25,7,10.0097,0.00213623,0.0050354,-2.42409,0.0569017,-0.073232,0.0550435,0.0718859,-0.0922309,0.146539,-0.125156,-0.080129,0.0063324,0.0193405,0.0311661,0.0159073,0.10601,-0.0382233,0.0149155,-0.00549316,-9.97986,0.0111389,-0.00400543,0.0620651,-0.785294,0.10849,-0.0115585,0.0460434,-0.0221252
25,8,10.0097,0.00152588,0.00564575,-2.42531,0.0565965,-0.0738423,0.0547383,0.07036,-0.0900947,0.147455,-0.124241,-0.0786031,0.0114059,0.0232697,0.0423431,0.0163269,0.116081,-0.0287247,0.0146103,-0.00499725,-9.97986,0.0143814,-0.00335693,0.0575256,-0.725441,0.118103,-0.00751495,0.0445557,-0.0440216
25,9,10.0097,0.00274658,0.00549316,-2.42501,0.0559862,-0.0744527,0.0538228,0.0700548,-0.0913154,0.14776,-0.123325,-0.0786031,0.0231552,0.032959,0.0498199,0.0150299,0.120697,-0.0259018,0.00957489,0.00297546,-9.97986,0.0285721,0.0050354,0.0590134,-0.672798,0.128212,-0.00480652,0.0443649,-0.0440216
26,0,10.0097,0.000305176,0.0038147,-2.42684,0.055681,-0.0747579,0.0538228,0.0541857,-0.094062,0.147455,-0.126377,-0.0807394,0.0173187,0.0584412,0.0576019,0.0133133,0.133896,-0.018158,0.0111771,0.00480652,-9.97986,0.0359344,0.00656128,0.0555038,-0.622215,0.155563,-0.0172043,0.0363541,-0.0379562
26,1,10.0097,0.000305176,0.00427246,-2.42653,0.0544603,-0.0744527,0.0535176,0.0584581,-0.0919257,0.145929,-0.125156,-0.0804342,0.0163269,0.060463,0.0533295,0.017128,0.14267,-0.00328064,0.0144958,0.013504,-9.97986,0.0378418,-0.00225067,0.0608826,-0.564079,0.181046,-0.0200272,0.0368881,-0.031662
26,2,10.0097,-0.000305176,0.00549316,-2.42623,0.0559862,-0.0747579,0.054128,0.0654772,-0.0919257,0.145013,-0.124851,-0.0816549,0.00961304,0.047226,0.0364304,0.0124359,0.136833,0.00423431,0.0142288,0.0196838,-9.97986,0.0376892,-0.0135803,0.0505447,-0.509415,0.202484,-0.0231934,0.0365829,-0.034256
26,3,10.0097,0.00213623,0.00564575,-2.42714,0.0553758,-0.0753682,0.0544332,0.0734117,-0.0931465,0.145929,-0.125461,-0.0807394,0.0133514,0.0360489,0.0102234,0.00823975,0.141869,0.0197983,0.0139236,0.0204086,-9.97986,0.043335,-0.0138092,0.0491714,-0.457878,0.226784,-0.0263214,0.0289536,-0.0209808
26,4,10.0097,0.000610352,0.00640869,-2.42776,0.0535448,-0.075063,0.0547383,0.092943,-0.0900947,0.145929,-0.123935,-0.0828756,0.014801,0.0216675,0.00366211,0.00434875,0.148582,0.0292969,0.017395,0.0217438,-9.97986,0.0407791,-0.00934601,0.0418854,-0.408554,0.233231,-0.0261688,0.018959,-0.0162125
26,5,10.0097,-0.000610352,0.00518799,-2.42898,0.0520189,-0.0759786,0.0516866,0.0785997,-0.095893,0.142267,-0.126682,-0.0847066,0.0139999,0.00705719,-0.0116348,0.00110626,0.153694,0.0400925,0.0157928,0.0160599,-9.97986,0.0328827,-0.00427246,0.0342941,-0.354996,0.208244,-0.0224304,0.0183868,-0.0186539
26,6,10.0097,0.00183105,0.00488281,-2.42837,0.0538499,-0.0753682,0.0519917,0.0718859,-0.095893,0.143182,-0.126377,-0.0850118,0.0122833,0.000839233,-0.0227737,-0.0135803,0.155334,0.0481033,0.018959,0.00495911,-9.97986,0.0302887,0.0171661,0.0369263,-0.309181,0.172768,-0.00823975,0.0188446,-0.0166702
26,7,10.0097,0.000915527,0.0038147,-2.42867,0.0538499,-0.075063,0.0526021,0.0712755,-0.095893,0.142572,-0.127292,-0.085317,0.0056076,-7.62939e-005,-0.00728607,-0.00953674,0.155334,0.0513077,0.0154877,0.00774384,-9.97986,0.0227737,0.0157166,0.0314713,-0.2668,0.125694,0.000228882,0.0182724,-0.0139236
26,8,10.0097,0.000610352,0.00457764,-2.42959,0.0529344,-0.0762837,0.0532125,0.0688341,-0.0946723,0.143792,-0.127598,-0.0865377,0.00995636,0.0154114,0.0121689,-0.00526428,0.151863,0.0596237,0.0185776,0.0108719,-9.97986,0.0212479,0.00602722,0.0309753,-0.217743,0.085144,0.0123215,0.0231552,-0.00881195
26,9,10.0097,0.00183105,0.00366211,-2.42806,0.0535448,-0.0759786,0.0516866,0.0691393,-0.0949775,0.142572,-0.127598,-0.0837911,0.0103378,0.0494766,0.0307846,-0.00572205,0.151176,0.0682449,0.0210571,0.0141907,-9.97986,0.0235367,-0.0094223,0.0252533,-0.177765,0.0480652,0.0138855,0.0235748,-0.00400543
27,0,10.0097,0.00152588,0.00366211,-2.42745,0.0538499,-0.075063,0.0519917,0.0700548,-0.0949775,0.143792,-0.127598,-0.0840963,0.0138474,0.0532913,0.0262451,0.013504,0.149727,0.0698471,0.0198364,0.0278854,-9.97986,0.0194931,-0.00190735,0.020256,-0.137825,0.0302124,0.0222778,0.0227356,-0.00141144
27,1,10.0097,-0.00152588,0.00427246,-2.42806,0.055681,-0.0753682,0.054128,0.0691393,-0.0952827,0.142877,-0.126072,-0.0840963,0.011673,0.0223541,0.010643,0.0119781,0.146065,0.0793457,0.0204086,0.0379181,-9.97986,0.0188065,0.01091,0.0202179,-0.0901413,0.0196457,0.017395,0.0249863,-0.00843048
27,2,10.0097,0.000610352,0.00442505,-2.42684,0.0544603,-0.0735371,0.0529073,0.0706652,-0.0934516,0.142572,-0.126072,-0.0837911,0.011673,-0.0117111,-0.000343323,-0.0120544,0.147285,0.0852203,0.0239944,0.0405884,-9.97986,0.0190735,0.0255203,0.0166321,-0.0439453,0.0122452,0.0111771,0.0209427,-0.0105667
27,3,10.0097,-0.00274658,0.00488281,-2.42745,0.0544603,-0.0747579,0.0535176,0.07036,-0.0919257,0.145013,-0.124851,-0.0816549,0.0112152,-0.0249481,-0.0100708,-0.00900269,0.137444,0.0878525,0.0278854,0.030899,-9.97986,0.0203323,0.0328064,0.0122452,-0.00556946,0.021553,0.00976563,0.0233459,-0.00835419
27,4,10.0097,0.000915527,0.00457764,-2.42562,0.0569017,-0.0741475,0.0538228,0.07036,-0.0903999,0.147149,-0.125156,-0.0819601,0.0088501,0.00492096,-0.00743866,0.00682831,0.133553,0.0992966,0.0208282,0.0164795,-9.97986,0.0182343,0.032692,0.0131607,0.0428009,0.0295258,0.0130081,0.0286484,-0.0103378
27,5,10.0097,0.00183105,0.0050354,-2.42501,0.0553758,-0.0741475,0.054128,0.0706652,-0.0913154,0.148675,-0.124241,-0.080129,0.0101089,0.0654602,0.020752,0.0453568,0.1334,0.104179,0.0260162,0.00518799,-9.97986,0.018692,0.0251389,0.00926971,0.0970078,0.0413895,0.0110245,0.0310135,-0.0114822
27,6,10.0097,-0.000305176,0.00534058,-2.42562,0.0553758,-0.0744527,0.0544332,0.0709703,-0.0919257,0.14776,-0.124546,-0.0795187,0.00896454,0.0870514,0.0323868,0.0489807,0.132446,0.119324,0.0256348,-0.00247955,-9.97986,0.0229263,0.0210953,0.00434875,0.145531,0.0592041,0.00988007,0.0281906,-0.00827789
27,7,10.0097,0.000915527,0.00473022,-2.42501,0.0565965,-0.0747579,0.0550435,0.0709703,-0.0919257,0.145929,-0.12363,-0.0798238,0.00679016,0.0652313,0.0231171,0.0234604,0.132675,0.128517,0.0265121,-0.0110626,-9.97986,0.0281906,0.0239563,0.00377655,0.185699,0.072937,0.0150299,0.0340271,-0.000915527
27,8,10.0097,0.000305176,0.00488281,-2.42562,0.0572069,-0.0738423,0.0547383,0.0712755,-0.0910102,0.145624,-0.12363,-0.0798238,0.00709534,0.00572205,-0.00125885,0.0421143,0.129051,0.134354,0.0261688,-0.0123215,-9.97986,0.0270081,0.033989,-0.00221252,0.223351,0.0824738,0.0199509,0.037117,-0.00576019
27,9,10.0097,0.00152588,0.00396729,-2.42562,0.0569017,-0.0747579,0.054128,0.0706652,-0.0919257,0.145624,-0.124241,-0.0798238,0.00659943,-0.0297165,-0.0109863,0.0579071,0.123329,0.144958,0.0268936,-0.00999451,-9.97986,0.0274277,0.0267029,-0.0094223,0.261917,0.077095,0.0183487,0.0370026,-0.00148773
28,0,10.0097,0.00183105,0.00289917,-2.42592,0.0550706,-0.075063,0.0535176,0.0493029,-0.0937568,0.145624,-0.126377,-0.0813497,0.00720978,-0.0265884,7.62939e-005,0.0218201,0.120163,0.148544,0.0241852,-0.00934601,-9.97986,0.0252914,0.0193405,-0.00671387,0.295258,0.0707245,0.0248718,0.0418854,-0.00232697
28,1,10.0097,0.00305176,0.00305176,-2.42501,0.0562914,-0.0729268,0.054128,0.0596788,-0.0919257,0.146539,-0.124546,-0.0810445,0.00854492,-0.00293732,0.00789642,0.0109863,0.119705,0.157967,0.0225067,-0.00598907,-9.97986,0.0231934,0.0175858,-0.0182343,0.323029,0.0527191,0.0206375,0.0418854,-0.00774384
28,2,10.0097,0,0.00396729,-2.42562,0.0550706,-0.0744527,0.0547383,0.0673082,-0.0919257,0.147149,-0.125766,-0.0819601,0.00637054,0.0248718,0.0149536,0.00808716,0.119705,0.162392,0.0287247,0.00289917,-9.97986,0.0212097,0.00862122,-0.0139618,0.370979,0.0264359,0.0252151,0.0424957,-0.00312805
28,3,10.0097,0.00274658,0.0038147,-2.42653,0.0553758,-0.0753682,0.0547383,0.077379,-0.0937568,0.144708,-0.125156,-0.0831808,0.00991821,0.0531387,0.0255585,0.00404358,0.115509,0.165253,0.0265121,0.0316238,-9.97986,0.011673,0.00743866,-0.0296021,0.394783,0.00576019,0.0205612,0.0468826,-0.00328064
28,4,10.0097,0.00152588,0.00396729,-2.42684,0.0547655,-0.0747579,0.054128,0.0926378,-0.0910102,0.144403,-0.124241,-0.0831808,0.0106049,0.0669098,0.0228119,0.0144577,0.113602,0.171089,0.0232315,0.0743866,-9.97986,0.0132751,0.0240707,-0.0237274,0.420418,-0.0122452,0.0214005,0.0491333,-0.00518799
28,5,10.0097,0.0012207,0.00305176,-2.42867,0.0538499,-0.0744527,0.0529073,0.0770738,-0.0949775,0.143487,-0.126682,-0.0847066,0.0109482,0.0678635,0.00751495,-0.0025177,0.112267,0.173073,0.0265121,0.0857925,-9.97986,0.00892639,0.0265121,-0.0242233,0.450478,-0.0266266,0.0218964,0.0505447,-0.00408173
28,6,10.0097,-0.0311279,0.00320435,-2.42928,0.0538499,-0.0756734,0.0526021,0.0718859,-0.095893,0.129144,-0.126987,-0.0856222,0.00873566,0.0632477,-0.00427246,-0.0418091,0.115623,0.173874,0.0276184,0.112839,-9.97986,0.0075531,0.0106049,-0.0310516,0.469856,-0.0309372,0.0226974,0.047226,-0.00366211
28,7,10.0097,-0.0012207,0.00213623,-2.42806,0.0544603,-0.075063,0.0535176,0.0706652,-0.0949775,0.137384,-0.126987,-0.0840963,0.0151062,0.0317383,-0.00972748,-0.0814056,0.106773,0.1754,0.0297928,0.158882,-9.97986,0.00816345,-0.00469208,-0.0320053,0.489998,-0.0354385,0.0278473,0.050087,0.00114441
28,8,10.0097,0.000915527,0.00152588,-2.42653,0.0538499,-0.0753682,0.0510762,0.0688341,-0.0943672,0.141656,-0.128208,-0.0865377,0.0141144,-0.00427246,-0.019722,-0.137939,0.104332,0.179825,0.028038,0.1651,-9.97986,0.001297,-0.0108719,-0.0411606,0.509758,-0.0305939,0.0226974,0.04776,-0.00286102
28,9,10.0097,-0.000610352,0.00198364,-2.42837,0.0532396,-0.0747579,0.0529073,0.0691393,-0.0937568,0.143182,-0.127292,-0.0865377,0.0136185,-0.00312805,-0.00938416,-0.141182,0.100517,0.178757,0.031929,0.160408,-9.97986,0.0012207,-0.0194168,-0.0411224,0.532532,-0.0270462,0.0230789,0.0517273,-0.00331879
29,0,10.0097,0.000610352,0.0012207,-2.42867,0.0544603,-0.0762837,0.0516866,0.0676134,-0.0934516,0.143182,-0.126987,-0.0850118,0.0187302,0.0123596,0.000572205,-0.109787,0.102577,0.176353,0.026474,0.125427,-9.97986,0.00148773,-0.0031662,-0.0365829,0.550652,-0.0193024,0.020752,0.0498581,-0.00240326
29,1,10.0097,-0.00183105,0,-2.42745,0.0547655,-0.0762837,0.0522969,0.0688341,-0.0937568,0.145013,-0.126682,-0.0850118,0.0146484,0.0426865,0.0138092,-0.155525,0.10273,0.178032,0.0291061,0.0551224,-9.97986,-0.00305176,-0.000953674,-0.0424576,0.563316,-0.0164795,0.0157166,0.0500107,0.00213623
29,2,10.0097,0.00152588,0.0012207,-2.42714,0.0547655,-0.0759786,0.0526021,0.0694445,-0.0928413,0.144098,-0.126987,-0.0847066,0.0191498,0.0556946,0.0244522,-0.143776,0.0979233,0.172691,0.0287628,0.0137711,-9.97986,-0.00991821,-0.000724792,-0.0429916,0.572777,-0.00495911,0.0175858,0.0487518,0.0018692
29,3,10.0097,0.000915527,0.000762939,-2.42714,0.0547655,-0.0753682,0.0529073,0.0697496,-0.0937568,0.145013,-0.126072,-0.0834859,0.0139618,0.0549698,0.0371933,-0.0449371,0.098877,0.170975,0.0271988,-0.0297928,-9.97986,-0.00595093,0.000801086,-0.0469208,0.575294,0.00110626,0.0149918,0.0454712,0.00125885
29,4,10.0097,0.000305176,0.000915527,-2.42562,0.0559862,-0.0753682,0.0547383,0.07036,-0.0925361,0.144098,-0.124851,-0.0828756,0.014267,0.0415421,0.0426865,-0.0432587,0.100021,0.168762,0.02491,-0.0789642,-9.97986,-0.00492096,-0.0156021,-0.0485229,0.575752,0.00339508,0.0114441,0.0481033,0.00579834
29,5,10.0097,0.00213623,0.000762939,-2.42562,0.0550706,-0.0747579,0.0550435,0.0712755,-0.0922309,0.145013,-0.124241,-0.0825704,0.0131226,0.0183487,0.0484467,-0.047493,0.0976181,0.158043,0.0262451,-0.0550842,-9.97986,0.0050354,-0.0123215,-0.0510406,0.574455,-0.000534058,0.0094986,0.0409317,0.00682831
29,6,10.0097,0.00152588,0,-2.42531,0.055681,-0.075063,0.0532125,0.0715807,-0.0913154,0.146844,-0.124546,-0.0798238,0.00450134,0.0295258,0.0429535,0.0261688,0.0999832,0.148582,0.0273514,-0.00652313,-9.97986,0.00534058,0.0149918,-0.0514221,0.568886,-0.00671387,0.0107956,0.0401688,0.00804901
29,7,10.0097,0.000915527,-0.000610352,-2.42501,0.0559862,-0.0747579,0.0544332,0.0697496,-0.0916206,0.145624,-0.125156,-0.0810445,-0.00564575,0.054245,0.0460434,0.168762,0.100746,0.139732,0.028038,-0.0147629,-9.97986,0.00637054,0.0344849,-0.0513077,0.555878,-0.0206375,0.0157547,0.0406265,0.0129318
29,8,10.0097,0.00244141,-0.000610352,-2.42501,0.0578172,-0.0738423,0.0550435,0.0709703,-0.0922309,0.146844,-0.125461,-0.0813497,-0.00583649,0.0558853,0.0471878,0.299873,0.096817,0.136147,0.0269699,-0.00999451,-9.97986,0.00537872,0.0527954,-0.055275,0.53566,-0.0400162,0.01194,0.0351715,0.00427246
29,9,10.0097,0.00152588,-0.00152588,-2.42531,0.0569017,-0.0729268,0.0544332,0.0712755,-0.0928413,0.145929,-0.123935,-0.0816549,-0.000610352,0.0395966,0.0561523,0.31002,0.0930786,0.125275,0.0268555,-0.033989,-9.97986,0.0133514,0.0567627,-0.0582123,0.516624,-0.0496674,0.00213623,0.033989,0.0101089
30,0,10.0097,-0.0012207,-0.00305176,-2.42379,0.0550706,-0.0738423,0.0532125,0.0541857,-0.0931465,0.145318,-0.125766,-0.0828756,-0.00789642,0.044632,0.0756073,0.266418,0.0964737,0.119705,0.0283051,-0.0537109,-9.97986,0.0117493,0.0392914,-0.0540924,0.500336,-0.0690079,-0.00705719,0.0305176,0.0111008
30,1,10.0097,0.00244141,-0.00183105,-2.42653,0.0559862,-0.0747579,0.0550435,0.0578478,-0.0928413,0.146234,-0.126072,-0.0831808,-0.00797272,0.0540924,0.0885391,0.233345,0.0940704,0.11322,0.0310135,-0.0170517,-9.97986,0.00679016,0.0257492,-0.0588226,0.48748,-0.0697708,-0.0111008,0.033226,0.0109482
30,2,10.0097,0.000610352,-0.000610352,-2.42623,0.055681,-0.0744527,0.054128,0.0657823,-0.0910102,0.144403,-0.124546,-0.0834859,-0.00705719,0.0322723,0.0732803,0.192871,0.0901794,0.0997162,0.0336456,-0.00591278,-9.97986,0.000534058,-0.0109482,-0.0550079,0.475807,-0.071907,-0.00865936,0.0275421,0.0161743
30,3,10.0097,-0.000610352,-0.000762939,-2.42684,0.0550706,-0.0738423,0.0547383,0.0718859,-0.0925361,0.143792,-0.125156,-0.0837911,-0.000762939,0.019989,0.0624466,0.16201,0.0904083,0.089798,0.0299835,-0.0337982,-9.97986,0.00392914,-0.0383759,-0.0554657,0.465126,-0.0733948,-0.00411987,0.0245667,0.0154114
30,4,10.0097,0.000610352,-0.000457764,-2.42653,0.0550706,-0.0747579,0.0526021,0.0944689,-0.0903999,0.145013,-0.124241,-0.0840963,0.00247955,0.019989,0.0563431,0.13443,0.0867844,0.0847626,0.0327682,-0.0314713,-9.97986,0.0025177,0.000457764,-0.0554657,0.447197,-0.0679779,-0.019455,0.022316,0.0131226
30,5,10.0097,0.000610352,-0.000457764,-2.42837,0.0544603,-0.0753682,0.0529073,0.0764635,-0.0949775,0.142877,-0.125156,-0.0868429,0.00522614,-0.00492096,0.0413895,0.120087,0.0802994,0.0790405,0.0295258,-0.0288391,-9.97986,0.00740051,0.0477982,-0.0535202,0.426445,-0.0622559,-0.026474,0.0183105,0.0168991
30,6,10.0097,-0.00183105,-0.00183105,-2.42928,0.0544603,-0.0756734,0.0522969,0.0712755,-0.0955879,0.143487,-0.126987,-0.0871481,0.00831604,-0.00602722,0.013504,0.0677872,0.0818253,0.0761414,0.0296402,-0.0418472,-9.97986,0.0151062,0.0499725,-0.0537491,0.406342,-0.0567245,-0.0094986,0.0174713,0.0205612
30,7,10.0097,0,-0.00274658,-2.42867,0.0547655,-0.0765889,0.0529073,0.0706652,-0.0946723,0.143182,-0.127598,-0.0868429,0.0107193,-0.00286102,-0.00576019,-0.0341034,0.0768661,0.0664139,0.0289917,-0.0642395,-9.97986,0.0203705,0.0213623,-0.0508118,0.373459,-0.0587463,0.00457764,0.0136566,0.0162125
30,8,10.0097,0.00183105,-0.00289917,-2.42776,0.0532396,-0.0765889,0.0522969,0.0688341,-0.0949775,0.142877,-0.129123,-0.0880636,0.0202179,-0.000801086,-0.0289917,-0.065155,0.0738144,0.0647354,0.0333405,-0.0318909,-9.97986,0.0207138,-0.00202179,-0.0501251,0.346985,-0.0573349,0.0172806,0.0108719,0.0239944
30,9,10.0097,-0.00152588,-0.00335693,-2.42989,0.0541551,-0.0759786,0.0510762,0.0682238,-0.0949775,0.141961,-0.127598,-0.0874532,0.017128,-0.0030899,-0.0434875,-0.0247574,0.0698471,0.0560379,0.0279617,0.0278091,-9.97986,0.0181961,0.0161362,-0.0445175,0.322151,-0.0600433,0.0221634,0.0104141,0.0226974
31,0,10.0097,-0.000610352,-0.00289917,-2.42806,0.0541551,-0.0753682,0.0526021,0.0685289,-0.0937568,0.144098,-0.126682,-0.0871481,0.0222015,-0.00717163,-0.0367355,0.0386047,0.0660706,0.051918,0.0289154,0.0585175,-9.97986,0.0193787,0.0244904,-0.0428391,0.297127,-0.0619125,0.0352478,0.0146484,0.0224304
31,1,10.0097,0.00152588,-0.00228882,-2.42714,0.0547655,-0.0744527,0.0535176,0.0697496,-0.094062,0.145013,-0.127598,-0.085317,0.0199127,0.00675201,-0.0194168,0.071907,0.0603104,0.0489044,0.0300217,0.0653076,-9.97986,0.0151443,0.00553131,-0.0393295,0.276527,-0.0704193,0.0439835,0.00934601,0.0228119
31,2,10.0097,0.00183105,-0.00213623,-2.42745,0.0562914,-0.0747579,0.0538228,0.0706652,-0.0928413,0.145318,-0.124546,-0.0850118,0.0229645,0.0191116,0.00534058,0.0546646,0.0574493,0.0475311,0.0240326,0.0851059,-9.97986,0.0119781,-0.026741,-0.0405121,0.25116,-0.0703049,0.0542831,0.0105667,0.027771
31,3,10.0097,0.000915527,-0.00198364,-2.42684,0.0547655,-0.0738423,0.0535176,0.0694445,-0.0919257,0.144708,-0.126072,-0.0850118,0.0286484,0.0344849,0.0289536,0.0244522,0.0477982,0.0435257,0.028038,0.123634,-9.97986,0.00789642,-0.0668335,-0.0374985,0.22007,-0.0712967,0.051918,0.0118637,0.0283432
31,4,10.0097,0.00152588,-0.00183105,-2.42562,0.0550706,-0.0756734,0.0538228,0.0709703,-0.0925361,0.14776,-0.124241,-0.0834859,0.0284958,0.0571442,0.0508118,-0.00648499,0.0487137,0.0402069,0.0309753,0.138741,-9.97986,0.00694275,-0.0514603,-0.0317764,0.201797,-0.0739288,0.0427246,0.0102615,0.0310898
31,5,10.0097,-0.0012207,-0.00183105,-2.4244,0.0559862,-0.0747579,0.0544332,0.0706652,-0.0919257,0.146844,-0.124241,-0.0819601,0.0234604,0.0934982,0.0584793,-0.0452805,0.0405884,0.0380325,0.02491,0.111122,-9.97986,0.0153732,-0.0195313,-0.0286102,0.181427,-0.0706863,0.0349045,0.00976563,0.0312042
31,6,10.0097,-0.00213623,-0.00289917,-2.42531,0.0565965,-0.073232,0.0547383,0.0718859,-0.0922309,0.146844,-0.123935,-0.0822652,0.0159454,0.0934219,0.0409698,-0.0811005,0.0405121,0.0357819,0.0285721,0.0634003,-9.97986,0.0178146,-0.0225449,-0.0260544,0.151978,-0.0686264,0.0214005,0.0109863,0.027771
31,7,10.0097,0.000610352,-0.00289917,-2.42592,0.0562914,-0.0738423,0.0565694,0.0712755,-0.0919257,0.145624,-0.124851,-0.0825704,0.00358582,0.0651932,0.0261688,-0.0909424,0.0360489,0.0292206,0.02388,-0.0178528,-9.97986,0.0162506,-0.0177002,-0.0237656,0.125313,-0.060463,0.01194,0.0145721,0.030899
31,8,10.0097,0.0012207,-0.00244141,-2.42531,0.0569017,-0.0738423,0.0550435,0.07036,-0.0910102,0.146844,-0.123325,-0.0807394,0.00156403,0.0625992,0.0403595,-0.0281143,0.0288391,0.0275803,0.0217819,-0.0609589,-9.97986,0.0149536,-0.00370026,-0.0145721,0.0920105,-0.0572205,0.00480652,0.0100327,0.0363159
31,9,10.0097,0.0012207,-0.00183105,-2.42501,0.0562914,-0.0744527,0.0547383,0.0712755,-0.0919257,0.147455,-0.12363,-0.0816549,-0.00354767,0.0796127,0.0579071,0.00377655,0.0271606,0.0222397,0.0233459,-0.038681,-9.97986,0.0109482,-0.00293732,-0.0113678,0.0621033,-0.0496292,0.00610352,0.0130844,0.0357437
32,0,10.0097,0.000610352,-0.00411987,-2.42531,0.0569017,-0.0744527,0.0535176,0.054796,-0.0928413,0.146539,-0.125766,-0.0825704,-0.0143433,0.0817108,0.0691986,-0.0273132,0.0196075,0.0190735,0.024147,-0.0754929,-9.97986,0.0106812,0.0100708,-0.00785828,0.0239182,-0.0455475,0.00156403,0.0107956,0.0387955
32,1,10.0097,-0.000610352,-0.00396729,-2.42562,0.0547655,-0.075063,0.0535176,0.0584581,-0.0928413,0.145318,-0.125766,-0.0840963,-0.0123215,0.0675964,0.0670242,-0.0216293,0.0183105,0.0101471,0.022583,-0.148582,-9.97986,0.00141144,0.043335,-0.00595093,-0.0018692,-0.0387192,-0.000228882,0.0162125,0.0374603
32,2,10.0097,0.000305176,-0.00350952,-2.42531,0.0553758,-0.0756734,0.0550435,0.0666979,-0.0919257,0.146234,-0.124851,-0.0847066,-0.0110626,0.0479889,0.0527573,0.0113297,0.011673,-0.00427246,0.0181198,-0.133247,-9.97986,-0.00602722,0.0991821,-0.00423431,-0.0423431,-0.0389099,0.0031662,0.0184631,0.0365067
32,3,10.0097,-0.000305176,-0.00335693,-2.42562,0.0550706,-0.0753682,0.0535176,0.0737169,-0.0922309,0.145013,-0.125461,-0.0844015,-0.0127029,0.045433,0.0570679,0.0383377,0.00572205,-0.00640869,0.0205994,-0.0841522,-9.97986,-0.00667572,0.133629,0.0018692,-0.0754929,-0.0328827,0.000648499,0.0183487,0.0350571
32,4,10.0097,0.000915527,-0.00167847,-2.42684,0.0544603,-0.0747579,0.0544332,0.0941637,-0.0913154,0.145013,-0.124851,-0.0850118,-0.00637054,0.0260162,0.060463,0.0680161,0.00682831,-0.017395,0.0199509,-0.0652313,-9.97986,-0.00366211,0.112038,0.00236511,-0.0990295,-0.0338364,0.0018692,0.0223541,0.0368881
32,5,10.0097,0.0012207,-0.00289917,-2.42806,0.0541551,-0.0762837,0.0532125,0.075548,-0.0943672,0.142572,-0.126072,-0.0868429,0.00640869,0.00583649,0.0633621,0.0515747,-0.00171661,-0.0256348,0.022316,-0.0318527,-9.97986,-0.00896454,0.0295258,0.010643,-0.135651,-0.0327682,-0.00320435,0.0214767,0.0345612
32,6,10.0097,0.00274658,-0.00305176,-2.42806,0.0532396,-0.0759786,0.0522969,0.07036,-0.0949775,0.144098,-0.126987,-0.0874532,0.0184631,0.0265121,0.0767136,0.00694275,0.000190735,-0.0332642,0.0224304,0.0207901,-9.97986,-0.00621796,-0.0578308,0.00801086,-0.160484,-0.0321198,-0.00572205,0.0265884,0.0370407
32,7,10.0097,0,-0.00228882,-2.42867,0.0535448,-0.0768941,0.0526021,0.0706652,-0.0955879,0.145013,-0.126377,-0.0874532,0.0281906,0.0428009,0.0683212,0.00713348,-0.00133514,-0.0432968,0.0180817,0.0628281,-9.97986,-0.000114441,-0.0772858,0.0146866,-0.186768,-0.0292206,-0.0126266,0.0262451,0.0355911
32,8,10.0097,0.000610352,-0.00305176,-2.42898,0.0529344,-0.0759786,0.0519917,0.0691393,-0.0955879,0.142877,-0.126987,-0.0877584,0.0193024,0.0502777,0.0244522,0.00354767,-0.00408173,-0.0556564,0.0232697,0.0880432,-9.97986,0.0136566,-0.0606918,0.0212479,-0.208321,-0.0302124,-0.0105667,0.030365,0.0361252
32,9,10.0097,-0.000610352,-0.00198364,-2.42928,0.0538499,-0.0771993,0.0519917,0.0691393,-0.0952827,0.141351,-0.128208,-0.0871481,0.0163651,0.0179672,-0.0231934,0.0269318,-0.0031662,-0.0623703,0.0261307,0.0967789,-9.97986,0.0241089,-0.0604248,0.0156021,-0.23098,-0.0273895,-0.0209808,0.0310516,0.0379181
33,0,10.0097,-0.000915527,-0.00274658,-2.42898,0.0544603,-0.075063,0.0529073,0.0673082,-0.094062,0.144708,-0.127598,-0.0856222,0.0152588,-0.00808716,-0.0431824,0.0925064,-0.00663757,-0.0728607,0.0204849,0.0839996,-9.97986,0.0345612,-0.0616837,0.0182343,-0.25219,-0.0263596,-0.0269699,0.0317383,0.0336075
33,1,10.0097,0.0012207,-0.00244141,-2.42684,0.0550706,-0.075063,0.0519917,0.0688341,-0.0937568,0.144403,-0.126072,-0.085317,0.00679016,-0.0200653,-0.0380325,0.101967,-0.00637054,-0.0774002,0.0201797,0.0839996,-9.97986,0.0463867,-0.0553894,0.0187302,-0.272408,-0.0190353,-0.030632,0.0301743,0.0326538
33,2,10.0097,0.000915527,-0.00137329,-2.42714,0.0569017,-0.0756734,0.0526021,0.0694445,-0.0934516,0.145013,-0.126682,-0.0859274,0.00782013,-0.0109863,-0.0201797,0.084343,-0.0120163,-0.0790405,0.0214005,0.118294,-9.97986,0.054245,-0.0351715,0.0254059,-0.282898,-0.0139618,-0.0312805,0.0311661,0.0335312
33,3,10.0097,-0.0012207,-0.0012207,-2.42562,0.0550706,-0.0738423,0.0529073,0.0688341,-0.0928413,0.146844,-0.126377,-0.0844015,7.62939e-005,0.0268936,0.00617981,0.038414,-0.0103378,-0.0802612,0.0203323,0.112686,-9.97986,0.0429916,-0.0279236,0.0253296,-0.299568,-0.0133514,-0.0209427,0.0348663,0.0318527
33,4,10.0097,0.00213623,-0.000915527,-2.42501,0.0553758,-0.0747579,0.0544332,0.07036,-0.0922309,0.14837,-0.125766,-0.0834859,0.00118256,0.0539017,0.0131607,0.017395,-0.00850677,-0.0827026,0.0192261,0.080986,-9.97986,0.0340271,-0.0458145,0.0268936,-0.312271,-0.00770569,-0.0137711,0.0357819,0.0314713
33,5,10.0097,0.000610352,-0.000610352,-2.42531,0.0575121,-0.0738423,0.0538228,0.0709703,-0.0922309,0.145929,-0.126072,-0.0819601,0.00846863,0.0399017,0.0231934,0.0295258,-0.00888824,-0.0834274,0.021019,0.0824738,-9.97986,0.0172424,-0.0303268,0.0272369,-0.320549,-0.00392914,-0.00751495,0.0382233,0.0297546
33,6,10.0097,0.000610352,-0.000305176,-2.4247,0.0569017,-0.0723164,0.0547383,0.0709703,-0.090705,0.145318,-0.125461,-0.0810445,0.0267792,0.0338364,0.0335312,0.00236511,-0.0101852,-0.0843811,0.0195694,0.0595856,-9.97986,0.00907898,-0.0260925,0.0246429,-0.325623,-0.00469208,-0.00167847,0.0392151,0.027771
33,7,10.0097,-0.000610352,-0.00167847,-2.4247,0.0569017,-0.0735371,0.0550435,0.0709703,-0.0903999,0.147149,-0.124546,-0.0813497,0.021019,0.055542,0.0276947,-0.0173187,-0.0120163,-0.0844574,0.0163269,0.00843048,-9.97986,0.0063324,-0.0324631,0.0246048,-0.33577,-0.00518799,-0.000610352,0.0410843,0.0294876
33,8,10.0097,-0.00244141,-0.000457764,-2.4247,0.0553758,-0.0735371,0.0550435,0.0715807,-0.0916206,0.145929,-0.124851,-0.0807394,0.0167084,0.0604248,0.0157166,-0.0317001,-0.014267,-0.0845718,0.0163269,-0.0298691,-9.97986,0.00976563,-0.021286,0.0262833,-0.344505,-0.00728607,-0.00457764,0.0448227,0.0307846
33,9,10.0097,0.000610352,-0.000152588,-2.42562,0.0559862,-0.073232,0.0544332,0.0715807,-0.0919257,0.145624,-0.12363,-0.0813497,0.016861,0.0164795,-0.00873566,-0.073967,-0.0182724,-0.0774765,0.0218582,-0.0225449,-9.97986,0.0291443,-0.0196075,0.0273514,-0.342789,-0.00907898,-0.0123596,0.04673,0.0262451
34,0,10.0097,0,-0.00167847,-2.42623,0.0559862,-0.0738423,0.0553487,0.0551012,-0.0937568,0.145624,-0.125156,-0.0825704,0.0141907,-0.0605392,-0.0319672,-0.107346,-0.0217056,-0.0733948,0.0157928,-0.00434875,-9.97986,0.0340652,-0.0255585,0.030098,-0.340919,-0.00713348,-0.018692,0.0462723,0.0240326
34,1,10.0097,0,-0.000152588,-2.42623,0.0559862,-0.0735371,0.0550435,0.0587633,-0.0925361,0.144403,-0.126072,-0.0825704,0.0133514,-0.11322,-0.0278473,-0.0945282,-0.0193787,-0.0601578,0.0165176,-0.0199509,-9.97986,0.0322723,-0.0300217,0.0285721,-0.337677,-0.00766754,-0.0206375,0.0482559,0.02491
34,2,10.0097,0.0012207,0.000762939,-2.42592,0.0547655,-0.0747579,0.054128,0.0666979,-0.0922309,0.146844,-0.125461,-0.0819601,0.00984192,-0.0842285,0.00213623,-0.0278091,-0.017395,-0.0526428,0.0148773,-0.0340271,-9.97986,0.0254059,-0.0164032,0.0230408,-0.327797,-0.00953674,-0.0244141,0.0465012,0.0215149
34,3,10.0097,0.00274658,0.000915527,-2.42623,0.0565965,-0.0744527,0.054128,0.0731066,-0.0937568,0.145929,-0.125461,-0.0822652,0.00450134,-0.0408554,0.0455093,0.0318146,-0.0154114,-0.0471497,0.0172424,0.0156021,-9.97986,0.0125885,-0.0149536,0.0270844,-0.315666,-0.0141144,-0.0220871,0.0524902,0.020752
34,4,10.0097,0.00396729,0.00228882,-2.42745,0.0544603,-0.0756734,0.054128,0.0935533,-0.0900947,0.145013,-0.124851,-0.0816549,0.0169373,-0.00957489,0.0759125,0.0663757,-0.0102615,-0.0360107,0.0134277,0.049324,-9.97986,0.00488281,-0.0308228,0.0217056,-0.303574,-0.0106812,-0.0233459,0.0487518,0.017662
34,5,10.0097,0.000305176,0.00167847,-2.42837,0.0538499,-0.0762837,0.0522969,0.0770738,-0.0943672,0.146234,-0.126377,-0.085317,0.0265884,0.0278473,0.0831604,0.054245,-0.0094986,-0.0203705,0.0167084,0.0604248,-9.97986,0.000801086,-0.0344086,0.0266266,-0.284958,-0.00972748,-0.0289917,0.0523758,0.0146103
34,6,10.0097,0.000610352,0.00198364,-2.42928,0.0544603,-0.0765889,0.0519917,0.0712755,-0.094062,0.143182,-0.126072,-0.0862325,0.0299835,0.00350952,0.08255,0.00823975,-0.00427246,-0.010376,0.0137329,0.0322723,-9.97986,0.00545502,-0.0398636,0.0259781,-0.264168,-0.00926971,-0.0294876,0.0494766,0.0135803
34,7,10.0097,-0.000915527,0.00183105,-2.42867,0.0532396,-0.0747579,0.0526021,0.07036,-0.0937568,0.144098,-0.126377,-0.0859274,0.0293732,-0.0141525,0.0661469,-0.00709534,-0.000305176,-0.000228882,0.0110245,-0.00431061,-9.97986,0.00827789,-0.0265503,0.0209045,-0.241127,-0.00392914,-0.0323105,0.051384,0.0111771
34,8,10.0097,0.000610352,0.00198364,-2.42959,0.0532396,-0.0762837,0.0516866,0.0679186,-0.095893,0.144098,-0.126987,-0.0871481,0.028038,-0.000419617,0.054245,0.00198364,-0.00144958,0.0229263,0.0147247,-0.0370789,-9.97986,0.000457764,-0.00793457,0.0218582,-0.214996,-0.00881195,-0.041008,0.0481033,0.0123215
34,9,10.0097,0.000915527,0.00213623,-2.42745,0.0538499,-0.0744527,0.0532125,0.0685289,-0.0943672,0.145624,-0.127598,-0.0871481,0.0235367,0.0523758,0.0693893,-0.00118256,-0.00160217,0.0440216,0.00862122,-0.071106,-9.97986,-0.00171661,-0.00850677,0.0237274,-0.186539,-0.00976563,-0.0387573,0.0445557,0.0087738
35,0,10.0097,-0.000610352,0.00198364,-2.42898,0.0541551,-0.0747579,0.0526021,0.0688341,-0.0949775,0.146539,-0.126987,-0.0859274,0.0143433,0.130539,0.0696564,-0.0134277,0.00564575,0.0586319,0.00953674,-0.0775528,-9.97986,0.000953674,0.00915527,0.017662,-0.153122,-0.000152588,-0.0437164,0.0460815,0.0094986
35,1,10.0097,-0.000305176,0.00259399,-2.42806,0.0550706,-0.075063,0.0535176,0.07036,-0.0931465,0.145318,-0.125766,-0.0844015,0.0143814,0.184097,0.0374985,-0.0432205,0.00564575,0.0780487,0.00839233,-0.0808334,-9.97986,0.00595093,0.0249481,0.0185013,-0.128441,-0.00663757,-0.0469589,0.043335,0.0037384
35,2,10.0097,0.000305176,0.00305176,-2.42745,0.0559862,-0.075063,0.0532125,0.07036,-0.094062,0.147149,-0.126682,-0.0844015,0.00209808,0.275192,-0.0172043,-0.0435638,0.00812531,0.0924683,0.0120544,-0.0759125,-9.97986,0.0179291,0.0474167,0.0164795,-0.0959396,-0.00930786,-0.0388718,0.0424576,0.00270844
35,3,10.0097,-0.00183105,0.00396729,-2.42714,0.0553758,-0.0747579,0.0544332,0.0712755,-0.0934516,0.143487,-0.126682,-0.0831808,0.00495911,0.260506,-0.0864792,-0.0684738,0.0100327,0.109024,0.0124359,-0.0582886,-9.97986,0.0327301,0.0524521,0.0167084,-0.0643158,-0.00400543,-0.0299835,0.0415039,0.00377655
35,4,10.0097,0.000915527,0.00350952,-2.42653,0.0550706,-0.0747579,0.0550435,0.0712755,-0.0934516,0.141351,-0.124851,-0.0816549,0.01091,0.0558853,-0.135536,-0.0760651,0.0100327,0.127144,0.0142288,-0.0327682,-9.97986,0.0450134,0.0318909,0.0183105,-0.0314713,-0.00385284,-0.00881195,0.0420761,-0.00236511
35,5,10.0097,0.000915527,0.00259399,-2.42562,0.0562914,-0.0744527,0.0556539,0.0715807,-0.0882636,0.142267,-0.125156,-0.0810445,0.00301361,-0.114059,-0.146675,-0.036087,0.00793457,0.140877,0.014267,0.030632,-9.97986,0.0502777,0.0284958,0.0164413,-0.00392914,-0.00782013,0.00541687,0.0398254,-0.00404358
35,6,10.0097,0.00183105,0.0038147,-2.42562,0.0569017,-0.073232,0.0535176,0.0712755,-0.0910102,0.144403,-0.123935,-0.0795187,0.00991821,-0.177498,-0.122948,-0.0371552,0.012207,0.154343,0.0108337,0.0661087,-9.97986,0.0559235,0.0226974,0.0170517,0.0281906,-0.0102997,0.0221634,0.0382996,-0.00450134
35,7,10.0097,0.000915527,0.00335693,-2.42592,0.0569017,-0.0738423,0.0544332,0.0709703,-0.0919257,0.146234,-0.124241,-0.0804342,0.00953674,-0.173225,-0.107079,-0.0402451,0.00270844,0.158272,0.0113297,0.0562668,-9.97986,0.0584793,0.0311279,0.0138092,0.0675964,-0.00595093,0.0182343,0.0370789,-0.00740051
35,8,10.0097,0.0012207,0.00427246,-2.42592,0.0559862,-0.0744527,0.0556539,0.072191,-0.090705,0.14776,-0.123935,-0.0795187,0.0161362,-0.0916672,-0.0905228,-0.0659561,0.00961304,0.167313,0.0115204,0.032692,-9.97986,0.0558472,0.00400543,0.0136566,0.0957489,-0.0018692,0.0106049,0.0399017,-0.00911713
35,9,10.0097,0,0.00305176,-2.42501,0.0562914,-0.0726216,0.0547383,0.0691393,-0.0928413,0.149896,-0.123935,-0.080129,0.0188828,-0.0112534,-0.0650406,-0.0791931,0.0136566,0.173035,0.0155258,0.00328064,-9.97986,0.0603104,-0.0295639,0.0144577,0.127106,-0.00141144,0.00167847,0.0365067,-0.00984192
36,0,10.0097,0.000305176,0.00152588,-2.42562,0.0550706,-0.0735371,0.054128,0.0538805,-0.0934516,0.146539,-0.125766,-0.0825704,0.00736237,0.0244904,-0.0637436,-0.0476456,0.00984192,0.175629,0.014534,-0.0227737,-9.97986,0.0502396,-0.0139618,0.0117874,0.155945,0.00324249,-0.0106049,0.0304031,-0.0146484
36,1,10.0097,-0.000305176,0.00274658,-2.42501,0.055681,-0.0744527,0.0535176,0.0590685,-0.0925361,0.145624,-0.125461,-0.0813497,0.0130081,-0.0128937,-0.0738525,-0.0553131,0.0101471,0.175285,0.0183487,-0.0131226,-9.97986,0.0411606,0.00038147,0.0112152,0.192566,0.00846863,-0.013237,0.0291443,-0.014801
36,2,10.0097,-0.000305176,0.00259399,-2.42592,0.0544603,-0.0741475,0.0538228,0.067003,-0.0919257,0.146844,-0.125461,-0.0825704,0.01194,-0.0353241,-0.0721359,-0.057869,0.00629425,0.171204,0.0169373,-0.0220871,-9.97986,0.0328827,0.0100327,0.0103378,0.220451,0.0166702,-0.0112534,0.0285339,-0.0163269
36,3,10.0097,0.00183105,0.00350952,-2.42776,0.0559862,-0.0756734,0.054128,0.0728014,-0.0931465,0.145318,-0.126072,-0.0822652,0.00808716,-0.0257492,-0.04673,-0.0136948,0.0044632,0.169144,0.0209427,-0.0486374,-9.97986,0.0216293,0.0313568,0.0110626,0.258446,0.0225067,-0.00972748,0.0197601,-0.0138474
36,4,10.0097,0.000610352,0.00473022,-2.42653,0.0550706,-0.0759786,0.0550435,0.094774,-0.0882636,0.144708,-0.124546,-0.0834859,0.00457764,-0.0640106,-0.0302505,0.00167847,0.00347137,0.164185,0.0179291,-0.00328064,-9.97986,0.0229263,0.0109482,0.0106049,0.292549,0.0267792,-0.0056076,0.0250244,-0.0178528
36,5,10.0097,0.0012207,0.00305176,-2.42867,0.0535448,-0.0762837,0.0516866,0.0761583,-0.0949775,0.143182,-0.125766,-0.0847066,0.0114822,-0.0899124,-0.0113297,0.0568771,0.00263214,0.159492,0.0180817,0.0674057,-9.97986,0.0215912,-0.0689316,0.00869751,0.308571,0.0281906,-0.00961304,0.0209045,-0.0182724
36,6,10.0097,-0.00152588,0.00228882,-2.42867,0.0529344,-0.0756734,0.0519917,0.0715807,-0.0946723,0.142877,-0.126377,-0.0862325,0.0104523,-0.0746155,0.00473022,0.124969,-0.00389099,0.159721,0.0163651,0.057373,-9.97986,0.0182724,-0.116234,0.0082016,0.333328,0.0311661,-0.0230026,0.0218201,-0.0190735
36,7,10.0097,-0.0012207,0.00198364,-2.42806,0.0535448,-0.0747579,0.0522969,0.0676134,-0.0946723,0.143182,-0.126682,-0.0859274,0.00537872,-0.0429153,0.0025177,0.162544,3.8147e-005,0.153885,0.0196838,0.0299454,-9.97986,0.0170898,-0.0342941,0.00595093,0.35408,0.0273514,-0.0415039,0.0196075,-0.0196838
36,8,10.0097,0.000610352,0.000915527,-2.42959,0.0541551,-0.0771993,0.0535176,0.0691393,-0.0943672,0.143182,-0.127903,-0.0868429,0.0110626,-0.0482178,-0.016098,0.127563,-0.00793457,0.144043,0.0129318,0.0187683,-9.97986,0.014801,0.077095,0.00709534,0.367165,0.0266266,-0.0444031,0.015831,-0.0225067
36,9,10.0097,0.00183105,0.00137329,-2.42806,0.050493,-0.0759786,0.0532125,0.0694445,-0.0928413,0.143182,-0.127598,-0.0859274,0.0113678,-0.0853348,0.00038147,0.072403,-0.00995636,0.136452,0.0154877,0.0423431,-9.97986,0.0043869,0.113373,0.00404358,0.388451,0.0271606,-0.0347137,0.0155258,-0.0206375
37,0,10.0097,0.00183105,0.00183105,-2.42867,0.0538499,-0.0747579,0.0510762,0.0694445,-0.0937568,0.144403,-0.126987,-0.0859274,-0.00492096,-0.077095,0.0227356,0.029068,-0.0115585,0.132828,0.0167847,0.0775528,-9.97986,0.000686646,0.0931931,0.00205994,0.407181,0.0287628,-0.026207,0.00873566,-0.0232315
37,1,10.0097,0.00244141,0.00152588,-2.42714,0.0547655,-0.0759786,0.0535176,0.0694445,-0.0943672,0.145318,-0.126377,-0.0859274,-0.00663757,-0.0481033,0.0426102,0.00259399,-0.0153351,0.126801,0.0157547,0.116882,-9.97986,-0.00305176,0.0828552,0.00427246,0.426483,0.0281906,-0.0149536,0.00865936,-0.0228119
37,2,10.0097,0.000610352,0.00198364,-2.42714,0.0547655,-0.0741475,0.0532125,0.0700548,-0.0931465,0.145624,-0.125461,-0.0844015,-0.00656128,-0.0323868,0.0666046,-0.022049,-0.0154114,0.120163,0.0178909,0.154572,-9.97986,0.00324249,0.0503922,0.000991821,0.444946,0.0259399,0.000686646,0.00827789,-0.0227737
37,3,10.0097,-0.000305176,0.00228882,-2.42714,0.0550706,-0.0753682,0.0535176,0.0694445,-0.0925361,0.145624,-0.126072,-0.0837911,-0.00358582,-0.00610352,0.0831223,-0.0751877,-0.0140381,0.117378,0.0172806,0.150146,-9.97986,-0.00801086,-0.0623703,0.00190735,0.461197,0.0373077,0.00225067,0.00640869,-0.0264359
37,4,10.0097,-0.000610352,0.00198364,-2.42592,0.0553758,-0.0744527,0.0556539,0.0715807,-0.0928413,0.14837,-0.125461,-0.0828756,-0.00106812,0.0539017,0.068512,-0.106392,-0.0117874,0.107079,0.0191879,0.107956,-9.97986,-0.014534,-0.113525,0.00457764,0.483322,0.0339127,0.0133133,0.00392914,-0.0236893
37,5,10.0097,-0.00274658,0.00152588,-2.4247,0.0562914,-0.0726216,0.054128,0.0712755,-0.0919257,0.147455,-0.125766,-0.0813497,0.00694275,0.141296,0.0466156,-0.0848389,-0.0181198,0.0960159,0.0196838,0.0336075,-9.97986,-0.0172043,-0.0984955,0.00286102,0.503654,0.0284576,0.00473022,0.00205994,-0.0225449
37,6,10.0097,-0.00152588,0.00183105,-2.42592,0.0559862,-0.0738423,0.0538228,0.0718859,-0.0922309,0.145013,-0.123325,-0.0804342,0.00465393,0.149498,0.0463867,-0.0731277,-0.0118256,0.0960541,0.0177383,-0.0346375,-9.97986,-0.0232697,-0.0778961,-0.00213623,0.52494,0.0324631,-0.00427246,-0.000610352,-0.0246048
37,7,10.0097,-0.000915527,0.00259399,-2.42562,0.0562914,-0.0738423,0.0535176,0.0709703,-0.0910102,0.145318,-0.124851,-0.0804342,0.0134659,0.0742722,0.0497055,-0.063324,-0.0161362,0.0849915,0.0185394,-0.0899506,-9.97986,-0.0251389,-0.0486755,-0.000305176,0.552139,0.0304794,-0.00823975,-0.00160217,-0.028038
37,8,10.0097,0.00213623,0.00244141,-2.4244,0.055681,-0.073232,0.0538228,0.0724962,-0.0910102,0.146844,-0.124241,-0.0798238,0.0175858,0.0684357,0.0657654,-0.0423813,-0.00858307,0.0875854,0.0217819,-0.120468,-9.97986,-0.0199127,-0.0328064,-3.8147e-005,0.577011,0.0325012,-0.00423431,0.00312805,-0.025177
37,9,10.0097,0.0012207,0.00259399,-2.42531,0.0569017,-0.0729268,0.0553487,0.0697496,-0.0919257,0.147149,-0.12363,-0.080129,0.0239944,0.0842285,0.0691223,-0.0142288,-0.0106049,0.0844193,0.0185394,-0.102844,-9.97986,-0.0182343,-0.0350571,-0.00499725,0.59803,0.0359344,-0.0106049,0.00778198,-0.0246048
38,0,10.0097,0,0.00183105,-2.42592,0.0575121,-0.073232,0.0529073,0.0560167,-0.0928413,0.146234,-0.126377,-0.0813497,0.0186539,0.0925446,0.03685,-0.000228882,-0.00621796,0.0843048,0.0187683,-0.0894547,-9.97986,-0.0178146,-0.031662,3.8147e-005,0.618134,0.0364685,-0.012207,0.00926971,-0.0270844
38,1,10.0097,0.00183105,0.00152588,-2.42562,0.0553758,-0.0741475,0.0535176,0.0596788,-0.0925361,0.145929,-0.125461,-0.0819601,0.0140381,0.112419,0.0132751,-0.0741577,-0.00587463,0.0774384,0.0199127,-0.0552368,-9.97986,0.00396729,-0.0707245,-0.00614166,0.636711,0.03582,-0.0148392,0.00537872,-0.0268173
38,2,10.0097,0.000610352,0.00244141,-2.42592,0.0547655,-0.0744527,0.054128,0.0712755,-0.0903999,0.145013,-0.126072,-0.0813497,0.022583,0.127182,0.00743866,-0.133629,-0.00259399,0.0747681,0.022316,-0.00301361,-9.97986,0.0260162,-0.106697,-0.00205994,0.659828,0.0354767,-0.0139999,0.00938416,-0.0254822
38,3,10.0097,0.000305176,0.00213623,-2.42592,0.0550706,-0.0756734,0.0538228,0.0743273,-0.0928413,0.145318,-0.124851,-0.0834859,0.0286865,0.105782,0.0144196,-0.119514,-0.00106812,0.0694275,0.0205231,0.0037384,-9.97986,0.026207,-0.0761414,-0.000419617,0.678024,0.0403214,-0.00812531,0.010376,-0.0209045
38,4,10.0097,0.000305176,0.00320435,-2.42837,0.0550706,-0.0747579,0.0535176,0.0892809,-0.0913154,0.143182,-0.124851,-0.0837911,0.0154877,0.0632858,0.00904083,-0.0634003,0.00217438,0.071106,0.0201416,-0.00434875,-9.97986,0.018692,-0.0199127,-0.00434875,0.68531,0.0383759,-0.00911713,0.00930786,-0.0222778
38,5,10.0097,0.000915527,0.00213623,-2.42928,0.0529344,-0.0753682,0.0519917,0.075548,-0.0937568,0.145013,-0.126377,-0.0859274,0.0112915,0.0617599,0.0330734,0.0137711,-0.00267029,0.0685883,0.0177765,-0.0192642,-9.97986,0.0193787,0.0626755,-0.00247955,0.702209,0.043869,-0.00850677,0.014267,-0.021553
38,6,10.0097,-0.000305176,-0.000152588,-2.42867,0.0532396,-0.0765889,0.0529073,0.07036,-0.0961982,0.144098,-0.127903,-0.0874532,0.00484467,0.0961304,0.0682831,-0.0180817,-0.00648499,0.070343,0.0187302,-0.0589752,-9.97986,0.00846863,0.125198,-0.00434875,0.696869,0.0439835,-0.00652313,0.0141525,-0.0176239
38,7,10.0097,-0.00213623,0,-2.42745,0.0550706,-0.0762837,0.0522969,0.0706652,-0.095893,0.141961,-0.126377,-0.0871481,0.00991821,0.0802231,0.0771332,-0.046463,-0.00694275,0.0691223,0.020752,-0.0945282,-9.97986,0.00915527,0.177193,-0.00411987,0.686798,0.0479889,-0.00133514,0.0144958,-0.0186539
38,8,10.0097,0.000610352,-0.00167847,-2.4305,0.0535448,-0.0765889,0.0526021,0.0700548,-0.0943672,0.142267,-0.126987,-0.0874532,0.00488281,0.0259399,0.0468826,0.0729752,-0.00442505,0.0701523,0.021019,-0.0859833,-9.97986,0.0202942,0.16777,-0.00564575,0.673409,0.0485992,0.00968933,0.0182724,-0.0156403
38,9,10.0097,0.000305176,-0.00167847,-2.42959,0.0529344,-0.0768941,0.0538228,0.0679186,-0.0946723,0.140436,-0.127903,-0.0877584,0.00450134,-0.0399017,0.0107574,0.209007,-0.0038147,0.0630188,0.0141525,-0.0500107,-9.97986,0.00385284,0.091095,-0.0122452,0.650635,0.0431442,-0.00358582,0.00957489,-0.0194931
39,0,10.0097,0.00305176,-0.00213623,-2.42714,0.0535448,-0.075063,0.0529073,0.0700548,-0.094062,0.143792,-0.127903,-0.0865377,0.0153732,-0.0814819,-0.0114441,0.203972,-0.000419617,0.0675964,0.0137329,0.0112152,-9.97986,0.0189972,0.0843048,-0.00457764,0.63488,0.0514603,-0.01194,0.0241852,-0.013504
39,1,10.0097,0.000915527,-0.00320435,-2.42806,0.0538499,-0.0756734,0.0526021,0.0697496,-0.0934516,0.145929,-0.126682,-0.0862325,0.00671387,-0.0593948,0.00259399,0.175247,0.00228882,0.0653076,0.0166702,0.0590134,-9.97986,0.0216675,0.0492096,-0.0104523,0.597801,0.0484467,-0.0178528,0.0182724,-0.0184631
39,2,10.0097,0.000305176,-0.00305176,-2.42684,0.0550706,-0.0744527,0.0538228,0.0688341,-0.0931465,0.145624,-0.125766,-0.0850118,0.00869751,-0.0159836,0.0279617,0.204659,0.0110626,0.0637054,0.0162888,0.0906754,-9.97986,0.0256348,-0.00183105,-0.0088501,0.571251,0.0474548,-0.0148392,0.0224304,-0.0114822
39,3,10.0097,0.00152588,-0.00320435,-2.42745,0.0547655,-0.0747579,0.0535176,0.0697496,-0.0934516,0.14837,-0.125156,-0.0850118,0.000534058,0.0196838,0.0402069,0.174294,0.0154877,0.0616074,0.0138092,0.15007,-9.97986,0.0247192,0.0212479,-0.00896454,0.523758,0.0484085,-0.00862122,0.0228882,-0.00896454
39,4,10.0097,0.00213623,-0.00411987,-2.42592,0.055681,-0.0738423,0.0538228,0.0697496,-0.0925361,0.146844,-0.124851,-0.0834859,0.00171661,0.0518036,0.057869,0.156898,0.0149918,0.0654984,0.0157547,0.187263,-9.97986,0.0432587,0.0409317,-0.0111008,0.474968,0.0518417,-0.0130463,0.024147,-0.00923157
39,5,10.0097,-0.000610352,-0.00350952,-2.42592,0.055681,-0.075063,0.0550435,0.0712755,-0.0925361,0.146234,-0.124546,-0.0819601,0.00293732,0.0664902,0.0754547,0.159683,0.0186157,0.0649643,0.0196457,0.174408,-9.97986,0.0434875,0.0295258,-0.00923157,0.425224,0.0449753,-0.014267,0.017395,-0.00846863
39,6,10.0097,-0.00335693,-0.00396729,-2.42531,0.0562914,-0.0735371,0.054128,0.0712755,-0.0925361,0.147149,-0.12302,-0.0822652,0.000267029,0.0792694,0.075798,0.123711,0.0231552,0.0613403,-0.00289917,0.0934982,-9.97986,0.0358963,-0.00038147,-0.00652313,0.377731,0.0457001,-0.0118637,0.0233841,-0.00938416
39,7,10.0097,-0.00183105,-0.00473022,-2.42501,0.0562914,-0.0738423,0.0556539,0.0697496,-0.0922309,0.146539,-0.124546,-0.0828756,0.001297,0.0683594,0.0572586,0.105667,0.0240707,0.0622559,-0.00602722,-0.00946045,-9.97986,0.0333786,-0.0193405,-0.00865936,0.328903,0.0444412,-0.0141144,0.0209045,-0.00724792
39,8,10.0097,-0.00152588,-0.0038147,-2.42684,0.0572069,-0.0741475,0.054128,0.0724962,-0.0916206,0.146539,-0.124241,-0.0819601,-0.000991821,0.050354,0.0148392,0.0875473,0.0260925,0.0569534,0.0122833,-0.0128174,-9.97986,0.0299454,0.0037384,-0.00530243,0.283737,0.0437546,-0.0141907,0.0209808,-0.00865936
39,9,10.0097,-0.000610352,-0.00442505,-2.42562,0.0559862,-0.0741475,0.054128,0.07036,-0.0916206,0.145929,-0.124241,-0.0825704,0.00934601,0.0335312,-0.0390244,0.0659943,0.0287247,0.0553894,0.00980377,-0.0101852,-9.97986,0.0271988,-0.0125885,-0.00431061,0.231972,0.0429153,-0.0122452,0.0197601,-0.00705719
40,0,10.0097,-0.0012207,-0.00549316,-2.42592,0.0569017,-0.0744527,0.0538228,0.0541857,-0.0925361,0.145318,-0.125461,-0.0831808,0.0173187,0.0130844,-0.0788116,0.0410461,0.0282669,0.0521469,0.00934601,-0.0440216,-9.97986,0.0181198,-0.0501633,-0.00846863,0.180817,0.0407028,-0.0177765,0.0211334,-0.00339508
40,1,10.0097,0.00244141,-0.00488281,-2.42653,0.0559862,-0.0738423,0.054128,0.0593737,-0.0925361,0.145318,-0.126072,-0.0837911,0.0121307,0.0146484,-0.0851059,0.0198364,0.0307846,0.049057,0.0172043,-0.0241852,-9.97986,0.0130844,-0.0408173,-0.00823975,0.137558,0.0395584,-0.0141525,0.0149918,-0.00156403
40,2,10.0097,0.00152588,-0.00411987,-2.42653,0.0565965,-0.0744527,0.054128,0.067003,-0.0919257,0.146234,-0.126377,-0.0844015,0.00511169,0.0133514,-0.0543976,0.00240326,0.0335312,0.043602,0.019722,0.0444031,-9.97986,0.00324249,-0.0101852,-0.00595093,0.0850296,0.0365829,-0.0199509,0.0151443,-0.000991821
40,3,10.0097,0.00274658,-0.00457764,-2.42684,0.055681,-0.075063,0.0532125,0.0728014,-0.0910102,0.144708,-0.125461,-0.0850118,0.00343323,0.00259399,-0.0362396,-3.8147e-005,0.030899,0.0457001,0.0201797,0.110893,-9.97986,0.0056076,-0.0277328,-0.00728607,0.0368881,0.0340652,-0.0162125,0.0164032,0.00209808
40,4,10.0097,0.00183105,-0.00350952,-2.42806,0.0550706,-0.075063,0.0547383,0.0938585,-0.0913154,0.145013,-0.124851,-0.0850118,0.0137329,-0.00480652,-0.0289536,-0.0133514,0.0324249,0.0364685,0.0173187,0.171661,-9.97986,0.0255966,-0.0924301,-0.0123215,-0.0120544,0.0310898,-0.00862122,0.0119781,0.00148773
40,5,10.0097,0.000610352,-0.00396729,-2.42837,0.0538499,-0.0762837,0.0513814,0.0761583,-0.0952827,0.144708,-0.126987,-0.0877584,0.0150299,-0.00347137,-0.00892639,-0.00541687,0.0330353,0.0374603,0.021553,0.194016,-9.97986,0.0309753,-0.102882,-0.00137329,-0.0591278,0.0263214,0.00183105,0.0125122,0.00843048
40,6,10.0097,0.000915527,-0.00411987,-2.42959,0.0544603,-0.0765889,0.0516866,0.0734117,-0.0946723,0.143487,-0.126682,-0.0877584,0.0107956,0.00495911,0.0205231,0.0203705,0.0336456,0.0364685,0.0220871,0.15831,-9.97986,0.0333786,-0.0565338,-0.00972748,-0.099411,0.0215912,0.00751495,0.00965118,0.00858307
40,7,10.0097,0.00244141,-0.00335693,-2.42928,0.0532396,-0.0759786,0.0516866,0.0706652,-0.0943672,0.143487,-0.126682,-0.0871481,0.00808716,0.0206375,0.0419998,0.0251389,0.0373459,0.0331497,0.0245667,0.159531,-9.97986,0.0255203,-0.0130844,-0.00656128,-0.125389,0.0214767,0.0122833,0.0125885,0.0107956
