
Devices
1200
,,BP Load cell - Voltage,String Length - Voltage,Clutch Active - Voltage,#7 iPecs - Voltage,,,,,,,,,EMG 1-8 Left - Voltage,,,,,,,,Pylon Force - Voltage,EMG 9-16 Right - Voltage,,,,,,,,
Frame,Sub Frame,BP Load Cell,String Length,From Arduino Logic,A45,A135,A225,A315,S0,S90,S180,S270,ZSum,EMG 1 Glut Max,EMG 2 Glut Med,EMG 3 Biceps Femoris Long,EMG 4 Rectus Femoris,EMG 5 Vastus Medialis,EMG 6 Tib Ant,EMG 7 Med Gas,EMG 8 Soleus,Pylon volts,EMG 9 Glut Max,EMG 10 Glut Med,EMG 11 Biceps Femoris Long,EMG 12 Rectus Femoris,EMG 13 Vastus Medialis,EMG 14 Tib Ant,EMG 15 Med Gas,EMG 16 Soleus
,,V,V,V,V,V,V,V,V,V,V,V,V,V,V,V,V,V,V,V,V,V,V,V,V,V,V,V,V,V
1,0,10.0097,0.000610352,-0.000305176,-2.42745,0.0559862,-0.0762837,0.0538228,0.0712755,-0.0931465,0.144708,-0.125156,-0.0825704,0.0101089,0.0258636,0.0237274,0.0131989,0.0168228,0.011673,0.019989,0.0160599,-9.97986,0.0131607,-0.00259399,0.0153351,0.00656128,0.0183868,-0.000534058,0.0182343,0.00782013
1,1,10.0097,0.000915527,0.000610352,-2.42592,0.0562914,-0.0738423,0.0547383,0.0718859,-0.0934516,0.145929,-0.124546,-0.0819601,0.0131989,0.0253677,0.0204468,0.0115204,0.0198364,0.0128174,0.0189209,0.0154877,-9.97986,0.0183868,-0.0031662,0.0162125,0.00789642,0.0146103,0.00038147,0.0138855,0.00679016
1,2,10.0097,0.00244141,-0.000457764,-2.42562,0.0565965,-0.0738423,0.0535176,0.0724962,-0.0922309,0.146539,-0.124851,-0.0819601,0.01091,0.0226593,0.018425,0.0112152,0.0196075,0.00991821,0.0195694,0.0200272,-9.97986,0.0183868,-0.00274658,0.0138092,0.00602722,0.0150681,0.00110626,0.0172806,0.00782013
1,3,10.0097,0.000305176,0.000305176,-2.42501,0.0559862,-0.073232,0.0547383,0.0709703,-0.090705,0.146539,-0.124546,-0.0804342,0.0123596,0.0232697,0.021286,0.0110245,0.0224304,0.00644684,0.0231171,0.026741,-9.97986,0.0214386,-0.00297546,0.0165176,0.0075531,0.016861,-0.00469208,0.0132751,0.00843048
1,4,9.9352,-0.0012207,-0.00305176,-2.42684,0.0569017,-0.075063,0.0519917,0.0261095,-0.0971137,0.146539,-0.127292,-0.0831808,0.00965118,0.0200653,0.0178146,0.0106812,0.0189972,0.0117874,0.0211334,0.0282288,-9.97986,0.0204086,0.00102997,0.0164795,0.00370026,0.0143814,-0.0044632,0.0152969,0.00728607
1,5,1.00972,0.0012207,-0.00488281,-2.42501,0.0581224,-0.0735371,0.0529073,-0.00135633,-0.0965034,0.147455,-0.128513,-0.0813497,0.0110626,0.0252151,0.0193787,0.0126266,0.0160599,0.0120544,0.0199127,0.0299835,-9.97986,0.0223923,-0.000419617,0.0163269,0.00507355,0.0194931,-0.00282288,0.0149536,0.00953674
1,6,-5.89335,0.000610352,-0.00442505,-2.42562,0.0569017,-0.0741475,0.0532125,-0.0163099,-0.0965034,0.146539,-0.129429,-0.0816549,0.00801086,0.0247574,0.0204468,0.0138855,0.0177383,0.0136185,0.0237274,0.0236893,-9.97986,0.0214005,-0.0031662,0.0167084,0.00427246,0.0153351,-0.0063324,0.0152969,0.0106049
1,7,-9.99003,-0.000305176,-0.00396729,-2.42592,0.0553758,-0.073232,0.0547383,0.00901965,-0.0931465,0.145624,-0.127598,-0.0807394,0.0114822,0.0260544,0.0173187,0.0113678,0.020256,0.0101471,0.0208664,0.0244141,-9.97986,0.0197983,-0.00198364,0.0154495,0.00774384,0.014267,-0.00671387,0.0163651,0.0056076
1,8,-9.99003,0.00274658,-0.00167847,-2.42531,0.0553758,-0.0741475,0.0550435,0.0383165,-0.0900947,0.145929,-0.126682,-0.0804342,0.00995636,0.0249481,0.0202942,0.0144577,0.0171661,0.0121307,0.0218964,0.0231934,-9.97986,0.0179291,0.00190735,0.0183868,0.00347137,-0.000686646,-0.00427246,0.0184631,0.00461578
1,9,-9.99003,0.000915527,-0.000457764,-2.42592,0.0562914,-0.0729268,0.0562642,0.0557115,-0.0913154,0.145624,-0.126377,-0.0810445,0.00923157,0.0214005,0.0197983,0.0115967,0.0182343,0.0123596,0.0225449,0.0190735,-9.97986,0.0166702,0.00282288,0.0154877,0.00816345,-0.00926971,-0.00324249,0.0153351,0.00934601
2,0,-9.99003,0.000305176,-0.000305176,-2.42623,0.0565965,-0.0735371,0.0556539,0.075548,-0.0894843,0.145929,-0.124851,-0.0831808,0.00400543,0.0253677,0.0235367,0.0118256,0.0147247,0.0113678,0.0221634,0.013237,-9.97986,0.0134277,0.00114441,0.014267,0.00312805,0.00499725,-0.00328064,0.0144958,0.00530243
2,1,-9.66777,0.00213623,0.00228882,-2.42592,0.0559862,-0.0744527,0.0565694,0.127428,-0.0849067,0.145318,-0.121494,-0.0816549,0.00957489,0.0279236,0.018158,0.0135422,0.0151825,0.0126266,0.0216293,0.0104904,-9.97986,0.00839233,-0.0069809,0.0139236,0.00640869,0.0164413,0.000648499,0.0172806,0.00579834
2,2,-1.29008,-0.000610352,0.00335693,-2.42714,0.0553758,-0.0759786,0.0547383,0.145128,-0.0867378,0.144708,-0.121799,-0.0844015,0.0075531,0.0247192,0.0162888,0.00972748,0.0166321,0.00869751,0.0189972,0.0102615,-9.97986,0.0106049,-0.00282288,0.0132751,0.00255585,0.0151443,0.00167847,0.0161362,0.00675201
2,3,6.60268,-0.000305176,0.00457764,-2.42898,0.0544603,-0.075063,0.0529073,0.154283,-0.0903999,0.143792,-0.121494,-0.0850118,0.0131226,0.029068,0.0216675,0.0143051,0.0161743,0.0115204,0.0203705,0.00919342,-9.97986,0.0100327,0.000305176,0.0139999,0.00507355,0.0123215,-0.00320435,0.0178909,0.00911713
2,4,10.0097,0.0012207,0.00396729,-2.42989,0.0523241,-0.0771993,0.0510762,0.128038,-0.0952827,0.142572,-0.12363,-0.0880636,0.0111008,0.025444,0.0210571,0.0153732,0.0113678,0.0107956,0.019989,0.0167465,-9.97986,0.0117111,0.00102997,0.0136566,0.00812531,0.0119781,-0.00526428,0.0179291,0.00450134
2,5,10.0097,0,0.000915527,-2.43081,0.0535448,-0.0762837,0.050771,0.0914171,-0.0986396,0.142267,-0.126377,-0.0883688,0.00946045,0.0251389,0.0195313,0.0114441,0.0188065,0.0133896,0.0226212,0.00988007,-9.97986,0.00946045,0.000190735,0.0116348,0.0069046,0.0140762,-0.00209808,0.0190735,0.00701904
2,6,10.0097,0.000915527,-0.000305176,-2.42898,0.0544603,-0.0762837,0.0510762,0.0785997,-0.0961982,0.143792,-0.126072,-0.0883688,0.0126266,0.0259781,0.0229645,0.0109863,0.0173569,0.0131989,0.0225449,0.0156403,-9.97986,0.0126266,0.000724792,0.0166321,0.00679016,0.0189972,0.00160217,0.0177002,0.00816345
2,7,10.0097,-0.000915527,-0.000305176,-2.42806,0.0538499,-0.0762837,0.0535176,0.0734117,-0.0949775,0.143487,-0.126072,-0.0868429,0.00968933,0.0261688,0.0230789,0.00923157,0.0207901,0.0101852,0.0244904,0.0138092,-9.97986,0.0136948,-0.00537872,0.0142288,0.00694275,0.0149536,0.00263214,0.0139999,0.00850677
2,8,10.0097,-0.000305176,0.000610352,-2.42837,0.0550706,-0.0753682,0.0519917,0.072191,-0.094062,0.145318,-0.126987,-0.0862325,0.0127411,0.0259399,0.0192642,0.0087738,0.0226212,0.0113297,0.0231934,0.0124741,-9.97986,0.0173569,0.000610352,0.014801,0.00404358,0.0143433,-0.0019455,0.0156403,0.00518799
2,9,10.0097,0.000915527,-0.000152588,-2.42776,0.0550706,-0.0744527,0.0532125,0.07036,-0.0928413,0.144403,-0.126072,-0.0840963,0.00923157,0.0281906,0.019455,0.00675201,0.0214386,0.00938416,0.0188065,0.014267,-9.97986,0.0169754,0.000648499,0.0139236,0.0050354,0.0144196,-0.00148773,0.0146103,0.0069809
3,0,10.0097,-0.00183105,0.000152588,-2.42714,0.0544603,-0.075063,0.0529073,0.0709703,-0.0928413,0.145624,-0.125156,-0.0837911,0.00762939,0.0215912,0.0200272,0.0110626,0.0157547,0.00919342,0.0220871,0.0161743,-9.97986,0.0181198,-0.00179291,0.00995636,0.00484467,0.0167847,0.00038147,0.0140381,0.00831604
3,1,10.0097,-0.00152588,0.000915527,-2.4247,0.0559862,-0.0744527,0.0550435,0.0718859,-0.0928413,0.14776,-0.125156,-0.0813497,0.00801086,0.0254822,0.021286,0.00709534,0.0176239,0.00953674,0.0200653,0.0164032,-9.97986,0.0179291,-0.00213623,0.00988007,0.00450134,0.0178146,0.000724792,0.0153351,0.0075531
3,2,10.0097,0.000305176,-0.000152588,-2.42623,0.0550706,-0.0744527,0.0547383,0.0718859,-0.0910102,0.145624,-0.12363,-0.0813497,0.0107574,0.026474,0.018959,0.01091,0.022049,0.0123596,0.0234985,0.0214005,-9.97986,0.0160599,0,0.0136185,0.00419617,0.0189972,0.001297,0.0159454,0.00507355
3,3,10.0097,-0.000610352,0.000152588,-2.42348,0.0562914,-0.0747579,0.0550435,0.0709703,-0.0913154,0.146844,-0.124546,-0.0816549,0.0141525,0.0268173,0.0209045,0.0123215,0.0152969,0.0111389,0.0178146,0.0224686,-9.97986,0.0190735,-0.00694275,0.0139236,0.00610352,0.0140381,-0.00457764,0.0162125,0.00312805
3,4,10.0097,0.00213623,-0.00213623,-2.42653,0.0559862,-0.0744527,0.0535176,0.027025,-0.0965034,0.145013,-0.127903,-0.0831808,0.00961304,0.0276566,0.0194168,0.0113297,0.0178528,0.00911713,0.0207138,0.02388,-9.97986,0.0253296,-0.00404358,0.0164795,0.00984192,0.018158,-0.00423431,0.0179672,0.0082016
3,5,1.24043,0.00152588,-0.00366211,-2.42531,0.0569017,-0.0726216,0.0526021,-0.00227185,-0.0965034,0.14776,-0.129123,-0.0822652,0.0110626,0.0283432,0.0185013,0.0114822,0.0177383,0.00598907,0.0199509,0.0272751,-9.97986,0.0234604,-7.62939e-005,0.0126648,0.00507355,0.0146103,-0.00537872,0.0140381,0.010376
3,6,-5.66935,0.000610352,-0.0050354,-2.42592,0.0575121,-0.0744527,0.0538228,-0.0150892,-0.0965034,0.146539,-0.130039,-0.0810445,0.0088501,0.027504,0.0199509,0.010376,0.0170898,0.0119781,0.0202179,0.0259781,-9.97986,0.0225067,0.000457764,0.0180435,0.0062561,0.0179291,-0.00198364,0.0188446,0.00743866
3,7,-9.99003,0.000305176,-0.00289917,-2.42501,0.0562914,-0.073232,0.0553487,0.00871447,-0.0928413,0.147455,-0.128513,-0.0810445,0.0101852,0.0270081,0.0232697,0.0137711,0.0183868,0.00797272,0.0244522,0.0217056,-9.97986,0.0231171,-0.00263214,0.0145721,0.0087738,0.0193787,-0.00087738,0.0169373,0.00804901
3,8,-9.99003,-0.000305176,-0.00198364,-2.42501,0.0553758,-0.0735371,0.055959,0.0383165,-0.0913154,0.146844,-0.126987,-0.0816549,0.014267,0.0255966,0.0227356,0.0118637,0.0133514,0.0118256,0.0204849,0.0233459,-9.97986,0.0167465,-0.0037384,0.0126648,0.00343323,-0.000762939,-0.00133514,0.0185776,0.00709534
3,9,-9.99003,0.000610352,-0.00106812,-2.4247,0.0547655,-0.0747579,0.0556539,0.054796,-0.0913154,0.147455,-0.126377,-0.0819601,0.00743866,0.0248337,0.0201416,0.0117493,0.0151443,0.00892639,0.0178909,0.0145721,-9.97986,0.0177383,-0.00164032,0.0188065,0.00934601,-0.00358582,0.00217438,0.0186539,0.00888824
4,0,-9.99003,0,-0.000457764,-2.42531,0.0547655,-0.0747579,0.0556539,0.0734117,-0.0891792,0.145624,-0.124546,-0.0828756,0.0112915,0.0222015,0.0211334,0.0136948,0.0131607,0.00915527,0.0201416,0.00991821,-9.97986,0.0107574,-0.000228882,0.0155258,0.00682831,0.00904083,-3.8147e-005,0.0175858,0.00583649
4,1,-9.53074,0.00305176,0.00244141,-2.42623,0.0544603,-0.075063,0.0574849,0.127123,-0.0849067,0.144708,-0.121799,-0.0813497,0.0104523,0.02388,0.0194168,0.00984192,0.014801,0.0117493,0.0268936,0.00770569,-9.97986,0.00953674,0.00038147,0.0121689,0.00572205,0.0125504,0.000267029,0.018959,0.0094223
4,2,-0.998945,-0.000305176,0.0038147,-2.42623,0.0538499,-0.0759786,0.0562642,0.144823,-0.0879585,0.143182,-0.122104,-0.0847066,0.0109863,0.0201797,0.0221252,0.0114441,0.0156403,0.0056839,0.022049,0.00888824,-9.97986,0.0105667,-0.00190735,0.0159073,0.00904083,0.0139236,-0.00320435,0.0135422,0.00495911
4,3,6.76961,0.00183105,0.0050354,-2.42867,0.0535448,-0.0762837,0.0538228,0.153368,-0.088874,0.143487,-0.12241,-0.085317,0.0104141,0.0245285,0.0170517,0.0119019,0.0133133,0.0101089,0.0214005,0.00930786,-9.97986,0.00812531,-0.00385284,0.0144958,0.00282288,0.0149536,-0.00267029,0.0187683,0.00610352
4,4,10.0097,0.000610352,0.00427246,-2.4302,0.0529344,-0.0771993,0.050771,0.126817,-0.095893,0.142572,-0.123935,-0.0883688,0.00659943,0.0263214,0.0194931,0.0133133,0.0133514,0.00713348,0.0210571,0.0131226,-9.97986,0.0115967,-0.00141144,0.0175095,0.0101471,0.0154877,-0.000457764,0.0164032,0.00587463
4,5,10.0097,0.000610352,0.00106812,-2.42959,0.0535448,-0.0756734,0.0501607,0.0911119,-0.0968086,0.142572,-0.125461,-0.0886739,0.0122833,0.0259018,0.0174332,0.00999451,0.0157547,0.00778198,0.0183868,0.018158,-9.97986,0.0110245,-0.000228882,0.014267,0.00583649,0.0111771,-0.00175476,0.0175858,0.00427246
4,6,10.0097,0.000610352,0.000152588,-2.42959,0.0535448,-0.0762837,0.050771,0.0785997,-0.095893,0.143182,-0.127292,-0.0883688,0.0127411,0.0245667,0.022316,0.0121307,0.0207138,0.00591278,0.0234222,0.0144196,-9.97986,0.0118256,-0.000915527,0.0115967,0.00148773,0.0161743,-0.00469208,0.0188446,0.00442505
4,7,10.0097,0.000915527,-0.000152588,-2.42806,0.0544603,-0.0756734,0.0522969,0.0737169,-0.0946723,0.144098,-0.126682,-0.0859274,0.0119019,0.0234985,0.019989,0.00999451,0.0123215,0.0119781,0.0232315,0.018158,-9.97986,0.0146484,-0.000610352,0.0165176,0.00740051,0.0172424,-0.00282288,0.0151443,0.00396729
4,8,10.0097,0.000305176,0.000152588,-2.42837,0.0547655,-0.075063,0.054128,0.0724962,-0.0937568,0.145318,-0.124851,-0.0859274,0.0102615,0.0205231,0.0204086,0.0123978,0.0164795,0.0119781,0.0244522,0.018425,-9.97986,0.0126266,-0.00350952,0.0125885,0.00583649,0.0143051,-0.00171661,0.0165176,0.00774384
4,9,10.0097,0.00152588,0.000305176,-2.42684,0.0544603,-0.0753682,0.0526021,0.0706652,-0.0934516,0.144708,-0.124851,-0.0847066,0.00671387,0.0215149,0.0193024,0.0103378,0.015831,0.00984192,0.0181961,0.0144196,-9.97986,0.0171661,-0.0019455,0.0151825,0.00617981,0.0185013,-0.0031662,0.0165558,0.00709534
5,0,10.0097,0.000305176,0.000610352,-2.42684,0.0550706,-0.0738423,0.0535176,0.0712755,-0.0925361,0.144403,-0.125766,-0.0831808,0.0104523,0.0276184,0.0228882,0.0128937,0.0169754,0.0123215,0.0239182,0.0202942,-9.97986,0.0178146,0.00152588,0.0149918,0.00640869,0.0117111,-0.0044632,0.018425,0.00572205
5,1,10.0097,0.000305176,-0.000152588,-2.42531,0.0553758,-0.0747579,0.0553487,0.0718859,-0.0931465,0.147149,-0.124241,-0.0822652,0.0114822,0.0238419,0.022049,0.0117493,0.0151443,0.0104523,0.0215912,0.0227356,-9.97986,0.01297,0.00171661,0.0186157,0.00476837,0.015564,-0.0044632,0.0149536,0.00434875
5,2,10.0097,0.000915527,0,-2.42592,0.0562914,-0.0735371,0.0547383,0.0715807,-0.0934516,0.146844,-0.124851,-0.0810445,0.0135803,0.0258636,0.0205994,0.0146866,0.0105667,0.00915527,0.0234604,0.022049,-9.97986,0.0218201,0,0.0189972,0.0069809,0.0175858,-0.000839233,0.0170135,0.00667572
5,3,10.0097,-0.00183105,0,-2.42348,0.0565965,-0.0741475,0.0550435,0.0709703,-0.0919257,0.146844,-0.12363,-0.0822652,0.0167847,0.02285,0.0218582,0.0112152,0.0146484,0.0105667,0.0228119,0.0223923,-9.97986,0.0153351,0.00110626,0.0136185,0.00858307,0.0198746,-0.000190735,0.0159836,0.00495911
5,4,10.0097,0.000305176,-0.00244141,-2.42745,0.0559862,-0.0747579,0.0519917,0.0261095,-0.09925,0.144708,-0.127292,-0.0822652,0.00858307,0.0242233,0.0196075,0.00980377,0.0196457,0.0104141,0.0239944,0.024147,-9.97986,0.0218582,-0.00511169,0.014801,0.00671387,0.0178146,-0.00507355,0.0157547,0.00545502
5,5,1.11501,-0.000610352,-0.00457764,-2.42562,0.0553758,-0.0741475,0.0526021,-0.00318738,-0.095893,0.146539,-0.128513,-0.0819601,0.0127411,0.0222778,0.02285,0.0121689,0.0151062,0.00888824,0.0226974,0.0272369,-9.97986,0.022049,-0.00141144,0.0116348,0.00919342,0.0217056,-0.00595093,0.016098,0.00858307
5,6,-5.8253,0.00213623,-0.00473022,-2.42562,0.0572069,-0.0738423,0.054128,-0.0147841,-0.0965034,0.146539,-0.130039,-0.0819601,0.0133133,0.0226974,0.0206375,0.00896454,0.0177383,0.00797272,0.0257874,0.0240707,-9.97986,0.0238037,0.00160217,0.0130081,0.00736237,0.0176239,-0.00518799,0.0156784,0.00598907
5,7,-9.99003,0.000610352,-0.00320435,-2.42501,0.0572069,-0.0741475,0.0562642,0.00932483,-0.0925361,0.146539,-0.128818,-0.0807394,0.0101852,0.019989,0.0195694,0.00865936,0.0155258,0.0119781,0.02388,0.0262833,-9.97986,0.0188446,-0.00282288,0.0123215,0.00595093,0.0157547,-0.00205994,0.0154877,0.00793457
5,8,-9.99003,0.000305176,-0.00244141,-2.4244,0.0544603,-0.0747579,0.0565694,0.0377062,-0.0913154,0.145013,-0.126682,-0.0813497,0.0160217,0.0227737,0.0233841,0.0124359,0.0151825,0.0123215,0.0233841,0.0242615,-9.97986,0.019989,0.00392914,0.0156021,0.00499725,0.0025177,-0.00244141,0.0181198,0.00434875
5,9,-9.99003,0.000610352,-0.00106812,-2.42562,0.0547655,-0.075063,0.0547383,0.054796,-0.090705,0.145929,-0.126987,-0.0819601,0.0118637,0.016861,0.0202179,0.0139236,0.00934601,0.0143433,0.0224304,0.018959,-9.97986,0.01194,0.00305176,0.0115585,0.00461578,-0.00167847,-0.00724792,0.0196838,0.0031662
6,0,-9.99003,0.000610352,-0.000152588,-2.42653,0.0544603,-0.0747579,0.0550435,0.0737169,-0.0900947,0.146234,-0.125156,-0.0816549,0.00926971,0.0214005,0.0190353,0.00740051,0.0157547,0.00972748,0.0248718,0.0124359,-9.97986,0.0115585,-0.00156403,0.0146866,0.00267029,0.00938416,-0.00179291,0.0149918,0.00202179
6,1,-9.59788,0.00183105,0.00244141,-2.42562,0.0544603,-0.0747579,0.0556539,0.126512,-0.0861274,0.145318,-0.12241,-0.0828756,0.0135422,0.0226974,0.0234222,0.0102997,0.0156403,0.0116348,0.0230789,0.0157928,-9.97986,0.00823975,0.00179291,0.0138855,0.00652313,0.0159836,-0.00423431,0.0139999,0.00671387
6,2,-1.17198,-0.000610352,0.00350952,-2.42837,0.0529344,-0.0762837,0.0519917,0.144213,-0.0879585,0.144098,-0.121494,-0.0840963,0.0103378,0.0218964,0.0220871,0.00999451,0.0141907,0.01194,0.0245285,0.0125122,-9.97986,0.0112915,0.000267029,0.0161362,0.00694275,0.0146103,-0.00328064,0.0157547,0.00602722
6,3,6.73726,-0.000610352,0.00427246,-2.42837,0.0538499,-0.075063,0.0529073,0.154894,-0.088874,0.143792,-0.121189,-0.0850118,0.0142288,0.021286,0.0185776,0.00736237,0.0152588,0.00926971,0.0218582,0.00686646,-9.97986,0.00827789,0.000762939,0.0162888,0.00743866,0.0159454,-0.00507355,0.0139999,0.00392914
6,4,10.0097,-0.0012207,0.00427246,-2.4302,0.0535448,-0.0768941,0.0510762,0.126512,-0.0961982,0.142572,-0.124851,-0.0880636,0.0119781,0.0175858,0.0188828,0.0119781,0.0172043,0.0152588,0.0239182,0.0130844,-9.97986,0.0111008,0.00202179,0.013504,0.00385284,0.0144958,-0.00396729,0.0117111,0.00492096
6,5,10.0097,0.000305176,0.0012207,-2.4305,0.0544603,-0.0762837,0.050771,0.0908068,-0.0974189,0.142267,-0.125461,-0.0883688,0.0128937,0.0197983,0.0172806,0.00995636,0.0177765,0.0121689,0.0195313,0.0148773,-9.97986,0.0130081,-0.00114441,0.0153351,0.00743866,0.0169754,-0.00106812,0.0148773,0.00312805
6,6,10.0097,0.00244141,-0.000457764,-2.4305,0.0535448,-0.0756734,0.050771,0.0779894,-0.0968086,0.143792,-0.127598,-0.0874532,0.0100708,0.0213623,0.0199509,0.0121307,0.0166702,0.0135422,0.0217056,0.0184631,-9.97986,0.0148773,-0.0019455,0.0168991,0.00747681,0.0149155,0.00114441,0.0157928,0.00499725
6,7,10.0097,-0.000305176,0.000152588,-2.42867,0.0547655,-0.0729268,0.0513814,0.0737169,-0.0946723,0.144403,-0.127598,-0.0865377,0.0135803,0.0241852,0.0203323,0.0131607,0.0209808,0.00709534,0.0233078,0.0214767,-9.97986,0.01297,0.000839233,0.0153732,0.00648499,0.0149536,-0.00431061,0.0167465,0.00427246
6,8,10.0097,0.000305176,0.000305176,-2.42714,0.0550706,-0.075063,0.0526021,0.072191,-0.0934516,0.144403,-0.126072,-0.0862325,0.0121689,0.0234222,0.0192642,0.0094223,0.0141144,0.00724792,0.0189972,0.0147629,-9.97986,0.0149155,-0.000534058,0.018692,0.00526428,0.0113678,0.00114441,0.0159454,0.00450134
6,9,10.0097,0.000305176,-0.000610352,-2.42837,0.0553758,-0.0738423,0.054128,0.0706652,-0.0931465,0.145929,-0.126072,-0.0847066,0.0114441,0.0271225,0.0191879,0.0107956,0.0164413,0.0144196,0.0241852,0.0175858,-9.97986,0.01091,-0.00198364,0.013504,0.00499725,0.0148392,0.000343323,0.0186157,0.00801086
7,0,10.0097,0.000610352,0.000762939,-2.42684,0.0547655,-0.0747579,0.0532125,0.0712755,-0.0928413,0.145624,-0.124851,-0.0834859,0.0120926,0.0202179,0.0193024,0.0127029,0.0181198,0.00701904,0.0180435,0.0206757,-9.97986,0.0133514,-0.000305176,0.0165939,0.00904083,0.0176239,-0.00228882,0.0162506,0.00553131
7,1,10.0097,-0.000915527,0.000610352,-2.42562,0.0559862,-0.0738423,0.054128,0.0712755,-0.0919257,0.147149,-0.124851,-0.0825704,0.0150299,0.0229263,0.0174332,0.0141907,0.0174713,0.0087738,0.0220871,0.0178909,-9.97986,0.0147629,-0.000724792,0.0165939,0.00736237,0.0191879,-0.00278473,0.0178528,0.00411987
7,2,10.0097,0.000610352,-0.000152588,-2.42623,0.0559862,-0.0741475,0.0547383,0.07036,-0.0916206,0.147149,-0.124241,-0.0813497,0.0104904,0.0246429,0.0196838,0.0104523,0.0147247,0.010376,0.0206375,0.0203323,-9.97986,0.0183868,0.00152588,0.0148392,0.00839233,0.0191498,-0.00164032,0.0180054,0.00980377
7,3,10.0097,0.000610352,0.000152588,-2.42562,0.0565965,-0.0747579,0.0544332,0.072191,-0.090705,0.145929,-0.125156,-0.0816549,0.0102615,0.0252151,0.0207138,0.0087738,0.0186157,0.015831,0.0229645,0.0283432,-9.97986,0.0193787,-0.000419617,0.0147629,0.00991821,0.0150299,-0.001297,0.0163269,0.00732422
7,4,10.0029,0.000610352,-0.00213623,-2.42745,0.0569017,-0.0738423,0.0529073,0.0258043,-0.0986396,0.145013,-0.128513,-0.0822652,0.0141525,0.0222397,0.0235748,0.00648499,0.0155258,0.0104141,0.0191116,0.0289917,-9.97986,0.0215912,-0.000152588,0.0153351,0.00812531,0.0183105,0.00106812,0.0177765,0.0075531
7,5,1.06679,0.000915527,-0.00473022,-2.42653,0.0562914,-0.0738423,0.0535176,-0.0028822,-0.0968086,0.147455,-0.129734,-0.0825704,0.0131989,0.020752,0.0181961,0.00804901,0.0160599,0.0062561,0.0214386,0.0280762,-9.97986,0.0218201,0.000228882,0.0141144,0.00675201,0.0209808,-0.00221252,0.0154877,0.00392914
7,6,-5.86497,-0.000610352,-0.00442505,-2.4247,0.0569017,-0.073232,0.0544332,-0.0144789,-0.0961982,0.146539,-0.130039,-0.0822652,0.0123978,0.0250626,0.017662,0.00862122,0.0193405,0.00595093,0.0231934,0.0279236,-9.97986,0.0234222,0.00385284,0.0168991,0.00831604,0.0215912,-0.00289917,0.0151825,0.00667572
7,7,-9.99003,0.000915527,-0.00366211,-2.4244,0.0575121,-0.0738423,0.0565694,0.00901965,-0.0931465,0.146539,-0.127903,-0.0813497,0.0108337,0.0232315,0.0233078,0.00911713,0.0150681,0.0157547,0.0196075,0.024147,-9.97986,0.0165939,0.00038147,0.0136566,0.00617981,0.0165939,-0.00534058,0.0170135,0.00518799
7,8,-9.99003,0.00152588,-0.00183105,-2.42409,0.0565965,-0.0747579,0.054128,0.0380113,-0.0910102,0.145013,-0.126682,-0.0825704,0.0118256,0.0197601,0.0205994,0.0159454,0.0171661,0.0131607,0.0270462,0.0191498,-9.97986,0.0167465,-0.000839233,0.00888824,0.0101471,-0.00087738,-0.00171661,0.0143433,0.00576019
7,9,-9.99003,0,-0.000762939,-2.42623,0.0559862,-0.0744527,0.0535176,0.0566271,-0.0916206,0.145318,-0.126377,-0.0825704,0.00782013,0.02388,0.0177002,0.00919342,0.0166702,0.0107193,0.0235748,0.0182343,-9.97986,0.0163269,-0.00144958,0.0154495,0.0062561,-0.0031662,-0.001297,0.0160599,0.00564575
8,0,-9.99003,0.00152588,0,-2.42623,0.0547655,-0.0753682,0.0547383,0.0752428,-0.0903999,0.145624,-0.125156,-0.0816549,0.00801086,0.0194931,0.0201416,0.00785828,0.0154877,0.0122833,0.0232315,0.0140381,-9.97986,0.00919342,-0.000419617,0.0175476,0.00232697,0.0069809,-0.000152588,0.0155258,0.00686646
8,1,-9.45842,0.000915527,0.00244141,-2.42653,0.0547655,-0.0744527,0.0571797,0.126817,-0.0855171,0.145929,-0.122104,-0.0822652,0.0100708,0.0221634,0.0169373,0.0111771,0.0179291,0.0131226,0.0234985,0.0107193,-9.97986,0.00854492,0.000419617,0.0127029,0.00743866,0.0154114,-0.00274658,0.0165939,0.00656128
8,2,-0.985822,-0.000610352,0.00335693,-2.42867,0.0547655,-0.0747579,0.0562642,0.145128,-0.088874,0.144098,-0.121189,-0.0844015,0.00804901,0.0236893,0.0177765,0.0121307,0.0186157,0.01194,0.0218964,0.0105667,-9.97986,0.00511169,-0.000114441,0.0129318,0.00644684,0.0177002,-0.0031662,0.0167465,0.00476837
8,3,6.76015,-0.00183105,0.00442505,-2.42806,0.0538499,-0.0753682,0.0538228,0.153978,-0.0900947,0.143792,-0.121189,-0.0856222,0.0082016,0.0202179,0.0175095,0.0113297,0.0136185,0.00843048,0.0236893,0.00911713,-9.97986,0.0106049,0.000801086,0.0109863,0.0044632,0.0178528,-0.00530243,0.0155258,0.00339508
8,4,10.0097,-0.000610352,0.00442505,-2.42989,0.0523241,-0.0762837,0.0519917,0.127428,-0.0949775,0.142572,-0.124546,-0.0880636,0.0133133,0.0266266,0.0180435,0.0120926,0.0175858,0.0129318,0.0242615,0.0116348,-9.97986,0.01091,-0.0030899,0.0117493,0.00873566,0.0183487,0.00205994,0.0168228,0.00583649
8,5,10.0097,0.0012207,0.00137329,-2.4305,0.0538499,-0.0756734,0.0510762,0.0920275,-0.0977241,0.142267,-0.126682,-0.0889791,0.00797272,0.0204086,0.0200653,0.00938416,0.0160599,0.0141907,0.018692,0.0144577,-9.97986,0.00881195,-0.00118256,0.0133514,0.00553131,0.0156021,-0.0044632,0.0162506,0.00427246
8,6,10.0097,-0.000610352,0.000610352,-2.4302,0.0538499,-0.0756734,0.0504659,0.0785997,-0.095893,0.142877,-0.126987,-0.0886739,0.0100327,0.0237274,0.0194168,0.00827789,0.019455,0.0115204,0.0207138,0.0126648,-9.97986,0.0154114,-0.000114441,0.0170517,0.0107956,0.016861,-0.00209808,0.0198364,0.00514984
8,7,10.0097,0.0012207,0,-2.42898,0.0544603,-0.0747579,0.0510762,0.0746324,-0.0955879,0.143792,-0.126987,-0.085317,0.00549316,0.0230026,0.0202179,0.01297,0.0185394,0.0114441,0.0210953,0.0152969,-9.97986,0.0160599,-0.00183105,0.0141144,0.00858307,0.0167847,-0.00354767,0.0140762,0.00362396
8,8,10.0097,0.000610352,-0.000305176,-2.42745,0.0550706,-0.0744527,0.0532125,0.0715807,-0.0931465,0.144098,-0.126987,-0.0850118,0.00926971,0.0236511,0.0205231,0.00881195,0.0177383,0.0114059,0.0279236,0.0172806,-9.97986,0.0185394,0.00156403,0.0131989,0.0114822,0.0197983,0.00141144,0.0189209,0.00675201
8,9,10.0097,-0.000305176,0.000305176,-2.42684,0.0553758,-0.075063,0.0535176,0.0718859,-0.094062,0.144403,-0.125156,-0.0850118,0.0102234,0.0209808,0.0160599,0.0149536,0.0133896,0.011673,0.02491,0.016098,-9.97986,0.0159836,-0.001297,0.0179291,0.0050354,0.0141907,-0.00225067,0.015831,0.00862122
9,0,10.0097,0.000305176,-0.000152588,-2.42653,0.0550706,-0.0741475,0.0538228,0.0709703,-0.0931465,0.144708,-0.126072,-0.0850118,0.0082016,0.0247192,0.0206375,0.0157166,0.0201797,0.015831,0.0235748,0.0159454,-9.97986,0.0110245,-0.00617981,0.0109482,0.00534058,0.0146866,-0.00358582,0.0170135,0.00442505
9,1,10.0097,0.00335693,0.000457764,-2.42531,0.0562914,-0.0741475,0.0550435,0.0715807,-0.0913154,0.146539,-0.124241,-0.0822652,0.00545502,0.0202179,0.0170517,0.0131607,0.0168991,0.00858307,0.0240326,0.0205994,-9.97986,0.0143051,0.000228882,0.0118256,0.00732422,0.0230789,0.000267029,0.0191498,0.00789642
9,2,10.0097,0,-0.000457764,-2.42531,0.0562914,-0.0735371,0.0556539,0.072191,-0.0919257,0.146234,-0.125461,-0.0825704,0.00995636,0.0216675,0.022049,0.0130463,0.0156021,0.0124359,0.0221634,0.0233459,-9.97986,0.0178146,-0.00728607,0.0147629,0.0063324,0.0183105,-0.00141144,0.0174332,0.00576019
9,3,10.0097,-0.000610352,0,-2.42562,0.0569017,-0.075063,0.055959,0.0715807,-0.0910102,0.147149,-0.124241,-0.0810445,0.0117874,0.0260162,0.017128,0.0131607,0.0183105,0.0101471,0.0229263,0.0247192,-9.97986,0.0210571,-0.00137329,0.0136948,0.00709534,0.0200272,-0.00255585,0.0193405,0.00854492
9,4,10.0054,0.000305176,-0.00244141,-2.42653,0.0559862,-0.0747579,0.0522969,0.0254991,-0.0971137,0.145929,-0.128513,-0.0831808,0.00938416,0.0200272,0.0182343,0.0113297,0.018158,0.0131226,0.0232697,0.0280762,-9.97986,0.0262451,-0.00343323,0.0133896,0.00705719,0.0206757,-0.00751495,0.0151825,0.0108337
9,5,1.06374,-0.000305176,-0.00411987,-2.42653,0.0565965,-0.073232,0.0538228,-0.00379773,-0.0968086,0.145929,-0.129123,-0.0810445,0.0132751,0.0210571,0.0207901,0.0120163,0.0157928,0.0102234,0.0205612,0.0259018,-9.97986,0.0208664,-0.00225067,0.015564,0.00709534,0.0198364,-0.00362396,0.0149918,0.00827789
9,6,-5.85399,0,-0.00427246,-2.42379,0.0559862,-0.0741475,0.0547383,-0.0141737,-0.095893,0.146539,-0.129734,-0.0807394,0.00980377,0.0191879,0.0172424,0.0121307,0.0187302,0.0138855,0.0216293,0.0261307,-9.97986,0.017662,-0.0019455,0.0136948,0.00617981,0.0170135,-0.00259399,0.0167847,0.00602722
9,7,-9.99003,0.0012207,-0.00350952,-2.42562,0.0572069,-0.0741475,0.0547383,0.00963,-0.0928413,0.147149,-0.127903,-0.0810445,0.00953674,0.0213623,0.0205231,0.00823975,0.0198746,0.012207,0.0197601,0.0255203,-9.97986,0.0164795,-0.00366211,0.0157547,0.00545502,0.0185013,-0.00141144,0.0149155,0.0056076
9,8,-9.99003,0.00152588,-0.00152588,-2.4244,0.0562914,-0.073232,0.055959,0.0370958,-0.090705,0.146234,-0.127903,-0.0816549,0.0113297,0.0208282,0.0169373,0.00579834,0.0151062,0.00785828,0.0226593,0.0216293,-9.97986,0.0149155,-0.00331879,0.0172424,0.00385284,0.00484467,-0.00370026,0.0165939,0.00488281
9,9,-9.99003,0.000610352,-0.00106812,-2.42623,0.0547655,-0.075063,0.0553487,0.0560167,-0.0913154,0.146234,-0.125766,-0.0816549,0.010376,0.0188065,0.0234604,0.00843048,0.0141144,0.0115204,0.0250626,0.0199509,-9.97986,0.0162125,0.00164032,0.0166321,0.00328064,-0.0019455,-0.00377655,0.0120926,0.00919342
10,0,-9.99003,-0.00152588,-0.000305176,-2.42592,0.0538499,-0.0747579,0.0553487,0.0743273,-0.090705,0.146539,-0.124546,-0.0825704,0.00827789,0.0218201,0.0173187,0.00545502,0.0181961,0.00644684,0.0218964,0.0123596,-9.97986,0.0113297,-0.00133514,0.00873566,0.00419617,0.0115204,-0.00507355,0.0118637,0.00740051
10,1,-9.3867,0,0.00244141,-2.42501,0.0544603,-0.0738423,0.0580953,0.127428,-0.0846015,0.145624,-0.121799,-0.0822652,0.0094223,0.0197983,0.0228882,0.0107193,0.019455,0.0128555,0.0243378,0.00984192,-9.97986,0.0104141,0.00148773,0.0162888,0.00663757,0.0180054,-0.000801086,0.0132751,0.0069046
10,2,-1.00657,0,0.00305176,-2.42776,0.0544603,-0.0756734,0.0544332,0.145738,-0.0879585,0.144098,-0.121494,-0.085317,0.00663757,0.0239563,0.0214386,0.010376,0.0225067,0.00919342,0.0213242,0.0115204,-9.97986,0.0126266,-0.00495911,0.014534,0.0062561,0.0151825,-0.00465393,0.0156021,0.00358582
10,3,6.89046,0.000305176,0.00488281,-2.42776,0.0541551,-0.0756734,0.0532125,0.154283,-0.088874,0.144098,-0.121189,-0.0865377,0.00591278,0.0209808,0.0227737,0.00743866,0.0188065,0.00991821,0.0219727,0.00694275,-9.97986,0.0115967,-0.000152588,0.0146103,0.00591278,0.0138855,-0.0038147,0.0187302,0.00617981
10,4,10.0097,-0.000915527,0.00396729,-2.42959,0.0517137,-0.0765889,0.050771,0.124376,-0.0946723,0.142267,-0.12363,-0.0880636,0.0107193,0.0237656,0.0186157,0.0133514,0.0170517,0.0106812,0.0182724,0.0155258,-9.97986,0.00812531,-0.000534058,0.0139618,0.00263214,0.0162125,-0.00175476,0.0169373,0.00434875
10,5,10.0097,-0.000915527,0.000610352,-2.43111,0.0529344,-0.0756734,0.0504659,0.0898912,-0.0961982,0.143487,-0.126987,-0.0886739,0.0100327,0.0226974,0.0193787,0.0151443,0.0150299,0.00602722,0.0227737,0.0126648,-9.97986,0.00743866,0.000457764,0.0106049,0.00900269,0.0159836,-0.00602722,0.0131989,0.0069809
10,6,10.0097,0.000610352,0.000610352,-2.42989,0.0535448,-0.0765889,0.050771,0.0779894,-0.0965034,0.142877,-0.126377,-0.0889791,0.0115204,0.0216675,0.0226212,0.0124359,0.0181961,0.00980377,0.022049,0.0119781,-9.97986,0.0127411,-0.00156403,0.0157547,0.00598907,0.0206757,-0.00225067,0.0180435,0.00602722
10,7,10.0097,0.00244141,0,-2.42776,0.0550706,-0.0756734,0.0522969,0.0734117,-0.0952827,0.143792,-0.126072,-0.0868429,0.0101852,0.0206757,0.0188065,0.00835419,0.0242996,0.0104141,0.0237656,0.017128,-9.97986,0.016098,-0.000495911,0.0180817,0.0082016,0.0167465,-0.00274658,0.0161362,0.00614166
10,8,10.0097,-0.000610352,0.000610352,-2.42806,0.0550706,-0.0753682,0.0538228,0.0728014,-0.0937568,0.144403,-0.125766,-0.085317,0.0101471,0.019989,0.021286,0.0116348,0.0167847,0.0107193,0.022316,0.0172043,-9.97986,0.0140762,0.00160217,0.0131607,0.00537872,0.0125122,-0.00366211,0.0159454,0.00522614
10,9,10.0097,0.000305176,0.000457764,-2.42714,0.0550706,-0.0747579,0.0535176,0.0718859,-0.0925361,0.145013,-0.125766,-0.0847066,0.00984192,0.0217438,0.0266647,0.0144196,0.0161362,0.00705719,0.0210571,0.0167847,-9.97986,0.0145721,-3.8147e-005,0.0170898,0.00328064,0.018692,0.000152588,0.015831,0.00679016
11,0,10.0097,-0.00244141,-0.000305176,-2.42684,0.0550706,-0.0756734,0.0522969,0.0712755,-0.0934516,0.144708,-0.125766,-0.0831808,0.0111008,0.020752,0.0207901,0.0119019,0.016098,0.00858307,0.018158,0.0165939,-9.97986,0.0141525,-0.000915527,0.0145721,0.00682831,0.0159073,-0.00495911,0.0146103,0.00400543
11,1,10.0097,-0.000305176,0,-2.42562,0.0559862,-0.0735371,0.0547383,0.0724962,-0.0922309,0.146844,-0.123935,-0.0819601,0.0125122,0.0205994,0.0186539,0.0123215,0.0204468,0.0101852,0.0218201,0.0169754,-9.97986,0.0163269,0.0012207,0.0181961,0.00724792,0.0192261,3.8147e-005,0.0151825,0.00648499
11,2,10.0097,0.00274658,0.000305176,-2.42501,0.055681,-0.0741475,0.054128,0.0718859,-0.0919257,0.146844,-0.123935,-0.0822652,0.012207,0.0242996,0.0219727,0.0120926,0.0193405,0.0109863,0.0229263,0.021553,-9.97986,0.014534,0.000915527,0.0147629,0.00488281,0.022316,-0.00221252,0.0150681,0.00934601
11,3,10.0097,0,0,-2.42562,0.0565965,-0.0747579,0.0547383,0.072191,-0.0928413,0.146234,-0.124546,-0.0807394,0.0106049,0.0199509,0.0202179,0.0126266,0.0233841,0.0106812,0.0190353,0.0218201,-9.97986,0.0130463,-0.00110626,0.0148773,0.00724792,0.0172043,-0.00286102,0.0153351,0.00862122
11,4,10.0097,0.00244141,-0.00167847,-2.42714,0.0553758,-0.0741475,0.0532125,0.0261095,-0.0977241,0.145624,-0.127292,-0.0831808,0.0113678,0.0180435,0.0205994,0.0133133,0.0167084,0.00988007,0.0169373,0.0277328,-9.97986,0.0189972,-0.00255585,0.0130081,0.00621796,0.0138855,-0.0063324,0.0180817,0.0063324
11,5,1.17238,0.00183105,-0.0050354,-2.42653,0.0584276,-0.0738423,0.0538228,-0.00227185,-0.0974189,0.146234,-0.128818,-0.0816549,0.0137711,0.0214386,0.0222015,0.00915527,0.0167847,0.00926971,0.0216675,0.0268555,-9.97986,0.0230408,-0.00263214,0.0110626,0.00511169,0.0210571,-0.000648499,0.0143433,0.00667572
11,6,-5.72947,-0.000305176,-0.0038147,-2.42501,0.0562914,-0.0744527,0.0544332,-0.0141737,-0.095893,0.145929,-0.129734,-0.0816549,0.0107956,0.0202179,0.0224686,0.0137711,0.0185776,0.010643,0.0239563,0.0234222,-9.97986,0.0235748,-0.00797272,0.0145721,0.00659943,0.0249863,-0.00240326,0.0176239,0.0069809
11,7,-9.99003,0,-0.00366211,-2.42623,0.0559862,-0.073232,0.055959,0.00932483,-0.0931465,0.146234,-0.129429,-0.0804342,0.0123596,0.0248337,0.0202179,0.0136566,0.0151825,0.0107193,0.0213242,0.0233841,-9.97986,0.0198746,-0.00652313,0.00999451,0.00434875,0.017395,-0.00511169,0.0141907,0.00537872
11,8,-9.99003,0.000305176,-0.00228882,-2.42562,0.055681,-0.0738423,0.0556539,0.0377062,-0.0922309,0.146539,-0.127292,-0.0807394,0.00846863,0.0227356,0.0177002,0.0130081,0.0172806,0.0115204,0.0227737,0.024147,-9.97986,0.0159836,0.000419617,0.0174332,0.00671387,0.00377655,-0.000495911,0.0157928,0.00473022
11,9,-9.99003,0.000610352,-0.000305176,-2.42684,0.0550706,-0.0741475,0.0547383,0.0560167,-0.0897895,0.145929,-0.126377,-0.0819601,0.0127411,0.0280762,0.0179291,0.0144577,0.0197601,0.0135422,0.0239182,0.0209808,-9.97986,0.0141144,-0.00442505,0.0122452,0.00671387,-0.0063324,-0.00213623,0.0158691,0.00434875
12,0,-9.99003,-0.000915527,0.000457764,-2.42623,0.055681,-0.0744527,0.055959,0.075548,-0.0897895,0.145013,-0.125156,-0.0819601,0.0104141,0.0274277,0.0170898,0.01297,0.0199509,0.00965118,0.0189972,0.0152206,-9.97986,0.0128937,-0.00183105,0.0140762,0.00740051,0.012207,-0.000915527,0.0164032,0.00923157
12,1,-9.23106,0.000610352,0.00244141,-2.42531,0.0538499,-0.075063,0.0562642,0.126817,-0.0852119,0.145013,-0.122104,-0.0822652,0.0117874,0.0219345,0.0190735,0.0136185,0.0150299,0.0103378,0.0222778,0.0115204,-9.97986,0.0062561,-0.000534058,0.0138855,0.00614166,0.0152969,-0.00492096,0.0133896,0.00526428
12,2,-0.880232,0.000915527,0.00366211,-2.42714,0.0532396,-0.0756734,0.0538228,0.145128,-0.0867378,0.144098,-0.121799,-0.0847066,0.0132751,0.0201797,0.0202942,0.0133133,0.0185394,0.0102997,0.0214386,0.0125504,-9.97986,0.00720978,-0.00114441,0.010643,0.00835419,0.0201035,-0.00213623,0.0132751,0.00854492
12,3,6.99086,-0.00335693,0.00396729,-2.42898,0.0538499,-0.0753682,0.0529073,0.155199,-0.0894843,0.143182,-0.121189,-0.0847066,0.011673,0.0240326,0.0200272,0.0133896,0.0164413,0.00762939,0.0195313,0.0123596,-9.97986,0.00629425,0.00125885,0.0140381,0.00667572,0.0165176,-0.0031662,0.0163651,0.00217438
12,4,10.0097,-0.000305176,0.00427246,-2.43111,0.0532396,-0.0771993,0.0510762,0.125292,-0.0952827,0.141961,-0.124851,-0.0877584,0.00953674,0.0244141,0.0200272,0.0110245,0.0172806,0.00797272,0.0217438,0.0113678,-9.97986,0.00785828,-0.00392914,0.0169373,0.00564575,0.0173187,-7.62939e-005,0.0155258,0.00602722
12,5,10.0097,0,0.00106812,-2.4305,0.0526292,-0.0756734,0.0495503,0.0895861,-0.0977241,0.142572,-0.126377,-0.0889791,0.0102997,0.0230026,0.0210571,0.00900269,0.0174713,0.00835419,0.0160217,0.00900269,-9.97986,0.00858307,0.00202179,0.0130081,0.00549316,0.0164795,-0.0037384,0.0146103,0.00587463
12,6,10.0097,0.0012207,-0.000152588,-2.42928,0.0541551,-0.0753682,0.0513814,0.0785997,-0.0955879,0.143487,-0.126377,-0.0874532,0.00835419,0.0217056,0.0188446,0.0115204,0.0156021,0.00923157,0.022316,0.0129318,-9.97986,0.0115967,-0.00144958,0.0139618,0.00873566,0.0183868,-0.00156403,0.0164032,0.00724792
12,7,10.0097,0.00183105,-0.000305176,-2.42898,0.0541551,-0.0756734,0.0519917,0.0734117,-0.0946723,0.144708,-0.126987,-0.0871481,0.012207,0.0240326,0.0192261,0.0123978,0.0162125,0.0105667,0.0214005,0.0149536,-9.97986,0.00961304,-0.00106812,0.0123215,0.00671387,0.0200272,-0.00415802,0.0173187,0.00499725
12,8,10.0097,0.00274658,0,-2.42867,0.0538499,-0.0744527,0.0535176,0.0728014,-0.0952827,0.144403,-0.126377,-0.0850118,0.011673,0.0205231,0.0217056,0.0114441,0.0189209,0.0110626,0.0179672,0.0173569,-9.97986,0.0122452,-0.00205994,0.0137711,0.00892639,0.014801,-0.00156403,0.0135422,0.00621796
12,9,10.0097,0,0.000152588,-2.42653,0.055681,-0.0747579,0.0526021,0.0688341,-0.0919257,0.145013,-0.126682,-0.0844015,0.0148773,0.0213623,0.0191498,0.00965118,0.0196838,0.0104141,0.017395,0.0175476,-9.97986,0.0160599,-0.00209808,0.016098,0.0050354,0.0186539,-0.00240326,0.0161743,0.00442505
13,0,10.0097,-0.000610352,-0.000152588,-2.42592,0.0559862,-0.0738423,0.0538228,0.0700548,-0.0928413,0.145013,-0.125156,-0.0847066,0.0135422,0.0179291,0.0197601,0.0101089,0.0153732,0.0115204,0.0216675,0.0159836,-9.97986,0.0175095,0,0.0133133,0.00400543,0.0151062,0.000762939,0.0157547,0.00774384
13,1,10.0097,-0.000305176,0.000152588,-2.42653,0.0562914,-0.0747579,0.0550435,0.0712755,-0.0913154,0.146234,-0.125461,-0.0819601,0.00915527,0.0230026,0.0188065,0.0100708,0.0178909,0.0113678,0.0231934,0.021019,-9.97986,0.015831,-0.001297,0.0140762,0.00774384,0.0175095,-0.00289917,0.0167847,0.00759125
13,2,10.0097,0.000305176,0.00106812,-2.42562,0.0565965,-0.0738423,0.0547383,0.0712755,-0.0903999,0.145624,-0.12302,-0.0822652,0.0139236,0.0244904,0.0205231,0.0102615,0.0186539,0.0102997,0.0213242,0.0212097,-9.97986,0.0161743,-0.000572205,0.0107956,0.0114822,0.0133896,-0.00427246,0.017395,0.00606537
13,3,10.0097,0.000610352,-0.000457764,-2.42409,0.0572069,-0.0747579,0.0544332,0.0715807,-0.0925361,0.147455,-0.123935,-0.0813497,0.0147629,0.027771,0.0180817,0.0138092,0.0146866,0.013237,0.0226974,0.0201416,-9.97986,0.0180817,-0.00267029,0.014801,0.00724792,0.0149155,-0.00476837,0.0148773,0.00900269
13,4,10.0097,0.000305176,-0.00213623,-2.42714,0.0572069,-0.0744527,0.0532125,0.0254991,-0.0968086,0.145013,-0.126987,-0.0831808,0.0122833,0.0214386,0.0173187,0.0112915,0.0165176,0.0129318,0.0233841,0.0287247,-9.97986,0.0209427,-0.00213623,0.0139999,0.00656128,0.0201035,-0.00850677,0.0178528,0.00751495
13,5,1.21846,-0.00213623,-0.00457764,-2.42623,0.0562914,-0.0738423,0.054128,-0.00257703,-0.0961982,0.146234,-0.128513,-0.0822652,0.0116348,0.0262833,0.0206757,0.0112915,0.0156021,0.0104141,0.0220108,0.0307846,-9.97986,0.0216293,-0.00389099,0.0134659,0.0056076,0.0148392,-0.00694275,0.0193024,0.00549316
13,6,-5.74138,-0.000610352,-0.00473022,-2.42531,0.0565965,-0.0753682,0.0535176,-0.0126478,-0.0971137,0.147149,-0.129734,-0.0822652,0.00892639,0.0195694,0.0187302,0.0104523,0.0153732,0.0165176,0.0204086,0.0263977,-9.97986,0.0165939,-0.0019455,0.0137711,0.00705719,0.0185776,-0.00423431,0.0140762,0.00747681
13,7,-9.99003,0.00152588,-0.00289917,-2.42531,0.0559862,-0.0738423,0.0553487,0.0084093,-0.0925361,0.147149,-0.128818,-0.0807394,0.013237,0.0224304,0.0188065,0.00831604,0.0166702,0.0087738,0.0230026,0.0261307,-9.97986,0.0200272,-0.001297,0.0159073,0.00392914,0.0171661,-0.0025177,0.0156784,0.0075531
13,8,-9.99003,0.000305176,-0.00183105,-2.42562,0.0553758,-0.0744527,0.0547383,0.0389269,-0.0910102,0.145624,-0.126682,-0.0807394,0.0117111,0.0242996,0.0171661,0.0159836,0.01194,0.00759125,0.0257874,0.0190353,-9.97986,0.0201416,-0.00164032,0.0130081,0.00537872,0.00228882,-0.00457764,0.0134277,0.00385284
13,9,-9.99003,-0.000610352,-0.000152588,-2.42531,0.0565965,-0.075063,0.0556539,0.0569322,-0.0900947,0.145624,-0.127292,-0.0825704,0.0117111,0.0246429,0.021553,0.0124359,0.0204468,0.0114441,0.0237656,0.0164032,-9.97986,0.0144196,-0.00160217,0.0139999,0.00434875,-0.00274658,-0.0062561,0.0139236,0.0056076
14,0,-9.99003,0.000915527,0.000457764,-2.42592,0.0550706,-0.0744527,0.0553487,0.0746324,-0.088874,0.146234,-0.124241,-0.0822652,0.0117874,0.0239944,0.0202179,0.0122833,0.0162125,0.00782013,0.0207901,0.00968933,-9.97986,0.0125504,-0.00221252,0.013504,0.0102615,0.00995636,-0.00476837,0.0146484,0.00602722
14,1,-9.39982,0.00152588,0.00183105,-2.42562,0.0544603,-0.0753682,0.0571797,0.128649,-0.0858222,0.145929,-0.120273,-0.0816549,0.00728607,0.0220108,0.0211334,0.0119019,0.0162506,0.0114059,0.0211334,0.00904083,-9.97986,0.00549316,0.000534058,0.017395,0.00545502,0.0159836,-0.00225067,0.0131989,0.00640869
14,2,-0.870466,0.000610352,0.0038147,-2.42684,0.0544603,-0.0753682,0.0553487,0.144213,-0.088874,0.143792,-0.122104,-0.0856222,0.00572205,0.0249863,0.0146866,0.0121689,0.0150299,0.0137329,0.0189209,0.00900269,-9.97986,0.0100327,-0.00518799,0.0148392,0.00545502,0.014267,-0.00476837,0.0135803,0.00774384
14,3,7.02352,0.000610352,0.00457764,-2.42867,0.0538499,-0.0759786,0.0532125,0.154283,-0.0885688,0.143487,-0.121189,-0.085317,0.00938416,0.0259399,0.0240326,0.00717163,0.0203323,0.00965118,0.0188446,0.0148392,-9.97986,0.0108337,0.00160217,0.0159454,0.00701904,0.0120163,-0.00217438,0.0144196,0.00740051
14,4,10.0097,0.00152588,0.00396729,-2.43172,0.0538499,-0.0762837,0.050771,0.126207,-0.095893,0.141961,-0.124851,-0.0883688,0.00995636,0.0221634,0.0185776,0.0109863,0.0172806,0.0116348,0.021286,0.013504,-9.97986,0.00835419,-0.000839233,0.0137711,0.00556946,0.0151443,-0.00392914,0.0142288,0.00518799
14,5,10.0097,0.000610352,0.0012207,-2.4302,0.0538499,-0.0762837,0.0501607,0.0892809,-0.0971137,0.141656,-0.126072,-0.0874532,0.0104141,0.0278473,0.0217056,0.0117111,0.0168228,0.00965118,0.0211334,0.0188828,-9.97986,0.0114822,-0.00469208,0.0166702,0.00808716,0.0163269,0.000190735,0.0160599,0.00839233
14,6,10.0097,-0.000915527,0.000457764,-2.42928,0.0535448,-0.0759786,0.0513814,0.0782946,-0.095893,0.143792,-0.127598,-0.0880636,0.00976563,0.0219345,0.0162125,0.0136566,0.0141907,0.0111389,0.0179291,0.0141144,-9.97986,0.0132751,-0.00167847,0.0115967,0.00442505,0.0191879,-3.8147e-005,0.0120544,0.00766754
14,7,10.0097,0.00183105,-0.000152588,-2.42959,0.0550706,-0.0753682,0.0529073,0.0728014,-0.0952827,0.143792,-0.126987,-0.0859274,0.00946045,0.023613,0.0222397,0.0154495,0.0156403,0.00896454,0.0208664,0.0143051,-9.97986,0.0159454,0.00110626,0.0145721,0.00965118,0.0193024,-0.000305176,0.016861,0.00675201
14,8,10.0097,0.00244141,-0.000152588,-2.42776,0.0559862,-0.075063,0.0526021,0.0728014,-0.0937568,0.145624,-0.127598,-0.0859274,0.0124359,0.023613,0.0177002,0.0133514,0.0200653,0.0124359,0.0206375,0.0138092,-9.97986,0.0164413,0.000991821,0.0153732,0.0101089,0.0169373,-0.00556946,0.0150299,0.00614166
14,9,10.0097,-0.000305176,0.000762939,-2.42806,0.0544603,-0.0747579,0.0519917,0.0728014,-0.0931465,0.146234,-0.126072,-0.0847066,0.0126266,0.0247574,0.0179672,0.00957489,0.0162888,0.0100708,0.022049,0.0167084,-9.97986,0.0141144,-0.000572205,0.0138855,0.0075531,0.0163269,0.00141144,0.0134659,0.00801086
15,0,10.0097,0.0012207,0.000457764,-2.42745,0.0553758,-0.0753682,0.0526021,0.0700548,-0.0934516,0.145013,-0.124546,-0.0837911,0.0139999,0.0277328,0.0217438,0.013504,0.0157547,0.00965118,0.0195694,0.0172043,-9.97986,0.0191116,0.000457764,0.0144958,0.00747681,0.0169754,-0.00137329,0.0164795,0.00732422
15,1,10.0097,-0.000305176,0.000152588,-2.42592,0.0553758,-0.0735371,0.0553487,0.0715807,-0.0916206,0.145929,-0.124546,-0.0819601,0.0104141,0.0222397,0.0201035,0.0110245,0.020256,0.00999451,0.0199127,0.0205231,-9.97986,0.0156021,-0.000534058,0.0140381,0.00762939,0.0121307,-0.00118256,0.0158691,0.00812531
15,2,10.0097,0.00244141,0,-2.42379,0.0565965,-0.0741475,0.0544332,0.0712755,-0.0916206,0.146234,-0.12363,-0.0804342,0.0118637,0.0238419,0.0183105,0.0151062,0.0207901,0.0101089,0.0196457,0.02491,-9.97986,0.0183487,0.000114441,0.0163269,0.00831604,0.0144577,-0.00240326,0.0152206,0.00534058
15,3,10.0097,0.0012207,0.000152588,-2.42562,0.0562914,-0.0735371,0.0547383,0.0718859,-0.090705,0.146539,-0.124241,-0.0816549,0.0069046,0.0217438,0.0207901,0.0126648,0.0200653,0.00823975,0.019989,0.0244141,-9.97986,0.0205612,-0.000648499,0.0153732,0.00701904,0.0152969,-0.000839233,0.0158691,0.00896454
15,4,10.0097,-0.00152588,-0.00198364,-2.42776,0.0569017,-0.0741475,0.0519917,0.0264147,-0.0971137,0.145624,-0.127598,-0.0828756,0.0140762,0.0227737,0.0188446,0.0125504,0.0204849,0.0120926,0.0208282,0.0286865,-9.97986,0.0209427,-0.000839233,0.0161743,0.00549316,0.0174713,-0.00614166,0.0171661,0.00862122
15,5,1.10066,0.00274658,-0.00518799,-2.42501,0.0569017,-0.0744527,0.0544332,-0.00501844,-0.0971137,0.145624,-0.128513,-0.0819601,0.00995636,0.0237656,0.0180054,0.0114822,0.0151825,0.0114059,0.0196075,0.0282669,-9.97986,0.021553,0.001297,0.0150299,0.00461578,0.013504,-0.00602722,0.0164032,0.00804901
15,6,-5.80455,0,-0.00518799,-2.42562,0.0559862,-0.073232,0.0522969,-0.0144789,-0.0952827,0.146234,-0.130344,-0.0813497,0.00843048,0.0241089,0.0180435,0.0125122,0.0188828,0.0108719,0.0199127,0.026474,-9.97986,0.0240326,0.00102997,0.0167847,0.00694275,0.0178528,-0.00347137,0.0177002,0.00865936
15,7,-9.99003,0.000915527,-0.00289917,-2.4247,0.0562914,-0.0744527,0.0553487,0.00901965,-0.0937568,0.145624,-0.127292,-0.0813497,0.0129318,0.0246429,0.0205994,0.0115967,0.0210953,0.00934601,0.0195694,0.0231552,-9.97986,0.0232697,0.00362396,0.00995636,0.0069046,0.0164795,-0.00148773,0.0128555,0.00831604
15,8,-9.99003,-0.000305176,-0.00183105,-2.4247,0.0565965,-0.0747579,0.0562642,0.037401,-0.0903999,0.145318,-0.126682,-0.0816549,0.0112915,0.026741,0.019989,0.0158691,0.019455,0.0105286,0.020256,0.0252914,-9.97986,0.0171661,0.00038147,0.0164032,0.00751495,0.00442505,-0.000419617,0.0144577,0.00614166
15,9,-9.99003,0,-0.000610352,-2.42531,0.0559862,-0.075063,0.0556539,0.0557115,-0.090705,0.145624,-0.126377,-0.0822652,0.0110626,0.0252151,0.0212097,0.012207,0.0177002,0.0129318,0.0207138,0.0163651,-9.97986,0.0133133,-0.0018692,0.0114441,0.00423431,-0.00602722,-0.00328064,0.0141525,0.00858307
16,0,-9.99003,-0.000305176,0.000152588,-2.42653,0.0547655,-0.0741475,0.0556539,0.0749376,-0.0897895,0.145318,-0.124851,-0.0822652,0.0156784,0.0231934,0.0226212,0.0135803,0.0157547,0.0117874,0.0206375,0.014534,-9.97986,0.0139999,-0.00141144,0.0157547,0.00694275,0.0110245,-0.00125885,0.0163651,0.00869751
16,1,-9.30156,0.0012207,0.00167847,-2.42379,0.055681,-0.075063,0.0571797,0.127733,-0.0858222,0.145013,-0.121494,-0.0825704,0.00717163,0.0212097,0.0146484,0.0169754,0.0155258,0.0123978,0.018425,0.0063324,-9.97986,0.00461578,0.000152588,0.0178146,0.00854492,0.0142288,-0.00137329,0.0153732,0.00659943
16,2,-0.984297,0,0.00350952,-2.42684,0.0541551,-0.0753682,0.0544332,0.143907,-0.0882636,0.144403,-0.121494,-0.0850118,0.00823975,0.0202179,0.018158,0.0131989,0.0151443,0.0135422,0.0221634,0.0114059,-9.97986,0.00740051,-0.00171661,0.0108719,0.00324249,0.0131607,-0.00484467,0.0142288,0.00209808
16,3,6.82118,-0.000610352,0.00457764,-2.42837,0.0538499,-0.075063,0.0535176,0.153063,-0.0897895,0.143487,-0.121189,-0.0859274,0.00926971,0.0202179,0.0210571,0.0148392,0.0174332,0.0140381,0.0223541,0.0105286,-9.97986,0.0117874,0.000572205,0.0148773,0.00770569,0.0118256,0.00038147,0.0130463,0.0050354
16,4,10.0097,0,0.0038147,-2.4302,0.0526292,-0.0778096,0.0522969,0.126207,-0.0949775,0.142572,-0.125156,-0.0886739,0.00465393,0.0249863,0.0208282,0.0104904,0.0141144,0.0114441,0.0187683,0.0139236,-9.97986,0.0118637,0.000572205,0.01194,0.00843048,0.0103378,-0.00205994,0.0158691,0.00675201
16,5,10.0097,0.0012207,0.00106812,-2.4305,0.0547655,-0.0768941,0.050771,0.0911119,-0.0968086,0.143792,-0.126377,-0.0889791,0.0125504,0.0233078,0.0226212,0.0133133,0.0190735,0.0112152,0.0214005,0.0162125,-9.97986,0.0103378,-0.00434875,0.0141525,0.00667572,0.0139999,-0.00137329,0.0165558,0.00843048
16,6,10.0097,0.000610352,0.000457764,-2.42989,0.0529344,-0.0759786,0.050771,0.0779894,-0.0974189,0.141961,-0.126682,-0.0874532,0.011673,0.0232315,0.0191498,0.0088501,0.0212097,0.00930786,0.0209045,0.0128174,-9.97986,0.00934601,-0.00350952,0.01297,0.0031662,0.0125122,-0.001297,0.0115585,0.00679016
16,7,10.0097,0.000915527,0.000305176,-2.42837,0.055681,-0.0756734,0.050771,0.0734117,-0.0943672,0.142877,-0.127903,-0.0868429,0.00694275,0.0233841,0.0174332,0.0109482,0.0187302,0.01091,0.0184631,0.016098,-9.97986,0.0122833,-0.00144958,0.0138855,0.00701904,0.0140762,-0.0038147,0.0163651,0.00511169
16,8,10.0097,0.0012207,0,-2.42837,0.0544603,-0.0753682,0.0532125,0.0715807,-0.0946723,0.145318,-0.126072,-0.085317,0.00953674,0.0205612,0.0202179,0.0106812,0.0154114,0.0109863,0.0178146,0.0151062,-9.97986,0.013504,-0.000152588,0.0150299,0.00785828,0.0193024,-0.000495911,0.0171661,0.00747681
16,9,10.0097,-0.000305176,0,-2.42837,0.0562914,-0.0744527,0.0535176,0.0709703,-0.0928413,0.144708,-0.126072,-0.0850118,0.00988007,0.0236893,0.0203705,0.0133133,0.0189972,0.0117111,0.0178146,0.016861,-9.97986,0.0123596,-0.00190735,0.0135422,0.00495911,0.0162506,-0.00366211,0.0130844,0.00816345
17,0,10.0097,0.000915527,0.000152588,-2.42745,0.0547655,-0.0741475,0.0535176,0.07036,-0.0931465,0.145318,-0.125156,-0.0834859,0.00911713,0.0268936,0.0216293,0.00961304,0.0162125,0.0100327,0.0210953,0.0154877,-9.97986,0.0155258,-0.000534058,0.0139999,0.00572205,0.0172806,-0.00617981,0.0161743,0.00797272
17,1,10.0097,-0.000305176,0.000762939,-2.4247,0.0553758,-0.0741475,0.0544332,0.0697496,-0.0910102,0.146234,-0.124546,-0.0819601,0.00713348,0.0193405,0.0189209,0.0140762,0.0148773,0.0115585,0.0183487,0.0164795,-9.97986,0.0131226,0.000610352,0.0156021,0.00370026,0.016861,-0.0018692,0.0149536,0.00694275
17,2,10.0097,0.000305176,0.000305176,-2.4247,0.0562914,-0.0738423,0.054128,0.0715807,-0.0925361,0.147149,-0.123935,-0.0825704,0.0094986,0.02285,0.0185394,0.0123978,0.0163651,0.00862122,0.0190735,0.0173187,-9.97986,0.0177002,-0.00144958,0.016861,0.00408173,0.0141907,-0.00167847,0.0147247,0.00427246
17,3,10.0097,0.0012207,-0.000610352,-2.42501,0.0562914,-0.0735371,0.0550435,0.0724962,-0.0922309,0.145929,-0.124241,-0.0807394,0.0105667,0.0223541,0.0175858,0.0111389,0.0167084,0.0133896,0.0236511,0.0246048,-9.97986,0.0219345,-0.000534058,0.0165176,0.00549316,0.0161743,-0.00419617,0.0154114,0.00694275
17,4,9.98586,0.000610352,-0.00152588,-2.42684,0.0553758,-0.0744527,0.0516866,0.0261095,-0.0974189,0.146539,-0.127598,-0.0825704,0.0112534,0.0240326,0.0202179,0.0104141,0.0181198,0.0118637,0.0211716,0.0298691,-9.97986,0.0224304,-0.00164032,0.0123978,0.00564575,0.0144196,0.00148773,0.0143051,0.00537872
17,5,0.963641,0,-0.00473022,-2.42623,0.0581224,-0.0726216,0.0532125,-0.00135633,-0.0961982,0.14776,-0.129123,-0.0816549,0.00919342,0.0215912,0.018158,0.0105286,0.0193024,0.0147247,0.0257874,0.027504,-9.97986,0.0204086,-0.00106812,0.0146103,0.00926971,0.0167465,-0.00465393,0.0121307,0.00648499
17,6,-5.8311,0.000610352,-0.00473022,-2.42501,0.0572069,-0.0744527,0.0535176,-0.0144789,-0.0961982,0.146844,-0.129734,-0.0816549,0.00919342,0.0223541,0.0174713,0.0123215,0.0181198,0.0139236,0.0207138,0.0259018,-9.97986,0.0188446,-0.00484467,0.0119781,0.00801086,0.0149155,-0.000495911,0.0146484,0.00358582
17,7,-9.99003,-0.000915527,-0.00335693,-2.42592,0.0569017,-0.0738423,0.0547383,0.00993518,-0.0928413,0.148065,-0.128208,-0.0813497,0.0069809,0.02491,0.0230789,0.0162125,0.0122833,0.00789642,0.0220871,0.0212479,-9.97986,0.0210953,-0.00228882,0.0169373,0.00541687,0.0162125,-0.00576019,0.0134277,0.00667572
17,8,-9.99003,0.000305176,-0.00167847,-2.42592,0.0550706,-0.0729268,0.055959,0.0377062,-0.090705,0.145624,-0.126987,-0.0810445,0.0107574,0.0230026,0.0173187,0.0141525,0.0188446,0.0135422,0.02388,0.018692,-9.97986,0.0189209,0.0018692,0.0146484,0.00492096,0.00171661,-0.00495911,0.0149536,0.00968933
17,9,-9.99003,0.000305176,-0.000762939,-2.4247,0.0559862,-0.0741475,0.0556539,0.0563219,-0.0897895,0.144708,-0.126377,-0.0825704,0.00816345,0.0221634,0.0194168,0.0128555,0.0203323,0.00869751,0.0209045,0.0163651,-9.97986,0.0148392,-0.00675201,0.015831,0.0104904,-0.00331879,-0.000915527,0.0125885,0.00839233
18,0,-9.99003,-0.00152588,0.000610352,-2.42623,0.0562914,-0.0741475,0.0550435,0.0758531,-0.0900947,0.145929,-0.125156,-0.0819601,0.012207,0.0263214,0.0212479,0.0120926,0.018959,0.00743866,0.0237274,0.0100327,-9.97986,0.0127029,0.00125885,0.0140381,0.00610352,0.00972748,-0.00164032,0.0128937,0.00637054
18,1,-9.38457,-0.000305176,0.00259399,-2.42501,0.055681,-0.0747579,0.0574849,0.126512,-0.0861274,0.145624,-0.122104,-0.0822652,0.0107574,0.025444,0.0239182,0.0123596,0.0192261,0.013504,0.0213623,0.00713348,-9.97986,0.00991821,-0.0012207,0.0151443,0.00534058,0.0154495,-0.00278473,0.0177002,0.00774384
18,2,-1.11705,0.00213623,0.00366211,-2.42745,0.0547655,-0.0756734,0.0544332,0.144823,-0.0885688,0.144403,-0.121189,-0.0856222,0.0131226,0.0249481,0.0244522,0.0118637,0.0225449,0.0125122,0.0255966,0.0087738,-9.97986,0.00583649,-0.000534058,0.0133514,0.00869751,0.0136566,-0.00167847,0.0178528,0.00679016
18,3,6.76686,-0.000915527,0.00442505,-2.42806,0.0544603,-0.0756734,0.0535176,0.153673,-0.088874,0.144403,-0.120578,-0.0859274,0.0056076,0.019989,0.0168228,0.0112915,0.0111389,0.0119019,0.0214005,0.0069046,-9.97986,0.00537872,-0.0050354,0.0107574,0.00190735,0.0123215,-0.00572205,0.0144958,0.00610352
18,4,10.0097,-0.000610352,0.00457764,-2.43142,0.0526292,-0.0756734,0.0504659,0.126207,-0.0946723,0.142267,-0.124546,-0.0883688,0.0108337,0.0244904,0.0196075,0.0111008,0.015564,0.0125504,0.0261688,0.0168991,-9.97986,0.0141144,0.0012207,0.0144196,0.00869751,0.0201797,0.00385284,0.0180054,0.00595093
18,5,10.0097,0.000915527,0.000152588,-2.43142,0.0538499,-0.0775044,0.0501607,0.0911119,-0.0974189,0.142572,-0.126987,-0.0886739,0.0127792,0.0226212,0.0201797,0.0105667,0.0154877,0.0108337,0.0239182,0.0141144,-9.97986,0.014534,-0.00293732,0.0131607,0.00556946,0.0152206,0.000686646,0.0172424,0.00347137
18,6,10.0097,-0.000610352,0.000305176,-2.42959,0.0541551,-0.0768941,0.0516866,0.0779894,-0.0965034,0.142572,-0.126072,-0.0877584,0.00762939,0.0259018,0.0160599,0.01297,0.0158691,0.0104904,0.0258636,0.0136185,-9.97986,0.0145721,-0.000610352,0.0149918,0.000648499,0.0153351,-0.00228882,0.0170898,0.0094986
18,7,10.0097,0.0012207,0.000305176,-2.42867,0.0547655,-0.0759786,0.0522969,0.0746324,-0.0952827,0.144403,-0.126987,-0.0859274,0.0107956,0.02388,0.0204849,0.0133133,0.0162125,0.0128555,0.0231171,0.0178909,-9.97986,0.0136185,-0.000762939,0.0153351,0.00610352,0.0160217,-0.00137329,0.0154495,0.00553131
18,8,10.0097,0.000610352,-0.000152588,-2.42714,0.0544603,-0.0753682,0.0529073,0.0728014,-0.094062,0.145013,-0.125766,-0.0847066,0.0114441,0.0259399,0.022583,0.0128174,0.0199509,0.00900269,0.0215149,0.0122833,-9.97986,0.0125504,-0.00354767,0.013237,0.00900269,0.0166321,-0.00522614,0.0199127,0.00770569
18,9,10.0097,0.00152588,0,-2.42745,0.0541551,-0.0762837,0.0522969,0.0712755,-0.0937568,0.145013,-0.125461,-0.0850118,0.0131607,0.0247574,0.0209808,0.0106812,0.0220108,0.00911713,0.0218964,0.0136185,-9.97986,0.0175095,0.00244141,0.0177002,0.00495911,0.0150299,-0.00427246,0.014267,0.00423431
19,0,10.0097,-0.000610352,0.000610352,-2.42653,0.0550706,-0.0735371,0.0535176,0.0709703,-0.0928413,0.145318,-0.125156,-0.0834859,0.0128555,0.0226212,0.0199509,0.0113678,0.0178528,0.00923157,0.0213623,0.0157547,-9.97986,0.017662,-0.00457764,0.0143814,0.00614166,0.0174713,-0.0050354,0.0154877,0.0062561
19,1,10.0097,0.000915527,0,-2.4247,0.0544603,-0.0747579,0.0538228,0.0712755,-0.0922309,0.145929,-0.124241,-0.0822652,0.0136948,0.0240326,0.0178909,0.0109863,0.0193024,0.00976563,0.0218201,0.0179672,-9.97986,0.0131607,-0.00110626,0.0165939,0.0062561,0.0160599,0.00038147,0.0171661,0.00667572
19,2,10.0097,0.000610352,-0.000152588,-2.4244,0.0559862,-0.0723164,0.0538228,0.0709703,-0.090705,0.145624,-0.124241,-0.0816549,0.0120544,0.0246429,0.0191498,0.0115967,0.0221634,0.0147247,0.0179672,0.0219345,-9.97986,0.0162888,-0.000839233,0.0149155,0.010376,0.0214005,0.00198364,0.0167847,0.00835419
19,3,10.0097,0,0,-2.42531,0.0565965,-0.0738423,0.0547383,0.0715807,-0.0922309,0.146844,-0.12363,-0.0816549,0.0105667,0.0228882,0.0203705,0.0101089,0.0183105,0.00938416,0.0190353,0.0247574,-9.97986,0.0174713,-0.00495911,0.0134659,0.00850677,0.0174713,0.00370026,0.0160599,0.00480652
19,4,10.0097,-0.000305176,-0.00213623,-2.42776,0.0553758,-0.0741475,0.0513814,0.0227526,-0.0961982,0.145929,-0.127598,-0.0831808,0.0136948,0.0273514,0.0219345,0.0123215,0.022049,0.0126266,0.0245667,0.0294876,-9.97986,0.02285,0.00576019,0.0141525,0.0113678,0.0201797,-0.0025177,0.0202179,0.00709534
19,5,1.11653,0.0012207,-0.00427246,-2.42531,0.0565965,-0.0738423,0.0532125,-0.00532361,-0.0968086,0.146234,-0.128513,-0.0825704,0.0146103,0.0211716,0.0241852,0.00839233,0.0180054,0.010376,0.0173569,0.0269699,-9.97986,0.0185394,-0.00354767,0.0130844,0.0088501,0.0227737,-0.00385284,0.0130463,0.00717163
19,6,-5.80943,0.000610352,-0.00411987,-2.42531,0.0569017,-0.0738423,0.0544332,-0.0144789,-0.0968086,0.146844,-0.130649,-0.0810445,0.0141144,0.0207901,0.0194168,0.0143051,0.0213242,0.014267,0.0219345,0.0294876,-9.97986,0.0214767,0.00156403,0.0137329,0.0102615,0.0235748,-0.00534058,0.0151443,0.00644684
19,7,-9.99003,0.000915527,-0.00305176,-2.42562,0.0553758,-0.0738423,0.0553487,0.0105455,-0.0925361,0.146234,-0.127292,-0.0810445,0.0125885,0.0202942,0.0207901,0.0100708,0.0251007,0.0126648,0.022049,0.0227737,-9.97986,0.0172806,-0.00392914,0.00846863,0.00667572,0.0195313,-0.00354767,0.015564,0.00762939
19,8,-9.99003,-0.000610352,-0.0012207,-2.42562,0.0562914,-0.0738423,0.0565694,0.0370958,-0.0913154,0.146539,-0.127598,-0.0810445,0.00862122,0.0248718,0.0227356,0.0118256,0.0179291,0.010643,0.0209427,0.017662,-9.97986,0.013237,-0.00102997,0.0114441,0.00823975,-0.0018692,-0.00167847,0.018158,0.00461578
19,9,-9.99003,0.000915527,-0.00167847,-2.42531,0.0553758,-0.075063,0.0553487,0.0557115,-0.0903999,0.146234,-0.126072,-0.0822652,0.00648499,0.0219345,0.0196075,0.00930786,0.0192261,0.0148392,0.0254059,0.0134277,-9.97986,0.0128555,-0.00492096,0.0142288,0.00892639,-0.00747681,-0.00228882,0.0172424,0.00648499
20,0,-9.99003,0.000305176,-0.000152588,-2.42592,0.0550706,-0.0753682,0.0547383,0.0767687,-0.0900947,0.145929,-0.125461,-0.0831808,0.0114822,0.0259781,0.0144196,0.0120163,0.0172043,0.00808716,0.0222015,0.00873566,-9.97986,0.0146103,-0.00179291,0.0111389,0.00991821,0.00774384,-0.00225067,0.0195694,0.00549316
20,1,-9.31285,0,0.00274658,-2.42592,0.0529344,-0.0738423,0.0574849,0.127123,-0.0842964,0.145013,-0.122104,-0.0819601,0.00930786,0.0222397,0.0212097,0.0121307,0.0154114,0.00720978,0.0227356,0.00793457,-9.97986,0.00835419,-0.00377655,0.0122833,0.00648499,0.0186539,-0.00141144,0.0149155,0.00671387
20,2,-1.13231,0.000610352,0.00366211,-2.42714,0.0547655,-0.0759786,0.0550435,0.145433,-0.0870429,0.142877,-0.122104,-0.0847066,0.00988007,0.0231171,0.0205612,0.0105667,0.0192261,0.00789642,0.0217056,0.010376,-9.97986,0.0111771,0.00152588,0.0147247,0.00743866,0.0180817,-0.00553131,0.0178528,0.00488281
20,3,6.7513,-0.000915527,0.00442505,-2.42806,0.0538499,-0.0747579,0.054128,0.153978,-0.0894843,0.144098,-0.120578,-0.085317,0.00907898,0.0230789,0.0201035,0.0138474,0.0177383,0.00888824,0.021286,0.0125885,-9.97986,0.00968933,0.000953674,0.01297,0.00743866,0.0154877,-0.00301361,0.0223541,0.00526428
20,4,10.0097,-0.00152588,0.00366211,-2.4305,0.0532396,-0.0775044,0.0516866,0.127428,-0.0955879,0.141961,-0.124851,-0.0874532,0.0114822,0.0241089,0.0215912,0.00869751,0.0209808,0.00900269,0.0185776,0.00888824,-9.97986,0.0128555,-0.000419617,0.0131607,0.00793457,0.0177765,-0.00102997,0.0164413,0.00415802
20,5,10.0097,0.000305176,0.000762939,-2.42989,0.0535448,-0.0756734,0.0498555,0.0914171,-0.0955879,0.142572,-0.126682,-0.0886739,0.0116348,0.0257492,0.0205231,0.0139236,0.0180435,0.0129318,0.0188065,0.0112534,-9.97986,0.0139236,0.00164032,0.0140381,0.00656128,0.0168228,-0.00259399,0.0162506,0.00297546
20,6,10.0097,-0.000915527,0.000610352,-2.42959,0.0541551,-0.075063,0.0510762,0.0776842,-0.0965034,0.143792,-0.126682,-0.0874532,0.00839233,0.0247955,0.0218201,0.0131607,0.0178146,0.0117874,0.0211334,0.0172424,-9.97986,0.0151062,7.62939e-005,0.0147247,0.00804901,0.0162125,-0.00202179,0.0158691,0.0043869
20,7,10.0097,0.000915527,0.000152588,-2.42898,0.0535448,-0.0756734,0.0522969,0.0749376,-0.0949775,0.143792,-0.126072,-0.0862325,0.010376,0.0265884,0.0179291,0.0094223,0.0193787,0.0117493,0.0213623,0.0151062,-9.97986,0.0151825,0.000953674,0.0193405,0.00881195,0.0162888,-0.0012207,0.0164032,0.00518799
20,8,10.0097,0.00183105,0,-2.42714,0.0547655,-0.075063,0.0519917,0.0715807,-0.0952827,0.145929,-0.126072,-0.0856222,0.013504,0.0265503,0.0231552,0.0137711,0.0196457,0.0154114,0.0244904,0.0143814,-9.97986,0.014801,0.00164032,0.0164032,0.00957489,0.0191116,0.00125885,0.0163269,0.0069809
20,9,10.0097,0.0012207,-0.000610352,-2.42837,0.0562914,-0.075063,0.0532125,0.0709703,-0.0937568,0.145013,-0.125766,-0.0844015,0.00854492,0.0196838,0.0184631,0.0125885,0.0162888,0.00431061,0.0165558,0.0143433,-9.97986,0.0129318,-0.00282288,0.010643,0.0043869,0.0139236,-0.00377655,0.0140762,0.00370026
21,0,10.0097,-0.000305176,0.000305176,-2.42501,0.0559862,-0.0747579,0.0535176,0.0706652,-0.0934516,0.144403,-0.125156,-0.0844015,0.0147629,0.0242233,0.0213623,0.0127411,0.0226593,0.0138855,0.0230408,0.0166702,-9.97986,0.0122452,-0.00396729,0.0114059,0.00736237,0.0170898,-0.00217438,0.0204086,0.00484467
21,1,10.0097,0.00152588,0.000457764,-2.42562,0.0559862,-0.0741475,0.0547383,0.0728014,-0.0925361,0.145929,-0.124851,-0.0822652,0.017662,0.0260544,0.0209427,0.0136948,0.0197601,0.0142288,0.0233459,0.0220871,-9.97986,0.0239182,0.00198364,0.0201797,0.0146103,0.0233459,0.0025177,0.0215912,0.00988007
21,2,10.0097,0.000305176,0.000152588,-2.42501,0.0553758,-0.0735371,0.0553487,0.0718859,-0.090705,0.145929,-0.124241,-0.0816549,0.00892639,0.0219345,0.0147247,0.00675201,0.0106049,0.00591278,0.0151443,0.0167084,-9.97986,0.0115204,-0.00648499,0.0100327,0.00453949,0.0146866,-0.00766754,0.00961304,0.00514984
21,3,10.0097,0.00183105,0,-2.42531,0.0562914,-0.0738423,0.0538228,0.0718859,-0.0919257,0.146844,-0.123935,-0.0813497,0.0124359,0.0276184,0.02388,0.0127411,0.0199127,0.0114441,0.0244141,0.0283051,-9.97986,0.0219727,-0.000572205,0.0165176,0.0124359,0.0206375,0.000610352,0.0193787,0.00907898
21,4,9.93032,-0.000915527,-0.00183105,-2.42745,0.0565965,-0.0744527,0.0526021,0.0267198,-0.0977241,0.146539,-0.128513,-0.0828756,0.00823975,0.0255585,0.018692,0.0112915,0.0149155,0.00930786,0.0229263,0.0241852,-9.97986,0.0196838,-0.0050354,0.0131989,0.0069046,0.0187683,-0.00461578,0.0159836,0.00549316
21,5,0.902605,0.000305176,-0.00427246,-2.42501,0.0584276,-0.0741475,0.0538228,-0.0028822,-0.0961982,0.14776,-0.129429,-0.0816549,0.0131607,0.0239563,0.0186539,0.00976563,0.0201416,0.0126266,0.0221634,0.0309372,-9.97986,0.022583,-0.00259399,0.0115585,0.00595093,0.0195313,-0.00362396,0.0170135,0.00648499
21,6,-5.97514,0.00152588,-0.00411987,-2.42653,0.0569017,-0.0726216,0.0532125,-0.0153944,-0.0961982,0.146234,-0.130039,-0.0816549,0.013504,0.0234604,0.0172806,0.0100327,0.0152588,0.00968933,0.0248337,0.0250626,-9.97986,0.0244522,-0.00179291,0.0125122,0.00621796,0.017662,-0.00240326,0.0173187,0.00675201
21,7,-9.99003,0.0012207,-0.00274658,-2.4247,0.0559862,-0.0744527,0.0553487,0.0108507,-0.0931465,0.146539,-0.129123,-0.0816549,0.00873566,0.0291443,0.0170898,0.0178528,0.0167847,0.00934601,0.0209808,0.0223541,-9.97986,0.0211716,-0.00450134,0.0154495,0.0050354,0.0207138,-0.00141144,0.0174332,0.01297
21,8,-9.99003,0.0012207,-0.00213623,-2.42562,0.055681,-0.0738423,0.0556539,0.0383165,-0.0910102,0.146539,-0.126987,-0.0810445,0.0131226,0.0203323,0.0205231,0.00808716,0.017662,0.00923157,0.0212097,0.019722,-9.97986,0.0217438,-0.00484467,0.00919342,0.00728607,0.00713348,-0.00133514,0.0183105,0.00724792
21,9,-9.99003,0.00244141,-0.0012207,-2.42501,0.0553758,-0.0747579,0.055959,0.0557115,-0.0910102,0.145929,-0.126377,-0.0822652,0.00930786,0.0210571,0.0178909,0.00934601,0.0148392,0.0120163,0.0220871,0.0173187,-9.97986,0.0139618,-0.00507355,0.00946045,0.0069046,-0.00125885,-0.00167847,0.0185776,0.00785828
22,0,-9.99003,0,0.000152588,-2.42531,0.0562914,-0.075063,0.0553487,0.0770738,-0.088874,0.145624,-0.124851,-0.0828756,0.00961304,0.0245285,0.023613,0.00682831,0.0148392,0.0107574,0.0191116,0.0136185,-9.97986,0.0116348,0,0.0137711,0.00507355,0.013504,-0.00465393,0.0163651,0.00553131
22,1,-9.14836,0.000610352,0.00152588,-2.42592,0.0550706,-0.0747579,0.0565694,0.126817,-0.0861274,0.145624,-0.122104,-0.0825704,0.0101852,0.0231171,0.0177765,0.00957489,0.0142288,0.0122452,0.0245667,0.00854492,-9.97986,0.00606537,-0.00137329,0.0117493,0.00785828,0.0178909,-0.00587463,0.0179291,0.00247955
22,2,-0.976972,0.000610352,0.00411987,-2.42806,0.0538499,-0.075063,0.0547383,0.145433,-0.0873481,0.144098,-0.122104,-0.0840963,0.0115585,0.0242233,0.0197983,0.0136185,0.0140381,0.0122452,0.0214005,0.0131989,-9.97986,0.0107956,-0.00312805,0.0183487,0.00572205,0.0164795,-0.0044632,0.0163269,0.0050354
22,3,6.81081,0,0.00473022,-2.42684,0.0523241,-0.0753682,0.0535176,0.153978,-0.0897895,0.144098,-0.120884,-0.0859274,0.0101089,0.0270462,0.0190735,0.0100708,0.0149918,0.00709534,0.0205231,0.0108337,-9.97986,0.0101852,-0.00366211,0.0173187,0.00434875,0.0182724,-0.0025177,0.0154877,0.00621796
22,4,10.0097,0.0012207,0.00411987,-2.4302,0.0529344,-0.0787251,0.0501607,0.125902,-0.0955879,0.142572,-0.123935,-0.0877584,0.0107574,0.0209427,0.02285,0.0063324,0.014534,0.0137711,0.0234222,0.0128555,-9.97986,0.0156403,-0.00476837,0.01194,0.0105667,0.015831,0.000495911,0.018959,0.00473022
22,5,10.0097,0.00183105,0.000915527,-2.43081,0.0538499,-0.0771993,0.0510762,0.0905016,-0.0971137,0.141961,-0.125766,-0.0877584,0.00999451,0.0255203,0.021019,0.00801086,0.0129318,0.00747681,0.0209427,0.0135803,-9.97986,0.0136185,-0.0031662,0.015831,0.00614166,0.013504,-0.00286102,0.0164413,0.00705719
22,6,10.0097,0.000915527,-0.000457764,-2.4302,0.0538499,-0.0768941,0.0513814,0.0782946,-0.0949775,0.145013,-0.126987,-0.0877584,0.00896454,0.0263977,0.0217438,0.0094986,0.0181198,0.0118256,0.0197983,0.0127411,-9.97986,0.010376,-0.00427246,0.0130463,0.0101089,0.0175476,-0.00228882,0.017662,0.00434875
22,7,10.0097,0.000305176,-0.000457764,-2.42837,0.0538499,-0.0759786,0.0529073,0.0728014,-0.0943672,0.143792,-0.126377,-0.0865377,0.00965118,0.0212097,0.0180435,0.00911713,0.0180054,0.00556946,0.0224686,0.0150299,-9.97986,0.0131989,-0.0037384,0.0137711,0.00431061,0.0153732,-0.00171661,0.0140381,0.00576019
22,8,10.0097,-0.000305176,0.000152588,-2.42837,0.0541551,-0.0747579,0.0522969,0.0718859,-0.0949775,0.145013,-0.126682,-0.0850118,0.00995636,0.0263214,0.0219727,0.0119781,0.0154877,0.0127792,0.0247574,0.0141144,-9.97986,0.0156403,0.00377655,0.0165176,0.00946045,0.0169754,-0.00247955,0.0147629,0.0043869
22,9,10.0097,0,0.000610352,-2.42806,0.0544603,-0.0753682,0.0522969,0.0718859,-0.0949775,0.144098,-0.126377,-0.0844015,0.0102234,0.025177,0.0180817,0.0149918,0.0165939,0.00797272,0.021019,0.0130463,-9.97986,0.0126648,0.000991821,0.0138474,0.00675201,0.0160217,-0.00423431,0.0150299,0.00701904
23,0,10.0097,-0.000305176,0.000305176,-2.42714,0.0547655,-0.0744527,0.0538228,0.0712755,-0.0928413,0.144403,-0.125461,-0.0844015,0.0102615,0.0238419,0.0188065,0.00823975,0.0156021,0.0130081,0.0218582,0.0153351,-9.97986,0.00995636,-0.00717163,0.0131989,0.00648499,0.017662,-0.00255585,0.0163651,0.00717163
23,1,10.0097,0.000610352,-0.000152588,-2.42501,0.0562914,-0.0741475,0.0544332,0.0706652,-0.0925361,0.146539,-0.12363,-0.0825704,0.0136185,0.0218582,0.0180435,0.00900269,0.0141907,0.0128174,0.0190353,0.0211334,-9.97986,0.0114822,-0.000991821,0.0117111,0.00679016,0.0139236,-7.62939e-005,0.0140762,0.00717163
23,2,10.0097,0.000610352,0.000305176,-2.42531,0.0569017,-0.0738423,0.0547383,0.0712755,-0.0925361,0.145929,-0.12363,-0.0816549,0.0165176,0.0220871,0.0200653,0.0102615,0.0186539,0.0102615,0.022316,0.0198746,-9.97986,0.017128,-0.00247955,0.0157547,0.00785828,0.0186157,0.00171661,0.016861,0.00602722
23,3,10.0097,0.00244141,0.000152588,-2.4247,0.0559862,-0.0738423,0.054128,0.0715807,-0.0913154,0.145624,-0.124851,-0.0810445,0.0109863,0.0234985,0.0200653,0.00938416,0.0157166,0.0087738,0.0218964,0.0198364,-9.97986,0.020752,0.000762939,0.0139236,0.00961304,0.0147629,-0.00518799,0.0192261,0.0075531
23,4,9.97365,0,-0.00274658,-2.42714,0.0559862,-0.0759786,0.0522969,0.0236681,-0.0980293,0.147455,-0.127598,-0.0834859,0.00724792,0.0196838,0.0214005,0.0105286,0.012207,0.0141525,0.0204086,0.0234222,-9.97986,0.0224304,-0.00465393,0.00911713,0.00740051,0.0187302,-0.00171661,0.0134659,0.0082016
23,5,1.10677,0.000305176,-0.00366211,-2.4244,0.0575121,-0.0723164,0.0538228,-0.00135633,-0.095893,0.146234,-0.128513,-0.0822652,0.00846863,0.0205231,0.0206375,0.00995636,0.0136185,0.0151062,0.022316,0.0269318,-9.97986,0.0248337,-0.00137329,0.0159073,0.00976563,0.0203323,-0.00221252,0.0178909,0.00793457
23,6,-5.7252,0.00152588,-0.00411987,-2.42501,0.0553758,-0.0738423,0.0538228,-0.0144789,-0.0977241,0.146539,-0.130649,-0.0819601,0.0119781,0.02285,0.0220108,0.0114059,0.0168228,0.0115204,0.0201035,0.0239944,-9.97986,0.0161362,-0.000724792,0.0143051,0.00793457,0.0162125,0.00156403,0.0143051,0.00675201
23,7,-9.99003,0.00183105,-0.00305176,-2.42501,0.0562914,-0.075063,0.0547383,0.0084093,-0.0937568,0.145929,-0.128818,-0.0813497,0.0144577,0.0183868,0.0177383,0.00961304,0.0163651,0.0107193,0.023613,0.02388,-9.97986,0.0173569,-0.0050354,0.0181961,0.00621796,0.0183487,-0.00141144,0.017128,0.00785828
23,8,-9.99003,0.000915527,-0.0012207,-2.42562,0.0569017,-0.0741475,0.0550435,0.0383165,-0.0913154,0.145624,-0.127598,-0.0810445,0.0104904,0.0213242,0.0226593,0.0101089,0.0169754,0.00507355,0.0241089,0.0213242,-9.97986,0.0128555,0.00038147,0.0150299,0.0087738,-0.00183105,-0.00576019,0.017662,0.00850677
23,9,-9.99003,0.000610352,-0.000915527,-2.42531,0.055681,-0.0747579,0.0544332,0.0560167,-0.0913154,0.145929,-0.126072,-0.0822652,0.00911713,0.0207138,0.0185013,0.0105286,0.017662,0.0115967,0.0249863,0.0157928,-9.97986,0.0121689,-0.00160217,0.0128555,0.00255585,-0.0025177,-0.00453949,0.0133514,0.00587463
24,0,-9.99003,-0.000915527,0.000610352,-2.42531,0.0547655,-0.0747579,0.0544332,0.0761583,-0.0894843,0.145929,-0.125461,-0.0828756,0.0112915,0.021553,0.0235367,0.0129318,0.018425,0.0129318,0.0242996,0.0116348,-9.97986,0.0138855,-0.000953674,0.0120926,0.00812531,0.0146103,-0.0012207,0.0162125,0.00782013
24,1,-9.23198,0.000610352,0.00198364,-2.42531,0.0541551,-0.0747579,0.0562642,0.128954,-0.0846015,0.144708,-0.120578,-0.0816549,0.0111008,0.0175476,0.0166321,0.00804901,0.0128174,0.00717163,0.0212479,0.00789642,-9.97986,0.00740051,-0.000686646,0.015831,0.00904083,0.0139236,-0.0018692,0.015831,0.00396729
24,2,-0.949812,0.000610352,0.00289917,-2.42623,0.0550706,-0.0744527,0.054128,0.146349,-0.0879585,0.144403,-0.121494,-0.0850118,0.00923157,0.0185776,0.0221252,0.0115204,0.0190353,0.0113678,0.0211334,0.00621796,-9.97986,0.00644684,-0.00209808,0.0150299,0.00904083,0.0160599,-0.00743866,0.0139999,0.00640869
24,3,6.86269,-0.000610352,0.00411987,-2.42867,0.0532396,-0.0762837,0.0547383,0.154283,-0.0891792,0.143182,-0.121189,-0.085317,0.00919342,0.0208282,0.0222397,0.0138855,0.018158,0.01194,0.0200272,0.00831604,-9.97986,0.0101089,0.00148773,0.0143051,0.00328064,0.0152969,-0.00423431,0.0133514,0.00411987
24,4,10.0097,0.000305176,0.00396729,-2.43111,0.0526292,-0.0765889,0.0501607,0.124986,-0.0952827,0.143487,-0.125156,-0.0883688,0.00991821,0.0157928,0.0199509,0.0102615,0.0165558,0.0125504,0.0224304,0.0139618,-9.97986,0.00926971,-0.00087738,0.0123978,0.0056076,0.016861,-0.00267029,0.0179672,0.00900269
24,5,10.0097,0.000915527,0.00152588,-2.4305,0.0535448,-0.0756734,0.0504659,0.0901964,-0.0968086,0.142267,-0.126072,-0.0883688,0.00713348,0.0212097,0.0217056,0.00713348,0.0186539,0.00717163,0.0190735,0.0113297,-9.97986,0.00869751,-0.00148773,0.0131989,0.00793457,0.0151825,-0.00679016,0.0156403,0.0056076
24,6,10.0097,0,0.000457764,-2.42959,0.0532396,-0.0756734,0.0513814,0.0779894,-0.0968086,0.144098,-0.126682,-0.0874532,0.00976563,0.0182724,0.020752,0.00766754,0.0167847,0.0114441,0.0235748,0.0186539,-9.97986,0.0162125,-0.00255585,0.0127792,0.00476837,0.0139236,-0.000305176,0.012207,0.00637054
24,7,10.0097,-0.000915527,0.000305176,-2.42867,0.0532396,-0.0756734,0.0513814,0.0743273,-0.0946723,0.145013,-0.126377,-0.0865377,0.00675201,0.0205994,0.0199127,0.0102615,0.0189209,0.0107193,0.0218964,0.014267,-9.97986,0.0134277,-0.00541687,0.0166702,0.00621796,0.0154114,-0.00637054,0.0165558,0.00713348
24,8,10.0097,-0.000610352,0.000305176,-2.42684,0.0541551,-0.0747579,0.0532125,0.0715807,-0.0934516,0.145013,-0.126987,-0.0850118,0.0094986,0.0232697,0.0191879,0.0134659,0.0196457,0.014267,0.0249863,0.0166702,-9.97986,0.0119019,-0.000991821,0.0125885,0.0105667,0.0139236,-0.00205994,0.0152969,0.00858307
24,9,10.0097,-0.000610352,-0.000457764,-2.42684,0.0544603,-0.0747579,0.0522969,0.07036,-0.094062,0.144403,-0.126987,-0.0850118,0.0112915,0.0229645,0.0166702,0.014267,0.0180054,0.0159073,0.0188828,0.018692,-9.97986,0.0125504,-0.001297,0.0144958,0.00602722,0.0135803,0.00125885,0.0154495,0.00617981
25,0,10.0097,0.0012207,0.000305176,-2.42623,0.0562914,-0.0753682,0.0532125,0.0718859,-0.0934516,0.144403,-0.126072,-0.0837911,0.0119781,0.0270081,0.019989,0.0133896,0.0170898,0.00961304,0.0244522,0.0157166,-9.97986,0.0169754,-0.00274658,0.0140381,0.00705719,0.0156403,-0.00205994,0.0171661,0.00705719
25,1,10.0097,0.000305176,-0.000305176,-2.42562,0.055681,-0.073232,0.0535176,0.0706652,-0.0919257,0.147149,-0.124241,-0.0831808,0.00919342,0.0186157,0.019455,0.0122452,0.0208282,0.0124741,0.0247192,0.0164413,-9.97986,0.0118256,0.000190735,0.0133896,0.00671387,0.0146103,-0.00209808,0.0149155,0.00617981
25,2,10.0097,0.0012207,0.000305176,-2.4244,0.0565965,-0.0729268,0.0553487,0.0712755,-0.0922309,0.146539,-0.123935,-0.0810445,0.0108337,0.0224686,0.0186157,0.0126648,0.0122833,0.0107193,0.0239944,0.0235367,-9.97986,0.0166321,-0.00171661,0.0138474,0.00705719,0.0175476,-0.00583649,0.0209427,0.00679016
25,3,10.0097,0.0012207,0,-2.4247,0.0569017,-0.0744527,0.0553487,0.0728014,-0.0928413,0.146234,-0.12363,-0.0819601,0.00915527,0.0247955,0.0205994,0.0124359,0.0160599,0.0122833,0.0147247,0.0310135,-9.97986,0.0199127,-0.00305176,0.0125885,0.00743866,0.0163269,-0.00198364,0.0148773,0.00713348
25,4,10.0097,0.00183105,-0.00228882,-2.42806,0.0553758,-0.0744527,0.0522969,0.0245836,-0.0995551,0.144708,-0.127903,-0.0834859,0.0110245,0.0244522,0.0218964,0.0139618,0.0199127,0.0125885,0.0231171,0.0291824,-9.97986,0.0210571,0.00179291,0.0130463,0.0044632,0.017662,-0.00362396,0.0165176,0.0082016
25,5,0.910235,0.000305176,-0.0050354,-2.42592,0.0565965,-0.0729268,0.0532125,-0.00227185,-0.0977241,0.147149,-0.128513,-0.0819601,0.00938416,0.0193787,0.0171661,0.0114441,0.0183487,0.00766754,0.0230789,0.0246429,-9.97986,0.0210571,0.00450134,0.0105667,0.00774384,0.0162888,-0.00747681,0.0191116,0.00915527
25,6,-6.01603,0,-0.00442505,-2.42592,0.0562914,-0.0735371,0.0547383,-0.0150892,-0.0971137,0.147455,-0.129734,-0.0813497,0.0110626,0.0249863,0.0222778,0.015564,0.0187683,0.0123978,0.0218964,0.0260162,-9.97986,0.0196457,0.000686646,0.0133133,0.00495911,0.0161743,-0.00431061,0.0146866,0.00972748
25,7,-9.99003,0.000610352,-0.00320435,-2.42531,0.0562914,-0.0738423,0.0547383,0.0102404,-0.0922309,0.145624,-0.129734,-0.0807394,0.014534,0.0229645,0.0204086,0.0144196,0.0173569,0.00911713,0.0222015,0.0232315,-9.97986,0.0201035,-0.00232697,0.0162506,0.0037384,0.0180817,-0.00850677,0.0170898,0.0094986
25,8,-9.99003,0,-0.00167847,-2.42531,0.0569017,-0.0729268,0.0556539,0.0392321,-0.090705,0.145318,-0.126072,-0.0810445,0.0114822,0.0173187,0.0219727,0.0158691,0.0162506,0.0115967,0.026741,0.0220871,-9.97986,0.0186157,0.00434875,0.0104904,0.00602722,-0.000228882,-0.00385284,0.0199127,0.00663757
25,9,-9.99003,0,-0.00167847,-2.4247,0.0569017,-0.0747579,0.0556539,0.0560167,-0.0910102,0.144708,-0.126072,-0.0816549,0.0104904,0.0218201,0.0220871,0.014534,0.0172043,0.0116348,0.0219345,0.0156403,-9.97986,0.0191879,-0.00087738,0.0153351,0.00934601,-0.00595093,-0.0025177,0.0153732,0.00720978
26,0,-9.99003,0.00213623,0,-2.42592,0.055681,-0.0744527,0.0553487,0.0752428,-0.0897895,0.146234,-0.126072,-0.0828756,0.00831604,0.0243759,0.0206375,0.0102615,0.0132751,0.0108337,0.024147,0.0100708,-9.97986,0.00972748,-0.00293732,0.0101471,0.00267029,0.00797272,-0.00499725,0.0163269,0.00465393
26,1,-9.39464,-0.000610352,0.00259399,-2.42501,0.0547655,-0.0741475,0.0568746,0.124986,-0.0864326,0.145013,-0.12241,-0.0816549,0.0113678,0.0247955,0.022049,0.0150299,0.0139999,0.0113678,0.0222397,0.0088501,-9.97986,0.0119781,0.00476837,0.01194,0.00946045,0.0149536,-0.00537872,0.0167465,0.00858307
26,2,-1.09355,0.000610352,0.00335693,-2.42623,0.0541551,-0.0753682,0.0556539,0.143907,-0.0885688,0.143792,-0.122104,-0.0850118,0.00804901,0.021019,0.0164032,0.0111389,0.0173569,0.00873566,0.0233078,0.00671387,-9.97986,0.00709534,-0.00282288,0.0115585,0.00659943,0.0144196,-0.00507355,0.0154114,0.00621796
26,3,6.75405,-0.000610352,0.00411987,-2.42867,0.0547655,-0.0759786,0.0538228,0.153978,-0.0897895,0.143792,-0.121189,-0.0850118,0.0104904,0.0231934,0.0214386,0.013504,0.0199127,0.00953674,0.020256,0.00972748,-9.97986,0.0126648,-0.0030899,0.012207,0.00865936,0.0180817,-0.00480652,0.0161362,0.00457764
26,4,10.0097,-0.000915527,0.00427246,-2.42989,0.0511034,-0.0762837,0.050771,0.125902,-0.0952827,0.143487,-0.124241,-0.0877584,0.00965118,0.0229645,0.0193787,0.0116348,0.0133896,0.01091,0.0196457,0.0152588,-9.97986,0.0105667,-0.00293732,0.0145721,0.0088501,0.0146866,-0.00209808,0.0115967,0.00572205
26,5,10.0097,0.000915527,0.000610352,-2.4302,0.0535448,-0.0762837,0.0498555,0.0911119,-0.0974189,0.143487,-0.126377,-0.0883688,0.0116348,0.0212479,0.0218964,0.0136185,0.0133896,0.0123596,0.0203323,0.0154114,-9.97986,0.00926971,0.000648499,0.0111771,0.00888824,0.0159454,-0.00282288,0.0177383,0.0063324
26,6,10.0097,-0.000915527,-0.000610352,-2.42989,0.0535448,-0.0759786,0.050771,0.0785997,-0.0955879,0.143487,-0.126682,-0.0877584,0.0119781,0.0205612,0.0181961,0.00972748,0.014534,0.00900269,0.0227737,0.0184631,-9.97986,0.011673,-0.0018692,0.0151825,0.00614166,0.0167465,-0.00167847,0.0139999,0.00812531
26,7,10.0097,0.000305176,-0.000915527,-2.42959,0.0541551,-0.075063,0.0510762,0.0749376,-0.094062,0.143792,-0.127292,-0.0877584,0.00972748,0.0233841,0.023613,0.0105286,0.0151825,0.0124741,0.0223541,0.0150299,-9.97986,0.0134659,-0.0038147,0.0156021,0.00579834,0.0122452,-0.00102997,0.0168991,0.00495911
26,8,10.0097,-0.000305176,0.000152588,-2.42745,0.0544603,-0.075063,0.0529073,0.0718859,-0.0931465,0.144708,-0.126072,-0.0847066,0.0126266,0.0224304,0.0205231,0.0127792,0.0185013,0.00610352,0.0251389,0.016861,-9.97986,0.00926971,0.00179291,0.0177765,0.00976563,0.0167084,-0.00495911,0.0152588,0.00598907
26,9,10.0097,0.000915527,-0.000457764,-2.42684,0.0538499,-0.0753682,0.0538228,0.0715807,-0.0934516,0.144708,-0.125766,-0.085317,0.00595093,0.0246048,0.0164795,0.0112915,0.017662,0.0112915,0.0241089,0.0139236,-9.97986,0.0157928,-0.000228882,0.0166702,0.00831604,0.0174713,-0.00667572,0.0157166,0.00553131
27,0,10.0097,0.000610352,0.000305176,-2.42592,0.0565965,-0.0744527,0.0535176,0.0715807,-0.0922309,0.145013,-0.124241,-0.0844015,0.0117493,0.0270081,0.0222778,0.0117874,0.0181961,0.0130081,0.0242233,0.0183105,-9.97986,0.0172424,-0.001297,0.0151443,0.00686646,0.0179291,-0.00320435,0.0197601,0.00720978
27,1,10.0097,0.000610352,0,-2.42653,0.0562914,-0.0741475,0.0544332,0.0709703,-0.0910102,0.146844,-0.124546,-0.0822652,0.0102615,0.0223541,0.0178909,0.0094223,0.0167847,0.00816345,0.0231552,0.0149155,-9.97986,0.0123596,-0.00583649,0.0138474,0.00377655,0.0159454,-0.00408173,0.0187302,0.00770569
27,2,10.0097,-0.000305176,0,-2.42592,0.0562914,-0.073232,0.054128,0.0718859,-0.0919257,0.146844,-0.124241,-0.0813497,0.00892639,0.027504,0.0235748,0.0108719,0.0178528,0.0104141,0.0209427,0.0202942,-9.97986,0.0161362,-0.000762939,0.0125122,0.00556946,0.0163269,-0.00209808,0.0160599,0.00576019
27,3,10.0097,0.0012207,0.000457764,-2.42501,0.0565965,-0.0744527,0.0553487,0.0718859,-0.0916206,0.146844,-0.12363,-0.0813497,0.0088501,0.0291061,0.0165176,0.00919342,0.0166321,0.0105667,0.0283813,0.0234985,-9.97986,0.0238037,-0.000953674,0.0162506,0.00598907,0.0176239,-0.00488281,0.0165558,0.00659943
27,4,10.0084,0.000610352,-0.00259399,-2.42653,0.0562914,-0.0741475,0.0538228,0.0239733,-0.0974189,0.145929,-0.128208,-0.0834859,0.014801,0.0247574,0.0175095,0.0113678,0.0170898,0.00938416,0.0255203,0.0289154,-9.97986,0.023613,-0.00358582,0.015831,0.00553131,0.0191498,-0.00694275,0.017128,0.00556946
27,5,1.17635,0.000610352,-0.00457764,-2.42653,0.0581224,-0.0738423,0.0522969,-0.000745974,-0.0971137,0.148065,-0.128818,-0.0819601,0.0125122,0.0265121,0.0206757,0.0105667,0.0178528,0.0102615,0.0247192,0.0283432,-9.97986,0.0254822,-3.8147e-005,0.0165939,0.00740051,0.0213242,-0.0031662,0.0180817,0.00389099
27,6,-5.77769,0,-0.0038147,-2.42531,0.0572069,-0.075063,0.0532125,-0.0150892,-0.0961982,0.145929,-0.128818,-0.0819601,0.0113678,0.0259018,0.0193787,0.0112534,0.0201797,0.0115585,0.0249481,0.0243759,-9.97986,0.0235367,-0.00389099,0.0156403,0.00675201,0.0210571,-0.00331879,0.0133514,0.00648499
27,7,-9.99003,0.000610352,-0.00411987,-2.4244,0.0565965,-0.0735371,0.055959,0.00932483,-0.0922309,0.146844,-0.128208,-0.0810445,0.0114822,0.0250626,0.018959,0.0107956,0.0187302,0.0114822,0.0259781,0.0229645,-9.97986,0.0172424,-0.00038147,0.0178528,0.00938416,0.0205231,-0.000991821,0.0188065,0.00762939
27,8,-9.99003,0.0012207,-0.00198364,-2.42562,0.0550706,-0.0741475,0.0556539,0.0383165,-0.0916206,0.146234,-0.127292,-0.0810445,0.00968933,0.0270462,0.0205612,0.0100327,0.0243759,0.00782013,0.0237274,0.0207901,-9.97986,0.0175858,-0.0030899,0.0172043,0.00717163,0.00171661,-0.000419617,0.0165176,0.00514984
27,9,-9.99003,0.00152588,-0.000305176,-2.42592,0.0550706,-0.0738423,0.0556539,0.0566271,-0.0919257,0.147149,-0.125766,-0.0813497,0.0113678,0.0239182,0.0231552,0.0109863,0.0197601,0.00499725,0.0248337,0.0157166,-9.97986,0.0189972,-0.000495911,0.0189972,0.00896454,-0.00114441,-0.00328064,0.0162125,0.00801086
28,0,-9.99003,0.00183105,0.000152588,-2.42501,0.0547655,-0.0744527,0.054128,0.0764635,-0.0897895,0.145624,-0.125461,-0.0822652,0.00694275,0.023613,0.0193024,0.012207,0.0196075,0.0116348,0.0225449,0.00652313,-9.97986,0.0127029,0.00125885,0.0140381,0.0082016,0.0138855,-0.00118256,0.0189972,0.00507355
28,1,-9.06901,0.000610352,0.00228882,-2.42501,0.0553758,-0.0744527,0.0568746,0.126512,-0.0855171,0.145013,-0.121799,-0.0831808,0.00892639,0.0246429,0.0199127,0.0104523,0.0204849,0.0130844,0.0246429,0.0106049,-9.97986,0.0101852,-0.000953674,0.0154495,0.00740051,0.0167465,-0.00183105,0.0144196,0.00793457
28,2,-0.868025,0.000610352,0.0038147,-2.42714,0.0538499,-0.0762837,0.0547383,0.145738,-0.0882636,0.143792,-0.12241,-0.0844015,0.00865936,0.0273132,0.0204086,0.0139236,0.0171661,0.0128174,0.023613,0.0104141,-9.97986,0.00465393,0.00137329,0.0163651,0.00762939,0.0179291,-0.00335693,0.0151062,0.00404358
28,3,7.05312,-0.00244141,0.00457764,-2.42837,0.0550706,-0.0756734,0.0535176,0.155504,-0.0891792,0.145318,-0.121494,-0.0859274,0.012207,0.0284958,0.0222015,0.0129318,0.0172424,0.013237,0.0221634,0.0146866,-9.97986,0.00946045,0.00385284,0.0213623,0.0094223,0.019722,0.00190735,0.0209045,0.0056076
28,4,10.0097,0.000915527,0.00335693,-2.4302,0.0535448,-0.0765889,0.0513814,0.124376,-0.0952827,0.143182,-0.125156,-0.0883688,0.0082016,0.0201797,0.017128,0.00804901,0.0141144,0.00953674,0.0174332,0.00747681,-9.97986,0.00915527,-0.00118256,0.0133514,0.00408173,0.0131226,-0.00110626,0.0178909,0.00663757
28,5,10.0097,-0.000610352,0.00137329,-2.4305,0.0538499,-0.0762837,0.0501607,0.0901964,-0.0971137,0.142267,-0.125766,-0.0889791,0.0130844,0.0253296,0.0223541,0.0108337,0.0183487,0.00858307,0.0235748,0.0125504,-9.97986,0.0117111,-0.00354767,0.0116348,0.00823975,0.0146866,0.00152588,0.0187302,0.00679016
28,6,10.0097,0,0,-2.42898,0.0538499,-0.0762837,0.0513814,0.0782946,-0.0968086,0.142877,-0.126682,-0.0874532,0.0107574,0.0273895,0.0202942,0.0112915,0.0177765,0.0100708,0.0205231,0.0166321,-9.97986,0.0115204,-0.00217438,0.0152969,0.00835419,0.0169754,-0.000190735,0.0198364,0.00713348
28,7,10.0097,0.00244141,0,-2.42776,0.0538499,-0.0753682,0.0522969,0.0737169,-0.0946723,0.144403,-0.126377,-0.0868429,0.0137329,0.0238419,0.0207138,0.0124359,0.0146484,0.00770569,0.0223541,0.0143433,-9.97986,0.00865936,0.00312805,0.0136948,0.0056839,0.0151825,0.000610352,0.0108337,0.00556946
28,8,10.0097,0.0012207,-0.000152588,-2.42837,0.055681,-0.075063,0.0522969,0.072191,-0.0928413,0.145013,-0.126072,-0.0850118,0.0102615,0.0254059,0.0212479,0.00900269,0.0136566,0.0105286,0.0210953,0.0168228,-9.97986,0.0172043,0.00358582,0.0152206,0.0103378,0.0130081,0.000419617,0.0114059,0.00778198
28,9,10.0097,0.000610352,0.000457764,-2.42714,0.0550706,-0.075063,0.0535176,0.0712755,-0.0937568,0.144403,-0.125461,-0.0847066,0.00938416,0.0190735,0.0153732,0.0125885,0.0134277,0.0104141,0.0188065,0.0158691,-9.97986,0.0151825,0.000953674,0.0178528,0.00514984,0.0177765,0.000343323,0.0184631,0.00587463
29,0,10.0097,0.000915527,0.000305176,-2.42653,0.0550706,-0.0744527,0.054128,0.0715807,-0.0928413,0.146234,-0.126072,-0.0840963,0.0124741,0.0263977,0.0239563,0.0146103,0.0186157,0.0131989,0.0199509,0.016098,-9.97986,0.0160217,-0.00350952,0.0173569,0.00270844,0.0159454,-0.00152588,0.0203323,0.00797272
29,1,10.0097,0.000610352,0.000152588,-2.42562,0.0565965,-0.0747579,0.0550435,0.072191,-0.0913154,0.146234,-0.124546,-0.0816549,0.0127029,0.0230026,0.0183105,0.0125504,0.014534,0.00892639,0.0203323,0.0191498,-9.97986,0.0169754,0.0019455,0.0148773,0.00564575,0.0157547,0.0019455,0.0146866,0.00522614
29,2,10.0097,0.0012207,0.000305176,-2.4247,0.0559862,-0.0744527,0.0556539,0.0715807,-0.0910102,0.146539,-0.124851,-0.0819601,0.0114441,0.0228882,0.0208664,0.0119781,0.0154114,0.00900269,0.0183868,0.0185013,-9.97986,0.0179291,-0.0018692,0.0155258,0.0102615,0.0157166,0.00488281,0.0194168,0.00862122
29,3,10.0097,0.0012207,0.000152588,-2.4244,0.0550706,-0.0735371,0.0538228,0.0718859,-0.0919257,0.146234,-0.12302,-0.0810445,0.00965118,0.0262451,0.0175476,0.0120926,0.0133133,0.00915527,0.0236893,0.0230789,-9.97986,0.0209427,-0.0019455,0.0143051,0.00400543,0.0138474,0.000152588,0.0146866,0.00476837
29,4,10.0097,0.000610352,-0.00213623,-2.42745,0.0559862,-0.0753682,0.0516866,0.0227526,-0.0980293,0.147149,-0.128208,-0.0828756,0.0122833,0.0251007,0.0146484,0.0145721,0.0143814,0.0115204,0.0198746,0.0272751,-9.97986,0.0217056,-0.00358582,0.0139618,0.00530243,0.0196075,0.00499725,0.0144958,0.00930786
29,5,1.00545,0.000915527,-0.00427246,-2.42531,0.0565965,-0.0729268,0.0535176,-0.00318738,-0.0961982,0.146844,-0.129123,-0.0819601,0.00869751,0.0209808,0.0205612,0.0124359,0.0174332,0.0138855,0.0230789,0.0310135,-9.97986,0.0275421,-0.00183105,0.0163651,0.00679016,0.018959,0.00232697,0.0177002,0.00999451
29,6,-5.88908,-0.000610352,-0.00518799,-2.42592,0.0572069,-0.0741475,0.0532125,-0.0141737,-0.0961982,0.145929,-0.130344,-0.0810445,0.0087738,0.0211716,0.0172424,0.0106049,0.0170517,0.00907898,0.0222778,0.0242996,-9.97986,0.0181198,-0.00347137,0.0175476,0.00617981,0.018425,0.00114441,0.0176239,0.00938416
29,7,-9.99003,0.0012207,-0.00274658,-2.42501,0.0569017,-0.073232,0.0568746,0.0108507,-0.0919257,0.147455,-0.128818,-0.0810445,0.0104141,0.019989,0.0191879,0.0134659,0.0146484,0.0130844,0.0225449,0.0258255,-9.97986,0.0214386,-0.00164032,0.0140381,0.00602722,0.0206375,0.00396729,0.0146484,0.0112915
29,8,-9.99003,0,-0.00167847,-2.42409,0.0541551,-0.0741475,0.0547383,0.0389269,-0.0903999,0.145318,-0.127903,-0.0810445,0.0112915,0.0204468,0.0201035,0.0137329,0.0156021,0.0143433,0.0189209,0.0242615,-9.97986,0.0185394,-0.0031662,0.0141907,0.00679016,0.000801086,0.00228882,0.016861,0.00606537
29,9,-9.99003,0.000305176,-0.000457764,-2.42623,0.0550706,-0.0747579,0.055959,0.0560167,-0.0922309,0.146234,-0.126377,-0.0816549,0.0116348,0.0220871,0.0223923,0.0121307,0.0151443,0.0104904,0.022316,0.0221252,-9.97986,0.0157166,-0.00682831,0.0119781,0.00617981,-0.00366211,0.000534058,0.0166321,0.00640869
30,0,-9.99003,0,0.000152588,-2.42623,0.055681,-0.073232,0.0556539,0.0758531,-0.0894843,0.145624,-0.124851,-0.0831808,0.00629425,0.0267029,0.0178909,0.0130463,0.0104523,0.0114441,0.0206757,0.0133514,-9.97986,0.00999451,-0.00518799,0.012207,0.00495911,0.00976563,0.00190735,0.0146103,0.00640869
30,1,-9.17979,0,0.00198364,-2.42531,0.0550706,-0.0744527,0.0568746,0.128038,-0.0858222,0.145318,-0.12241,-0.0822652,0.0088501,0.0233459,0.0204849,0.0156403,0.0178909,0.0123596,0.0206375,0.00572205,-9.97986,0.00930786,3.8147e-005,0.0139618,0.00564575,0.0173569,0.00259399,0.0138474,0.0056076
30,2,-0.799055,0.000610352,0.00366211,-2.42745,0.0538499,-0.0762837,0.054128,0.143907,-0.0882636,0.143792,-0.121189,-0.0850118,0.00843048,0.028038,0.0185776,0.00606537,0.0183105,0.0115204,0.0195313,0.013504,-9.97986,0.0137329,-0.000839233,0.0172424,0.00354767,0.015564,0.00415802,0.0154877,0.00415802
30,3,7.01558,0,0.00442505,-2.42806,0.0544603,-0.075063,0.0532125,0.154588,-0.0903999,0.142877,-0.121494,-0.0865377,0.00934601,0.0253296,0.0166321,0.0146484,0.0160599,0.00617981,0.0214005,0.00526428,-9.97986,0.00907898,-0.0019455,0.0147247,0.00640869,0.0153732,0.00484467,0.0146103,0.00728607
30,4,10.0097,0.00183105,0.0038147,-2.43081,0.0538499,-0.0765889,0.0501607,0.125292,-0.0946723,0.142572,-0.12363,-0.0883688,0.0102234,0.0297546,0.0205994,0.00976563,0.0177765,0.00709534,0.0194168,0.0107956,-9.97986,0.0132751,0.00389099,0.0119781,0.00770569,0.0167465,0.00396729,0.0136185,0.0069046
30,5,10.0097,0,0.000915527,-2.42989,0.0529344,-0.0762837,0.0504659,0.0901964,-0.0977241,0.143182,-0.126377,-0.0883688,0.0102615,0.0246048,0.0206375,0.01091,0.0227737,0.00919342,0.0217819,0.0155258,-9.97986,0.0105667,-0.00106812,0.0141907,0.00831604,0.0172043,0.00354767,0.0172424,0.00923157
30,6,10.0097,0.000305176,-0.000457764,-2.42959,0.0532396,-0.0762837,0.0513814,0.0776842,-0.0971137,0.144098,-0.127292,-0.0886739,0.00946045,0.0246811,0.0185776,0.00812531,0.0149918,0.00907898,0.021019,0.0150299,-9.97986,0.0130081,-0.0037384,0.0136566,0.00606537,0.0121307,0.00297546,0.0133896,0.00587463
30,7,10.0097,0,0.000305176,-2.42898,0.0538499,-0.0762837,0.0526021,0.0734117,-0.0946723,0.144098,-0.125766,-0.0865377,0.0126648,0.0277328,0.0208664,0.0127792,0.018158,0.00995636,0.0206375,0.0143814,-9.97986,0.0146103,-0.000343323,0.0164032,0.00598907,0.0144958,0.00267029,0.014801,0.00499725
30,8,10.0097,0.00213623,0.000305176,-2.42745,0.0547655,-0.075063,0.0522969,0.072191,-0.0934516,0.143182,-0.126682,-0.0850118,0.00621796,0.0252914,0.0205612,0.0135422,0.0144196,0.00995636,0.018158,0.0171661,-9.97986,0.0135422,-0.00255585,0.0144196,0.00778198,0.0144196,0.0030899,0.0127029,0.00675201
30,9,10.0097,-0.000305176,-0.000152588,-2.42776,0.0550706,-0.0759786,0.0522969,0.0712755,-0.094062,0.143487,-0.126377,-0.0847066,0.00846863,0.0281525,0.0193787,0.015831,0.0201416,0.0139236,0.0250626,0.0204849,-9.97986,0.013237,-0.00331879,0.0133514,0.00629425,0.0169754,0.00526428,0.0174332,0.00652313
31,0,10.0097,-0.000305176,0.000152588,-2.42653,0.0569017,-0.0741475,0.0538228,0.07036,-0.0922309,0.144403,-0.126072,-0.0840963,0.00579834,0.0219345,0.0168991,0.0107956,0.0132751,0.00709534,0.0161743,0.0132751,-9.97986,0.0151062,-0.00499725,0.0156403,0.00282288,0.0114441,0.00102997,0.0136185,0.00514984
31,1,10.0097,0.000915527,0.000152588,-2.4247,0.0562914,-0.0747579,0.0547383,0.0718859,-0.0922309,0.146844,-0.124546,-0.0816549,0.0123596,0.0292206,0.0228882,0.0147629,0.0198746,0.0130844,0.0204849,0.0200653,-9.97986,0.0143814,-0.000152588,0.0135422,0.00789642,0.0175095,0.00110626,0.0167084,0.00427246
31,2,10.0097,0.000610352,0.000305176,-2.42684,0.0575121,-0.075063,0.054128,0.0724962,-0.0916206,0.146234,-0.124851,-0.0813497,0.00888824,0.0266647,0.0175476,0.0131607,0.0159454,0.00720978,0.0219345,0.0220871,-9.97986,0.0143433,-0.00270844,0.0180817,0.00717163,0.0145721,0.00152588,0.0146484,0.00453949
31,3,10.0097,0.00244141,0,-2.42501,0.0569017,-0.0735371,0.0532125,0.0715807,-0.0919257,0.145013,-0.122715,-0.0816549,0.00770569,0.0196457,0.0205612,0.010376,0.018158,0.0113678,0.0197983,0.0278091,-9.97986,0.0219345,-0.00617981,0.0112915,0.00453949,0.0181198,0.00419617,0.0154495,0.00705719
31,4,10.0097,0,-0.00183105,-2.42684,0.0559862,-0.0747579,0.0516866,0.0254991,-0.0968086,0.145624,-0.128513,-0.0837911,0.00709534,0.0227356,0.0184631,0.00862122,0.0168991,0.0101471,0.0230408,0.027504,-9.97986,0.0239182,-7.62939e-005,0.0152588,0.00556946,0.0169373,-0.00087738,0.0201035,0.0063324
31,5,1.12172,0,-0.00473022,-2.4244,0.0572069,-0.0744527,0.0532125,-0.00257703,-0.0971137,0.146539,-0.128818,-0.0816549,0.0146484,0.0217056,0.0193024,0.0112534,0.0131226,0.00999451,0.0223923,0.0293732,-9.97986,0.021286,-0.00175476,0.0107193,0.00896454,0.0180435,-0.000724792,0.0143433,0.00518799
31,6,-5.7368,0.000915527,-0.00411987,-2.42592,0.0562914,-0.0744527,0.0526021,-0.0153944,-0.095893,0.146234,-0.130344,-0.0813497,0.0123596,0.0265884,0.0233459,0.0088501,0.0152206,0.013504,0.0225067,0.0296783,-9.97986,0.0213623,-0.0019455,0.0112915,0.00823975,0.0156021,-0.00270844,0.0147247,0.00816345
31,7,-9.99003,-0.000305176,-0.00305176,-2.4247,0.055681,-0.0738423,0.0565694,0.0114611,-0.0925361,0.147149,-0.128513,-0.0804342,0.0117874,0.0277328,0.0209808,0.0136948,0.0185394,0.00923157,0.0237656,0.0215912,-9.97986,0.0212479,-0.000801086,0.0139999,0.00507355,0.0162506,-0.00499725,0.0152969,0.00934601
31,8,-9.99003,0.0012207,-0.00167847,-2.42562,0.0550706,-0.0744527,0.0553487,0.0386217,-0.0894843,0.146234,-0.127292,-0.0813497,0.0128174,0.0222015,0.0201416,0.0157547,0.0183868,0.0130463,0.0212479,0.0217056,-9.97986,0.0159454,0.000991821,0.00667572,0.00453949,0.00164032,-0.0025177,0.0149918,0.00801086
31,9,-9.99003,0,-0.000610352,-2.42562,0.0562914,-0.0738423,0.0547383,0.0572374,-0.090705,0.145624,-0.126682,-0.0816549,0.0102234,0.0260544,0.0217819,0.0148392,0.0120544,0.00972748,0.0239182,0.0161743,-9.97986,0.0143814,-0.00370026,0.0124741,0.0082016,-0.00179291,-0.00419617,0.0147629,0.0043869
32,0,-9.99003,0.00244141,0.000610352,-2.42623,0.0547655,-0.075063,0.0556539,0.0746324,-0.0882636,0.146539,-0.125766,-0.0825704,0.00591278,0.0214005,0.0198746,0.0113297,0.0206757,0.00816345,0.0214767,0.0129318,-9.97986,0.0112152,-0.00247955,0.0136948,0.00240326,0.0146866,-0.000495911,0.016861,0.00652313
32,1,-9.26463,0,0.00228882,-2.42623,0.0550706,-0.0747579,0.0556539,0.128649,-0.0858222,0.145929,-0.121189,-0.0825704,0.0144577,0.0206757,0.0217438,0.0108337,0.0179672,0.00900269,0.0206375,0.0112152,-9.97986,0.00919342,0.000305176,0.0148392,0.00694275,0.016098,-0.00389099,0.0178146,0.00801086
32,2,-1.00413,0.000610352,0.00289917,-2.42745,0.0538499,-0.0753682,0.0556539,0.145128,-0.0870429,0.144708,-0.121189,-0.0837911,0.0128555,0.0188828,0.0209045,0.0143051,0.0133133,0.00873566,0.022049,0.00656128,-9.97986,0.00888824,-0.000534058,0.0111008,0.00675201,0.0131607,-0.0101852,0.0153732,0.00595093
32,3,6.90969,0.000610352,0.00457764,-2.42837,0.0541551,-0.0759786,0.0529073,0.155809,-0.0891792,0.143792,-0.121799,-0.085317,0.00904083,0.0224686,0.0210953,0.0152969,0.018425,0.00831604,0.0201797,0.0132751,-9.97986,0.0112915,0.000686646,0.0146484,0.0088501,0.0137711,-0.00556946,0.015831,0.00606537
32,4,10.0097,0.00152588,0.00396729,-2.43142,0.0529344,-0.0775044,0.050771,0.125292,-0.0955879,0.143182,-0.124241,-0.0889791,0.00873566,0.0304031,0.0166321,0.0119781,0.0192642,0.0126648,0.0234222,0.0136566,-9.97986,0.0111771,-0.000228882,0.0122833,0.00843048,0.0151443,-0.00854492,0.0153351,0.00743866
32,5,10.0097,-0.000305176,0.00137329,-2.43111,0.0526292,-0.0765889,0.0501607,0.0905016,-0.0977241,0.142877,-0.126377,-0.0883688,0.0088501,0.0253677,0.0191116,0.0112915,0.0154495,0.0100708,0.0196075,0.0120544,-9.97986,0.0107574,0.00160217,0.0113297,0.00644684,0.0171661,-0.00545502,0.0153351,0.00667572
32,6,10.0097,0.00183105,0,-2.42867,0.0535448,-0.0762837,0.0504659,0.0785997,-0.095893,0.141961,-0.127292,-0.0880636,0.0111771,0.022583,0.0218201,0.0123215,0.017128,0.0138092,0.022316,0.0144577,-9.97986,0.0104523,-0.00133514,0.0135422,0.00717163,0.0168991,-0.00728607,0.0157547,0.00545502
32,7,10.0097,0.0012207,0.000152588,-2.43111,0.0547655,-0.075063,0.0526021,0.0728014,-0.0961982,0.145624,-0.125766,-0.0859274,0.013504,0.020752,0.0179291,0.0094986,0.0170898,0.0112915,0.0258636,0.0149918,-9.97986,0.0126266,-0.00160217,0.0174713,0.00751495,0.0144196,-0.012207,0.0180054,0.0112152
32,8,10.0097,-0.0012207,0.000152588,-2.42867,0.0550706,-0.0753682,0.0526021,0.072191,-0.0943672,0.144098,-0.126377,-0.0847066,0.00904083,0.0224686,0.0195313,0.00923157,0.0221252,0.00980377,0.026474,0.018158,-9.97986,0.0137711,-0.00442505,0.0179672,0.00583649,0.0131989,-0.00499725,0.0191498,0.0082016
32,9,10.0097,-0.000305176,-0.000152588,-2.42684,0.0553758,-0.075063,0.0544332,0.072191,-0.0949775,0.144403,-0.125461,-0.0850118,0.00808716,0.0201797,0.0175476,0.0101089,0.0159836,0.00770569,0.0241852,0.015831,-9.97986,0.0107193,-0.00087738,0.00930786,0.00598907,0.0131607,-0.0107956,0.0159454,0.00606537
33,0,10.0097,-0.00152588,0.000152588,-2.42714,0.055681,-0.0744527,0.0538228,0.0706652,-0.0943672,0.146234,-0.126682,-0.0844015,0.0111771,0.0214005,0.018158,0.0159454,0.0218582,0.0125885,0.0236511,0.0152969,-9.97986,0.0179291,-0.00514984,0.0136948,0.00282288,0.0143814,-0.0104904,0.0141907,0.00770569
33,1,10.0097,0.000305176,0.000152588,-2.42531,0.0569017,-0.0738423,0.0550435,0.0712755,-0.0913154,0.145929,-0.125461,-0.0828756,0.0109863,0.0193787,0.0177765,0.0141144,0.0195313,0.0117111,0.0233841,0.0117111,-9.97986,0.0167847,0.00118256,0.0154114,0.00995636,0.0157928,-0.0127029,0.0180435,0.00797272
33,2,10.0097,-0.000610352,0.000305176,-2.4247,0.0569017,-0.0744527,0.0547383,0.0715807,-0.0913154,0.146844,-0.124546,-0.0822652,0.0126266,0.0178909,0.0242615,0.0130463,0.0169754,0.00999451,0.02285,0.0179672,-9.97986,0.0176239,-0.00301361,0.0150299,0.00736237,0.014801,-0.0138855,0.0153351,0.00404358
33,3,10.0097,0.000915527,0,-2.42531,0.0562914,-0.0729268,0.0538228,0.0709703,-0.0916206,0.146539,-0.124241,-0.0804342,0.0128937,0.0214005,0.0193024,0.00915527,0.0197983,0.0128555,0.0246048,0.0270462,-9.97986,0.0167465,-0.00152588,0.0144958,0.0050354,0.0125122,-0.0177383,0.014267,0.00671387
33,4,9.90926,-0.000305176,-0.00198364,-2.42714,0.0553758,-0.0744527,0.0516866,0.0224474,-0.0980293,0.145929,-0.128513,-0.0828756,0.0169373,0.022583,0.0242996,0.0146484,0.0212479,0.0144196,0.027771,0.030098,-9.97986,0.0246429,-0.00144958,0.0142288,0.00766754,0.0147247,-0.0162888,0.0167847,0.00854492
33,5,0.904131,0.000915527,-0.00457764,-2.42653,0.0562914,-0.0741475,0.0553487,-0.00227185,-0.0968086,0.147149,-0.129734,-0.0819601,0.0111008,0.0203323,0.0169373,0.0094223,0.0165939,0.00858307,0.0243759,0.0263596,-9.97986,0.0202179,-0.00598907,0.0147247,0.0056839,0.016861,-0.0181198,0.01297,0.00797272
33,6,-5.92357,-0.00152588,-0.00411987,-2.42562,0.0562914,-0.0747579,0.0538228,-0.0144789,-0.0971137,0.146539,-0.129734,-0.0819601,0.0147247,0.0205612,0.022049,0.0170135,0.018158,0.00988007,0.0250244,0.0247192,-9.97986,0.0166702,-0.0019455,0.0142288,0.0044632,0.0174713,-0.0192642,0.0114822,0.00659943
33,7,-9.99003,0.000610352,-0.00350952,-2.42501,0.0565965,-0.0738423,0.0538228,0.00993518,-0.0928413,0.146844,-0.128208,-0.0810445,0.01091,0.0175476,0.0178909,0.00766754,0.0146484,0.00904083,0.023613,0.0201797,-9.97986,0.0201797,0.00133514,0.015564,0.0105286,0.0212479,-0.0167847,0.0125885,0.0094986
33,8,-9.99003,-0.000305176,-0.00228882,-2.4244,0.0547655,-0.073232,0.0556539,0.0383165,-0.0913154,0.145318,-0.126987,-0.0816549,0.00694275,0.0203705,0.0206375,0.0113297,0.0200272,0.0121307,0.0241852,0.018425,-9.97986,0.0222015,-0.00236511,0.0127029,0.0043869,-0.000267029,-0.0165558,0.0153351,0.00358582
33,9,-9.99003,-0.000915527,-0.000762939,-2.42531,0.0550706,-0.0759786,0.0568746,0.0560167,-0.0903999,0.145013,-0.127292,-0.0825704,0.0128937,0.0236893,0.0205231,0.0111771,0.0175095,0.00965118,0.0217819,0.0151062,-9.97986,0.0146103,-0.0018692,0.0174713,0.00362396,-0.00839233,-0.0120163,0.0125504,0.00968933
34,0,-9.99003,0.000915527,0.000457764,-2.42623,0.0559862,-0.0738423,0.0565694,0.0749376,-0.0900947,0.146234,-0.125766,-0.0831808,0.00930786,0.0193787,0.0225067,0.00915527,0.0115585,0.00614166,0.0248718,0.00831604,-9.97986,0.0094223,-0.00385284,0.0142288,0.0101471,0.00328064,-0.0136948,0.0119019,0.0056076
34,1,-9.25029,0.00213623,0.00259399,-2.42592,0.0544603,-0.0747579,0.0562642,0.129869,-0.0839912,0.145013,-0.121799,-0.0819601,0.0107193,0.0203705,0.0174713,0.00911713,0.0153351,0.00583649,0.0190735,0.0101852,-9.97986,0.0120926,-0.00102997,0.0135803,0.00659943,0.0127411,-0.0126266,0.0156021,0.00400543
34,2,-0.91258,0.000610352,0.00350952,-2.42745,0.0532396,-0.075063,0.054128,0.144823,-0.0882636,0.144403,-0.121799,-0.0840963,0.0107193,0.0233841,0.0186157,0.0106812,0.0146866,0.00793457,0.0239944,0.00804901,-9.97986,0.00965118,-0.000648499,0.0163651,0.0037384,0.0152588,-0.0123978,0.0157928,0.00343323
34,3,6.98964,0.0012207,0.0050354,-2.42867,0.0538499,-0.0756734,0.0550435,0.153368,-0.088874,0.143792,-0.122104,-0.0856222,0.0111389,0.021286,0.0237274,0.0108719,0.0144958,0.00720978,0.0200272,0.00595093,-9.97986,0.0110626,0.000114441,0.0160599,0.00972748,0.0184631,-0.0056839,0.0178146,0.00686646
34,4,10.0097,0.00183105,0.00320435,-2.43142,0.0535448,-0.0762837,0.0498555,0.125597,-0.0949775,0.141961,-0.124851,-0.0889791,0.0156403,0.0178909,0.0203705,0.0118637,0.0125122,0.00782013,0.0250626,0.014534,-9.97986,0.0112152,-0.00400543,0.0128937,0.00850677,0.0137329,-0.00991821,0.0152588,0.00507355
34,5,10.0097,0.00152588,0.000915527,-2.4305,0.0547655,-0.0762837,0.0498555,0.0901964,-0.0977241,0.142877,-0.125766,-0.0889791,0.0069809,0.0211334,0.0205231,0.0082016,0.0177383,0.0082016,0.0197601,0.0125885,-9.97986,0.01091,-0.00530243,0.0188446,0.00423431,0.0109482,-0.00495911,0.0172043,0.0038147
34,6,10.0097,0.000305176,0.000152588,-2.42837,0.0541551,-0.0768941,0.0501607,0.0776842,-0.095893,0.142572,-0.126682,-0.0874532,0.0111771,0.022583,0.0230408,0.0126266,0.0202179,0.00919342,0.0226212,0.0152969,-9.97986,0.0127792,0.001297,0.015564,0.00831604,0.0157547,-0.00545502,0.0135803,0.00408173
34,7,10.0097,0.00152588,0.000305176,-2.42928,0.0544603,-0.0753682,0.0529073,0.0740221,-0.094062,0.144403,-0.126682,-0.0871481,0.0130463,0.0231171,0.0208664,0.0109482,0.0168991,0.00793457,0.020752,0.0146866,-9.97986,0.0103378,0.000534058,0.0131226,0.00434875,0.018158,-0.00656128,0.0155258,0.00579834
34,8,10.0097,0.0012207,0,-2.42806,0.0550706,-0.0747579,0.0532125,0.072191,-0.0937568,0.144403,-0.126072,-0.0850118,0.00968933,0.0239563,0.0214767,0.0140381,0.0153732,0.0137329,0.0243378,0.0185013,-9.97986,0.0126648,0.000267029,0.0121307,0.00453949,0.0183868,-0.00221252,0.0168228,0.00732422
34,9,10.0097,0.0012207,0.000305176,-2.42745,0.0550706,-0.0744527,0.0538228,0.0715807,-0.0928413,0.144403,-0.126682,-0.0847066,0.00988007,0.0217056,0.0198746,0.0108337,0.0196457,0.00926971,0.0210571,0.0151062,-9.97986,0.0190735,0.00164032,0.0135803,0.00831604,0.014267,-0.00797272,0.0172806,0.00766754
35,0,10.0097,0.000305176,0.000152588,-2.42714,0.0538499,-0.0744527,0.0532125,0.07036,-0.0931465,0.144403,-0.125156,-0.0840963,0.0117493,0.0208282,0.0208282,0.00797272,0.0149155,0.00717163,0.0214386,0.0187683,-9.97986,0.00976563,-0.00492096,0.0149536,0.00293732,0.0153351,-0.00492096,0.0152588,0.00507355
35,1,10.0097,-0.000305176,0.00152588,-2.42623,0.0565965,-0.0741475,0.0535176,0.0709703,-0.0910102,0.145624,-0.12363,-0.0813497,0.0124741,0.0241852,0.0201416,0.0157928,0.0170135,0.0075531,0.0242615,0.0211716,-9.97986,0.0181961,0.00144958,0.0178909,0.00724792,0.0191116,-0.00339508,0.0143814,0.00663757
35,2,10.0097,0.000305176,0,-2.42531,0.0565965,-0.0735371,0.0535176,0.0712755,-0.0925361,0.146539,-0.124546,-0.0810445,0.0123215,0.0229263,0.0155258,0.0102997,0.0178909,0.00778198,0.0181961,0.0240326,-9.97986,0.0135422,0.000267029,0.0132751,0.0056076,0.0212479,0,0.0175476,0.00732422
35,3,10.0097,0,0,-2.42531,0.0569017,-0.0744527,0.0550435,0.0718859,-0.0913154,0.146234,-0.124851,-0.0810445,0.0147629,0.021553,0.0201797,0.00965118,0.0187683,0.00782013,0.0257874,0.0268173,-9.97986,0.0206757,-0.000839233,0.0128555,0.00328064,0.0166321,-0.00385284,0.0160217,0.00831604
35,4,10.0097,-0.000610352,-0.00198364,-2.42623,0.055681,-0.0747579,0.0526021,0.0248888,-0.0977241,0.145318,-0.128208,-0.0834859,0.0138092,0.021553,0.0185394,0.0109482,0.0161362,0.010376,0.021553,0.0291443,-9.97986,0.0237656,-0.00209808,0.013504,0.00892639,0.0159836,0.00038147,0.0132751,0.00709534
35,5,1.11501,0.000610352,-0.0050354,-2.42562,0.0581224,-0.075063,0.0535176,-0.00349256,-0.0974189,0.147455,-0.129429,-0.0825704,0.0113678,0.0275803,0.0171661,0.00953674,0.0203705,0.00999451,0.0236511,0.028801,-9.97986,0.0196075,-0.00572205,0.0168991,0.00411987,0.0218582,-0.00274658,0.0160599,0.0056839
35,6,-5.78074,0,-0.00442505,-2.42592,0.0562914,-0.0744527,0.0544332,-0.0160048,-0.0968086,0.146234,-0.130039,-0.0822652,0.00953674,0.0253677,0.0211334,0.0111389,0.0189209,0.0139236,0.0177383,0.0232697,-9.97986,0.0244141,-0.000686646,0.0151825,0.00614166,0.0201035,0.000572205,0.0172043,0.00892639
35,7,-9.99003,0.000915527,-0.00259399,-2.42531,0.0565965,-0.073232,0.0553487,0.0102404,-0.0934516,0.146234,-0.128513,-0.0813497,0.0115204,0.0278473,0.019989,0.0159073,0.0137329,0.0120926,0.0217056,0.0224304,-9.97986,0.0197983,0.000495911,0.0132751,0.00968933,0.0174332,0.00255585,0.0168228,0.00858307
35,8,-9.99003,0.000610352,-0.00198364,-2.42623,0.0550706,-0.0747579,0.055959,0.0398424,-0.0900947,0.146234,-0.126987,-0.0807394,0.0106812,0.0226593,0.0208282,0.01091,0.0214767,0.00938416,0.0219727,0.0226974,-9.97986,0.0196838,0.0025177,0.0136948,0.00579834,0.00221252,7.62939e-005,0.0191879,0.00762939
35,9,-9.99003,0.00152588,-0.000610352,-2.42684,0.0553758,-0.0756734,0.0550435,0.0575426,-0.0897895,0.145929,-0.126072,-0.0816549,0.00671387,0.017395,0.0224686,0.0120926,0.0201797,0.00679016,0.0202942,0.0183487,-9.97986,0.0146866,-0.000648499,0.0158691,0.00621796,-0.00396729,-0.000152588,0.0177383,0.00652313
36,0,-9.99003,0.0012207,0.000152588,-2.42531,0.0532396,-0.075063,0.0550435,0.0770738,-0.0885688,0.145929,-0.124851,-0.0819601,0.0094223,0.0181961,0.019989,0.0116348,0.0149536,0.0100327,0.0224686,0.0172806,-9.97986,0.00797272,-0.000152588,0.0141144,0.00663757,0.0131226,0.00144958,0.0174713,0.00637054
36,1,-9.0861,0.00183105,0.00228882,-2.42592,0.0550706,-0.0747579,0.0553487,0.130174,-0.0846015,0.145929,-0.120578,-0.0819601,0.0117874,0.0216675,0.0234222,0.00961304,0.0133133,0.00831604,0.0203323,0.012207,-9.97986,0.00904083,-0.00274658,0.0152206,0.0094986,0.0203323,0.00476837,0.018692,0.00617981
36,2,-0.792036,0.000610352,0.00335693,-2.42714,0.0532396,-0.075063,0.0544332,0.144823,-0.0879585,0.143792,-0.121494,-0.0837911,0.0113678,0.0185394,0.0209808,0.0109863,0.0170517,0.00900269,0.0212097,0.00972748,-9.97986,0.00686646,-0.00823975,0.0160217,0.00675201,0.0146484,0.00411987,0.0154877,0.00339508
36,3,7.1288,-0.000305176,0.00488281,-2.42806,0.0550706,-0.075063,0.0547383,0.154588,-0.0885688,0.145013,-0.121494,-0.085317,0.011673,0.0237274,0.0195313,0.00919342,0.020752,0.0122452,0.0241089,0.0069046,-9.97986,0.0112534,-0.00591278,0.0177383,0.00717163,0.0173187,0.000839233,0.0163269,0.00335693
36,4,10.0097,0.000305176,0.0038147,-2.42959,0.0529344,-0.0771993,0.0510762,0.124071,-0.0955879,0.143792,-0.124241,-0.0880636,0.00812531,0.0228119,0.021286,0.0113297,0.0187302,0.00938416,0.0208664,0.0106812,-9.97986,0.0119019,-0.00225067,0.0121307,0.00946045,0.0143433,0.00541687,0.0160599,0.00183105
36,5,10.0097,0.00152588,0.0012207,-2.43111,0.0535448,-0.0759786,0.0513814,0.0901964,-0.0968086,0.143487,-0.126072,-0.0883688,0.0107193,0.0222778,0.0177383,0.0138855,0.0180817,0.0125504,0.0233078,0.0164413,-9.97986,0.00869751,-0.000953674,0.0166321,0.00324249,0.016098,0.00385284,0.0145721,0.00717163
36,6,10.0097,0,0.000152588,-2.42959,0.0529344,-0.0759786,0.0501607,0.0779894,-0.0965034,0.144098,-0.127292,-0.0883688,0.0109482,0.0239944,0.0165939,0.0111771,0.0175858,0.010643,0.020256,0.0149918,-9.97986,0.0119781,-0.000343323,0.0161743,0.00946045,0.0170135,0.00102997,0.0162125,0.0063324
36,7,10.0097,0,0.000457764,-2.42867,0.0538499,-0.0756734,0.0535176,0.0734117,-0.0949775,0.144098,-0.125461,-0.0859274,0.00965118,0.0248718,0.0217056,0.0115585,0.0190353,0.0117111,0.0244141,0.015831,-9.97986,0.0127792,0.000915527,0.00862122,0.0100327,0.0136566,0.00087738,0.0147629,0.00179291
36,8,10.0097,0,-0.000305176,-2.42806,0.0547655,-0.0753682,0.0535176,0.072191,-0.0937568,0.145318,-0.126072,-0.085317,0.0123596,0.0207138,0.019455,0.0133896,0.0224304,0.00839233,0.0238037,0.0193787,-9.97986,0.0166321,-7.62939e-005,0.0101852,0.00804901,0.0205994,0.000228882,0.0172043,0.00465393
36,9,10.0097,-0.000610352,0,-2.42837,0.0547655,-0.0747579,0.0544332,0.0709703,-0.0925361,0.144098,-0.125461,-0.0844015,0.0101089,0.0218964,0.0173187,0.00907898,0.0172043,0.0101471,0.0196457,0.0170517,-9.97986,0.0127411,-0.00297546,0.0160599,0.00621796,0.0163269,-0.00118256,0.0187302,0.00728607
37,0,10.0097,0.000305176,0.000152588,-2.42745,0.0550706,-0.075063,0.054128,0.0709703,-0.0931465,0.144098,-0.126377,-0.0847066,0.0128937,0.0247192,0.0196457,0.0109863,0.0201416,0.0117111,0.0230026,0.0198364,-9.97986,0.01091,-0.00167847,0.0172043,0.00930786,0.0191498,-0.00171661,0.0192642,0.00907898
37,1,10.0097,-0.000305176,0.000305176,-2.42592,0.055681,-0.0735371,0.054128,0.0712755,-0.0910102,0.146844,-0.124241,-0.0816549,0.0111771,0.0254822,0.0203705,0.0127411,0.0143814,0.010376,0.0192642,0.0201035,-9.97986,0.0161362,-0.00205994,0.0138855,0.00965118,0.0174713,0.000343323,0.0193787,0.00392914
37,2,10.0097,-0.000305176,0,-2.42562,0.0559862,-0.0744527,0.054128,0.0724962,-0.0919257,0.145318,-0.124241,-0.0813497,0.0127411,0.0187683,0.0202942,0.00965118,0.0143814,0.00984192,0.0216675,0.0199127,-9.97986,0.0151825,-0.0030899,0.0143433,0.00598907,0.0218582,0.00133514,0.013504,0.00556946
37,3,10.0097,0.000610352,-0.000152588,-2.42379,0.0578172,-0.0741475,0.0544332,0.072191,-0.0922309,0.148675,-0.123935,-0.0810445,0.0127029,0.0277328,0.0226593,0.0117874,0.0138092,0.00896454,0.0194931,0.0240326,-9.97986,0.0174332,0.000305176,0.0143051,0.00900269,0.0199509,0.000190735,0.0189209,0.00644684
37,4,9.82717,-0.000305176,-0.00183105,-2.42684,0.0562914,-0.0744527,0.0529073,0.0209215,-0.0977241,0.145318,-0.128513,-0.0828756,0.0144196,0.0231552,0.0189972,0.00873566,0.0185394,0.0122833,0.0244141,0.0243378,-9.97986,0.0237274,-0.00198364,0.0150299,0.00614166,0.0169373,0.000610352,0.020256,0.00598907
37,5,0.953875,-0.00213623,-0.00488281,-2.42592,0.0569017,-0.0744527,0.0553487,-0.00440808,-0.0974189,0.147149,-0.128513,-0.0822652,0.014267,0.020752,0.0220871,0.0106049,0.0167465,0.0104904,0.0173569,0.0253677,-9.97986,0.0201797,-0.00038147,0.0136566,0.00827789,0.018959,0.000305176,0.0157166,0.00907898
37,6,-6.02244,0.000610352,-0.00457764,-2.42562,0.0569017,-0.0738423,0.0547383,-0.0147841,-0.095893,0.146844,-0.131565,-0.0816549,0.0131226,0.0214005,0.0174713,0.0121689,0.0144577,0.0119019,0.0239563,0.0212097,-9.97986,0.0210953,-0.000610352,0.01297,0.00583649,0.0196457,0.001297,0.0161743,0.00637054
37,7,-9.99003,0.000305176,-0.00305176,-2.42592,0.0553758,-0.0735371,0.0553487,0.00963,-0.0928413,0.147455,-0.127903,-0.0798238,0.00839233,0.0252533,0.0204849,0.0142288,0.0152969,0.00881195,0.0185013,0.021286,-9.97986,0.0204086,-0.00148773,0.0139618,0.00736237,0.0185013,0.00164032,0.0141525,0.00644684
37,8,-9.99003,0.000915527,-0.00213623,-2.42562,0.0562914,-0.0741475,0.0556539,0.0380113,-0.090705,0.145013,-0.126682,-0.0804342,0.0117111,0.0244141,0.0209808,0.01297,0.0182343,0.0102997,0.0214386,0.0165939,-9.97986,0.0175858,-0.00396729,0.0134659,0.00850677,-0.00320435,0.000534058,0.0121689,0.00858307
37,9,-9.99003,-0.000305176,-0.000457764,-2.42562,0.0541551,-0.0747579,0.0550435,0.0560167,-0.090705,0.145013,-0.124851,-0.0819601,0.0127411,0.0247192,0.0195694,0.014801,0.0158691,0.0109482,0.0212097,0.0152588,-9.97986,0.00965118,0.000839233,0.0136566,0.00644684,-0.00614166,0.00686646,0.0150299,0.00602722
38,0,-9.99003,0.000610352,0.000152588,-2.42501,0.0550706,-0.075063,0.0550435,0.0752428,-0.0900947,0.144708,-0.125766,-0.0822652,0.00839233,0.0228882,0.0233078,0.0112152,0.0143051,0.00915527,0.0243759,0.0149918,-9.97986,0.0127029,-0.00133514,0.0136566,0.00812531,0.00816345,0.00499725,0.0182724,0.00724792
38,1,-9.46055,0,0.00259399,-2.42562,0.0544603,-0.0756734,0.0568746,0.128649,-0.0852119,0.145624,-0.121494,-0.0822652,0.00595093,0.0199127,0.0207901,0.0107956,0.0135422,0.0147247,0.0185394,0.00984192,-9.97986,0.00892639,-0.00232697,0.0148392,0.00576019,0.0130081,0.00144958,0.0195694,0.00713348
38,2,-1.11949,0.000610352,0.00366211,-2.42745,0.0550706,-0.0747579,0.0538228,0.143907,-0.0879585,0.144708,-0.120884,-0.0850118,0.00743866,0.0225067,0.0206757,0.0148392,0.0186157,0.00816345,0.0219345,0.00896454,-9.97986,0.00797272,-0.00274658,0.014267,0.00724792,0.015564,0.000343323,0.0156021,0.00564575
38,3,6.6985,-0.000610352,0.00442505,-2.42806,0.0532396,-0.0759786,0.0532125,0.155199,-0.0897895,0.143182,-0.120273,-0.085317,0.00751495,0.0283813,0.0207138,0.0121307,0.0185776,0.00720978,0.0193787,0.00606537,-9.97986,0.0104904,-0.00423431,0.0137329,0.00289917,0.010376,-0.000419617,0.0179672,0.00465393
38,4,10.0097,-0.000915527,0.00427246,-2.4305,0.0535448,-0.0771993,0.0516866,0.125902,-0.095893,0.143182,-0.124241,-0.0880636,0.00953674,0.0267029,0.0219345,0.0118637,0.0154877,0.0110245,0.0175858,0.0105286,-9.97986,0.0122452,0.00179291,0.0144196,0.00545502,0.0146484,-0.000267029,0.0206375,0.00846863
38,5,10.0097,0.000305176,0.000610352,-2.43111,0.0532396,-0.0762837,0.0501607,0.0908068,-0.0968086,0.141351,-0.126072,-0.0889791,0.0104141,0.0226593,0.0152588,0.00858307,0.0118637,0.00919342,0.0162125,0.0161743,-9.97986,0.0121307,0.00110626,0.0160599,0.00408173,0.0151825,0.00225067,0.0162506,0.00556946
38,6,10.0097,0,0.000305176,-2.43081,0.0544603,-0.075063,0.0516866,0.0795153,-0.0961982,0.143487,-0.126682,-0.0877584,0.00835419,0.0249481,0.020256,0.0101852,0.0162125,0.00835419,0.0211716,0.0164413,-9.97986,0.0109863,-0.00389099,0.0113297,0.00556946,0.0171661,0.00125885,0.0149918,0.00377655
38,7,10.0097,0.000915527,0.000152588,-2.42806,0.0541551,-0.075063,0.0529073,0.072191,-0.0961982,0.144098,-0.125766,-0.0871481,0.0075531,0.0207901,0.0216293,0.0146866,0.0209808,0.00999451,0.022316,0.0164413,-9.97986,0.0164795,0.00125885,0.0164413,0.00968933,0.0139618,-0.000839233,0.0157928,0.00923157
38,8,10.0097,0.000915527,0,-2.42714,0.0553758,-0.0756734,0.0522969,0.0731066,-0.0937568,0.144098,-0.126987,-0.0856222,0.00858307,0.0285721,0.0158691,0.0147629,0.0189972,0.012207,0.0187683,0.0169754,-9.97986,0.0156784,0.000648499,0.0143433,0.0106049,0.0162506,-0.00102997,0.0189209,0.00617981
38,9,10.0097,0.000305176,0.000152588,-2.42745,0.0562914,-0.0756734,0.0526021,0.0728014,-0.0925361,0.145318,-0.126377,-0.0844015,0.00907898,0.0252151,0.0209808,0.0144958,0.0173187,0.0112915,0.0225449,0.0224304,-9.97986,0.0094986,-0.00717163,0.0178146,0.00782013,0.0168991,-0.00221252,0.0212097,0.00404358
39,0,10.0097,0,0,-2.42745,0.0547655,-0.0744527,0.0532125,0.0694445,-0.0937568,0.145318,-0.125156,-0.0837911,0.0139236,0.0242615,0.0196457,0.0127411,0.0164413,0.00598907,0.0217819,0.0147247,-9.97986,0.0188065,-0.00339508,0.0185394,0.00976563,0.0143433,-0.00198364,0.017662,0.00694275
39,1,10.0097,0,0.000610352,-2.42592,0.0565965,-0.0738423,0.0553487,0.072191,-0.0922309,0.145624,-0.124546,-0.0828756,0.0118637,0.026207,0.0207138,0.0119019,0.0177002,0.0111771,0.019989,0.0191498,-9.97986,0.0143051,-0.000152588,0.0131226,0.00595093,0.0123215,-3.8147e-005,0.0193787,0.00617981
39,2,10.0097,0.000915527,0,-2.4247,0.0562914,-0.0741475,0.0547383,0.07036,-0.0928413,0.146844,-0.124241,-0.0810445,0.0130844,0.0244904,0.0202179,0.0127792,0.019722,0.0137329,0.0232315,0.018959,-9.97986,0.016861,-0.00152588,0.0108337,0.00984192,0.0178146,-0.000152588,0.0200272,0.00682831
39,3,10.0097,-0.000610352,-0.000152588,-2.42653,0.0559862,-0.0738423,0.0550435,0.07036,-0.0919257,0.146539,-0.124241,-0.0813497,0.00999451,0.0234604,0.0208282,0.0069809,0.0173569,0.0107574,0.0218582,0.0240707,-9.97986,0.0164032,-0.00617981,0.0152206,0.00511169,0.0177002,0.00106812,0.0173569,0.00629425
39,4,10.0097,-0.000305176,-0.00198364,-2.42684,0.0565965,-0.0747579,0.0529073,0.0236681,-0.0980293,0.146234,-0.127292,-0.0837911,0.0135803,0.0208282,0.018959,0.0138092,0.0157166,0.0105286,0.0198746,0.0277328,-9.97986,0.0193024,-0.00331879,0.0133896,0.00335693,0.0190735,-0.00343323,0.0172806,0.0056076
39,5,1.00209,0.000610352,-0.00411987,-2.42501,0.0565965,-0.0726216,0.0538228,-0.00379773,-0.0965034,0.144708,-0.129123,-0.0813497,0.0167465,0.0223541,0.0194931,0.0137711,0.0170898,0.0118256,0.0275421,0.0273895,-9.97986,0.0240707,-0.00366211,0.0188828,0.00522614,0.0200272,-0.00179291,0.0141525,0.00972748
39,6,-5.88878,0,-0.00457764,-2.42409,0.0559862,-0.0744527,0.0550435,-0.0144789,-0.095893,0.148065,-0.130039,-0.0822652,0.00656128,0.02388,0.0218964,0.0130844,0.0213242,0.0133514,0.0217438,0.0234985,-9.97986,0.0226593,-0.00167847,0.0158691,0.00366211,0.0172424,-0.00263214,0.0152206,0.00556946
39,7,-9.99003,0.000610352,-0.00305176,-2.42409,0.055681,-0.0741475,0.055959,0.0102404,-0.094062,0.147149,-0.128513,-0.0804342,0.0121307,0.0214386,0.0205994,0.0150681,0.0187683,0.00919342,0.0219345,0.0215149,-9.97986,0.0198364,0.000114441,0.0166321,0.00919342,0.0138855,-0.001297,0.0165176,0.00797272
39,8,-9.99003,0.00244141,-0.00198364,-2.42562,0.0559862,-0.0741475,0.0553487,0.0389269,-0.0910102,0.145318,-0.126377,-0.0804342,0.0119019,0.0236511,0.022583,0.0138474,0.0169754,0.0129318,0.0229645,0.0225449,-9.97986,0.0185013,-0.00377655,0.0149918,0.00419617,0.00457764,-0.000991821,0.0152588,0.00572205
39,9,-9.99003,-0.000915527,-0.000457764,-2.42592,0.0565965,-0.075063,0.054128,0.0554064,-0.090705,0.144708,-0.126377,-0.0825704,0.00713348,0.026207,0.0213623,0.0109482,0.0179291,0.0167084,0.0246048,0.0160599,-9.97986,0.0133133,0.000686646,0.0167465,0.00644684,-0.00499725,-0.00255585,0.0174332,0.00545502
40,0,-9.99003,-0.000610352,0.000152588,-2.42531,0.0559862,-0.075063,0.0565694,0.0752428,-0.0891792,0.145013,-0.124851,-0.0831808,0.00881195,0.0206757,0.0206375,0.0111771,0.0177002,0.0134277,0.0195313,0.0110626,-9.97986,0.00843048,-0.00114441,0.0150681,0.00598907,0.018158,0.000114441,0.0179291,0.00671387
40,1,-9.12333,0.000915527,0.00259399,-2.42531,0.0550706,-0.075063,0.0556539,0.127428,-0.0861274,0.145318,-0.121189,-0.0822652,0.00305176,0.0253677,0.0206757,0.0156403,0.0126648,0.0166702,0.0208282,0.00892639,-9.97986,0.0109863,-0.00179291,0.0146103,0.00328064,0.017128,-0.000114441,0.0177002,0.0063324
40,2,-0.914716,-0.000915527,0.00396729,-2.42684,0.0547655,-0.0768941,0.054128,0.144213,-0.0876533,0.146234,-0.121494,-0.0840963,0.00789642,0.0227356,0.0228882,0.013237,0.0143051,0.00827789,0.0236893,0.01091,-9.97986,0.0108719,0.000991821,0.015831,0.00862122,0.0162506,0.00156403,0.0205231,0.00873566
40,3,6.95088,-0.000915527,0.00442505,-2.42898,0.0538499,-0.0753682,0.0532125,0.153368,-0.0882636,0.143792,-0.121494,-0.085317,0.00911713,0.0220871,0.0214386,0.0136185,0.0164413,0.0143814,0.0225449,0.0106812,-9.97986,0.0094986,0.00133514,0.0214386,0.0087738,0.0162125,-0.00141144,0.0188828,0.00717163
40,4,10.0097,-0.00366211,0.0038147,-2.4305,0.0526292,-0.0768941,0.050771,0.125597,-0.0955879,0.143792,-0.125156,-0.0874532,0.00801086,0.0257874,0.019989,0.00965118,0.0193024,0.0102997,0.0224304,0.0102615,-9.97986,0.0122833,-0.000534058,0.0160217,0.00705719,0.0152206,-0.00175476,0.0151443,0.00354767
40,5,10.0097,-0.000305176,0.00106812,-2.43111,0.0526292,-0.0765889,0.0498555,0.0892809,-0.0974189,0.142877,-0.126377,-0.0874532,0.0102997,0.0253677,0.0233459,0.0101089,0.0160599,0.0124741,0.0251389,0.015564,-9.97986,0.00972748,0.00179291,0.0179672,0.00614166,0.0179291,0.00118256,0.0190735,0.0075531
40,6,10.0097,0.000610352,-0.000457764,-2.4305,0.0535448,-0.075063,0.0504659,0.0792101,-0.0977241,0.142572,-0.125766,-0.0880636,0.00907898,0.0213242,0.0179672,0.0109863,0.0144196,0.0104523,0.0227356,0.0145721,-9.97986,0.015831,0.00198364,0.0144577,0.00701904,0.0187302,-0.000267029,0.0176239,0.00652313
