
Devices
1200
,,BP Load cell - Voltage,String Length - Voltage,Clutch Active - Voltage,#7 iPecs - Voltage,,,,,,,,,EMG 1-8 Left - Voltage,,,,,,,,Pylon Force - Voltage,EMG 9-16 Right - Voltage,,,,,,,,
Frame,Sub Frame,BP Load Cell,String Length,From Arduino Logic,A45,A135,A225,A315,S0,S90,S180,S270,ZSum,EMG 1 Glut Max,EMG 2 Glut Med,EMG 3 Biceps Femoris Long,EMG 4 Rectus Femoris,EMG 5 Vastus Medialis,EMG 6 Tib Ant,EMG 7 Med Gas,EMG 8 Soleus,Pylon volts,EMG 9 Glut Max,EMG 10 Glut Med,EMG 11 Biceps Femoris Long,EMG 12 Rectus Femoris,EMG 13 Vastus Medialis,EMG 14 Tib Ant,EMG 15 Med Gas,EMG 16 Soleus
,,V,V,V,V,V,V,V,V,V,V,V,V,V,V,V,V,V,V,V,V,V,V,V,V,V,V,V,V,V
1,0,-7.3997,0.000610352,-0.00534058,-2.42592,0.0569017,-0.0723164,0.0544332,-0.0160048,-0.0977241,0.147455,-0.130954,-0.0825704,0.00713348,0.0203323,0.0168991,0.010643,0.0216675,0.0117493,0.0205231,0.0226593,-9.97986,0.0202179,0.000114441,0.0152588,0.00564575,0.016861,-0.00522614,0.017395,0.00728607
1,1,-9.99003,-0.000305176,-0.00350952,-2.42409,0.0562914,-0.0741475,0.0553487,0.0175646,-0.0916206,0.147455,-0.128818,-0.080129,0.0131226,0.0254822,0.0191116,0.0101471,0.0194931,0.0110626,0.0249481,0.0216293,-9.97986,0.0180054,0.000648499,0.016098,0.00728607,0.0181961,-0.00450134,0.0164795,0.00431061
1,2,-9.99003,-0.000305176,-0.00106812,-2.42531,0.055681,-0.0744527,0.055959,0.0431993,-0.090705,0.145318,-0.127292,-0.0810445,0.00881195,0.0230408,0.0186539,0.012207,0.0200653,0.00881195,0.0217438,0.0193024,-9.97986,0.017395,-0.00148773,0.0108719,0.010643,-0.00984192,-0.00274658,0.0176239,0.00740051
1,3,-9.99003,-0.00183105,-0.000457764,-2.4247,0.055681,-0.0744527,0.0550435,0.058153,-0.0913154,0.144708,-0.126377,-0.0819601,0.00980377,0.020752,0.020752,0.0112915,0.0151443,0.00774384,0.0252914,0.0102234,-9.97986,0.0119781,-0.00213623,0.0172424,0.00934601,-0.0044632,-0.00370026,0.0154495,0.00530243
1,4,-9.99003,0.00305176,0.000610352,-2.42684,0.055681,-0.075063,0.0562642,0.0853136,-0.0882636,0.145929,-0.124851,-0.0813497,0.00995636,0.0223923,0.0206757,0.00888824,0.0157547,0.00968933,0.0204468,0.0135422,-9.97986,0.0114441,0.000839233,0.0138855,0.0117493,0.0174332,-0.000724792,0.0195694,0.00350952
1,5,-7.69328,0.00152588,0.00335693,-2.42562,0.0547655,-0.075063,0.0568746,0.138414,-0.0842964,0.145624,-0.121189,-0.0822652,0.01194,0.0223541,0.0164795,0.01297,0.0213242,0.0110245,0.018158,0.00846863,-9.97986,0.00835419,-0.00335693,0.0124741,0.00896454,0.0158691,-0.00579834,0.0169373,0.00289917
1,6,0.176592,0.000305176,0.00442505,-2.42714,0.0541551,-0.075063,0.0544332,0.150316,-0.0885688,0.144403,-0.121189,-0.0850118,0.0143051,0.0240707,0.0202942,0.0117493,0.0164795,0.012207,0.0219727,0.00892639,-9.97986,0.00766754,-0.000801086,0.0142288,0.00980377,0.016861,-0.00362396,0.0204849,0.00553131
1,7,8.23567,0.0012207,0.00442505,-2.42837,0.0535448,-0.0768941,0.0529073,0.154283,-0.0910102,0.144708,-0.122104,-0.085317,0.00984192,0.0260162,0.0167847,0.0143433,0.017662,0.011673,0.0200653,0.00514984,-9.97986,0.00881195,-0.000534058,0.015831,0.00450134,0.0220108,-0.00514984,0.0188446,0.00518799
1,8,10.0097,-0.000305176,0.00320435,-2.43142,0.0535448,-0.0771993,0.0495503,0.116136,-0.0974189,0.143792,-0.125766,-0.0883688,0.0131989,0.0250626,0.0204468,0.010376,0.0168228,0.01091,0.021553,0.0140381,-9.97986,0.0112915,-0.000190735,0.0128174,0.0114822,0.0192642,-0.00396729,0.0167084,0.00526428
1,9,10.0097,0.00183105,0.000457764,-2.4305,0.0523241,-0.0768941,0.0516866,0.0865343,-0.0961982,0.144098,-0.126682,-0.0886739,0.00831604,0.0249481,0.0183868,0.011673,0.015564,0.00816345,0.0240707,0.0134659,-9.97986,0.0139999,0.00183105,0.0156403,0.0111008,0.0200272,-0.00320435,0.0144196,0.00686646
2,0,10.0097,-0.000305176,0,-2.42989,0.0538499,-0.0765889,0.0516866,0.0782946,-0.0968086,0.142267,-0.126682,-0.0883688,0.0120544,0.0234222,0.0205994,0.0131989,0.0154877,0.0111389,0.0218201,0.0133514,-9.97986,0.0123978,-0.000228882,0.0164032,0.0101471,0.0149918,-0.000610352,0.0141144,0.00598907
2,1,10.0097,0.000610352,-0.000610352,-2.42898,0.0544603,-0.075063,0.0519917,0.0743273,-0.0955879,0.143487,-0.126682,-0.0865377,0.00728607,0.0234604,0.0176239,0.0128174,0.0144577,0.0114822,0.0223923,0.0136566,-9.97986,0.0154495,-0.00350952,0.0179672,0.00957489,0.0206757,-0.0037384,0.0168228,0.00553131
2,2,10.0097,0.00152588,0.000152588,-2.42776,0.0547655,-0.0741475,0.0529073,0.0712755,-0.0931465,0.144708,-0.127292,-0.085317,0.0109482,0.0223923,0.017395,0.00968933,0.0136948,0.00858307,0.0165558,0.0181198,-9.97986,0.0102997,-0.00160217,0.0131607,0.00324249,0.0115204,-0.00221252,0.0152969,0.00411987
2,3,10.0097,0.000610352,0.000305176,-2.42653,0.0544603,-0.075063,0.0538228,0.0709703,-0.0931465,0.143792,-0.125461,-0.0844015,0.0125122,0.0257492,0.0186539,0.0152588,0.0216675,0.0131989,0.0233078,0.017128,-9.97986,0.0168991,-0.00144958,0.0141144,0.00686646,0.0223541,-0.000572205,0.0191879,0.00644684
2,4,10.0097,0.00213623,0.000305176,-2.42714,0.0562914,-0.0738423,0.0529073,0.0709703,-0.0934516,0.145624,-0.126072,-0.0837911,0.010376,0.0172424,0.0238419,0.00862122,0.0176239,0.00732422,0.0194168,0.0146866,-9.97986,0.013237,0.00213623,0.00957489,0.00743866,0.0162888,-0.00492096,0.0153351,0.0044632
2,5,10.0097,0.000610352,0.000610352,-2.42562,0.0562914,-0.0738423,0.0538228,0.07036,-0.0910102,0.146539,-0.123935,-0.0804342,0.0109863,0.0242233,0.0189209,0.014534,0.0141144,0.00850677,0.0211334,0.0216675,-9.97986,0.0188065,-0.00282288,0.0129318,0.00591278,0.0175476,-0.00312805,0.0151825,0.00709534
2,6,10.0097,0.00274658,-0.000457764,-2.42562,0.0562914,-0.0729268,0.0544332,0.0706652,-0.0928413,0.146234,-0.124241,-0.0819601,0.0103378,0.0224304,0.0181961,0.0131989,0.0200272,0.0120163,0.0221634,0.02388,-9.97986,0.0212479,-0.00305176,0.0159454,0.00759125,0.0168228,-0.00240326,0.0157928,0.00537872
2,7,10.0097,0.000610352,0.000305176,-2.42684,0.0559862,-0.075063,0.0535176,0.0605944,-0.0928413,0.146234,-0.125766,-0.0810445,0.0136566,0.0186539,0.0188828,0.0136566,0.0164413,0.0106812,0.0219345,0.0268936,-9.97986,0.0214767,-0.00164032,0.014534,0.00846863,0.0156403,-0.00411987,0.0172424,0.00637054
2,8,9.04408,0,-0.00259399,-2.42776,0.055681,-0.0747579,0.050771,0.00505237,-0.0983344,0.145929,-0.129429,-0.0840963,0.0111008,0.0194168,0.018959,0.013237,0.0170898,0.010643,0.0227356,0.0307083,-9.97986,0.022583,-0.00247955,0.0133896,0.0094986,0.0178909,-0.00392914,0.0146484,0.00679016
2,9,-0.028486,0.000305176,-0.00350952,-2.42501,0.0562914,-0.0738423,0.054128,-0.00623914,-0.095893,0.147455,-0.129429,-0.0813497,0.0130081,0.0217438,0.018692,0.00957489,0.0187683,0.00999451,0.0206375,0.0236511,-9.97986,0.0229263,-0.00427246,0.0146484,0.0069046,0.0220871,-0.00774384,0.0156403,0.00518799
3,0,-7.43632,0,-0.00442505,-2.42623,0.0559862,-0.0738423,0.0532125,-0.0160048,-0.0961982,0.147149,-0.129734,-0.0816549,0.0117111,0.0233841,0.0174713,0.0136185,0.0197983,0.0106049,0.0244141,0.0246429,-9.97986,0.0215912,-0.00221252,0.01091,0.00518799,0.023613,-0.00656128,0.0143051,0.00774384
3,1,-9.99003,0.000915527,-0.00320435,-2.42501,0.0565965,-0.0744527,0.0556539,0.0163439,-0.0931465,0.146844,-0.127903,-0.0807394,0.0118637,0.0218964,0.0182343,0.0109482,0.0187302,0.0113678,0.021286,0.0230789,-9.97986,0.0188446,-0.00209808,0.0157928,0.00572205,0.0120926,-0.00244141,0.0167847,0.00602722
3,2,-9.99003,0.0012207,-0.00167847,-2.42562,0.0559862,-0.0744527,0.0553487,0.0416735,-0.0913154,0.145624,-0.128208,-0.0816549,0.00705719,0.0232697,0.0131989,0.00923157,0.0168991,0.01091,0.0231171,0.0166702,-9.97986,0.0122452,-0.00480652,0.0108337,0.00732422,-0.00930786,-0.00556946,0.017395,0.00637054
3,3,-9.99003,0.0012207,0,-2.42623,0.0553758,-0.0747579,0.0547383,0.0593737,-0.0922309,0.145624,-0.126072,-0.0810445,0.00915527,0.0208282,0.0191116,0.0140381,0.0186539,0.0125122,0.02388,0.0133133,-9.97986,0.0109863,-0.000686646,0.0156403,0.00087738,-0.00629425,-0.00427246,0.0165558,0.0082016
3,4,-9.99003,0.00213623,0,-2.42623,0.0544603,-0.0735371,0.0553487,0.0856188,-0.0897895,0.143792,-0.124851,-0.0828756,0.0121307,0.0240707,0.0146484,0.0105286,0.0126648,0.00980377,0.0217819,0.0102997,-9.97986,0.0106812,-0.00228882,0.0107193,0.00362396,0.0165939,-0.00377655,0.014534,0.00549316
3,5,-7.6652,0.00183105,0.00289917,-2.42623,0.0550706,-0.075063,0.0562642,0.137804,-0.0846015,0.144098,-0.120578,-0.0825704,0.00938416,0.0255585,0.0191498,0.00972748,0.0136566,0.0108719,0.0198746,0.00965118,-9.97986,0.00904083,0.00259399,0.0113678,0.00720978,0.0183868,-0.00530243,0.0146484,0.00610352
3,6,-0.0461862,0.000915527,0.00350952,-2.42776,0.0547655,-0.0753682,0.0553487,0.150621,-0.0876533,0.143792,-0.121799,-0.0847066,0.0152969,0.0186539,0.018158,0.0119781,0.0165558,0.011673,0.0220108,0.0131226,-9.97986,0.00770569,0.00198364,0.0177002,0.00823975,0.018425,-0.00144958,0.0170135,0.00728607
3,7,7.91402,0.00152588,0.00427246,-2.42776,0.0529344,-0.0759786,0.0529073,0.153368,-0.0900947,0.143182,-0.122104,-0.0862325,0.00801086,0.0219727,0.017662,0.0101471,0.0184631,0.0123978,0.0242615,0.00934601,-9.97986,0.0123978,0.00247955,0.0169754,0.00816345,0.0177383,-0.00179291,0.0154495,0.00682831
3,8,10.0097,-0.0012207,0.00259399,-2.43081,0.0532396,-0.0771993,0.0504659,0.117357,-0.0961982,0.141656,-0.124241,-0.0883688,0.0103378,0.0233078,0.0141907,0.0122833,0.0147629,0.00724792,0.0204468,0.0101852,-9.97986,0.0103378,-0.00267029,0.0156021,0.00354767,0.0141907,-0.00324249,0.0143051,0.00564575
3,9,10.0097,0.000305176,0.000915527,-2.43081,0.0535448,-0.0756734,0.0510762,0.0886705,-0.0961982,0.143182,-0.126682,-0.0889791,0.0102615,0.021286,0.0164413,0.0113678,0.0177002,0.0063324,0.021286,0.0138092,-9.97986,0.00995636,0.00171661,0.0175095,0.00362396,0.0159073,-0.00289917,0.0139236,0.0044632
4,0,10.0097,0.00244141,0.000152588,-2.42989,0.0526292,-0.0756734,0.0510762,0.0776842,-0.0968086,0.143182,-0.126377,-0.0880636,0.0101089,0.02388,0.0170517,0.0116348,0.015564,0.00617981,0.0188828,0.0127029,-9.97986,0.0152206,-0.000305176,0.0164032,0.00663757,0.0189972,-0.0038147,0.0154114,0.00484467
4,1,10.0097,0.000610352,0,-2.42867,0.0547655,-0.075063,0.0516866,0.0724962,-0.0952827,0.144098,-0.126072,-0.0859274,0.00701904,0.0216293,0.0204468,0.0117874,0.0138855,0.0104523,0.0187302,0.0152206,-9.97986,0.0155258,-0.00404358,0.0167084,0.00911713,0.0153732,-0.00347137,0.0157928,0.00736237
4,2,10.0097,0.000915527,-0.000152588,-2.42806,0.0565965,-0.0756734,0.0529073,0.0715807,-0.0922309,0.145013,-0.126072,-0.0847066,0.0136948,0.0246429,0.0183868,0.0118256,0.0143814,0.0106049,0.0182343,0.0143814,-9.97986,0.0128937,0.0012207,0.0141144,0.00507355,0.0170135,-0.00183105,0.0155258,0.00434875
4,3,10.0097,-0.000305176,0,-2.42714,0.0553758,-0.075063,0.0529073,0.0709703,-0.0928413,0.143792,-0.125461,-0.0834859,0.0101471,0.0221634,0.015564,0.0123978,0.0139236,0.00705719,0.0166321,0.0188828,-9.97986,0.015564,-0.00278473,0.017395,0.00621796,0.0146866,-0.0063324,0.0140381,0.00854492
4,4,10.0097,-0.00152588,0.000305176,-2.42623,0.055681,-0.0753682,0.0544332,0.0718859,-0.0922309,0.145624,-0.124546,-0.0840963,0.0108719,0.0194931,0.0159073,0.0102234,0.0146484,0.0101089,0.0214767,0.0174332,-9.97986,0.0124359,-0.00156403,0.0161743,0.00286102,0.0147629,-0.00114441,0.0164032,0.00457764
4,5,10.0097,-0.0012207,0.00106812,-2.42562,0.0569017,-0.0744527,0.0544332,0.0715807,-0.0913154,0.146234,-0.124546,-0.0810445,0.0113297,0.0212479,0.019989,0.00797272,0.0139999,0.0107193,0.0155258,0.0167847,-9.97986,0.0165558,0.00236511,0.0154114,0.00808716,0.0191498,-0.00396729,0.0181961,0.00701904
4,6,10.0097,0.0012207,0.000305176,-2.42501,0.0569017,-0.0744527,0.0547383,0.0718859,-0.0910102,0.146844,-0.125156,-0.0810445,0.0125885,0.0222015,0.0173187,0.0133133,0.0162125,0.00812531,0.0230408,0.0222397,-9.97986,0.0215149,-0.00202179,0.0156784,0.00656128,0.0182343,-0.0038147,0.0165939,0.0094986
4,7,10.0097,0.000915527,0,-2.42592,0.0553758,-0.0738423,0.054128,0.0605944,-0.0931465,0.145624,-0.125766,-0.0822652,0.0087738,0.0253296,0.0193024,0.0125885,0.0185013,0.00854492,0.0198364,0.0256348,-9.97986,0.0233841,-0.00225067,0.0106049,0.00614166,0.0196457,-0.00362396,0.0141525,0.00701904
4,8,9.11794,0.000915527,-0.00213623,-2.42776,0.0559862,-0.0744527,0.0510762,0.0071886,-0.0995551,0.145318,-0.129734,-0.0840963,0.0130463,0.0248718,0.0190353,0.0094223,0.0199127,0.0117111,0.0228882,0.0297165,-9.97986,0.0248718,-0.00148773,0.0166321,0.00236511,0.0141907,-0.00312805,0.0170135,0.00530243
4,9,-0.0236032,0.00183105,-0.00411987,-2.42531,0.0559862,-0.0738423,0.0529073,-0.00532361,-0.0971137,0.146539,-0.127903,-0.0822652,0.011673,0.0244141,0.0189209,0.0112152,0.0181198,0.00648499,0.0226593,0.0260925,-9.97986,0.0224304,-0.00350952,0.0171661,0.00171661,0.0167084,-0.000839233,0.0169754,0.00587463
5,0,-7.48088,0.000610352,-0.00488281,-2.42531,0.0572069,-0.0747579,0.0538228,-0.0175306,-0.0974189,0.145624,-0.129734,-0.0816549,0.0131607,0.0197601,0.0189972,0.0123978,0.0187683,0.00572205,0.022049,0.0239563,-9.97986,0.016098,-0.00362396,0.0104523,0.00392914,0.019989,-0.00267029,0.0146866,0.00751495
5,1,-9.99003,0.00305176,-0.00366211,-2.42379,0.0569017,-0.0741475,0.0565694,0.0151232,-0.0931465,0.146234,-0.129123,-0.0810445,0.00732422,0.0247574,0.019989,0.0162888,0.0156021,0.00545502,0.0239182,0.0209045,-9.97986,0.0191498,-0.00282288,0.0146866,0.00461578,0.0145721,-0.0044632,0.0204468,0.00492096
5,2,-9.99003,-0.000610352,-0.00198364,-2.42531,0.0559862,-0.0744527,0.0550435,0.0428942,-0.0922309,0.145929,-0.126682,-0.0819601,0.00816345,0.0222015,0.0166702,0.0127411,0.0178528,0.00663757,0.027504,0.0164413,-9.97986,0.0188446,-0.00102997,0.01194,0.00511169,-0.00801086,-0.00282288,0.0154877,0.00667572
5,3,-9.99003,0,-0.000457764,-2.42531,0.0553758,-0.0738423,0.0553487,0.0584581,-0.090705,0.145013,-0.124546,-0.0816549,0.00499725,0.0231934,0.014801,0.0138092,0.0177765,0.0107574,0.02491,0.0139618,-9.97986,0.0153732,0.00038147,0.0168991,0.00766754,-0.0044632,-0.000724792,0.0143433,0.00896454
5,4,-9.99003,0.000305176,0.000915527,-2.42562,0.0550706,-0.075063,0.0556539,0.0837877,-0.0879585,0.145318,-0.124851,-0.0819601,0.00583649,0.0247955,0.0165176,0.0146866,0.0170898,0.00896454,0.021286,0.0122833,-9.97986,0.00988007,-0.00404358,0.0115967,0.00629425,0.0157928,-0.00331879,0.0160217,0.00858307
5,5,-7.78331,-0.00183105,0.00350952,-2.42531,0.0547655,-0.0744527,0.0565694,0.138719,-0.0842964,0.145318,-0.120884,-0.0825704,0.00617981,0.0258636,0.016098,0.0146484,0.0157166,0.0104141,0.0256729,0.00968933,-9.97986,0.00888824,-0.000419617,0.0131989,0.00965118,0.0151825,-0.00263214,0.0147629,0.00671387
5,6,-0.143232,0.000915527,0.00350952,-2.42714,0.0538499,-0.0741475,0.0550435,0.14879,-0.088874,0.143792,-0.121189,-0.0837911,0.0094223,0.0227737,0.0164413,0.00972748,0.0191498,0.0137711,0.0240326,0.00659943,-9.97986,0.0043869,-0.00087738,0.0124359,0.00823975,0.0151443,-0.00324249,0.0168991,0.0056076
5,7,7.89174,0.00274658,0.00411987,-2.42867,0.0529344,-0.0762837,0.0532125,0.152757,-0.0894843,0.144708,-0.120884,-0.0859274,0.00991821,0.0230789,0.0170517,0.00858307,0.0158691,0.014801,0.0224686,0.0127411,-9.97986,0.0094986,-0.00572205,0.0106812,0.00488281,0.0137329,-0.0044632,0.018692,0.00774384
5,8,10.0097,0,0.00244141,-2.4305,0.0529344,-0.0765889,0.050771,0.118578,-0.0961982,0.143487,-0.123935,-0.0889791,0.00572205,0.0227737,0.0176239,0.00953674,0.0177765,0.00915527,0.0257874,0.0164413,-9.97986,0.0124359,-0.00537872,0.0170898,0.00530243,0.0146103,-0.00331879,0.0155258,0.00728607
5,9,10.0097,0.000915527,0.00106812,-2.43081,0.0547655,-0.0765889,0.0504659,0.0889757,-0.0971137,0.141961,-0.127598,-0.0883688,0.0105667,0.0246429,0.0193024,0.0122452,0.0167847,0.0128555,0.0212097,0.0137329,-9.97986,0.00915527,0.00221252,0.0135422,0.00293732,0.016861,-0.00377655,0.0167847,0.00473022
6,0,10.0097,0.000610352,0.000457764,-2.42959,0.0538499,-0.0756734,0.050771,0.0779894,-0.0965034,0.143792,-0.127903,-0.0883688,0.00743866,0.0239563,0.0169373,0.0131989,0.0144958,0.00389099,0.0222015,0.0165558,-9.97986,0.00530243,0.000839233,0.013237,0.00617981,0.0146484,-0.0025177,0.0162506,0.0056076
6,1,10.0097,0.00152588,-0.000305176,-2.42776,0.0544603,-0.075063,0.0519917,0.0724962,-0.0955879,0.144708,-0.127598,-0.0865377,0.0102997,0.0206375,0.0187683,0.0142288,0.018692,0.010376,0.0211716,0.0166321,-9.97986,0.0138092,0.00175476,0.0156784,0.00793457,0.0193787,-0.00274658,0.0127792,0.00789642
6,2,10.0097,0.000915527,0,-2.42745,0.0547655,-0.0753682,0.0532125,0.0724962,-0.0931465,0.144403,-0.126987,-0.0847066,0.0114822,0.0230026,0.0156021,0.0119019,0.0159454,0.00938416,0.0214005,0.0179291,-9.97986,0.0114059,-0.00102997,0.0131226,0.00858307,0.0105286,-0.001297,0.0183868,0.0063324
6,3,10.0097,0.00183105,0.000305176,-2.42745,0.0547655,-0.0744527,0.0532125,0.0728014,-0.0928413,0.145318,-0.126072,-0.0850118,0.00900269,0.027504,0.0204086,0.00812531,0.0181961,0.00713348,0.0249481,0.0161743,-9.97986,0.0161362,-0.000724792,0.0151062,0.00606537,0.0157166,-0.00434875,0.0162506,0.00431061
6,4,10.0097,0.0012207,0.000457764,-2.42592,0.0544603,-0.0735371,0.0535176,0.0712755,-0.0910102,0.145013,-0.126377,-0.0834859,0.0120163,0.0223541,0.0192642,0.0106049,0.0184631,0.00747681,0.0257111,0.015831,-9.97986,0.0153351,0.00125885,0.0143433,0.0100708,0.0155258,0.000343323,0.0170898,0.00972748
6,5,10.0097,0,0.000305176,-2.42531,0.0575121,-0.0738423,0.0544332,0.0724962,-0.0922309,0.146539,-0.124241,-0.0813497,0.0136185,0.0269318,0.0210953,0.014801,0.0188828,0.00656128,0.0236511,0.0235748,-9.97986,0.018425,0.0019455,0.00682831,0.00312805,0.0187302,-0.00255585,0.0158691,0.00804901
6,6,10.0097,0.000915527,0.000610352,-2.42562,0.0569017,-0.0729268,0.0550435,0.0718859,-0.0910102,0.14776,-0.123935,-0.0816549,0.0134659,0.0275421,0.0214386,0.0131226,0.0185013,0.0109863,0.0242996,0.0250626,-9.97986,0.0224304,0.000534058,0.0157547,0.00965118,0.0208282,-0.000915527,0.0162506,0.00759125
6,7,10.0097,0.000305176,0.000305176,-2.42562,0.0565965,-0.0738423,0.0538228,0.0624254,-0.0931465,0.145929,-0.125461,-0.0822652,0.0152206,0.0260544,0.0193024,0.0151443,0.0141525,0.010376,0.0228882,0.0267029,-9.97986,0.0185394,-0.00217438,0.0133133,0.00923157,0.0178909,0.000648499,0.0162506,0.00888824
6,8,9.17378,-0.000305176,-0.00183105,-2.42745,0.0562914,-0.075063,0.0513814,0.00596789,-0.09925,0.145929,-0.130039,-0.0831808,0.0101089,0.0226593,0.0221252,0.0119781,0.0184631,0.00732422,0.0221634,0.0217438,-9.97986,0.0215912,0.000572205,0.00823975,0.00331879,0.0177383,-0.00423431,0.0127792,0.00541687
6,9,0.132952,0.00183105,-0.00305176,-2.42592,0.0562914,-0.0744527,0.0535176,-0.00623914,-0.0971137,0.147149,-0.129123,-0.0816549,0.0172424,0.0239563,0.0204849,0.011673,0.0169373,0.0128555,0.022583,0.0291061,-9.97986,0.0178909,0.001297,0.0103378,0.00751495,0.0178528,-0.0031662,0.0158691,0.00545502
7,0,-7.29411,-0.000305176,-0.00473022,-2.42562,0.0569017,-0.0741475,0.0538228,-0.0163099,-0.0955879,0.146844,-0.129123,-0.0822652,0.0125504,0.025177,0.0172424,0.0153732,0.0108337,0.00976563,0.0227737,0.0269318,-9.97986,0.0209808,0.00263214,0.0148773,0.00720978,0.0182724,0.000267029,0.0152206,0.00537872
7,1,-9.99003,0.00152588,-0.00305176,-2.42501,0.0562914,-0.0741475,0.0568746,0.0172594,-0.0913154,0.146234,-0.127903,-0.0804342,0.0109482,0.0262451,0.0204849,0.0107956,0.0153732,0.00610352,0.0218201,0.022583,-9.97986,0.0167084,0.000953674,0.0162506,0.00724792,0.0178528,-0.000267029,0.0160599,0.00747681
7,2,-9.99003,0.000610352,-0.00167847,-2.42409,0.0553758,-0.0744527,0.0556539,0.0431993,-0.0897895,0.145318,-0.126987,-0.0810445,0.0133133,0.0304031,0.0180817,0.0101089,0.0180054,0.0109482,0.024147,0.0239182,-9.97986,0.0136566,0.00267029,0.00789642,0.00782013,-0.00598907,-0.00087738,0.0164795,0.00839233
7,3,-9.99003,0.00152588,-0.000610352,-2.42531,0.0547655,-0.0747579,0.0550435,0.0593737,-0.0910102,0.147149,-0.126377,-0.0822652,0.0114822,0.0234985,0.0195313,0.00759125,0.0158691,0.0141144,0.0224686,0.0104523,-9.97986,0.0110245,0.000457764,0.013237,0.0087738,-0.00171661,3.8147e-005,0.018425,0.00473022
7,4,-9.99003,0.0012207,0.000762939,-2.42623,0.055681,-0.0744527,0.0562642,0.0862291,-0.0885688,0.145318,-0.124546,-0.0813497,0.0112915,0.0260162,0.0180054,0.00869751,0.0162888,0.0115204,0.0232697,0.0109863,-9.97986,0.00896454,-0.00164032,0.0117874,0.00545502,0.0191498,0.00175476,0.016861,0.0056839
7,5,-7.25779,0.0012207,0.00259399,-2.42592,0.0544603,-0.0747579,0.0556539,0.139635,-0.0833808,0.144708,-0.121189,-0.0825704,0.0107574,0.021553,0.0151062,0.0094986,0.0191116,0.00923157,0.0244522,0.014267,-9.97986,0.00831604,0.00148773,0.0103378,0.00728607,0.0161362,0.000114441,0.0174713,0.00679016
7,6,0.426531,0.0012207,0.00305176,-2.42745,0.0535448,-0.0753682,0.054128,0.152147,-0.088874,0.144403,-0.120884,-0.0847066,0.0105667,0.0265503,0.0190735,0.0107574,0.017395,0.00846863,0.0267792,0.00968933,-9.97986,0.0107574,-0.000610352,0.0148773,0.00537872,0.0186157,-7.62939e-005,0.0184631,0.0050354
7,7,8.57228,0.00183105,0.00457764,-2.42867,0.0532396,-0.0762837,0.0532125,0.154283,-0.0903999,0.142877,-0.122104,-0.0856222,0.0119019,0.0201035,0.0166321,0.0133133,0.0165939,0.0101471,0.0262451,0.0120163,-9.97986,0.01297,0.000152588,0.0117111,0.00431061,0.0178146,0.00244141,0.0147247,0.00370026
7,8,10.0097,-0.000305176,0.00259399,-2.43233,0.0538499,-0.0768941,0.0495503,0.114916,-0.0952827,0.141961,-0.125156,-0.0895895,0.00999451,0.02388,0.0192261,0.0131607,0.0179291,0.00881195,0.022049,0.0165558,-9.97986,0.0115585,-0.0030899,0.0133514,0.00480652,0.015564,0.00125885,0.0139999,0.00823975
7,9,10.0097,0.00152588,0.000457764,-2.43142,0.0523241,-0.0762837,0.0504659,0.0871447,-0.0974189,0.142877,-0.126377,-0.0883688,0.00896454,0.0254059,0.0157547,0.00873566,0.0177765,0.00717163,0.0235367,0.0135422,-9.97986,0.0108337,0.00286102,0.0133514,0.0037384,0.0130463,-0.00267029,0.0132751,0.00637054
8,0,10.0097,-0.000305176,0.000152588,-2.42837,0.0535448,-0.0759786,0.0516866,0.0761583,-0.0955879,0.141656,-0.127598,-0.0880636,0.00801086,0.0287247,0.0201416,0.0104904,0.0181961,0.0101852,0.0206757,0.0125885,-9.97986,0.013237,-0.00133514,0.0162506,0.00736237,0.0164032,-0.00354767,0.0172806,0.00595093
8,1,10.0097,0.00213623,-0.000305176,-2.42928,0.0547655,-0.0759786,0.0516866,0.0731066,-0.0952827,0.145624,-0.126682,-0.085317,0.0106812,0.024147,0.0173187,0.00984192,0.0188065,0.0117111,0.0249863,0.0159454,-9.97986,0.013237,-0.000915527,0.015831,0.00797272,0.0162506,0.0012207,0.015564,0.00694275
8,2,10.0097,0.000610352,0.000457764,-2.42745,0.0547655,-0.0747579,0.0535176,0.0706652,-0.0943672,0.144403,-0.126072,-0.0859274,0.00751495,0.0259018,0.0201416,0.0139236,0.020752,0.0125122,0.0227737,0.0184631,-9.97986,0.0144196,0.00148773,0.0139618,0.0094986,0.0142288,-0.00137329,0.0162125,0.00587463
8,3,10.0097,-0.000915527,0,-2.42745,0.0550706,-0.0744527,0.0529073,0.0712755,-0.094062,0.145624,-0.126682,-0.0847066,0.00995636,0.0264359,0.0194168,0.0133133,0.0186157,0.00957489,0.0189972,0.0183487,-9.97986,0.017395,-0.000343323,0.0127792,0.00686646,0.0135803,-0.00118256,0.0165939,0.00347137
8,4,10.0097,0.00152588,0.000457764,-2.42592,0.0550706,-0.0762837,0.0538228,0.0706652,-0.0934516,0.146539,-0.126377,-0.0837911,0.0152969,0.0263977,0.0160599,0.00904083,0.0192642,0.00873566,0.0252533,0.0152588,-9.97986,0.0172043,-0.00339508,0.0130463,0.00980377,0.0154877,0.00232697,0.0162506,0.00850677
8,5,10.0097,0.000915527,-0.000152588,-2.4247,0.0562914,-0.0744527,0.054128,0.072191,-0.0913154,0.145624,-0.124241,-0.0822652,0.0129318,0.0203705,0.0191498,0.0175476,0.0201035,0.0082016,0.0206375,0.0196457,-9.97986,0.013504,-0.00247955,0.0143814,0.00583649,0.0142288,-0.000572205,0.0154495,0.00782013
8,6,10.0097,0.00183105,0.000305176,-2.42653,0.0578172,-0.0744527,0.0544332,0.0734117,-0.0916206,0.146234,-0.123935,-0.0810445,0.00751495,0.0238037,0.0177383,0.0102997,0.0207901,0.0124741,0.0268173,0.0225449,-9.97986,0.0196075,-0.00160217,0.0102997,0.00743866,0.0188065,-0.00267029,0.0144577,0.00583649
8,7,10.0097,0.000305176,0.000610352,-2.42623,0.055681,-0.0744527,0.0535176,0.0612047,-0.0928413,0.145624,-0.126072,-0.0816549,0.0146866,0.0254059,0.022583,0.0128555,0.0200272,0.01194,0.0226974,0.0232697,-9.97986,0.019722,-0.00232697,0.0102997,0.00732422,0.018158,-0.00350952,0.0144196,0.00724792
8,8,9.14876,0.00152588,-0.00228882,-2.42745,0.055681,-0.0747579,0.0516866,0.0071886,-0.0989448,0.145929,-0.128208,-0.0834859,0.0121307,0.0220108,0.0180817,0.0108337,0.0198364,0.0135422,0.0222397,0.028801,-9.97986,0.0260925,-0.0031662,0.0137711,0.00709534,0.0174332,-0.00225067,0.0170517,0.00675201
8,9,0.0710013,-0.000915527,-0.00396729,-2.42623,0.0562914,-0.0753682,0.0544332,-0.00593396,-0.0968086,0.147455,-0.128818,-0.0816549,0.0111008,0.0210571,0.0198746,0.0134277,0.0221634,0.0125504,0.0238419,0.029335,-9.97986,0.018158,-0.00545502,0.0132751,0.00526428,0.0162506,-0.00293732,0.0149918,0.00644684
9,0,-7.31242,-0.000915527,-0.00427246,-2.42562,0.0565965,-0.0744527,0.0529073,-0.0153944,-0.0977241,0.144403,-0.128818,-0.0816549,0.010643,0.0242996,0.0175858,0.0141144,0.0156021,0.00865936,0.0267029,0.0269699,-9.97986,0.0203705,-0.00225067,0.0123978,0.00793457,0.0156784,0.00160217,0.0133896,0.00770569
9,1,-9.99003,0.000305176,-0.0038147,-2.42562,0.0565965,-0.0738423,0.0562642,0.0172594,-0.0922309,0.146234,-0.127903,-0.0807394,0.00717163,0.019722,0.016861,0.0103378,0.0191879,0.0114059,0.0225067,0.0246048,-9.97986,0.0193024,0.000190735,0.0175476,0.00465393,0.0150299,-0.00286102,0.0152206,0.00728607
9,2,-9.99003,-0.000610352,-0.00152588,-2.4244,0.0550706,-0.075063,0.0550435,0.0422838,-0.0897895,0.146234,-0.126377,-0.0819601,0.0069046,0.0196075,0.0166702,0.0107574,0.0175858,0.0128174,0.0231171,0.0196457,-9.97986,0.0194931,0.00209808,0.0152588,0.00705719,-0.00225067,-0.00118256,0.0150299,0.00774384
9,3,-9.99003,-0.000610352,-0.000762939,-2.42623,0.0553758,-0.0744527,0.0547383,0.0587633,-0.0913154,0.145929,-0.126072,-0.0825704,0.0119781,0.0225067,0.0190353,0.0137329,0.0168991,0.00713348,0.0203705,0.0137329,-9.97986,0.012207,0.000534058,0.01297,0.00782013,-0.00614166,-0.00106812,0.016861,0.00732422
9,4,-9.99003,0.000610352,0.000762939,-2.42562,0.0569017,-0.0756734,0.0553487,0.0859239,-0.088874,0.145624,-0.124546,-0.0819601,0.00938416,0.0233841,0.0186157,0.0123596,0.0176239,0.0107193,0.0241089,0.014267,-9.97986,0.0112915,-0.00289917,0.0147247,0.00205994,0.0149536,-0.00125885,0.0153351,0.00469208
9,5,-7.25474,0.00183105,0.00335693,-2.42592,0.0541551,-0.0762837,0.0553487,0.140245,-0.0846015,0.143487,-0.121799,-0.0828756,0.0111389,0.0203323,0.0193024,0.010643,0.0152206,0.00926971,0.0184631,0.00919342,-9.97986,0.00965118,-0.00389099,0.00919342,0.00762939,0.0148773,-0.00377655,0.0158691,0.00789642
9,6,0.312395,0.000305176,0.00350952,-2.42653,0.0541551,-0.0753682,0.0556539,0.150621,-0.0876533,0.143792,-0.121799,-0.0844015,0.00984192,0.023613,0.0178909,0.00572205,0.0177002,0.00930786,0.0224686,0.0094986,-9.97986,0.00968933,-0.000457764,0.011673,0.00587463,0.0174332,-0.00164032,0.0151443,0.00694275
9,7,8.25246,0,0.00534058,-2.42745,0.0523241,-0.0753682,0.0538228,0.152452,-0.0894843,0.142877,-0.121189,-0.0862325,0.00812531,0.0192642,0.0160599,0.0138474,0.0162506,0.00797272,0.0231171,0.0125885,-9.97986,0.0138855,0.00114441,0.0169754,0.00225067,0.0151825,0.00118256,0.0131989,0.00465393
9,8,10.0097,0.00213623,0.00320435,-2.43111,0.0529344,-0.0768941,0.04894,0.114305,-0.0952827,0.142267,-0.123935,-0.0883688,0.00827789,0.0242615,0.0189209,0.0127411,0.0148392,0.0107956,0.0220871,0.01194,-9.97986,0.010376,-0.00278473,0.0136185,0.00740051,0.0122833,-0.00385284,0.0128174,0.00183105
9,9,10.0097,-0.00152588,0.00106812,-2.43111,0.0535448,-0.0756734,0.0504659,0.0874498,-0.0968086,0.143792,-0.126377,-0.0880636,0.011673,0.0291443,0.0219727,0.0153732,0.0164795,0.0138092,0.0243378,0.0149918,-9.97986,0.0178909,0.00301361,0.020752,0.0125885,0.0209045,0.00289917,0.0167465,0.00988007
10,0,10.0097,0.000305176,-0.000457764,-2.42837,0.0538499,-0.0765889,0.0504659,0.0749376,-0.0961982,0.142267,-0.126682,-0.0877584,0.00843048,0.0180435,0.00926971,0.00808716,0.0117493,0.00644684,0.0219727,0.0111771,-9.97986,0.00392914,-0.00572205,0.00511169,0.00392914,0.0121689,-0.00694275,0.00801086,0.00087738
10,1,10.0097,0,0.000762939,-2.42837,0.0538499,-0.0756734,0.0513814,0.0724962,-0.094062,0.145013,-0.126682,-0.0862325,0.0109482,0.0285339,0.0202179,0.0121689,0.0181198,0.0164795,0.0228119,0.0138855,-9.97986,0.0143051,-0.00133514,0.0177765,0.00926971,0.0169754,-0.000343323,0.0190353,0.00831604
10,2,10.0097,0.00213623,0.000152588,-2.42898,0.0550706,-0.0759786,0.0532125,0.0715807,-0.0946723,0.144708,-0.126072,-0.085317,0.00717163,0.0234985,0.0187683,0.00995636,0.0139618,0.00640869,0.0222015,0.0185013,-9.97986,0.0144577,-0.00473022,0.0148392,0.00728607,0.0136185,-0.00648499,0.0130844,0.00484467
10,3,10.0097,-0.000305176,0.000610352,-2.42684,0.0541551,-0.075063,0.0535176,0.0715807,-0.094062,0.146234,-0.125461,-0.0844015,0.00892639,0.025177,0.0196075,0.00919342,0.0195694,0.01091,0.0236893,0.0193405,-9.97986,0.0177765,-0.00499725,0.0151062,0.0069809,0.0165558,-0.000228882,0.0144958,0.00469208
10,4,10.0097,0.000915527,0.000305176,-2.42653,0.0562914,-0.0744527,0.054128,0.0712755,-0.0922309,0.145318,-0.126682,-0.0834859,0.0124741,0.0250244,0.0201797,0.0140762,0.0181198,0.0128937,0.0230408,0.0162125,-9.97986,0.0179291,-0.000915527,0.0148392,0.00751495,0.0154877,-0.00358582,0.0161743,0.00713348
10,5,10.0097,0.000610352,0,-2.4244,0.055681,-0.0744527,0.0544332,0.0715807,-0.0910102,0.146844,-0.123935,-0.0813497,0.0119781,0.0257874,0.0195694,0.0124741,0.0170898,0.00751495,0.0271988,0.0156784,-9.97986,0.0192642,-0.00244141,0.0135422,0.00400543,0.0180435,-0.00232697,0.0139999,0.00766754
10,6,10.0097,-0.000305176,0.000762939,-2.42592,0.0547655,-0.0738423,0.0547383,0.072191,-0.0913154,0.147149,-0.123935,-0.0804342,0.0146866,0.0275803,0.019989,0.0144577,0.0180435,0.0131989,0.0214005,0.0225449,-9.97986,0.0191116,-0.000457764,0.0152206,0.00675201,0.015831,-0.00259399,0.0117874,0.00782013
10,7,10.0097,0.00152588,0.000457764,-2.42623,0.0562914,-0.0741475,0.0544332,0.0596788,-0.0934516,0.145624,-0.124851,-0.0819601,0.0146866,0.0254059,0.0195313,0.00907898,0.0142288,0.0110245,0.0226593,0.027771,-9.97986,0.0192261,-0.00450134,0.0123596,0.00671387,0.0229263,-0.000190735,0.0157166,0.00720978
10,8,9.1631,0.000305176,-0.00167847,-2.42714,0.0553758,-0.0747579,0.0513814,0.00627307,-0.0989448,0.146234,-0.128818,-0.0834859,0.0160599,0.0267029,0.0218582,0.0146484,0.0185394,0.0152588,0.0205231,0.0267029,-9.97986,0.0229263,-0.00270844,0.0143051,0.00556946,0.0231934,-0.00667572,0.0143814,0.00766754
10,9,0.0117972,-0.000305176,-0.00411987,-2.42592,0.0578172,-0.073232,0.0538228,-0.00562879,-0.0965034,0.147455,-0.129429,-0.0822652,0.0120926,0.0218582,0.0171661,0.0112915,0.015564,0.0147247,0.0224304,0.029068,-9.97986,0.0218582,-0.00305176,0.0120163,0.00728607,0.0162125,-0.00141144,0.0161743,0.0115967
11,0,-7.39146,-0.000610352,-0.00427246,-2.42531,0.0584276,-0.0735371,0.054128,-0.0178358,-0.0961982,0.146539,-0.130649,-0.0816549,0.0111771,0.0253677,0.0183105,0.0118256,0.0139618,0.0124359,0.019455,0.0239563,-9.97986,0.0193405,-0.0050354,0.0138855,0.0044632,0.0181198,-0.00320435,0.0147629,0.00793457
11,1,-9.99003,0.000305176,-0.00274658,-2.4244,0.0559862,-0.0738423,0.0556539,0.0169542,-0.0943672,0.146234,-0.128513,-0.0810445,0.0146866,0.0248718,0.0187683,0.00667572,0.0154495,0.0120544,0.0211716,0.0207138,-9.97986,0.0209808,0.00274658,0.013504,0.0109863,0.0154495,-0.00213623,0.0143051,0.00694275
11,2,-9.99003,0.000610352,-0.00167847,-2.4247,0.0559862,-0.0744527,0.055959,0.0422838,-0.0910102,0.146234,-0.126377,-0.0807394,0.00961304,0.0226593,0.0190735,0.00976563,0.017128,0.0169373,0.0223541,0.0196075,-9.97986,0.016098,-0.00152588,0.0152969,0.00835419,-0.00770569,-0.00213623,0.0148392,0.0101089
11,3,-9.99003,0.0012207,-0.000610352,-2.42562,0.0547655,-0.0741475,0.0550435,0.0590685,-0.090705,0.145624,-0.126682,-0.0825704,0.0111008,0.0273895,0.0138855,0.0115585,0.0156403,0.00915527,0.0211716,0.0131607,-9.97986,0.0154114,0.000724792,0.0128555,0.000915527,-0.00865936,-0.00450134,0.0137711,0.00946045
11,4,-9.99003,0.000305176,0.000762939,-2.42531,0.0565965,-0.073232,0.0553487,0.0853136,-0.0882636,0.145929,-0.124546,-0.0819601,0.0104141,0.0247955,0.0207138,0.0154495,0.0144196,0.00961304,0.022316,0.0063324,-9.97986,0.00659943,-0.00125885,0.0143433,0.00686646,0.0138855,-0.00263214,0.0116348,0.00392914
11,5,-7.6176,0.000305176,0.00335693,-2.4244,0.0547655,-0.0747579,0.0568746,0.137193,-0.0855171,0.144403,-0.12241,-0.0825704,0.00923157,0.0172043,0.0180817,0.00995636,0.0151825,0.0120926,0.0209808,0.0100327,-9.97986,0.00747681,-0.00289917,0.0163651,0.00507355,0.0162125,-0.00312805,0.0130463,0.00751495
11,6,0.141192,0.000610352,0.00366211,-2.42745,0.0550706,-0.0744527,0.0538228,0.150621,-0.0864326,0.144403,-0.120273,-0.0844015,0.0101089,0.0181961,0.0140381,0.0116348,0.0152588,0.00965118,0.0213242,0.00984192,-9.97986,0.00862122,-0.00236511,0.013504,0.00286102,0.0159836,-0.00175476,0.0124741,0.00488281
11,7,8.21462,0.000305176,0.00442505,-2.42867,0.0532396,-0.0756734,0.0538228,0.153978,-0.0913154,0.144403,-0.12241,-0.0865377,0.0094223,0.0234222,0.0191116,0.0134659,0.0150299,0.0115204,0.0235748,0.0102615,-9.97986,0.0124741,0.000152588,0.0164795,0.00572205,0.00995636,-0.00213623,0.0143814,0.00801086
11,8,10.0097,0.000610352,0.00335693,-2.42989,0.0538499,-0.0765889,0.0504659,0.116747,-0.0952827,0.141961,-0.126072,-0.0889791,0.00957489,0.0208282,0.0191498,0.013237,0.0157928,0.0117493,0.018425,0.0146484,-9.97986,0.0131607,-0.00305176,0.0175476,0.00713348,0.0152588,-0.00267029,0.0151825,0.00720978
11,9,10.0097,0.000305176,0.000762939,-2.43203,0.0541551,-0.0759786,0.0498555,0.0874498,-0.0977241,0.142877,-0.126072,-0.0883688,0.00938416,0.0217819,0.0166702,0.0123978,0.015564,0.00640869,0.0192642,0.0139236,-9.97986,0.012207,-3.8147e-005,0.0135422,0.0044632,0.0150681,-0.00400543,0.0133896,0.0101089
12,0,10.0097,0,0.000610352,-2.42928,0.0535448,-0.0756734,0.0516866,0.0767687,-0.0955879,0.143487,-0.126682,-0.0865377,0.00896454,0.0176239,0.0192261,0.00904083,0.0146103,0.00507355,0.0208664,0.018692,-9.97986,0.0158691,0.000152588,0.0156021,0.00663757,0.0157928,-0.00362396,0.0140381,0.00919342
12,1,10.0097,0.000915527,-0.000305176,-2.42745,0.0544603,-0.0759786,0.0519917,0.0728014,-0.0946723,0.143182,-0.126987,-0.0865377,0.0124359,0.0208282,0.0192642,0.0144196,0.0157166,0.0102234,0.0217438,0.0154877,-9.97986,0.0119781,0.00350952,0.013237,0.00511169,0.0143433,-0.00167847,0.0162888,0.00873566
12,2,10.0097,-0.0012207,-0.000152588,-2.42806,0.055681,-0.075063,0.0532125,0.0718859,-0.0946723,0.143792,-0.125766,-0.0856222,0.00812531,0.0203323,0.0179291,0.0130844,0.0138474,0.00644684,0.0240326,0.018692,-9.97986,0.0150681,-0.00255585,0.0119019,0.00198364,0.0146866,-0.00537872,0.013504,0.00911713
12,3,10.0097,-0.000610352,0.000305176,-2.42562,0.0544603,-0.0741475,0.0526021,0.0715807,-0.0925361,0.144708,-0.125156,-0.0840963,0.0102615,0.024147,0.0183105,0.0122452,0.018158,0.0127411,0.0221252,0.0137711,-9.97986,0.0134277,-0.0030899,0.0156021,0.00732422,0.0196838,0.00205994,0.0174332,0.00759125
12,4,10.0097,0.000610352,-0.000610352,-2.42684,0.055681,-0.0741475,0.0535176,0.0706652,-0.0928413,0.145624,-0.125156,-0.0837911,0.0141907,0.0206375,0.016861,0.00793457,0.0150299,0.0113297,0.0164032,0.0155258,-9.97986,0.0111008,-0.00465393,0.0143433,0.0018692,0.0139618,-0.00473022,0.0159836,0.00404358
12,5,10.0097,0.00183105,0.000457764,-2.42531,0.0565965,-0.0729268,0.0550435,0.072191,-0.0916206,0.146234,-0.124241,-0.0816549,0.0135803,0.0225067,0.0200272,0.0132751,0.0194931,0.00595093,0.0202179,0.0185013,-9.97986,0.0144958,-0.0019455,0.0122452,0.00473022,0.013504,-0.00198364,0.0172043,0.0107956
12,6,10.0097,0.000915527,-0.000305176,-2.42531,0.0559862,-0.0735371,0.0538228,0.0718859,-0.0919257,0.146539,-0.124241,-0.0810445,0.0144196,0.0234222,0.0209808,0.0108719,0.0121689,0.00671387,0.0220871,0.0214386,-9.97986,0.0183487,-0.00339508,0.015831,0.00911713,0.019455,-0.00415802,0.0152206,0.00774384
12,7,10.0097,-0.000610352,0.000152588,-2.42745,0.055681,-0.0741475,0.0547383,0.0602892,-0.0946723,0.146539,-0.125766,-0.0816549,0.0120926,0.028038,0.0196838,0.0118637,0.0160599,0.0111389,0.0225067,0.0262833,-9.97986,0.0197983,-0.00434875,0.00999451,0.00598907,0.0161743,-0.00473022,0.0151062,0.00782013
12,8,8.94246,-0.000305176,-0.00213623,-2.42745,0.0569017,-0.0744527,0.0510762,0.00657824,-0.100471,0.145318,-0.128818,-0.0831808,0.0150681,0.026474,0.0198746,0.014801,0.0168228,0.0123978,0.0161362,0.0296021,-9.97986,0.0226212,-0.00514984,0.0183105,0.00526428,0.0212097,-0.00648499,0.0135803,0.010643
12,9,-0.162153,0.000305176,-0.00411987,-2.42531,0.0562914,-0.0723164,0.0535176,-0.00837537,-0.0961982,0.146844,-0.129734,-0.0822652,0.0134277,0.0219345,0.0193024,0.0127411,0.0185013,0.01091,0.0199127,0.0308228,-9.97986,0.0212097,-0.00404358,0.0115204,0.00408173,0.0167847,-0.00286102,0.0159454,0.00644684
13,0,-7.6588,0.000305176,-0.00473022,-2.42562,0.0559862,-0.0744527,0.0544332,-0.0163099,-0.0961982,0.14837,-0.130039,-0.0822652,0.0101852,0.0233459,0.0191116,0.0143051,0.0208282,0.01194,0.0204086,0.0221634,-9.97986,0.0172043,-0.00679016,0.020256,0.00164032,0.0175476,-0.00328064,0.0133514,0.00759125
13,1,-9.99003,0.000610352,-0.00335693,-2.42501,0.0559862,-0.0744527,0.0553487,0.0172594,-0.0916206,0.146844,-0.126377,-0.0807394,0.014534,0.0240326,0.0189209,0.0128937,0.0167465,0.00968933,0.0210571,0.0213242,-9.97986,0.0231552,-0.00350952,0.0139236,0.00782013,0.0112915,-0.00442505,0.0154495,0.00499725
13,2,-9.99003,-0.000610352,-0.00167847,-2.42531,0.0553758,-0.0738423,0.0553487,0.0435045,-0.0903999,0.146234,-0.126682,-0.0804342,0.00843048,0.0209427,0.0181961,0.0134659,0.0185776,0.00926971,0.0178528,0.018692,-9.97986,0.0125885,-0.00183105,0.0144577,0.00255585,-0.00480652,-0.00396729,0.0158691,0.00343323
13,3,-9.99003,0.000610352,0.000152588,-2.42562,0.0559862,-0.0744527,0.055959,0.0587633,-0.0910102,0.146234,-0.126072,-0.0819601,0.00911713,0.0205231,0.0154495,0.0130463,0.0178909,0.0094986,0.021019,0.0129318,-9.97986,0.0136185,-0.0050354,0.0144577,0.00938416,-0.00679016,-0.00297546,0.0171661,0.00488281
13,4,-9.99003,0,0.000305176,-2.42592,0.0550706,-0.0747579,0.0556539,0.0837877,-0.0882636,0.145624,-0.123935,-0.0828756,0.00972748,0.0197983,0.017662,0.0056076,0.0180435,0.00923157,0.0197983,0.0113678,-9.97986,0.0056839,-0.00423431,0.0135422,0.00553131,0.0136185,-0.000267029,0.0160217,0.00408173
13,5,-7.69114,0,0.00274658,-2.42562,0.0541551,-0.0753682,0.0556539,0.139025,-0.0846015,0.144403,-0.121494,-0.0816549,0.00759125,0.0222015,0.0173187,0.0125504,0.0165176,0.0118256,0.0169373,0.0124359,-9.97986,0.00823975,0.00263214,0.0145721,0.0094223,0.0133133,0.000419617,0.0151062,0.00362396
13,6,-0.189924,0,0.00350952,-2.42623,0.0535448,-0.0747579,0.0556539,0.150621,-0.0879585,0.143792,-0.12241,-0.0840963,0.00553131,0.0214005,0.0149536,0.0130081,0.0196075,0.0106049,0.0199509,0.0101852,-9.97986,0.0109863,-0.000114441,0.0157547,0.00579834,0.0145721,-0.00427246,0.0191498,0.00991821
13,7,7.77272,0.00244141,0.00411987,-2.42837,0.0532396,-0.0756734,0.0529073,0.152452,-0.0897895,0.144098,-0.120884,-0.0847066,0.00995636,0.0196075,0.019722,0.0130081,0.0158691,0.00774384,0.0236511,0.0118637,-9.97986,0.0112915,-0.00392914,0.0144196,0.00389099,0.014534,0.001297,0.0182724,0.00328064
13,8,10.0097,0.000305176,0.0038147,-2.43111,0.0538499,-0.0768941,0.0504659,0.117967,-0.0949775,0.143182,-0.124851,-0.0883688,0.00926971,0.0205612,0.0172806,0.0122452,0.0186157,0.0062561,0.0260544,0.0106049,-9.97986,0.0114441,-0.00408173,0.0146103,0.00583649,0.0164032,-0.00106812,0.0187683,0.00522614
13,9,10.0097,0.000610352,0.000915527,-2.42989,0.0532396,-0.0756734,0.0498555,0.0880602,-0.0986396,0.143182,-0.126682,-0.0886739,0.0103378,0.0229645,0.0165558,0.0114822,0.0170898,0.00808716,0.0193405,0.0170898,-9.97986,0.0114059,-0.000343323,0.0117874,0.00896454,0.0118637,0.000953674,0.0172806,0.00545502
14,0,10.0097,0.00244141,0.000152588,-2.42989,0.0538499,-0.0765889,0.0513814,0.0779894,-0.0955879,0.143792,-0.127292,-0.0883688,0.0109863,0.021286,0.018158,0.00907898,0.0169754,0.00850677,0.0246429,0.0146866,-9.97986,0.0172806,7.62939e-005,0.0126266,0.00576019,0.0144577,0.00118256,0.0165558,0.00427246
14,1,10.0097,-0.00152588,-0.000305176,-2.42867,0.0544603,-0.0762837,0.0526021,0.0740221,-0.0928413,0.142877,-0.126377,-0.0859274,0.0114441,0.0209427,0.0203705,0.0136948,0.0196457,0.00797272,0.0224304,0.0179672,-9.97986,0.0151443,-0.00442505,0.01091,0.00522614,0.0156784,0.00118256,0.0154877,0.00610352
14,2,10.0097,0.00152588,-0.000305176,-2.42806,0.0547655,-0.0744527,0.0532125,0.0715807,-0.0952827,0.144098,-0.125766,-0.085317,0.0129318,0.0244522,0.0215912,0.0136185,0.020256,0.00934601,0.0210571,0.0190353,-9.97986,0.0133514,-0.00144958,0.0108337,0.0075531,0.0160599,0.0025177,0.0162506,0.00488281
14,3,10.0097,0.000305176,0.000152588,-2.42776,0.0553758,-0.0747579,0.054128,0.07036,-0.0934516,0.145013,-0.125461,-0.0847066,0.0111008,0.0265884,0.0234222,0.0118256,0.0207901,0.012207,0.0224686,0.0196457,-9.97986,0.0144958,-0.00347137,0.0130463,0.00423431,0.0180435,0.00492096,0.0159836,0.00339508
14,4,10.0097,0,0.000305176,-2.42684,0.0544603,-0.075063,0.0538228,0.0712755,-0.0925361,0.144098,-0.124851,-0.0831808,0.0139236,0.0271606,0.0199127,0.0125122,0.0170517,0.00976563,0.0218582,0.0177002,-9.97986,0.0154495,0.000572205,0.0106049,0.00213623,0.0120926,0.00522614,0.0188828,0.00549316
14,5,10.0097,0.00152588,-0.000152588,-2.4247,0.0562914,-0.075063,0.0538228,0.072191,-0.0916206,0.146844,-0.124851,-0.0813497,0.0111771,0.0269318,0.0180817,0.00904083,0.0166321,0.0062561,0.0206757,0.018959,-9.97986,0.0198364,-0.00133514,0.0162506,0.0087738,0.0143051,0.00293732,0.0164032,0.0043869
14,6,10.0097,-0.000305176,0.000610352,-2.42562,0.0575121,-0.0729268,0.0547383,0.0728014,-0.0910102,0.146844,-0.123935,-0.0813497,0.0126266,0.0254822,0.0212097,0.011673,0.0211716,0.0114059,0.0232315,0.0246429,-9.97986,0.0165558,-0.000839233,0.0102615,0.00526428,0.0169754,0.0056839,0.0181198,0.00728607
14,7,10.0097,0,-0.000152588,-2.42592,0.055681,-0.075063,0.0538228,0.0596788,-0.0931465,0.146234,-0.126072,-0.0813497,0.0146866,0.0211716,0.0203323,0.0102997,0.0207901,0.0107574,0.0241089,0.0256348,-9.97986,0.0213623,-0.00225067,0.0112152,0.00526428,0.0147247,0.00579834,0.0181961,0.00576019
14,8,9.18996,-0.000305176,-0.00213623,-2.42806,0.0550706,-0.0741475,0.0516866,0.00535754,-0.100776,0.145318,-0.130039,-0.0837911,0.0112534,0.0260925,0.0233459,0.0107956,0.019722,0.0128555,0.0222015,0.0295258,-9.97986,0.0225067,-0.00301361,0.0144196,0.00480652,0.0177765,0.00354767,0.0146484,0.00850677
14,9,-0.01811,-0.0012207,-0.00396729,-2.42653,0.0572069,-0.0735371,0.0532125,-0.00654431,-0.0974189,0.146844,-0.129734,-0.0828756,0.0151825,0.0234604,0.0154114,0.0115967,0.0174332,0.0094986,0.02285,0.0265503,-9.97986,0.0211334,-0.00328064,0.014801,3.8147e-005,0.018692,0.00892639,0.0159454,0.00774384
15,0,-7.41038,-0.000610352,-0.0050354,-2.42501,0.0578172,-0.073232,0.0544332,-0.0160048,-0.0961982,0.145624,-0.130039,-0.0819601,0.0154114,0.0215912,0.0222015,0.0133896,0.0189972,0.0114441,0.0229263,0.0256348,-9.97986,0.0208664,0.000686646,0.0110626,0.00614166,0.0196457,0.00583649,0.0183868,0.00606537
15,1,-9.99003,0.000305176,-0.00320435,-2.42501,0.055681,-0.0741475,0.0550435,0.0154283,-0.0928413,0.147455,-0.127598,-0.0810445,0.00785828,0.0230789,0.0193787,0.00839233,0.019455,0.0117874,0.018692,0.0225449,-9.97986,0.0151443,-0.00362396,0.0146866,0.0062561,0.0149536,0.00747681,0.0155258,0.00488281
15,2,-9.99003,0.000610352,-0.00228882,-2.42409,0.0559862,-0.073232,0.0547383,0.0422838,-0.0910102,0.145929,-0.126682,-0.0810445,0.00602722,0.0221634,0.0211716,0.00991821,0.0162125,0.0144577,0.0237274,0.0188446,-9.97986,0.0175858,-0.00114441,0.0130844,0.00389099,-0.00823975,0.00305176,0.0156403,0.00465393
15,3,-9.99003,-0.000305176,-0.000610352,-2.42653,0.0562914,-0.075063,0.0550435,0.0605944,-0.090705,0.144403,-0.126987,-0.0813497,0.00629425,0.0248337,0.0192261,0.0155258,0.0171661,0.0112534,0.0197601,0.0173569,-9.97986,0.0128555,-0.000686646,0.0157547,0.00400543,-0.00637054,0.00331879,0.0152588,0.00816345
15,4,-9.99003,0.00213623,0.000457764,-2.42562,0.0553758,-0.0735371,0.0556539,0.0853136,-0.088874,0.146844,-0.124851,-0.0822652,0.00904083,0.0211334,0.0159836,0.00839233,0.0162125,0.00720978,0.0191116,0.0118637,-9.97986,0.0118256,-0.00282288,0.0136566,0.00675201,0.019989,0.00347137,0.014534,0.00713348
15,5,-7.5944,0,0.00366211,-2.42592,0.0541551,-0.0735371,0.0562642,0.139025,-0.0855171,0.144403,-0.121799,-0.0822652,0.0107574,0.0229645,0.0183868,0.00972748,0.0188065,0.0128555,0.0245285,0.010376,-9.97986,0.00980377,0.00087738,0.0126266,0.00537872,0.0175476,0.00473022,0.0185013,0.00652313
15,6,0.110979,0.000915527,0.00366211,-2.42653,0.0547655,-0.0756734,0.0556539,0.151537,-0.0876533,0.144403,-0.121799,-0.0837911,0.0122452,0.0260925,0.0203705,0.010376,0.0156021,0.0118256,0.0224686,0.0102615,-9.97986,0.010376,0.00282288,0.016098,0.0043869,0.0175858,0.001297,0.0147629,0.0044632
15,7,8.19173,-0.000610352,0.00457764,-2.42837,0.0538499,-0.0747579,0.054128,0.152147,-0.0891792,0.143182,-0.122104,-0.0859274,0.012207,0.026741,0.0188446,0.00911713,0.0166702,0.00995636,0.0155258,0.0100327,-9.97986,0.0122833,-0.00190735,0.0112915,0.0069046,0.0147629,0.00225067,0.0169754,0.00587463
15,8,10.0097,0.000610352,0.00320435,-2.4302,0.0538499,-0.0778096,0.0492452,0.116747,-0.0965034,0.143182,-0.124241,-0.0889791,0.0102615,0.0237656,0.019455,0.0107193,0.0198364,0.0115585,0.0198746,0.0112152,-9.97986,0.0152969,-0.00202179,0.0123596,0.00469208,0.0167847,0.00225067,0.0166702,0.00377655
15,9,10.0097,0.000610352,0.00137329,-2.42989,0.0535448,-0.075063,0.050771,0.0871447,-0.0961982,0.143182,-0.126377,-0.0886739,0.0110626,0.0258255,0.0208282,0.00961304,0.0197983,0.00984192,0.0230789,0.0162888,-9.97986,0.0087738,0.001297,0.0154495,0.00289917,0.0195694,0.000305176,0.0185013,0.00652313
16,0,10.0097,0.000610352,0.000152588,-2.42989,0.0550706,-0.0762837,0.0510762,0.0776842,-0.0980293,0.143182,-0.127903,-0.0883688,0.00839233,0.0195313,0.0180054,0.00850677,0.0176239,0.00980377,0.0204086,0.0150299,-9.97986,0.0117493,-0.000724792,0.0143433,0.00854492,0.0207138,0.00202179,0.0181961,0.00862122
16,1,10.0097,0,0.000305176,-2.42806,0.0532396,-0.0765889,0.0538228,0.0728014,-0.0952827,0.145318,-0.126377,-0.0865377,0.00976563,0.021553,0.0179291,0.0120544,0.0161362,0.00854492,0.0189972,0.0138855,-9.97986,0.0147247,0.00133514,0.0146484,0.00598907,0.0143814,-0.000152588,0.017395,0.00377655
16,2,10.0097,-0.000915527,-0.000457764,-2.42806,0.0544603,-0.0747579,0.0532125,0.07036,-0.0943672,0.143792,-0.125461,-0.085317,0.0120926,0.0244522,0.0160217,0.0120544,0.0170135,0.0130081,0.0153351,0.018959,-9.97986,0.0124359,-0.00110626,0.0115967,0.0031662,0.0158691,-0.00255585,0.0195694,0.00896454
16,3,10.0097,0.000305176,0.000305176,-2.42684,0.0550706,-0.0756734,0.0538228,0.0697496,-0.0931465,0.145013,-0.126072,-0.0840963,0.0111771,0.0227356,0.0164032,0.013504,0.0164413,0.0127792,0.0221634,0.0144196,-9.97986,0.0162888,0.0037384,0.0118637,0.00961304,0.019989,-0.00171661,0.0161743,0.0069809
16,4,10.0097,0.000610352,0.000305176,-2.42623,0.0559862,-0.0759786,0.0529073,0.07036,-0.0919257,0.145929,-0.125766,-0.0831808,0.013237,0.0267792,0.0213623,0.01091,0.017128,0.0111008,0.0236511,0.0168991,-9.97986,0.0165558,-0.000343323,0.0164413,0.00289917,0.0157547,-0.00118256,0.019455,0.00598907
16,5,10.0097,0.00152588,0.000152588,-2.42501,0.0550706,-0.0741475,0.0553487,0.0724962,-0.0922309,0.146539,-0.124241,-0.0825704,0.0101852,0.0243378,0.0210571,0.0126648,0.0203705,0.00530243,0.0211334,0.0191116,-9.97986,0.0102234,-0.00434875,0.0183487,0.00495911,0.0163269,-0.00488281,0.0169373,0.00473022
16,6,10.0097,0.000610352,0.000305176,-2.42531,0.0562914,-0.0738423,0.0550435,0.072191,-0.0910102,0.146234,-0.124241,-0.0804342,0.00888824,0.0237274,0.0188828,0.0101471,0.0192261,0.00930786,0.022049,0.0225449,-9.97986,0.0168228,-0.00202179,0.0114822,0.00164032,0.0201797,-0.00404358,0.0131226,0.00740051
16,7,10.0097,0.00183105,-0.000457764,-2.42592,0.0550706,-0.0735371,0.0535176,0.058153,-0.0943672,0.145318,-0.126072,-0.0819601,0.00926971,0.0237274,0.0185776,0.0110626,0.0130081,0.0103378,0.0209427,0.0272369,-9.97986,0.0195313,-0.00583649,0.0112534,0.00541687,0.0152588,-0.00682831,0.0156403,0.00865936
16,8,8.93056,0.00305176,-0.00152588,-2.42714,0.055681,-0.0747579,0.0516866,0.00688342,-0.0995551,0.145624,-0.130039,-0.0831808,0.0141525,0.0226593,0.0183868,0.0132751,0.0157547,0.0131607,0.0258636,0.028038,-9.97986,0.0249481,0.00038147,0.0157928,0.00629425,0.0210953,-0.0062561,0.014801,0.00740051
16,9,-0.125227,0,-0.0038147,-2.42623,0.0572069,-0.0744527,0.0538228,-0.00684949,-0.0968086,0.147149,-0.128513,-0.0813497,0.00736237,0.0237656,0.0160599,0.0144196,0.016861,0.00965118,0.0180817,0.0231934,-9.97986,0.0158691,-0.00492096,0.012207,0.00240326,0.017128,-0.00839233,0.0128937,0.00850677
17,0,-7.58738,0.000305176,-0.00396729,-2.42684,0.0565965,-0.0726216,0.0532125,-0.0172255,-0.0968086,0.145624,-0.130344,-0.0822652,0.0102615,0.025444,0.0217438,0.0088501,0.0199127,0.00785828,0.0207901,0.0246811,-9.97986,0.016861,0.00152588,0.0164413,0.00476837,0.0171661,-0.0141525,0.0136948,0.00614166
17,1,-9.99003,0.000915527,-0.00259399,-2.4247,0.0553758,-0.0735371,0.0547383,0.0181749,-0.0913154,0.146844,-0.128513,-0.0813497,0.00793457,0.0220871,0.0222015,0.00980377,0.0243759,0.0126266,0.0244904,0.0192642,-9.97986,0.0188446,-0.00431061,0.0112915,0.00389099,0.0112915,-0.0126648,0.0130081,0.00587463
17,2,-9.99003,0.000610352,-0.00167847,-2.42501,0.0547655,-0.0744527,0.0565694,0.0428942,-0.0903999,0.145624,-0.127598,-0.0813497,0.0133514,0.0240707,0.0174713,0.0111771,0.0108719,0.010376,0.0191498,0.0185394,-9.97986,0.0172424,0.000305176,0.0133133,0.00602722,-0.00953674,-0.0111389,0.0154877,0.00648499
17,3,-9.99003,0.000915527,-0.000305176,-2.42653,0.055681,-0.075063,0.0547383,0.0587633,-0.0910102,0.143487,-0.126072,-0.0822652,0.00614166,0.0233459,0.0187683,0.00934601,0.0154114,0.0129318,0.0235748,0.0114059,-9.97986,0.010376,-7.62939e-005,0.0143433,0.00900269,-0.00930786,-0.0123596,0.0170135,0.00797272
17,4,-9.99003,0.000305176,0.000762939,-2.42714,0.0547655,-0.0753682,0.0547383,0.0868395,-0.088874,0.145624,-0.124546,-0.0825704,0.00545502,0.0212479,0.0155258,0.0088501,0.0176239,0.00938416,0.019455,0.0106049,-9.97986,0.00900269,-7.62939e-005,0.0143051,0.00556946,0.0151062,-0.0130081,0.0163651,0.00286102
17,5,-7.58464,-0.000305176,0.00335693,-2.42531,0.0559862,-0.0744527,0.0562642,0.137804,-0.0855171,0.143792,-0.121189,-0.0831808,0.00663757,0.0208282,0.0162506,0.0117874,0.0194931,0.00827789,0.0222397,0.0127029,-9.97986,0.00835419,-0.00156403,0.0131226,0.00476837,0.0143433,-0.0141525,0.0136185,0.00720978
17,6,-0.0709054,0.000610352,0.00350952,-2.42714,0.0541551,-0.0762837,0.0550435,0.149401,-0.0876533,0.144403,-0.121494,-0.0844015,0.00736237,0.02388,0.0173187,0.00988007,0.0193787,0.00988007,0.0211334,0.00778198,-9.97986,0.00267029,0.00148773,0.0146103,0.00205994,0.0155258,-0.0094986,0.0135803,0.00717163
17,7,7.94728,0,0.00442505,-2.42806,0.0541551,-0.0765889,0.0529073,0.151537,-0.0894843,0.142877,-0.121189,-0.0850118,0.00778198,0.0208282,0.0147247,0.0108719,0.018692,0.0112915,0.0234604,0.0148392,-9.97986,0.00751495,-0.00377655,0.0151443,0.00915527,0.0141907,-0.0134659,0.0136948,0.00839233
17,8,10.0097,-0.00244141,0.00259399,-2.43172,0.0532396,-0.0771993,0.0501607,0.116442,-0.0977241,0.142267,-0.124851,-0.0886739,0.0107193,0.0178528,0.0172043,0.0147629,0.0169373,0.00904083,0.0204468,0.0139999,-9.97986,0.0130081,0.000457764,0.0139236,0.0108719,0.0171661,-0.0161362,0.014267,0.00610352
17,9,10.0097,-0.000610352,0.000610352,-2.43111,0.0532396,-0.0759786,0.050771,0.0880602,-0.0974189,0.143487,-0.126682,-0.0877584,0.0101471,0.0188828,0.0174332,0.00938416,0.0177383,0.0119019,0.0212097,0.0157547,-9.97986,0.014534,-0.00686646,0.0133514,0.00995636,0.0176239,-0.0147629,0.0133133,0.00740051
18,0,10.0097,0.000915527,0,-2.42928,0.0529344,-0.0759786,0.0516866,0.0776842,-0.0961982,0.142877,-0.126987,-0.0880636,0.0105667,0.0227356,0.0186539,0.010376,0.0177383,0.00656128,0.0201035,0.0156403,-9.97986,0.0112915,0.00110626,0.012207,0.00587463,0.0175858,-0.0148773,0.0161743,0.00595093
18,1,10.0097,0,-0.000457764,-2.42867,0.055681,-0.0765889,0.0513814,0.0731066,-0.0965034,0.144098,-0.126682,-0.0865377,0.0126648,0.0244904,0.0204468,0.0115204,0.0143433,0.0125122,0.0197601,0.0188065,-9.97986,0.0146866,-0.00213623,0.0125122,0.00621796,0.0161743,-0.0127792,0.0139999,0.00305176
18,2,10.0097,0.000610352,0.000457764,-2.42745,0.0532396,-0.0756734,0.0522969,0.0718859,-0.094062,0.144098,-0.125461,-0.0850118,0.00980377,0.0230789,0.0177002,0.0121689,0.0133896,0.0118637,0.0250244,0.016861,-9.97986,0.0170135,-0.00144958,0.0127792,0.00778198,0.0134277,-0.0128174,0.0138092,0.00442505
18,3,10.0097,0,-0.000457764,-2.42623,0.0550706,-0.0756734,0.0532125,0.0712755,-0.0928413,0.145318,-0.125766,-0.085317,0.00892639,0.0199127,0.0163651,0.0162506,0.0212479,0.00659943,0.0257492,0.0172806,-9.97986,0.0157547,-0.00328064,0.0127411,0.00778198,0.0172043,-0.0125885,0.0143433,0.00637054
18,4,10.0097,0,0.000152588,-2.42714,0.0550706,-0.0756734,0.0532125,0.072191,-0.0931465,0.145624,-0.125156,-0.0837911,0.01091,0.0204086,0.0205612,0.0127029,0.0168228,0.0107956,0.0231171,0.0183868,-9.97986,0.0142288,0.00202179,0.0129318,0.00770569,0.0169373,-0.0117493,0.0134277,0.00385284
18,5,10.0097,0.000610352,0.000610352,-2.42501,0.0565965,-0.0735371,0.0550435,0.0731066,-0.0919257,0.146539,-0.124546,-0.0822652,0.011673,0.0204849,0.0204468,0.0112915,0.0166702,0.0134277,0.0251389,0.021286,-9.97986,0.0171661,-0.00152588,0.0167465,0.00919342,0.0168991,-0.00953674,0.0150299,0.00499725
18,6,10.0097,-0.000915527,0.000457764,-2.4247,0.0562914,-0.0735371,0.0553487,0.072191,-0.0913154,0.147455,-0.124241,-0.0810445,0.01297,0.0207901,0.0177765,0.0118637,0.017395,0.00888824,0.0252533,0.0209808,-9.97986,0.0210571,-0.000953674,0.0155258,0.00740051,0.0156403,-0.0105286,0.0127411,0.0069046
18,7,10.0097,0.00183105,-0.000152588,-2.42531,0.055681,-0.0738423,0.0532125,0.0608995,-0.0931465,0.146539,-0.125461,-0.0813497,0.0120544,0.0201797,0.0152588,0.0113297,0.0190735,0.00888824,0.0256729,0.0241089,-9.97986,0.0213623,0.00144958,0.0154114,0.00770569,0.0178146,-0.00865936,0.0175095,0.00659943
18,8,9.1039,-0.000305176,-0.00167847,-2.42745,0.055681,-0.0741475,0.0522969,0.00657824,-0.0995551,0.146234,-0.129734,-0.0834859,0.0122833,0.0207138,0.015564,0.010643,0.0174713,0.00564575,0.0224304,0.0272369,-9.97986,0.0211334,-0.00495911,0.0128937,0.00904083,0.0169373,-0.0105286,0.0125885,0.00450134
18,9,0.0151542,0.000610352,-0.0038147,-2.42684,0.0569017,-0.0729268,0.0535176,-0.00745984,-0.0977241,0.146844,-0.130039,-0.0822652,0.0165176,0.0226593,0.0188065,0.0123596,0.0166702,0.00888824,0.0222397,0.0221634,-9.97986,0.0224686,0.000343323,0.0137329,0.00812531,0.0148392,-0.0104141,0.0162888,0.00598907
19,0,-7.48118,-0.0012207,-0.00488281,-2.42592,0.0562914,-0.0744527,0.0538228,-0.0160048,-0.0977241,0.146539,-0.129429,-0.0816549,0.0159454,0.0174713,0.0198364,0.0115204,0.0177383,0.00831604,0.0216293,0.0196457,-9.97986,0.0175476,0.000419617,0.0128937,0.00934601,0.0159836,-0.0139236,0.0164032,0.00572205
19,1,-9.99003,0.0012207,-0.00259399,-2.42409,0.0562914,-0.0738423,0.0556539,0.0181749,-0.0928413,0.146539,-0.128513,-0.0816549,0.0125885,0.0244904,0.0209427,0.0148773,0.0202179,0.0114822,0.0220871,0.0230408,-9.97986,0.0202942,-0.00297546,0.0129318,0.00541687,0.0148773,-0.00724792,0.0157928,0.00530243
19,2,-9.99003,0.000305176,-0.00137329,-2.4247,0.0562914,-0.075063,0.0565694,0.0419786,-0.0916206,0.145318,-0.127598,-0.0810445,0.0113297,0.0232315,0.0218964,0.0094223,0.0216293,0.0126266,0.0233459,0.0192642,-9.97986,0.0160599,-0.00167847,0.0094986,0.00545502,-0.00850677,-0.00846863,0.0143051,0.0050354
19,3,-9.99003,0.000305176,-0.000610352,-2.42562,0.0553758,-0.0747579,0.0547383,0.0578478,-0.0900947,0.145929,-0.125766,-0.0822652,0.00862122,0.0194931,0.018425,0.0109482,0.0154114,0.00827789,0.0176239,0.00999451,-9.97986,0.00896454,-0.00213623,0.0162506,0.00747681,-0.00785828,-0.00545502,0.0146484,0.00919342
19,4,-9.99003,-0.000305176,0.000457764,-2.42501,0.0553758,-0.073232,0.0553487,0.0862291,-0.0885688,0.146234,-0.124546,-0.0822652,0.0128555,0.0234222,0.0177002,0.00900269,0.0207901,0.00514984,0.0222778,0.0127029,-9.97986,0.0113678,-0.000610352,0.012207,0.00679016,0.0164032,-0.00335693,0.0150299,0.00621796
19,5,-7.38383,0.000915527,0.00305176,-2.42592,0.0535448,-0.0747579,0.0565694,0.138719,-0.0839912,0.145013,-0.121494,-0.0822652,0.0125122,0.0273132,0.0163651,0.0122452,0.0202179,0.00289917,0.0237274,0.00835419,-9.97986,0.00926971,0.00255585,0.0177002,0.00679016,0.0159073,-0.00247955,0.0158691,0.00484467
19,6,0.283404,0.000305176,0.00320435,-2.42684,0.0541551,-0.0753682,0.0544332,0.151232,-0.0873481,0.143487,-0.121189,-0.0847066,0.0101852,0.0185013,0.0214005,0.0118637,0.0167465,0.00995636,0.0187302,0.00843048,-9.97986,0.00770569,0.000648499,0.0146866,0.00785828,0.0136185,-0.00835419,0.0138474,0.00621796
19,7,8.2372,0.00213623,0.0038147,-2.42776,0.0547655,-0.0759786,0.0538228,0.152452,-0.0897895,0.145013,-0.120273,-0.0840963,0.0102234,0.0216293,0.0217438,0.0115967,0.0163651,0.00881195,0.0208282,0.00808716,-9.97986,0.00984192,0.00205994,0.0144958,0.00869751,0.0211716,-0.00427246,0.0174713,0.00778198
19,8,10.0097,0.000305176,0.00244141,-2.43203,0.0526292,-0.0759786,0.0501607,0.116747,-0.0961982,0.141351,-0.125461,-0.0877584,0.00946045,0.0242615,0.0199509,0.0115585,0.0184631,0.00961304,0.0230789,0.0115204,-9.97986,0.0119781,-0.00389099,0.0175858,0.00629425,0.0144196,-0.00244141,0.0174713,0.0069046
19,9,10.0097,0,0.0012207,-2.4305,0.0535448,-0.0771993,0.0501607,0.087755,-0.0980293,0.143792,-0.126682,-0.0886739,0.0139999,0.0242996,0.0185013,0.013237,0.019722,0.0119019,0.0222778,0.0151443,-9.97986,0.0154877,-0.0012207,0.0146866,0.00587463,0.0135422,-0.00415802,0.0164032,0.00354767
20,0,10.0097,0.00305176,0.000305176,-2.42867,0.0544603,-0.0762837,0.0513814,0.0779894,-0.0974189,0.144098,-0.127292,-0.0883688,0.00793457,0.022583,0.019722,0.0128555,0.0175095,0.00919342,0.0225067,0.0142288,-9.97986,0.014534,-0.00247955,0.0167465,0.00797272,0.0177765,-0.00255585,0.0167465,0.00465393
20,1,10.0097,-0.0012207,-0.000152588,-2.42959,0.0544603,-0.0753682,0.0516866,0.0743273,-0.0943672,0.144708,-0.126377,-0.0859274,0.0125504,0.0226212,0.0218582,0.0137329,0.0203323,0.0126266,0.0252533,0.0153732,-9.97986,0.0125504,-0.00225067,0.0100708,0.00804901,0.0158691,-0.00205994,0.0165939,0.00686646
20,2,10.0097,0.0012207,0,-2.42867,0.0541551,-0.075063,0.0529073,0.072191,-0.0931465,0.145013,-0.125766,-0.0847066,0.0117874,0.0217056,0.0190735,0.0129318,0.0183868,0.0143814,0.0238037,0.0158691,-9.97986,0.0146866,-0.00522614,0.015564,0.00793457,0.0153732,-0.000457764,0.0157928,0.00598907
20,3,10.0097,0.000915527,0,-2.42653,0.0553758,-0.0741475,0.0535176,0.0706652,-0.0925361,0.144098,-0.126072,-0.0840963,0.0125504,0.0213242,0.023613,0.0110245,0.0178528,0.00888824,0.017662,0.0131607,-9.97986,0.0153732,0.00137329,0.0171661,0.00976563,0.0176239,0.000610352,0.0205994,0.00694275
20,4,10.0097,-0.000610352,-0.000610352,-2.42684,0.0550706,-0.0747579,0.0535176,0.07036,-0.0928413,0.146539,-0.124241,-0.0831808,0.0101471,0.0208282,0.0214386,0.0119781,0.0156021,0.0119019,0.022049,0.0147629,-9.97986,0.0165939,-0.00228882,0.0148773,0.00667572,0.0181961,0.00209808,0.021286,0.00484467
20,5,10.0097,0.000915527,0.000305176,-2.42562,0.0562914,-0.0738423,0.0547383,0.0718859,-0.0913154,0.147455,-0.125156,-0.0810445,0.0106812,0.0249481,0.0192642,0.0140381,0.0172043,0.00919342,0.0246811,0.0174332,-9.97986,0.0154495,-7.62939e-005,0.0145721,0.00732422,0.0188446,-0.00347137,0.0177002,0.0062561
20,6,10.0097,-0.000915527,0.000305176,-2.42409,0.0559862,-0.0738423,0.054128,0.072191,-0.090705,0.145624,-0.12363,-0.0813497,0.0131226,0.0198364,0.0204468,0.0124741,0.0217056,0.0108719,0.0211334,0.0198364,-9.97986,0.019455,-0.000991821,0.0170898,0.00846863,0.0191116,0.000152588,0.0192642,0.00537872
20,7,10.0097,0.00152588,0,-2.42684,0.0562914,-0.0756734,0.0544332,0.0590685,-0.0937568,0.146234,-0.125766,-0.0825704,0.00999451,0.0213623,0.0177383,0.0094986,0.0195694,0.0118256,0.0215912,0.0284195,-9.97986,0.0229263,-0.00221252,0.0149918,0.0109863,0.0181198,-0.00118256,0.0162506,0.00610352
20,8,8.99526,0.000305176,-0.00244141,-2.42714,0.0565965,-0.0753682,0.0513814,0.00657824,-0.100776,0.145318,-0.130039,-0.0837911,0.00976563,0.0245667,0.0182343,0.0112534,0.0165558,0.0149536,0.022049,0.0317001,-9.97986,0.0230026,-0.00278473,0.0170517,0.00572205,0.011673,0.000114441,0.0173187,0.00953674
20,9,-0.0980661,-0.000305176,-0.00411987,-2.42653,0.0562914,-0.0735371,0.0532125,-0.00807019,-0.0968086,0.146844,-0.129429,-0.0822652,0.0123978,0.0261688,0.0178528,0.0124359,0.0136566,0.0133133,0.0170898,0.0266647,-9.97986,0.0231934,-0.00350952,0.0117874,0.00324249,0.0159073,-0.00148773,0.0137329,0.00694275
21,0,-7.54039,0.0012207,-0.00457764,-2.42592,0.0553758,-0.0744527,0.0529073,-0.0172255,-0.095893,0.147149,-0.130649,-0.0807394,0.0141144,0.0214386,0.0193787,0.0124741,0.0140762,0.00965118,0.0196075,0.0208664,-9.97986,0.0191116,0.000915527,0.0157928,0.0129318,0.0187302,0.0012207,0.0182724,0.00778198
21,1,-9.99003,-0.000610352,-0.00259399,-2.42501,0.0550706,-0.0738423,0.0556539,0.016649,-0.0913154,0.14776,-0.128208,-0.0810445,0.0134659,0.0259781,0.0189209,0.0120544,0.0176239,0.0105667,0.0194168,0.018158,-9.97986,0.020256,-0.000534058,0.014534,0.00831604,0.0124359,0.00171661,0.0156403,0.00705719
21,2,-9.99003,-0.0012207,-0.00137329,-2.42653,0.0565965,-0.073232,0.0571797,0.0438097,-0.0897895,0.145318,-0.127598,-0.0822652,0.0128555,0.0243378,0.0194931,0.0114822,0.0181961,0.0103378,0.0210571,0.0242615,-9.97986,0.0149536,-0.00209808,0.0160599,0.00614166,-0.00659943,0.00221252,0.0168991,0.00789642
21,3,-9.99003,0.00152588,-0.000305176,-2.42623,0.0550706,-0.075063,0.0547383,0.0593737,-0.0922309,0.145318,-0.125156,-0.0816549,0.00804901,0.0217438,0.0191879,0.0116348,0.0216293,0.0112152,0.0197983,0.0135422,-9.97986,0.0103378,-0.00213623,0.012207,0.00640869,-0.00549316,0.0062561,0.0156021,0.0087738
21,4,-9.99003,0.000610352,0.000610352,-2.42501,0.0550706,-0.0747579,0.0553487,0.0847032,-0.0882636,0.145929,-0.124241,-0.0822652,0.014267,0.025444,0.0167847,0.01091,0.0148392,0.00892639,0.0227356,0.00915527,-9.97986,0.0130844,0.000305176,0.0149536,0.00278473,0.0168228,0.00350952,0.0152969,0.00511169
21,5,-7.671,-0.000915527,0.00289917,-2.42623,0.055681,-0.0756734,0.0565694,0.137499,-0.0864326,0.145013,-0.121799,-0.0822652,0.0117493,0.0242996,0.0154877,0.0130081,0.0136185,0.0124359,0.0218964,0.0147629,-9.97986,0.00907898,0.00205994,0.0115967,0.00740051,0.0183868,0.00236511,0.019455,0.00328064
21,6,-0.085859,0.00274658,0.00457764,-2.42776,0.0538499,-0.0753682,0.0550435,0.150926,-0.0879585,0.144098,-0.121799,-0.0840963,0.00976563,0.0287628,0.0178909,0.0127029,0.0177383,0.0141907,0.0209045,0.0120163,-9.97986,0.00846863,-0.001297,0.0154114,0.00499725,0.0198746,-0.000839233,0.0159073,0.00782013
21,7,8.00618,0,0.00411987,-2.42806,0.0535448,-0.0753682,0.0535176,0.153063,-0.0897895,0.144098,-0.12302,-0.085317,0.00675201,0.0269318,0.0168991,0.00789642,0.0161362,0.00717163,0.0206757,0.0112915,-9.97986,0.00968933,-0.00331879,0.0152969,0.00526428,0.0168991,0.00240326,0.0197601,0.00682831
21,8,10.0097,0,0.00289917,-2.4305,0.0529344,-0.0762837,0.0501607,0.117967,-0.0968086,0.141656,-0.124241,-0.0883688,0.00930786,0.0254059,0.0185013,0.0136948,0.0138855,0.00671387,0.0195694,0.0131607,-9.97986,0.0135422,-0.00190735,0.016098,0.0050354,0.0157166,-0.000610352,0.0159836,0.0056076
21,9,10.0097,-0.000305176,0.000762939,-2.4302,0.0520189,-0.0765889,0.0498555,0.0889757,-0.0971137,0.143487,-0.125156,-0.0880636,0.0101089,0.0244904,0.0194931,0.0140762,0.0172424,0.00934601,0.0208282,0.0177383,-9.97986,0.0123215,-0.00232697,0.0150299,0.00534058,0.017128,0.00141144,0.0170898,0.00595093
22,0,10.0097,-0.0012207,0.000305176,-2.42959,0.0535448,-0.0762837,0.0504659,0.0758531,-0.0961982,0.145013,-0.127292,-0.0874532,0.0115204,0.025444,0.0178909,0.0088501,0.0126266,0.0105667,0.0201797,0.0141144,-9.97986,0.0169754,-0.00102997,0.0136185,0.00705719,0.0180817,0.00164032,0.0164032,0.00659943
22,1,10.0097,0.000305176,-0.000305176,-2.42745,0.0544603,-0.0753682,0.050771,0.0731066,-0.0943672,0.145013,-0.126987,-0.0868429,0.0115585,0.0238419,0.0169754,0.00667572,0.0113678,0.00823975,0.0180817,0.0128937,-9.97986,0.0138474,-0.0012207,0.00965118,0.00804901,0.0177002,0.000762939,0.0133896,0.00629425
22,2,10.0097,0.000610352,-0.000305176,-2.42806,0.0544603,-0.0741475,0.0529073,0.0706652,-0.0961982,0.144403,-0.126377,-0.085317,0.0150299,0.0280762,0.0230789,0.0147247,0.0218582,0.0149918,0.0231552,0.0194168,-9.97986,0.0191116,0.00209808,0.0175858,0.00991821,0.0196457,0.00221252,0.02285,0.00675201
22,3,10.0097,0.00305176,-0.000152588,-2.42714,0.0550706,-0.075063,0.0538228,0.0700548,-0.0928413,0.145013,-0.125766,-0.0850118,0.00587463,0.0211716,0.0145721,0.00732422,0.0133133,0.00724792,0.0191498,0.0135422,-9.97986,0.0114059,-0.0038147,0.0140762,0.00339508,0.0144196,-0.00247955,0.0141525,0.00476837
22,4,10.0097,-0.000915527,0.000762939,-2.42745,0.0553758,-0.0735371,0.054128,0.0718859,-0.0922309,0.144708,-0.125156,-0.0844015,0.0147629,0.0263977,0.0222397,0.0124741,0.0206757,0.0146484,0.022583,0.021286,-9.97986,0.0177002,-0.00247955,0.015564,0.00904083,0.0193405,0.00408173,0.0177765,0.00835419
22,5,10.0097,-0.000610352,-0.000305176,-2.42623,0.0550706,-0.0729268,0.0547383,0.0709703,-0.0928413,0.147455,-0.124241,-0.0819601,0.0123596,0.025444,0.0172424,0.0130844,0.0168991,0.0144958,0.0202942,0.0205994,-9.97986,0.0206375,-0.000686646,0.018959,0.00629425,0.0160599,-0.00038147,0.0162125,0.0062561
22,6,10.0097,-0.00152588,-0.000152588,-2.42379,0.0559862,-0.0735371,0.055959,0.0715807,-0.0916206,0.145318,-0.124241,-0.0804342,0.0135803,0.0237274,0.0190735,0.0112152,0.019722,0.00938416,0.0212479,0.0244141,-9.97986,0.015564,-0.000534058,0.0113297,0.00648499,0.0210953,-0.000648499,0.0166702,0.00537872
22,7,10.0097,0.000610352,0.000457764,-2.42714,0.0553758,-0.0747579,0.0538228,0.0630358,-0.094062,0.145929,-0.124546,-0.0825704,0.0135422,0.0266647,0.0160217,0.013237,0.0192642,0.0110626,0.0221634,0.0247955,-9.97986,0.0206375,-0.0043869,0.0129318,0.00740051,0.017395,0.000228882,0.0183487,0.00644684
22,8,9.15242,-0.00335693,-0.00244141,-2.42714,0.0550706,-0.0744527,0.0513814,0.00657824,-0.0995551,0.146234,-0.130344,-0.0837911,0.0137711,0.0259018,0.0214386,0.00728607,0.0190353,0.00938416,0.0245285,0.0291824,-9.97986,0.0235748,-0.00331879,0.0154495,0.00671387,0.0202179,-0.000762939,0.0172424,0.00888824
22,9,0.0514701,0.000305176,-0.0038147,-2.42531,0.0562914,-0.0747579,0.0532125,-0.00654431,-0.095893,0.146844,-0.129429,-0.0816549,0.0140762,0.0243378,0.0223923,0.0115585,0.0141144,0.0104523,0.0234604,0.0261307,-9.97986,0.0199127,-0.00289917,0.0146484,0.0082016,0.0209427,0.000114441,0.0144958,0.00720978
23,0,-7.40184,-0.000915527,-0.00457764,-2.42684,0.0569017,-0.0744527,0.0532125,-0.0166151,-0.0961982,0.147455,-0.130039,-0.0819601,0.0135803,0.0225449,0.0203323,0.00976563,0.0174713,0.0125504,0.0240707,0.0222015,-9.97986,0.0219345,-0.00167847,0.0154114,0.00988007,0.0199509,0.00125885,0.0180054,0.00663757
23,1,-9.99003,0.000305176,-0.00305176,-2.42562,0.0559862,-0.0741475,0.0562642,0.0178697,-0.0922309,0.145929,-0.127903,-0.0816549,0.00953674,0.0239944,0.0194931,0.01194,0.0186157,0.00869751,0.0230408,0.0235367,-9.97986,0.0209045,-0.00270844,0.0173187,0.00671387,0.0165176,0.00160217,0.01297,0.00774384
23,2,-9.99003,0.0012207,-0.0012207,-2.4247,0.0562914,-0.0720113,0.0550435,0.0435045,-0.0903999,0.145013,-0.126987,-0.0810445,0.0132751,0.0214005,0.0141525,0.0120926,0.0146484,0.0101471,0.0208664,0.0153732,-9.97986,0.0122833,0.000495911,0.0171661,0.00797272,0.000457764,-0.00198364,0.0166702,0.00881195
23,3,-9.99003,0.00152588,-0.000457764,-2.42592,0.0550706,-0.0747579,0.0553487,0.058153,-0.0916206,0.146234,-0.126072,-0.0816549,0.0102234,0.0257111,0.0214767,0.0150681,0.0206375,0.0120544,0.0221634,0.0106049,-9.97986,0.0138855,-0.00278473,0.0170135,0.00961304,0.00160217,0.00270844,0.0190353,0.00679016
23,4,-9.99003,0,0.000915527,-2.42592,0.0544603,-0.0744527,0.0565694,0.0853136,-0.090705,0.144708,-0.124851,-0.0828756,0.00801086,0.0221252,0.0201416,0.0158691,0.0159836,0.0117493,0.0231171,0.0119781,-9.97986,0.0112152,-0.000534058,0.0177765,0.00831604,0.0169754,0.000991821,0.0170517,0.00717163
23,5,-7.27672,0.00274658,0.00305176,-2.42623,0.0550706,-0.0747579,0.0565694,0.140856,-0.0855171,0.145013,-0.121189,-0.0828756,0.00671387,0.0256729,0.015564,0.00923157,0.0178528,0.0104904,0.0212479,0.0109482,-9.97986,0.00579834,-0.00236511,0.0115585,0.00694275,0.0166321,-0.00125885,0.0150299,0.00244141
23,6,0.420733,0.000305176,0.00350952,-2.42653,0.0547655,-0.0756734,0.0550435,0.151537,-0.0870429,0.143182,-0.121494,-0.0837911,0.0088501,0.0257492,0.0203705,0.00675201,0.0170135,0.0117111,0.0239944,0.00965118,-9.97986,0.00953674,0.000190735,0.0148773,0.0101471,0.018692,0.0018692,0.0155258,0.00701904
23,7,8.50514,0,0.00411987,-2.42806,0.0532396,-0.0756734,0.0532125,0.152757,-0.0897895,0.143487,-0.121799,-0.0865377,0.00720978,0.0253296,0.021019,0.0109863,0.0160599,0.0104523,0.0206375,0.00766754,-9.97986,0.00858307,-0.00274658,0.0149918,0.00389099,0.0126648,-0.000915527,0.0147629,0.0050354
23,8,10.0097,0.00213623,0.00305176,-2.43172,0.0532396,-0.0765889,0.0504659,0.114,-0.0977241,0.143487,-0.125461,-0.0883688,0.00762939,0.0243378,0.0203705,0.00907898,0.0178909,0.0126648,0.0242233,0.0107574,-9.97986,0.0116348,0.00179291,0.0161743,0.00736237,0.0183487,0.00183105,0.0189209,0.00862122
23,9,10.0097,0.000610352,0.000915527,-2.42898,0.0544603,-0.0756734,0.0516866,0.0871447,-0.0961982,0.141961,-0.126377,-0.0883688,0.0069809,0.0190735,0.0172424,0.0110626,0.0165939,0.0111008,0.02285,0.0148392,-9.97986,0.0107574,-0.00202179,0.0108337,0.00480652,0.014534,-0.00400543,0.0159073,0.00583649
24,0,10.0097,-0.000915527,0,-2.4305,0.0535448,-0.0768941,0.0510762,0.0779894,-0.0961982,0.144098,-0.126377,-0.0874532,0.0119019,0.0242615,0.0183487,0.0151062,0.0154114,0.00972748,0.019989,0.0151062,-9.97986,0.0132751,-0.00110626,0.0144577,0.00644684,0.0148392,-0.00225067,0.0154114,0.00812531
24,1,10.0097,-0.0012207,-0.000305176,-2.42714,0.0541551,-0.0759786,0.0529073,0.0737169,-0.0955879,0.142877,-0.126682,-0.0859274,0.00679016,0.0217819,0.018158,0.0094986,0.018959,0.0094986,0.0191498,0.0138474,-9.97986,0.0168991,-0.00469208,0.0186539,0.0044632,0.0163269,-0.00278473,0.0177765,0.00736237
24,2,10.0097,0.000610352,-0.000152588,-2.42776,0.0541551,-0.0744527,0.0529073,0.0715807,-0.0943672,0.145318,-0.126377,-0.0865377,0.0102615,0.022049,0.0188446,0.0123978,0.0170898,0.00934601,0.0194168,0.0170517,-9.97986,0.018158,-0.00148773,0.0128555,0.00637054,0.0123978,0.00087738,0.0181961,0.00656128
24,3,10.0097,0.0012207,0.000610352,-2.42745,0.0550706,-0.0738423,0.0535176,0.0712755,-0.0934516,0.145624,-0.125766,-0.0844015,0.0140762,0.0225067,0.0179672,0.0107956,0.0156784,0.00713348,0.0192642,0.0168228,-9.97986,0.0180435,0.00240326,0.0162125,0.00980377,0.0167465,0.00110626,0.0167465,0.00732422
24,4,10.0097,0.000915527,0.000457764,-2.42653,0.0553758,-0.0735371,0.0535176,0.0706652,-0.0919257,0.143792,-0.125461,-0.0831808,0.0117493,0.0229263,0.018692,0.0130463,0.0124359,0.0105286,0.02285,0.0186539,-9.97986,0.0176239,0.00175476,0.0164413,0.00576019,0.0173187,-0.00228882,0.016861,0.00831604
24,5,10.0097,-0.000305176,-0.000152588,-2.4247,0.0559862,-0.0744527,0.0535176,0.0715807,-0.0919257,0.14837,-0.124546,-0.0819601,0.00961304,0.0240326,0.0196838,0.0150681,0.0125504,0.0141144,0.022316,0.021019,-9.97986,0.0208282,-3.8147e-005,0.0126648,0.00823975,0.0207901,-0.00263214,0.0186539,0.00572205
24,6,10.0097,0.000610352,0.000152588,-2.42409,0.0575121,-0.0747579,0.0547383,0.0712755,-0.0922309,0.147149,-0.12363,-0.0804342,0.0088501,0.0215912,0.0201416,0.0107574,0.0170517,0.0127029,0.023613,0.0227737,-9.97986,0.0177383,-3.8147e-005,0.0169373,0.00846863,0.0214005,0.000419617,0.0156403,0.00442505
24,7,10.0097,0,0.000152588,-2.42684,0.0550706,-0.0744527,0.0532125,0.058153,-0.094062,0.145929,-0.125766,-0.0825704,0.00850677,0.0245285,0.0213623,0.010376,0.0209808,0.0113678,0.0226593,0.0304031,-9.97986,0.0218582,0.000991821,0.0138855,0.00785828,0.0185394,-0.000534058,0.015831,0.00511169
24,8,8.89729,0.000305176,-0.00183105,-2.42745,0.0559862,-0.0735371,0.0516866,0.00596789,-0.100165,0.145929,-0.128818,-0.0834859,0.0134277,0.0249481,0.0186157,0.0137711,0.0148773,0.0102615,0.0238419,0.0292206,-9.97986,0.0239944,-0.000152588,0.0168228,0.00850677,0.0174713,-0.00564575,0.0172424,0.00709534
24,9,-0.185957,0.000610352,-0.00335693,-2.42501,0.0575121,-0.0726216,0.0532125,-0.00807019,-0.095893,0.146234,-0.130039,-0.0816549,0.0120926,0.0207138,0.0168228,0.0116348,0.0167084,0.00896454,0.0246429,0.0281906,-9.97986,0.0260544,-0.000991821,0.0155258,0.0087738,0.0157166,-0.000228882,0.0152588,0.00774384
25,0,-7.67314,0,-0.00457764,-2.42531,0.0562914,-0.0738423,0.054128,-0.018141,-0.0961982,0.147149,-0.130344,-0.0810445,0.0136185,0.0204086,0.0178146,0.0100708,0.0150681,0.00778198,0.0190353,0.0222015,-9.97986,0.022049,3.8147e-005,0.0113678,0.00350952,0.0173187,-0.00301361,0.0154114,0.00522614
25,1,-9.99003,0.0012207,-0.00289917,-2.42592,0.0565965,-0.0738423,0.0562642,0.0169542,-0.0937568,0.146844,-0.126987,-0.0807394,0.0122833,0.0190735,0.0207138,0.0131607,0.0136185,0.0132751,0.0231171,0.0233841,-9.97986,0.0146866,-0.000648499,0.0146484,0.00751495,0.014801,-0.00209808,0.0190353,0.00312805
25,2,-9.99003,0.000610352,-0.00106812,-2.4247,0.0553758,-0.0741475,0.0556539,0.0438097,-0.0894843,0.145624,-0.126377,-0.0807394,0.01297,0.0251007,0.0205994,0.0148392,0.0188065,0.00911713,0.0223541,0.0174332,-9.97986,0.0177383,0.000991821,0.018425,0.00747681,-0.0050354,-0.00232697,0.0178146,0.00652313
25,3,-9.99003,0.00244141,-0.000610352,-2.42501,0.055681,-0.075063,0.0547383,0.0590685,-0.0922309,0.145318,-0.126377,-0.0825704,0.0094986,0.0245285,0.0201035,0.0109482,0.0156403,0.00957489,0.0165176,0.0117874,-9.97986,0.0138092,-0.00217438,0.0156021,0.00999451,-0.00843048,0.000267029,0.0157547,0.00350952
25,4,-9.99003,0.00213623,0.000457764,-2.4244,0.0562914,-0.0741475,0.055959,0.0865343,-0.0885688,0.145318,-0.123935,-0.0822652,0.00991821,0.0180817,0.0205994,0.00904083,0.0143051,0.00907898,0.0273132,0.00999451,-9.97986,0.0112915,0.00102997,0.0147629,0.0103378,0.0179672,0.000305176,0.0183487,0.00595093
25,5,-7.65056,-0.000305176,0.0038147,-2.42623,0.0550706,-0.073232,0.0565694,0.138414,-0.0849067,0.145013,-0.121189,-0.0831808,0.0129318,0.020752,0.0183868,0.00709534,0.0196838,0.00667572,0.0241089,0.00926971,-9.97986,0.0112915,0.000953674,0.0138855,0.00923157,0.0161743,-0.00328064,0.0149918,0.00377655
25,6,0.0352958,0.000915527,0.00427246,-2.42806,0.0535448,-0.0765889,0.0553487,0.152147,-0.0876533,0.144403,-0.120884,-0.0847066,0.0104904,0.0234604,0.0206375,0.00968933,0.0184631,0.0121689,0.0209045,0.00782013,-9.97986,0.00789642,-0.000686646,0.013504,0.00816345,0.0188446,-0.0012207,0.014534,0.00389099
25,7,8.05409,0.000610352,0.00473022,-2.42776,0.0535448,-0.0747579,0.0535176,0.153063,-0.0897895,0.143487,-0.121494,-0.085317,0.0114059,0.0275803,0.0152588,0.01091,0.0164413,0.00961304,0.0255203,0.01297,-9.97986,0.0152588,0.000724792,0.0122833,0.00534058,0.0166321,0.00244141,0.0166702,0.00480652
25,8,10.0097,-0.000305176,0.00274658,-2.43142,0.0529344,-0.0778096,0.0498555,0.115831,-0.0968086,0.142572,-0.125156,-0.0886739,0.00778198,0.0248337,0.0201416,0.00782013,0.0151062,0.0116348,0.0232697,0.0132751,-9.97986,0.0120544,-0.00167847,0.0119781,0.0069809,0.0180435,0.00202179,0.0167084,0.00663757
25,9,10.0097,0.000610352,0.000762939,-2.42928,0.0532396,-0.0765889,0.050771,0.0886705,-0.0971137,0.143487,-0.126377,-0.0883688,0.013237,0.0247192,0.0149918,0.0102997,0.0154877,0.0108719,0.0230789,0.0143433,-9.97986,0.0151443,0.000267029,0.0166702,0.010643,0.0181961,0.00270844,0.017128,0.00682831
26,0,10.0097,0.000305176,-0.000305176,-2.42959,0.0535448,-0.0747579,0.0516866,0.0767687,-0.0968086,0.141961,-0.126377,-0.0877584,0.00720978,0.0225067,0.0199509,0.0107956,0.0160599,0.00789642,0.0194931,0.0125122,-9.97986,0.00980377,-0.000114441,0.016098,0.00793457,0.0177002,-0.00160217,0.0157547,0.00587463
26,1,10.0097,0.00152588,-0.000610352,-2.42837,0.0535448,-0.0759786,0.0526021,0.0728014,-0.0952827,0.145013,-0.126987,-0.085317,0.0132751,0.0230789,0.0206375,0.0100327,0.0156021,0.0132751,0.0198746,0.0162506,-9.97986,0.0132751,-0.00164032,0.0151443,0.00873566,0.0160599,0.000648499,0.0188828,0.00621796
26,2,10.0097,0.0012207,0.000152588,-2.42776,0.0535448,-0.0753682,0.0532125,0.0728014,-0.0934516,0.144708,-0.126987,-0.0837911,0.00881195,0.0250244,0.019455,0.00804901,0.0187302,0.00823975,0.0215149,0.0204849,-9.97986,0.0131989,-0.000724792,0.0179672,0.00541687,0.0183487,-0.00133514,0.0177002,0.00461578
26,3,10.0097,0.000610352,0.000152588,-2.42928,0.0550706,-0.0747579,0.0522969,0.0715807,-0.0946723,0.144403,-0.125156,-0.0850118,0.0134277,0.024147,0.0232315,0.00778198,0.0150299,0.0100327,0.0271606,0.0182343,-9.97986,0.014801,-0.00209808,0.0114059,0.00999451,0.0159454,-0.00156403,0.0152206,0.00408173
26,4,10.0097,0.000305176,0.000762939,-2.42653,0.0562914,-0.0738423,0.0538228,0.0712755,-0.0934516,0.146539,-0.125461,-0.0840963,0.0104141,0.0251389,0.0177765,0.0150681,0.0168228,0.00972748,0.0255966,0.0196457,-9.97986,0.0167465,-0.00144958,0.0174332,0.00888824,0.0154495,-0.00171661,0.018425,0.00564575
26,5,10.0097,0.00152588,0,-2.42531,0.0562914,-0.0735371,0.0547383,0.0706652,-0.0922309,0.145929,-0.124546,-0.0816549,0.00957489,0.0248718,0.0187302,0.0122833,0.0170135,0.0102615,0.0243759,0.0179672,-9.97986,0.0141525,0.000457764,0.0164413,0.00797272,0.0173187,-0.00114441,0.0146103,0.00614166
26,6,10.0097,0.000610352,0.000152588,-2.42531,0.0562914,-0.0729268,0.0547383,0.0718859,-0.0919257,0.145929,-0.125156,-0.0816549,0.0102234,0.0246811,0.0187302,0.0107193,0.0168228,0.010643,0.0211716,0.0279617,-9.97986,0.0181961,0.00259399,0.0133514,0.00408173,0.0197601,-0.00270844,0.0175095,0.00896454
26,7,10.0097,0.000610352,0.000305176,-2.42592,0.0562914,-0.0747579,0.054128,0.0596788,-0.0943672,0.145013,-0.125766,-0.0819601,0.0094986,0.0222397,0.0201035,0.0121307,0.0202179,0.011673,0.0195694,0.0232315,-9.97986,0.0166321,-0.000228882,0.0137711,0.0050354,0.0164413,-0.0030899,0.0128555,0.00686646
26,8,9.03798,-0.000610352,-0.00152588,-2.42806,0.0562914,-0.0744527,0.0522969,0.00688342,-0.0995551,0.144708,-0.130039,-0.0840963,0.0141525,0.024147,0.0199127,0.0107193,0.0187683,0.00846863,0.0193405,0.0261307,-9.97986,0.0232697,-0.00152588,0.0151062,0.00740051,0.013237,-0.00286102,0.0156021,0.00720978
26,9,-0.0522897,-0.000610352,-0.0038147,-2.42562,0.0569017,-0.0744527,0.0538228,-0.00684949,-0.0980293,0.147455,-0.129734,-0.0819601,0.0109863,0.0256348,0.021553,0.0118256,0.0219345,0.0138855,0.0259781,0.026741,-9.97986,0.0240707,-0.00453949,0.0169373,0.00930786,0.0148773,-0.00431061,0.0145721,0.00587463
27,0,-7.49309,0.000915527,-0.00473022,-2.4244,0.0565965,-0.0738423,0.0538228,-0.0169203,-0.0961982,0.146844,-0.130649,-0.0819601,0.00873566,0.0230789,0.0221252,0.0133133,0.0173187,0.00892639,0.021553,0.02491,-9.97986,0.0165558,-0.00579834,0.013504,0.0069809,0.0180817,-0.00591278,0.0151062,0.00789642
27,1,-9.99003,0.000610352,-0.00335693,-2.42531,0.055681,-0.0735371,0.0565694,0.0169542,-0.0925361,0.14776,-0.127598,-0.0810445,0.0087738,0.0245285,0.017662,0.0139618,0.0210571,0.0120544,0.0237656,0.0247574,-9.97986,0.0167847,-0.0019455,0.0154877,0.00480652,0.01091,-0.00221252,0.0171661,0.0082016
27,2,-9.99003,0.000915527,-0.000915527,-2.42623,0.0562914,-0.075063,0.0544332,0.0431993,-0.0910102,0.145318,-0.126072,-0.0807394,0.00934601,0.022049,0.0149155,0.00919342,0.0167084,0.0075531,0.0214005,0.0175858,-9.97986,0.0136566,-0.0050354,0.0140762,0.00709534,-0.00534058,-0.00537872,0.015564,0.00682831
27,3,-9.99003,0.00305176,0.000610352,-2.42531,0.0544603,-0.073232,0.0550435,0.0590685,-0.0910102,0.145318,-0.126682,-0.0825704,0.010376,0.0268173,0.020752,0.0102615,0.0167465,0.0130844,0.0210571,0.0165939,-9.97986,0.0100708,-0.0043869,0.0161743,0.00595093,-0.00984192,-0.00675201,0.0159073,0.00572205
27,4,-9.99003,0.0012207,0.000762939,-2.42562,0.0553758,-0.0747579,0.0553487,0.0853136,-0.088874,0.14776,-0.125156,-0.0819601,0.0101089,0.0230408,0.0176239,0.0123215,0.0158691,0.0125885,0.0220108,0.0111389,-9.97986,0.00923157,0.00102997,0.0133133,0.00934601,0.0127792,-0.000457764,0.0148392,0.00656128
27,5,-7.25444,0.000915527,0.0038147,-2.42592,0.0544603,-0.0747579,0.0565694,0.140245,-0.0852119,0.145624,-0.121189,-0.0825704,0.0106049,0.0196457,0.0229263,0.0123978,0.0175858,0.00984192,0.022049,0.0105667,-9.97986,0.0106812,-0.00305176,0.0115585,0.00595093,0.0183105,-0.00297546,0.0180817,0.0056076
27,6,0.201006,0.000610352,0.00366211,-2.42714,0.0538499,-0.0753682,0.054128,0.150926,-0.0876533,0.145013,-0.121189,-0.0850118,0.0110245,0.0227356,0.021286,0.00888824,0.0185394,0.0104904,0.0186157,0.0124741,-9.97986,0.00953674,-0.00312805,0.0169373,0.00968933,0.0122833,-0.00102997,0.0149155,0.0075531
27,7,8.05898,0.00152588,0.00442505,-2.42837,0.0553758,-0.0762837,0.0532125,0.152452,-0.090705,0.143792,-0.121494,-0.0850118,0.00587463,0.0254059,0.0163269,0.00926971,0.0196457,0.0106049,0.0228119,0.00972748,-9.97986,0.0133896,-0.000534058,0.0167084,0.00934601,0.014534,-0.00331879,0.0154114,0.00213623
27,8,10.0097,-0.000610352,0.00335693,-2.4305,0.0535448,-0.0775044,0.0501607,0.116442,-0.0971137,0.143487,-0.124241,-0.0880636,0.0125122,0.0210953,0.016861,0.0135422,0.0138855,0.0111008,0.022049,0.0129318,-9.97986,0.0125885,-0.00205994,0.013504,0.00465393,0.0131607,-0.00404358,0.0117874,0.00480652
27,9,10.0097,-0.000305176,0.000915527,-2.43142,0.0523241,-0.0756734,0.0513814,0.0874498,-0.0977241,0.143182,-0.126072,-0.0883688,0.0094986,0.0202179,0.0189972,0.0113297,0.0166702,0.0115585,0.0206757,0.0172424,-9.97986,0.00804901,-0.00183105,0.0173569,0.00606537,0.0134277,-0.00225067,0.0141144,0.00411987
28,0,10.0097,0.00152588,0.000152588,-2.42959,0.0535448,-0.0759786,0.0513814,0.0779894,-0.0968086,0.142877,-0.126682,-0.0880636,0.00919342,0.0252914,0.0203705,0.0145721,0.0165939,0.00888824,0.022316,0.0140381,-9.97986,0.0170135,0.00236511,0.0164032,0.00724792,0.0137329,-0.0043869,0.0128174,0.0056076
28,1,10.0097,0.000305176,0,-2.42714,0.0544603,-0.075063,0.0510762,0.0731066,-0.0952827,0.143487,-0.126987,-0.0859274,0.00930786,0.0253677,0.017662,0.0105667,0.015831,0.00888824,0.0190353,0.0139618,-9.97986,0.00972748,-0.0031662,0.014534,0.00793457,0.0157166,-0.00396729,0.0180054,0.00728607
28,2,10.0097,0.000915527,0.000152588,-2.42745,0.0547655,-0.0744527,0.0538228,0.0709703,-0.0931465,0.146234,-0.126987,-0.0856222,0.00587463,0.0244904,0.0253296,0.0154495,0.0216675,0.0123215,0.0201035,0.014534,-9.97986,0.0145721,0.000343323,0.016098,0.00740051,0.0178528,0,0.0186157,0.00682831
28,3,10.0097,0,-0.000152588,-2.42714,0.0550706,-0.0756734,0.0538228,0.0700548,-0.0943672,0.145013,-0.125766,-0.0847066,0.00961304,0.0240707,0.0212097,0.00980377,0.0181961,0.0112534,0.0196075,0.0210953,-9.97986,0.0177765,0.00217438,0.0173569,0.0075531,0.0186157,-0.000762939,0.0148392,0.00545502
28,4,10.0097,0.0012207,-0.000152588,-2.42714,0.0553758,-0.0744527,0.0526021,0.0715807,-0.0922309,0.144708,-0.125156,-0.0840963,0.00793457,0.0198364,0.0176239,0.00961304,0.0157166,0.00637054,0.0180054,0.0146484,-9.97986,0.0144958,-0.00205994,0.0120163,0.000457764,0.0149155,-0.00415802,0.0137711,0.00598907
28,5,10.0097,0.000915527,0.000762939,-2.42501,0.0553758,-0.0741475,0.0553487,0.0706652,-0.0913154,0.146539,-0.124851,-0.0819601,0.0147629,0.0279617,0.0167847,0.0183487,0.0167084,0.0122833,0.0211334,0.0184631,-9.97986,0.0138855,-0.000648499,0.0151825,0.00671387,0.0150299,0.00148773,0.0150681,0.00556946
28,6,10.0097,0.000610352,-0.000152588,-2.42318,0.0562914,-0.073232,0.0556539,0.0718859,-0.0919257,0.146539,-0.123935,-0.0822652,0.0106049,0.0271988,0.0187302,0.0155258,0.0138092,0.0126648,0.018692,0.0234985,-9.97986,0.018158,0.0031662,0.0123215,0.00782013,0.015564,-0.00404358,0.0172043,0.00488281
28,7,10.0097,0.000610352,0.000610352,-2.42776,0.0569017,-0.0744527,0.0532125,0.059984,-0.0943672,0.145013,-0.125461,-0.0825704,0.0149155,0.0256348,0.0222397,0.0146866,0.0192261,0.0122452,0.0197601,0.0256729,-9.97986,0.018158,-3.8147e-005,0.0122833,0.00953674,0.0144958,-0.00423431,0.0139999,0.00766754
28,8,9.0157,-0.000305176,-0.00137329,-2.42684,0.0550706,-0.0741475,0.0519917,0.00688342,-0.0986396,0.146234,-0.128818,-0.0840963,0.013504,0.0259018,0.0141144,0.015564,0.018692,0.0101471,0.0213623,0.026207,-9.97986,0.0218964,-0.00255585,0.0159454,0.00576019,0.0141525,-0.00160217,0.0145721,0.00843048
28,9,-0.0571725,0.000610352,-0.00411987,-2.42592,0.0572069,-0.073232,0.0535176,-0.00623914,-0.0983344,0.146234,-0.130039,-0.0822652,0.0123215,0.0228119,0.0218582,0.0129318,0.018158,0.0125122,0.0258636,0.0252914,-9.97986,0.0199509,-0.00335693,0.0131226,0.00465393,0.0185013,-0.00267029,0.0168228,0.0082016
29,0,-7.47752,0,-0.00411987,-2.42562,0.0581224,-0.075063,0.0532125,-0.0178358,-0.0974189,0.147149,-0.129734,-0.0822652,0.0106812,0.026741,0.0175858,0.0123215,0.0147247,0.01297,0.0198364,0.0236511,-9.97986,0.0200653,0.00156403,0.013504,0.00614166,0.0166321,-0.0025177,0.0146866,0.00740051
29,1,-9.99003,0.000610352,-0.00411987,-2.4244,0.0553758,-0.0738423,0.055959,0.0142076,-0.0931465,0.146234,-0.127292,-0.0807394,0.00915527,0.0286102,0.0193787,0.0136566,0.0160217,0.0114441,0.0236893,0.0218582,-9.97986,0.0198364,-0.00339508,0.0144196,0.00610352,0.0127792,-0.00228882,0.0157547,0.00785828
29,2,-9.99003,-0.000305176,-0.0012207,-2.42562,0.0559862,-0.0744527,0.0556539,0.0435045,-0.0910102,0.146234,-0.127292,-0.0816549,0.00640869,0.0260544,0.0197601,0.00984192,0.0180054,0.0115585,0.0271606,0.0149536,-9.97986,0.0159836,0.000419617,0.0165939,0.00919342,-0.00396729,-0.00259399,0.0145721,0.00469208
29,3,-9.99003,0.000610352,-0.000457764,-2.42623,0.0562914,-0.0744527,0.0544332,0.0584581,-0.0913154,0.145929,-0.125766,-0.0822652,0.00926971,0.021553,0.020752,0.01194,0.0167847,0.00587463,0.0226593,0.011673,-9.97986,0.00858307,-0.000114441,0.018692,0.0062561,-0.00724792,0.000419617,0.0161362,0.00686646
29,4,-9.99003,0.00213623,0.00106812,-2.42501,0.0547655,-0.0741475,0.0553487,0.0856188,-0.0885688,0.144708,-0.124851,-0.0828756,0.00728607,0.0246429,0.0154114,0.0138474,0.0178528,0.0111771,0.0183487,0.0122452,-9.97986,0.0113297,-0.00461578,0.0133896,0.00686646,0.0151825,-0.00499725,0.0187683,0.00556946
29,5,-7.48332,0.000610352,0.00305176,-2.42592,0.0550706,-0.075063,0.0562642,0.13933,-0.0839912,0.145318,-0.121189,-0.0828756,0.00701904,0.0189209,0.0177002,0.0104523,0.014801,0.00835419,0.0212479,0.012207,-9.97986,0.00934601,-0.000228882,0.0127411,0.00572205,0.0143051,0.001297,0.0149155,0.00751495
29,6,0.171404,0.000610352,0.00396729,-2.42714,0.0535448,-0.0756734,0.0544332,0.149706,-0.0885688,0.144098,-0.120884,-0.0844015,0.00659943,0.0205231,0.020256,0.0108719,0.0143433,0.00915527,0.0183487,0.0113297,-9.97986,0.010376,-0.00102997,0.0120163,0.00652313,0.0153351,-0.00293732,0.0160217,0.00358582
29,7,8.1725,0.0012207,0.00366211,-2.42684,0.0538499,-0.075063,0.0535176,0.152757,-0.0891792,0.144098,-0.122104,-0.0862325,0.0094986,0.0209045,0.0207901,0.0102997,0.0175095,0.0056076,0.0213623,0.0107193,-9.97986,0.00892639,-0.000686646,0.0122833,0.00614166,0.018158,-0.00499725,0.0136566,0.00659943
29,8,10.0097,-0.000915527,0.00305176,-2.43081,0.0529344,-0.0771993,0.050771,0.117052,-0.0961982,0.142572,-0.124241,-0.0886739,0.00881195,0.0246048,0.0170135,0.0087738,0.0173187,0.00919342,0.0195313,0.0134659,-9.97986,0.0111008,-0.000762939,0.0127792,0.00934601,0.0149155,-0.00087738,0.015831,0.00366211
29,9,10.0097,0.00213623,0.0012207,-2.4305,0.0526292,-0.0759786,0.0495503,0.0883654,-0.0977241,0.141656,-0.126682,-0.0889791,0.0117493,0.0294495,0.020256,0.0122833,0.0137711,0.0135422,0.0230408,0.0130081,-9.97986,0.0148773,0.000152588,0.0115585,0.0088501,0.0187302,-0.00282288,0.0130463,0.00564575
30,0,10.0097,0.000305176,-0.000152588,-2.43081,0.0544603,-0.0762837,0.0513814,0.0767687,-0.095893,0.143792,-0.126682,-0.0871481,0.00774384,0.0255966,0.0213623,0.0113297,0.014534,0.010376,0.026474,0.0138855,-9.97986,0.00911713,-0.00495911,0.0104523,0.00759125,0.0137711,-0.00518799,0.0129318,0.00511169
30,1,10.0097,0.000915527,-0.000152588,-2.42989,0.0544603,-0.075063,0.0516866,0.0724962,-0.0952827,0.143182,-0.126377,-0.0868429,0.0102234,0.0260925,0.0189209,0.0100327,0.0168991,0.00938416,0.0218582,0.0157547,-9.97986,0.0163651,-0.00164032,0.0131989,0.00404358,0.0143433,-0.000724792,0.0183487,0.00328064
30,2,10.0097,0.00152588,0.000152588,-2.42806,0.0541551,-0.075063,0.0535176,0.0709703,-0.0943672,0.145013,-0.126377,-0.0844015,0.0113297,0.0251007,0.0162125,0.00984192,0.0152206,0.0120926,0.0205612,0.0180435,-9.97986,0.0129318,-0.0025177,0.0140381,0.00617981,0.0172806,-0.00270844,0.0140381,0.00579834
30,3,10.0097,0.000610352,-0.000610352,-2.42714,0.0550706,-0.0762837,0.0532125,0.0709703,-0.0931465,0.145013,-0.125766,-0.0847066,0.00965118,0.0211334,0.0210571,0.00827789,0.0150299,0.00713348,0.0204468,0.0139999,-9.97986,0.0163269,0.0019455,0.0152206,0.00656128,0.0200653,0.000991821,0.0113678,0.00587463
30,4,10.0097,0,0,-2.42623,0.0544603,-0.0744527,0.0526021,0.0718859,-0.0922309,0.145318,-0.126072,-0.0840963,0.00785828,0.0211716,0.0178146,0.00988007,0.0167084,0.00907898,0.0276947,0.0186539,-9.97986,0.0166321,0.000305176,0.016098,0.00255585,0.0158691,-0.00366211,0.0183105,0.0038147
30,5,10.0097,-0.000915527,0.000152588,-2.42623,0.0559862,-0.0738423,0.054128,0.0724962,-0.0916206,0.147149,-0.125766,-0.0816549,0.0136948,0.0251007,0.0157928,0.0094986,0.0175095,0.00915527,0.0214005,0.0182724,-9.97986,0.0168228,-0.00274658,0.00988007,0.00717163,0.0170135,-0.00125885,0.0164032,0.00530243
30,6,10.0097,0.000610352,0.000305176,-2.42501,0.0559862,-0.0735371,0.0556539,0.0724962,-0.0900947,0.146539,-0.125156,-0.0810445,0.0141907,0.0256348,0.0186539,0.0101471,0.0175858,0.00415802,0.0251007,0.0235367,-9.97986,0.0200272,-0.000114441,0.0134659,0.00408173,0.0187302,-0.00179291,0.0183105,0.00556946
30,7,10.0097,0.000305176,0.000305176,-2.42776,0.0559862,-0.0753682,0.0526021,0.0602892,-0.0943672,0.145318,-0.125766,-0.0819601,0.0130463,0.0215912,0.0217056,0.0103378,0.0198746,0.00888824,0.0214005,0.0254822,-9.97986,0.0215912,0.00110626,0.01091,0.00862122,0.0207901,-0.00118256,0.0144958,0.00583649
30,8,8.89821,0.000915527,-0.00213623,-2.42776,0.055681,-0.075063,0.0516866,0.00383166,-0.100165,0.145318,-0.129429,-0.0837911,0.0153732,0.0261307,0.017662,0.0138092,0.0174713,0.0123215,0.0178528,0.029068,-9.97986,0.0237656,-0.00118256,0.0171661,0.00614166,0.020752,-0.000839233,0.0173187,0.00926971
30,9,-0.216474,-0.000915527,-0.00396729,-2.42501,0.0575121,-0.0738423,0.0535176,-0.00684949,-0.0968086,0.146539,-0.130344,-0.0810445,0.00724792,0.0233078,0.0208664,0.0111008,0.0193024,0.0102234,0.0158691,0.025444,-9.97986,0.0235748,-0.00335693,0.0140762,0.00370026,0.0151443,-0.00686646,0.017128,0.00724792
31,0,-7.65788,0.000915527,-0.00427246,-2.42592,0.0569017,-0.0747579,0.0522969,-0.0172255,-0.0971137,0.14837,-0.130344,-0.0822652,0.0105286,0.0270462,0.0191879,0.0134659,0.0202942,0.00583649,0.0257874,0.0236893,-9.97986,0.0246429,0.000839233,0.0152206,0.00965118,0.020256,-0.00335693,0.0173187,0.00671387
31,1,-9.99003,0.000610352,-0.00335693,-2.42501,0.0562914,-0.073232,0.0556539,0.0169542,-0.0934516,0.145624,-0.127598,-0.0807394,0.00850677,0.0180817,0.0183105,0.0120544,0.0172424,0.00839233,0.0233078,0.0193787,-9.97986,0.0171661,-0.00354767,0.0156403,-0.00038147,0.0156784,-0.00293732,0.0138855,0.0104904
31,2,-9.99003,0.000915527,-0.00183105,-2.42562,0.055681,-0.0735371,0.0556539,0.0431993,-0.090705,0.145929,-0.126682,-0.0819601,0.00999451,0.0213623,0.0165939,0.00938416,0.0186157,0.00984192,0.0226974,0.0216675,-9.97986,0.0168228,3.8147e-005,0.0165558,0.00579834,-0.0030899,-0.00133514,0.0177383,0.0100708
31,3,-9.99003,0.000610352,0.000457764,-2.42592,0.0538499,-0.0741475,0.0547383,0.058153,-0.0900947,0.146234,-0.126682,-0.0825704,0.00659943,0.0255966,0.0153351,0.00843048,0.0185776,0.00740051,0.0207901,0.0120163,-9.97986,0.014801,0.00144958,0.017662,0.00610352,-0.00873566,-0.00274658,0.0204468,0.00720978
31,4,-9.99003,0,0.000610352,-2.42592,0.0544603,-0.0738423,0.0553487,0.0837877,-0.088874,0.145318,-0.123935,-0.0822652,0.00888824,0.0236893,0.0187302,0.011673,0.0204849,0.0109863,0.0214767,0.0104904,-9.97986,0.0125122,-0.00038147,0.012207,0.00648499,0.0149918,-0.00270844,0.0139618,0.00919342
31,5,-7.43113,0.000915527,0.00335693,-2.42562,0.0544603,-0.0741475,0.0556539,0.139635,-0.0861274,0.145013,-0.120578,-0.0822652,0.00766754,0.0214005,0.0224686,0.00732422,0.0179291,0.00507355,0.0216293,0.0137329,-9.97986,0.0112152,-0.00244141,0.0171661,0.00492096,0.0172806,-0.00358582,0.0180817,0.00480652
31,6,0.0487235,0.00152588,0.00366211,-2.42714,0.0547655,-0.0756734,0.0550435,0.149706,-0.0879585,0.144403,-0.121799,-0.0834859,0.00713348,0.0229645,0.0196075,0.0110245,0.0245285,0.0114059,0.0193024,0.00862122,-9.97986,0.00705719,-0.00312805,0.0126266,0.00583649,0.0149536,-0.00274658,0.0198364,0.00495911
31,7,8.02846,0.00183105,0.00396729,-2.42867,0.0535448,-0.0753682,0.0529073,0.152452,-0.0894843,0.143182,-0.120578,-0.085317,0.0112534,0.0241852,0.0151825,0.00980377,0.0194931,0.00793457,0.0193405,0.0102234,-9.97986,0.00892639,-0.0019455,0.0171661,0.00495911,0.0166702,-0.00225067,0.0182343,0.00526428
31,8,10.0097,0.000610352,0.00320435,-2.4302,0.0529344,-0.0768941,0.0510762,0.117662,-0.0955879,0.142267,-0.126377,-0.0889791,0.00766754,0.019455,0.0174713,0.0128555,0.0161362,0.00835419,0.020752,0.0150681,-9.97986,0.0104904,0.00289917,0.0144577,0.00228882,0.0130081,-0.00289917,0.0140762,0.00740051
31,9,10.0097,0.000610352,0.000762939,-2.43081,0.0535448,-0.0759786,0.0501607,0.087755,-0.0980293,0.143182,-0.126072,-0.0886739,0.0106049,0.0167465,0.0210571,0.0138474,0.0202942,0.0108337,0.0240326,0.0157547,-9.97986,0.00984192,0.00324249,0.0162506,0.00839233,0.0145721,-0.00225067,0.0177383,0.00770569
32,0,10.0097,0.000610352,0.000305176,-2.42928,0.0541551,-0.0753682,0.050771,0.077379,-0.0949775,0.143792,-0.128208,-0.0880636,0.00686646,0.0192261,0.0196457,0.00984192,0.017662,0.0069809,0.0170135,0.0127792,-9.97986,0.0137329,-0.00152588,0.0139999,0.0037384,0.017395,0.00110626,0.0143433,0.00492096
32,1,10.0097,-0.000915527,-0.000457764,-2.42867,0.0547655,-0.0759786,0.0532125,0.0731066,-0.0946723,0.144403,-0.127292,-0.085317,0.0102997,0.0213242,0.0221634,0.0105286,0.0155258,0.00965118,0.021019,0.0173187,-9.97986,0.0128937,-0.00171661,0.0113678,0.00617981,0.0133896,0.000114441,0.0169754,0.00682831
32,2,10.0097,0.00244141,0.000610352,-2.42867,0.0553758,-0.0756734,0.0522969,0.0724962,-0.0928413,0.144708,-0.125766,-0.0850118,0.0115585,0.0206757,0.0212479,0.0128937,0.0170898,0.0111771,0.0187683,0.0153732,-9.97986,0.0152588,0.000610352,0.016861,0.0069046,0.0142288,-0.00118256,0.0167465,0.0111771
32,3,10.0097,-0.000305176,0.000305176,-2.42867,0.0550706,-0.0744527,0.054128,0.0712755,-0.0931465,0.145013,-0.126377,-0.0847066,0.00713348,0.0188065,0.0198364,0.0117874,0.0222015,0.00865936,0.0221252,0.0155258,-9.97986,0.0162125,0.000572205,0.0119781,0.00671387,0.0161743,-0.00236511,0.0165176,0.00724792
32,4,10.0097,0,0.000152588,-2.42653,0.0544603,-0.0744527,0.0538228,0.0709703,-0.0922309,0.145624,-0.126072,-0.0822652,0.0122833,0.0211334,0.0200272,0.0144958,0.0201416,0.00843048,0.0177002,0.018959,-9.97986,0.0166321,0.00110626,0.0108337,0.00362396,0.0151825,-0.00202179,0.0172424,0.00442505
32,5,10.0097,0.0012207,0,-2.42562,0.0553758,-0.0744527,0.0547383,0.0712755,-0.0928413,0.146234,-0.124241,-0.0819601,0.00831604,0.0219727,0.0198746,0.0133133,0.0143433,0.0087738,0.0188446,0.0242615,-9.97986,0.0164413,-0.0012207,0.0161362,0.00762939,0.0105286,-0.00286102,0.011673,0.0094223
32,6,10.0097,0,0.000152588,-2.42592,0.0572069,-0.0735371,0.0553487,0.0706652,-0.0916206,0.146234,-0.12363,-0.0816549,0.0108337,0.0239563,0.0206757,0.0128555,0.0169754,0.00991821,0.0215912,0.0215912,-9.97986,0.0146866,-0.00419617,0.0104904,0.00686646,0.0177383,0.00110626,0.0152969,0.0088501
32,7,10.0097,0.000610352,0,-2.42562,0.0559862,-0.0741475,0.0529073,0.0578478,-0.0949775,0.145318,-0.125766,-0.0819601,0.0146484,0.0192642,0.0176239,0.0154877,0.0183487,0.0141525,0.0201035,0.0267029,-9.97986,0.0183868,-0.000762939,0.0139236,0.00621796,0.0192261,-0.00450134,0.0139999,0.00572205
32,8,8.87197,0.000305176,-0.00213623,-2.42837,0.0562914,-0.075063,0.0519917,0.00474719,-0.100776,0.145318,-0.129123,-0.0844015,0.00888824,0.0206375,0.0179672,0.0132751,0.0147247,0.0104523,0.0243759,0.0294876,-9.97986,0.0201797,-0.00484467,0.0165558,0.00865936,0.0186157,-0.0019455,0.0169373,0.00728607
32,9,-0.163069,-0.000305176,-0.00366211,-2.42562,0.0562914,-0.0741475,0.0547383,-0.00684949,-0.0971137,0.146539,-0.129429,-0.0816549,0.0108337,0.0225067,0.0178528,0.0135803,0.0172424,0.00988007,0.0266266,0.0261688,-9.97986,0.0212479,-0.00255585,0.0157547,0.00648499,0.0158691,-0.0063324,0.0147629,0.00659943
33,0,-7.65696,-0.00152588,-0.00457764,-2.42592,0.0575121,-0.0741475,0.0535176,-0.0156996,-0.0965034,0.146539,-0.130039,-0.0816549,0.00968933,0.0238037,0.0209045,0.00656128,0.0196838,0.00743866,0.0223541,0.0250244,-9.97986,0.0157547,-0.00358582,0.01297,0.00324249,0.018158,-0.00301361,0.0165558,0.0094223
33,1,-9.99003,-0.000610352,-0.00320435,-2.42409,0.0562914,-0.0738423,0.0553487,0.0175646,-0.090705,0.146234,-0.128818,-0.0813497,0.00572205,0.0221634,0.0174332,0.0112152,0.018158,0.00904083,0.0206757,0.0213242,-9.97986,0.0146866,-0.00148773,0.0158691,0.00743866,0.00965118,0.00152588,0.014801,0.00762939
33,2,-9.99003,0.000915527,-0.00152588,-2.42531,0.0559862,-0.0735371,0.0571797,0.0441149,-0.0910102,0.144098,-0.126072,-0.0807394,0.01297,0.019722,0.0188446,0.0105667,0.0159454,0.0108337,0.0217056,0.0165939,-9.97986,0.0152206,-0.000839233,0.0175476,0.00534058,-0.00972748,0.00125885,0.0154877,0.00602722
33,3,-9.99003,-0.000610352,-0.000305176,-2.42653,0.0550706,-0.0735371,0.0556539,0.0587633,-0.0913154,0.145318,-0.126072,-0.0819601,0.0102615,0.0214386,0.0207138,0.00846863,0.0140381,0.00782013,0.021553,0.0154495,-9.97986,0.010643,0.00247955,0.0163269,0.00736237,-0.0069046,0.000648499,0.0175858,0.00812531
33,4,-9.99003,0.0012207,0.000762939,-2.42592,0.0565965,-0.0744527,0.055959,0.0853136,-0.0891792,0.145929,-0.124851,-0.0831808,0.0143051,0.0226593,0.0203323,0.0111008,0.0134277,0.00793457,0.0230408,0.0102234,-9.97986,0.00907898,0.00450134,0.0141525,0.00637054,0.0146484,-0.00114441,0.0171661,0.00671387
33,5,-7.63926,0.000305176,0.00274658,-2.42562,0.0544603,-0.0753682,0.0568746,0.140245,-0.0849067,0.144098,-0.121189,-0.0825704,0.00995636,0.021553,0.0218964,0.0107193,0.0174713,0.00995636,0.0252533,0.0107956,-9.97986,0.0094223,-0.000152588,0.0165939,0.00923157,0.0177002,-0.00183105,0.0150681,0.0100708
33,6,-0.0544259,0.000915527,0.00427246,-2.42745,0.0541551,-0.0756734,0.0556539,0.151537,-0.0870429,0.145013,-0.120884,-0.0847066,0.0122833,0.0233459,0.0189209,0.0104141,0.0127411,0.00904083,0.0238037,0.0130081,-9.97986,0.00659943,0.000724792,0.0138474,0.00614166,0.0196075,-0.00442505,0.019989,0.0088501
33,7,7.9775,-0.000305176,0.00442505,-2.42959,0.0535448,-0.0753682,0.0544332,0.153368,-0.0894843,0.144403,-0.121494,-0.0859274,0.00888824,0.0227356,0.0214386,0.0122452,0.0138474,0.011673,0.0213242,0.0150681,-9.97986,0.00835419,-0.00156403,0.0170517,0.00728607,0.0185394,-0.00110626,0.0189209,0.00679016
33,8,10.0097,-0.000305176,0.00274658,-2.4305,0.0523241,-0.0768941,0.050771,0.116747,-0.0968086,0.141656,-0.125461,-0.0886739,0.0069809,0.0221634,0.0196838,0.0124741,0.0164032,0.0115967,0.0180817,0.0119781,-9.97986,0.011673,-0.00087738,0.0171661,0.0075531,0.0147629,-0.000534058,0.0144196,0.00377655
33,9,10.0097,0,0.00106812,-2.4305,0.0532396,-0.0768941,0.050771,0.0880602,-0.0980293,0.143792,-0.125766,-0.0874532,0.00938416,0.0217056,0.0225067,0.00946045,0.0185013,0.00732422,0.0242233,0.0153732,-9.97986,0.0140762,0.000953674,0.0188446,0.0105667,0.0121307,-0.000343323,0.0149155,0.00759125
34,0,10.0097,-0.000610352,0.000152588,-2.42867,0.0532396,-0.0762837,0.050771,0.0776842,-0.0965034,0.143487,-0.126682,-0.0877584,0.010376,0.0223541,0.0201797,0.0121307,0.0167465,0.00770569,0.018959,0.0112915,-9.97986,0.0137329,0.00144958,0.0154877,0.00961304,0.0168991,-0.00499725,0.0147629,0.00610352
34,1,10.0097,0.000610352,-0.00106812,-2.42928,0.0541551,-0.0759786,0.0516866,0.0718859,-0.095893,0.145318,-0.127598,-0.0856222,0.00839233,0.0225067,0.018425,0.0105667,0.0170135,0.0106049,0.0170898,0.0181198,-9.97986,0.0151443,0.000495911,0.0160599,0.00705719,0.0141525,-0.0019455,0.0180435,0.00343323
34,2,10.0097,0,-0.000305176,-2.42776,0.0547655,-0.0756734,0.0532125,0.0728014,-0.0934516,0.143792,-0.126072,-0.0859274,0.00846863,0.0214005,0.0218964,0.0133133,0.0200272,0.0140381,0.023613,0.0200272,-9.97986,0.0161743,-0.000343323,0.0138855,0.00526428,0.0150681,-0.00221252,0.0158691,0.00667572
34,3,10.0097,0.000915527,0,-2.42653,0.0550706,-0.0756734,0.0519917,0.0712755,-0.0928413,0.145624,-0.125766,-0.0847066,0.0154877,0.0214767,0.019455,0.0102997,0.0141144,0.0087738,0.0220871,0.018692,-9.97986,0.0165939,-0.00213623,0.0161362,0.00617981,0.0205994,0.00133514,0.014534,0.00610352
34,4,10.0097,0,0.000152588,-2.42806,0.055681,-0.0747579,0.0547383,0.0697496,-0.0925361,0.146234,-0.124851,-0.0825704,0.0104523,0.0181198,0.018158,0.00289917,0.019722,0.0117111,0.0228882,0.0196457,-9.97986,0.0175476,0.000343323,0.0143814,0.00301361,0.0120926,-0.00473022,0.0166702,0.00453949
34,5,10.0097,0.000610352,0.000762939,-2.42501,0.0565965,-0.073232,0.0553487,0.0715807,-0.0916206,0.145318,-0.123325,-0.0819601,0.0177383,0.0284576,0.0238037,0.0125885,0.0218964,0.0131989,0.0242233,0.0263214,-9.97986,0.0251007,0.0038147,0.0168991,0.0111771,0.0194168,0.000419617,0.0192261,0.00930786
34,6,10.0097,0.000915527,-0.000305176,-2.42592,0.0572069,-0.0735371,0.054128,0.0712755,-0.0922309,0.145624,-0.123935,-0.0810445,0.00694275,0.0208282,0.0152588,0.00602722,0.0167847,0.00171661,0.0151825,0.0179291,-9.97986,0.0153351,-0.00541687,0.0112534,0.00297546,0.0127792,-0.00774384,0.0133133,0.00301361
34,7,10.0097,0,0.000457764,-2.42806,0.055681,-0.0744527,0.0526021,0.0593737,-0.0928413,0.146234,-0.125156,-0.0819601,0.0130081,0.031929,0.0169754,0.0146484,0.0188446,0.0128937,0.0253296,0.0287247,-9.97986,0.0236511,-0.00221252,0.0177765,0.00926971,0.0199509,-0.00114441,0.018692,0.00770569
34,8,8.93544,0,-0.00198364,-2.42745,0.0562914,-0.0756734,0.0513814,0.00535754,-0.0998603,0.144403,-0.129734,-0.0834859,0.013237,0.0203323,0.0202179,0.0139999,0.0196457,0.0075531,0.0208282,0.0229263,-9.97986,0.0240707,0.00202179,0.0162506,0.00946045,0.0188065,-0.00301361,0.0168991,0.00522614
34,9,-0.179853,0.00213623,-0.00396729,-2.42592,0.0565965,-0.0744527,0.0538228,-0.00990125,-0.0983344,0.145929,-0.129123,-0.0822652,0.0116348,0.0252533,0.0177002,0.0149155,0.0162506,0.0102615,0.0244904,0.0251389,-9.97986,0.0203323,0.000190735,0.0121689,0.0109863,0.0156021,-0.00751495,0.0175476,0.00968933
35,0,-7.70457,0,-0.00427246,-2.42562,0.0559862,-0.0738423,0.0532125,-0.0175306,-0.0965034,0.145929,-0.129734,-0.0819601,0.0123215,0.024147,0.0185013,0.00988007,0.013504,0.00907898,0.0231552,0.0253296,-9.97986,0.0209808,-0.00259399,0.014267,0.00717163,0.0163651,-0.00644684,0.0171661,0.00408173
35,1,-9.99003,0.00152588,-0.00335693,-2.42409,0.0559862,-0.0738423,0.055959,0.0169542,-0.0922309,0.146844,-0.127292,-0.0804342,0.0126648,0.0256348,0.0193024,0.0127411,0.0194168,0.0129318,0.0162506,0.0195694,-9.97986,0.0171661,-0.00102997,0.0115585,0.00957489,0.00663757,-0.000572205,0.0164032,0.00801086
35,2,-9.99003,0.000610352,-0.00167847,-2.42592,0.055681,-0.0753682,0.0577901,0.0447252,-0.0903999,0.146539,-0.126682,-0.0810445,0.0108337,0.0273895,0.0159073,0.01091,0.0198364,0.0142288,0.0222778,0.0202942,-9.97986,0.0139999,-0.000915527,0.0124741,0.0094986,-0.0118256,-0.00183105,0.0169373,0.00637054
35,3,-9.99003,0.0012207,-0.000457764,-2.42531,0.0559862,-0.075063,0.0547383,0.059984,-0.0919257,0.144403,-0.126377,-0.0828756,0.00785828,0.0251389,0.0182343,0.0101852,0.0170135,0.00972748,0.021553,0.0136185,-9.97986,0.0088501,-0.000419617,0.0102615,0.00461578,-0.0115204,-0.0031662,0.0127792,0.00537872
35,4,-9.99003,0,0.000762939,-2.42592,0.0553758,-0.0747579,0.0556539,0.0843981,-0.0873481,0.146234,-0.123935,-0.0813497,0.0115967,0.0229263,0.0162506,0.0135422,0.0164032,0.0116348,0.0197983,0.0112915,-9.97986,0.00808716,0.00217438,0.0139618,0.00968933,0.01297,-0.00286102,0.0151443,0.00762939
35,5,-7.69999,0.000610352,0.00335693,-2.42623,0.0535448,-0.0753682,0.0562642,0.138414,-0.0849067,0.145624,-0.122104,-0.0822652,0.0117874,0.0229645,0.0150681,0.0109863,0.0162888,0.0104523,0.0220108,0.00957489,-9.97986,0.0118637,-0.00152588,0.0128937,0.00892639,0.0109863,0.000228882,0.0147247,0.00469208
35,6,-0.104475,-0.000305176,0.0038147,-2.42837,0.0532396,-0.0741475,0.0550435,0.152147,-0.0873481,0.143792,-0.121494,-0.0837911,0.0120926,0.0243378,0.0149918,0.015831,0.019722,0.0133514,0.0221252,0.00740051,-9.97986,0.0120926,-0.00198364,0.0134659,0.00946045,0.0160217,-0.00537872,0.0166702,0.0043869
35,7,7.92806,0,0.00518799,-2.42776,0.0541551,-0.0762837,0.0538228,0.152147,-0.0891792,0.143792,-0.122104,-0.0856222,0.0110626,0.0247192,0.0195694,0.0132751,0.0194168,0.0105286,0.0230408,0.0137329,-9.97986,0.0107956,-0.00278473,0.0177765,0.00286102,0.0160599,-0.00919342,0.0170898,0.00621796
35,8,10.0097,0,0.00350952,-2.43081,0.0532396,-0.0771993,0.0492452,0.118273,-0.0968086,0.141961,-0.124546,-0.0886739,0.0139618,0.0235748,0.0210571,0.0108337,0.0187683,0.0109863,0.0227737,0.0136948,-9.97986,0.0151062,-0.00232697,0.0130081,0.0087738,0.0145721,0.000419617,0.0164032,0.00339508
35,9,10.0097,0,-0.000305176,-2.43172,0.0532396,-0.0759786,0.0495503,0.0886705,-0.0980293,0.143182,-0.126682,-0.0883688,0.0111771,0.0237274,0.0184631,0.0163651,0.0137329,0.0135422,0.0243378,0.00934601,-9.97986,0.011673,0.000228882,0.0107574,0.00545502,0.016861,-0.00427246,0.0175476,0.00465393
36,0,10.0097,0,0.000762939,-2.42928,0.0520189,-0.0771993,0.0516866,0.0767687,-0.0955879,0.143182,-0.127598,-0.0874532,0.013237,0.0236511,0.0214767,0.0139999,0.0168991,0.0128174,0.0202942,0.0165939,-9.97986,0.018158,0.00370026,0.0154495,0.00789642,0.014801,-0.00179291,0.0179291,0.00724792
36,1,10.0097,0.0012207,-0.000152588,-2.42867,0.0547655,-0.0756734,0.0522969,0.0731066,-0.095893,0.144403,-0.126987,-0.0862325,0.00980377,0.0284576,0.0200272,0.0104523,0.0219345,0.00946045,0.0210571,0.0126648,-9.97986,0.0147629,-0.000267029,0.00850677,0.00961304,0.0140381,0.00125885,0.0144958,0.00621796
36,2,10.0097,0.00183105,0.000457764,-2.42776,0.0559862,-0.0753682,0.0535176,0.0718859,-0.094062,0.144098,-0.126682,-0.0847066,0.0115585,0.0252914,0.0209808,0.0141144,0.0164032,0.0146484,0.0223541,0.0153732,-9.97986,0.0143814,0.000190735,0.0160217,0.00896454,0.0175095,-0.0019455,0.0185776,0.00740051
36,3,10.0097,0.000915527,-0.000610352,-2.42745,0.0547655,-0.0753682,0.0535176,0.0718859,-0.0934516,0.144098,-0.125766,-0.0844015,0.0121307,0.0268936,0.022049,0.0150681,0.0185776,0.0136948,0.0210953,0.0133133,-9.97986,0.0159836,0.0037384,0.0131989,0.00938416,0.017128,-0.000152588,0.0146484,0.00648499
36,4,10.0097,0.000915527,0,-2.42745,0.0547655,-0.0747579,0.054128,0.0700548,-0.0946723,0.145624,-0.125461,-0.0834859,0.0110245,0.0212479,0.0197983,0.0109482,0.0144958,0.00915527,0.0242996,0.0191498,-9.97986,0.0150681,3.8147e-005,0.010376,0.00598907,0.0162888,-0.00431061,0.0127792,0.00511169
36,5,10.0097,0.000915527,0.000457764,-2.4247,0.0569017,-0.0738423,0.0553487,0.0718859,-0.0916206,0.146539,-0.123935,-0.0816549,0.0107574,0.0248718,0.0179672,0.0170135,0.018959,0.00644684,0.0237274,0.0204468,-9.97986,0.0152206,0.00164032,0.0148773,0.00907898,0.0183105,-0.00038147,0.0179672,0.00576019
36,6,10.0097,0.000915527,-0.000762939,-2.42531,0.0565965,-0.0738423,0.0547383,0.0718859,-0.0931465,0.146234,-0.12363,-0.0810445,0.01091,0.0231552,0.0144196,0.0120163,0.0201416,0.00747681,0.0209045,0.0197601,-9.97986,0.0179291,0.000534058,0.0122452,0.00492096,0.0194931,0.00209808,0.0134277,0.00556946
36,7,10.0097,0,0.000152588,-2.42592,0.0550706,-0.0738423,0.0538228,0.0560167,-0.0952827,0.145013,-0.126377,-0.0819601,0.0151825,0.0252151,0.0188065,0.0126648,0.0227737,0.0134277,0.020256,0.0248718,-9.97986,0.0230789,0.000801086,0.0132751,0.00904083,0.0224304,0.000610352,0.0183487,0.00675201
36,8,8.70412,0.000610352,-0.00183105,-2.42837,0.0559862,-0.0747579,0.0513814,0.00444201,-0.0983344,0.145318,-0.129734,-0.0847066,0.0109863,0.0250626,0.0204086,0.0117111,0.0238419,0.00484467,0.0220108,0.0265121,-9.97986,0.0270844,0.00137329,0.0141907,0.00705719,0.018959,-0.00480652,0.0187302,0.00850677
36,9,-0.406294,0.00152588,-0.00427246,-2.42592,0.0562914,-0.0741475,0.0532125,-0.00807019,-0.0971137,0.147455,-0.129123,-0.0819601,0.0111389,0.0271225,0.0140381,0.0136566,0.0153351,0.00747681,0.0206375,0.0260544,-9.97986,0.0223923,-0.00259399,0.00934601,0.00553131,0.0183105,-0.00328064,0.0174332,0.00507355
37,0,-7.92888,0.000305176,-0.0038147,-2.42684,0.0569017,-0.0753682,0.0544332,-0.0172255,-0.0971137,0.146234,-0.130039,-0.0816549,0.0118637,0.0259781,0.0208282,0.0139236,0.0183487,0.0112915,0.022316,0.0289536,-9.97986,0.0190353,-0.00778198,0.0136185,0.00656128,0.0186157,-0.00160217,0.0190735,0.00694275
37,1,-9.99003,0.000915527,-0.00289917,-2.4244,0.0562914,-0.0729268,0.0544332,0.0169542,-0.090705,0.146234,-0.127598,-0.0807394,0.0117111,0.0255203,0.0212097,0.0124741,0.0190735,0.00694275,0.0245285,0.0228882,-9.97986,0.0138474,-0.0050354,0.0146866,0.00713348,0.0104904,0.000190735,0.0180435,0.0075531
37,2,-9.99003,0.00183105,-0.000915527,-2.42531,0.0559862,-0.0744527,0.055959,0.0462511,-0.090705,0.14776,-0.126377,-0.0813497,0.015564,0.0250626,0.0191879,0.0131226,0.0203323,0.00946045,0.0226974,0.0157928,-9.97986,0.0158691,-0.00114441,0.0139618,0.00812531,-0.00190735,-0.000267029,0.016861,0.00614166
37,3,-9.99003,0.000610352,-0.000457764,-2.42684,0.0544603,-0.0735371,0.0547383,0.0587633,-0.0916206,0.145624,-0.125766,-0.0825704,0.00984192,0.0197601,0.0170517,0.0112534,0.0161743,0.0123978,0.0217438,0.0157928,-9.97986,0.00999451,-0.00576019,0.0112534,0.00591278,-0.00961304,-0.00244141,0.0138474,0.00408173
37,4,-9.99003,0.000915527,-0.000305176,-2.42501,0.0569017,-0.0744527,0.054128,0.0837877,-0.0897895,0.145318,-0.124851,-0.0822652,0.01194,0.0262451,0.0172806,0.00965118,0.0165176,0.0102234,0.0222015,0.0117111,-9.97986,0.010643,-0.00209808,0.0149536,0.00507355,0.00831604,-0.00232697,0.0147629,0.00545502
37,5,-7.6829,0.000305176,0.00335693,-2.42592,0.0544603,-0.0747579,0.0565694,0.138719,-0.0846015,0.145624,-0.121494,-0.0816549,0.00659943,0.0249863,0.0197983,0.00801086,0.0164413,0.0111389,0.0201416,0.00980377,-9.97986,0.00858307,-0.00347137,0.015831,0.00732422,0.0186157,-0.00221252,0.0173187,0.00762939
37,6,-0.187483,0.0012207,0.0038147,-2.42684,0.0544603,-0.0747579,0.0550435,0.151232,-0.0873481,0.143792,-0.120884,-0.0847066,0.0107193,0.0229645,0.0175858,0.0102615,0.0149536,0.0127792,0.020256,0.00823975,-9.97986,0.0043869,0.000152588,0.0146484,0.00453949,0.0180054,-0.000343323,0.0122833,0.00507355
37,7,7.67934,-0.000305176,0.00427246,-2.42837,0.0538499,-0.0762837,0.0532125,0.151232,-0.0910102,0.143182,-0.121494,-0.0862325,0.0106812,0.0247955,0.0177002,0.0123978,0.0193787,0.00965118,0.0239182,0.0118637,-9.97986,0.00980377,0.000991821,0.0139999,0.00408173,0.0183487,0.000724792,0.0149918,0.00709534
37,8,10.0097,0,0.00350952,-2.43172,0.0532396,-0.0765889,0.0501607,0.118578,-0.095893,0.143487,-0.123935,-0.0880636,0.0118256,0.019989,0.0161743,0.0111771,0.0170135,0.0102615,0.0226593,0.0145721,-9.97986,0.0128937,-0.000228882,0.0094223,0.00659943,0.0197983,-0.00255585,0.0151443,0.00431061
37,9,10.0097,0.0012207,0.000610352,-2.4302,0.0526292,-0.0765889,0.0501607,0.0880602,-0.0980293,0.143487,-0.126682,-0.0889791,0.00835419,0.0246048,0.0178909,0.010376,0.0161362,0.00988007,0.0219727,0.00968933,-9.97986,0.00835419,-0.00217438,0.0117874,0.00759125,0.0167465,-0.00225067,0.0148773,0.00499725
38,0,10.0097,0.000915527,-0.000762939,-2.42959,0.0544603,-0.0765889,0.0526021,0.0789049,-0.0965034,0.143182,-0.126377,-0.0868429,0.00457764,0.0231171,0.0156021,0.00904083,0.0181198,0.00946045,0.0197601,0.0152206,-9.97986,0.0164413,0.000572205,0.0143051,0.00640869,0.0140762,-0.00270844,0.015564,0.00556946
38,1,10.0097,-0.000305176,-0.000152588,-2.42959,0.0547655,-0.0759786,0.0522969,0.0728014,-0.0943672,0.143487,-0.126987,-0.0862325,0.00629425,0.0182343,0.0188828,0.0082016,0.0175858,0.0146866,0.0235367,0.0159073,-9.97986,0.0146484,-0.00324249,0.0159073,0.00556946,0.0136566,-0.00400543,0.0149155,0.00610352
38,2,10.0097,0.00152588,0,-2.42806,0.0553758,-0.0744527,0.0529073,0.0724962,-0.0943672,0.145013,-0.126377,-0.0856222,0.0113678,0.0222778,0.0199127,0.0113678,0.0152206,0.0132751,0.0271606,0.0174332,-9.97986,0.0152588,-0.000114441,0.00999451,0.00656128,0.0175476,-0.00209808,0.0172806,0.00644684
38,3,10.0097,0.000305176,0.000762939,-2.42592,0.0559862,-0.0735371,0.0535176,0.0706652,-0.0925361,0.145624,-0.126072,-0.0847066,0.0118637,0.0218201,0.0164795,0.0118637,0.0193024,0.0112915,0.0232697,0.0183487,-9.97986,0.0179291,-0.000190735,0.0141525,0.00621796,0.0184631,0.000114441,0.0148773,0.00656128
38,4,10.0097,0.000610352,0.000152588,-2.42623,0.0559862,-0.0738423,0.0538228,0.0706652,-0.0919257,0.145929,-0.125766,-0.0837911,0.00999451,0.025177,0.0204468,0.010643,0.0151443,0.00900269,0.0212479,0.0165176,-9.97986,0.0218201,-0.000762939,0.014267,0.00602722,0.0164413,0.00141144,0.0188446,0.00637054
38,5,10.0097,-0.000305176,0,-2.42501,0.0569017,-0.0735371,0.0556539,0.0712755,-0.0925361,0.147149,-0.124546,-0.0810445,0.00972748,0.0259018,0.0193787,0.0109482,0.0163269,0.00888824,0.0186539,0.0195313,-9.97986,0.0146484,-3.8147e-005,0.0135803,0.00499725,0.0181198,0.00202179,0.0170898,0.00617981
38,6,10.0097,0.000610352,0.000305176,-2.42562,0.055681,-0.0747579,0.0547383,0.0731066,-0.0900947,0.146844,-0.124241,-0.0813497,0.0102997,0.0230789,0.0179291,0.0114441,0.0163269,0.0104141,0.0231171,0.0244522,-9.97986,0.019989,-0.00144958,0.0123978,0.00717163,0.0175095,-0.00225067,0.016098,0.00553131
38,7,10.0097,0.00213623,-0.000305176,-2.42653,0.055681,-0.075063,0.0532125,0.0590685,-0.0934516,0.145624,-0.126072,-0.0819601,0.011673,0.023613,0.0238037,0.0125885,0.0210571,0.0127792,0.0213623,0.0234604,-9.97986,0.0265884,-0.00484467,0.0174332,0.00370026,0.0180817,-0.00267029,0.0150681,0.00919342
38,8,8.97756,0.000305176,-0.00183105,-2.42623,0.0565965,-0.0747579,0.0516866,0.00596789,-0.0998603,0.145318,-0.128818,-0.0837911,0.013504,0.0233078,0.0186157,0.0164032,0.0168228,0.0104904,0.0205231,0.0278473,-9.97986,0.0188828,-0.00167847,0.0142288,0.00270844,0.0149918,-0.00408173,0.0177383,0.00732422
38,9,-0.197859,-0.00213623,-0.0038147,-2.4247,0.0575121,-0.0735371,0.0532125,-0.00684949,-0.0968086,0.146539,-0.128513,-0.0822652,0.00919342,0.025444,0.0217819,0.0130081,0.019989,0.0102615,0.0218201,0.0235748,-9.97986,0.0202179,0.000610352,0.0134659,0.00415802,0.0223541,-0.00297546,0.0162506,0.0107956
39,0,-7.72532,-0.000610352,-0.00442505,-2.42531,0.0553758,-0.0735371,0.0535176,-0.0156996,-0.0949775,0.146844,-0.130344,-0.0807394,0.00946045,0.0194168,0.0185394,0.0128937,0.0133896,0.00865936,0.0203323,0.0222778,-9.97986,0.0172043,-0.000534058,0.0140762,0.00518799,0.0162506,-0.00312805,0.0172043,0.00488281
39,1,-9.99003,-0.000305176,-0.00320435,-2.4247,0.055681,-0.0744527,0.0556539,0.0184801,-0.0928413,0.146844,-0.128818,-0.0813497,0.0116348,0.0253296,0.0222015,0.0159073,0.0172424,0.0165558,0.0209808,0.0170898,-9.97986,0.0185394,-0.0038147,0.0153732,0.00488281,0.0143051,0.0018692,0.0167465,0.00591278
39,2,-9.99003,-0.000305176,-0.00167847,-2.4247,0.0562914,-0.0744527,0.0562642,0.0435045,-0.0913154,0.145624,-0.126987,-0.0816549,0.00930786,0.0268555,0.0193787,0.0156784,0.0197983,0.00976563,0.0199127,0.0163269,-9.97986,0.0164413,0.00118256,0.01297,0.0050354,-0.0037384,-0.0012207,0.020752,0.00583649
39,3,-9.99003,0.00274658,-0.000305176,-2.42653,0.0565965,-0.0744527,0.0556539,0.0590685,-0.090705,0.146234,-0.125766,-0.0816549,0.0127411,0.0241852,0.0199509,0.0114822,0.0191879,0.0114441,0.023613,0.0160217,-9.97986,0.0137329,0.000762939,0.00957489,0.00335693,-0.0069809,-0.00282288,0.0166321,0.00720978
39,4,-9.99003,0.00152588,0.000610352,-2.4247,0.0550706,-0.0747579,0.055959,0.0850084,-0.0894843,0.146539,-0.12363,-0.0822652,0.00919342,0.019722,0.0204849,0.0133133,0.0163269,0.0122833,0.0185394,0.0104523,-9.97986,0.0105667,0.00160217,0.0139999,0.00495911,0.0136185,-0.00160217,0.0170517,0.00495911
39,5,-7.73967,0.0012207,0.00274658,-2.42623,0.0550706,-0.0741475,0.0571797,0.138109,-0.0858222,0.145013,-0.121189,-0.0825704,0.0107574,0.0176239,0.0187302,0.0151443,0.015831,0.0094986,0.0191879,0.00816345,-9.97986,0.00495911,0.00167847,0.0105667,0.00724792,0.0152206,-0.00370026,0.0189209,0.00400543
39,6,-0.129194,0.00274658,0.00366211,-2.42776,0.0550706,-0.0756734,0.0550435,0.151232,-0.0870429,0.144098,-0.121189,-0.0840963,0.00656128,0.0207901,0.0186539,0.0110245,0.016098,0.0107574,0.0235367,0.0107193,-9.97986,0.00999451,0.000572205,0.0166321,0.00659943,0.0141144,-0.00610352,0.0180817,0.00946045
39,7,7.9543,0.000610352,0.00427246,-2.42898,0.0541551,-0.0756734,0.0529073,0.151842,-0.0903999,0.143182,-0.121189,-0.0862325,0.01297,0.0185013,0.0180435,0.0102234,0.0172424,0.0106049,0.022316,0.0119019,-9.97986,0.010376,-0.00156403,0.0177383,0.00579834,0.0167847,-0.000915527,0.0191879,0.00728607
39,8,10.0097,0.000915527,0.00350952,-2.42989,0.0535448,-0.0762837,0.0501607,0.117967,-0.095893,0.142572,-0.125156,-0.0883688,0.00865936,0.0207901,0.0183105,0.0104904,0.0153732,0.0126266,0.0273132,0.0120163,-9.97986,0.0105286,-0.00110626,0.0129318,0.00392914,0.0144958,-0.00350952,0.0145721,0.00640869
39,9,10.0097,-0.000915527,0.000915527,-2.4305,0.0535448,-0.0759786,0.0510762,0.0883654,-0.0974189,0.141351,-0.125766,-0.0877584,0.01091,0.0257492,0.018692,0.0126648,0.017128,0.0119781,0.0246429,0.0165176,-9.97986,0.0130463,0.00202179,0.0155258,0.00831604,0.0157166,0.000724792,0.0117111,0.00743866
40,0,10.0097,0.000915527,-0.000305176,-2.4302,0.0535448,-0.0759786,0.0513814,0.0785997,-0.0961982,0.143487,-0.127292,-0.0877584,0.0094223,0.0259018,0.0217056,0.00919342,0.0161362,0.00888824,0.0214767,0.0134277,-9.97986,0.0126648,-0.00320435,0.0133896,0.00652313,0.0148392,-0.00190735,0.0151443,0.00732422
40,1,10.0097,0.000305176,-0.000762939,-2.42989,0.0541551,-0.0762837,0.0510762,0.0737169,-0.0946723,0.143487,-0.126682,-0.0856222,0.01091,0.0236893,0.0218964,0.0121307,0.0188065,0.0107193,0.021553,0.0156021,-9.97986,0.0144958,-0.000152588,0.0162506,0.00652313,0.018158,-0.00179291,0.0171661,0.00637054
40,2,10.0097,0,0.000305176,-2.42806,0.0547655,-0.0744527,0.0522969,0.0712755,-0.0949775,0.145624,-0.126682,-0.085317,0.00793457,0.0228882,0.015564,0.00747681,0.017128,0.0127792,0.0214767,0.0180054,-9.97986,0.0169373,3.8147e-005,0.0111771,0.00965118,0.0182724,0.00106812,0.018158,0.00934601
40,3,10.0097,-0.000305176,-0.000305176,-2.42928,0.0544603,-0.0756734,0.0535176,0.0712755,-0.0928413,0.145013,-0.125766,-0.0840963,0.00747681,0.0247192,0.0196838,0.0130081,0.0168991,0.0128937,0.0210953,0.016861,-9.97986,0.0175095,-0.00701904,0.018959,0.00930786,0.0167084,-0.00324249,0.0164032,0.00682831
40,4,10.0097,0.00183105,0,-2.42531,0.0553758,-0.0744527,0.054128,0.0712755,-0.0928413,0.145624,-0.125766,-0.0834859,0.0126648,0.0213623,0.0177765,0.00770569,0.0175476,0.0094223,0.0229645,0.019989,-9.97986,0.0136185,-0.00259399,0.0150681,0.00293732,0.0160599,-0.00267029,0.0146866,0.0075531
40,5,10.0097,0.000610352,0.000305176,-2.4247,0.0565965,-0.0747579,0.0526021,0.0734117,-0.0922309,0.146844,-0.124851,-0.0816549,0.0138855,0.0241852,0.0191498,0.0103378,0.0157928,0.01194,0.0252533,0.0178146,-9.97986,0.0162506,-0.000228882,0.0133896,0.00881195,0.00972748,-0.00125885,0.0159454,0.00492096
