
Devices
1200
,,BP Load cell - Voltage,String Length - Voltage,Clutch Active - Voltage,#7 iPecs - Voltage,,,,,,,,,EMG 1-8 Left - Voltage,,,,,,,,Pylon Force - Voltage,EMG 9-16 Right - Voltage,,,,,,,,
Frame,Sub Frame,BP Load Cell,String Length,From Arduino Logic,A45,A135,A225,A315,S0,S90,S180,S270,ZSum,EMG 1 Glut Max,EMG 2 Glut Med,EMG 3 Biceps Femoris Long,EMG 4 Rectus Femoris,EMG 5 Vastus Medialis,EMG 6 Tib Ant,EMG 7 Med Gas,EMG 8 Soleus,Pylon volts,EMG 9 Glut Max,EMG 10 Glut Med,EMG 11 Biceps Femoris Long,EMG 12 Rectus Femoris,EMG 13 Vastus Medialis,EMG 14 Tib Ant,EMG 15 Med Gas,EMG 16 Soleus
,,V,V,V,V,V,V,V,V,V,V,V,V,V,V,V,V,V,V,V,V,V,V,V,V,V,V,V,V,V
1,0,6.57888,0.000610352,0.000610352,-2.42592,0.0550706,-0.0744527,0.054128,0.0648668,-0.0928413,0.146539,-0.126072,-0.0825704,0.0122833,0.0191116,0.0161362,0.0141907,0.00812531,0.0508499,0.0439835,0.016098,-9.97986,0.0269318,-0.00335693,0.0140381,-0.0324249,0.0230789,-0.000801086,0.00335693,0.0146484
1,1,6.89839,-0.00152588,0.00106812,-2.42714,0.0559862,-0.075063,0.0544332,0.0743273,-0.0913154,0.145318,-0.124241,-0.0828756,0.0110245,0.0219727,0.0154495,0.0125885,0.0063324,0.0461197,0.0409698,0.0174332,-9.97986,0.0297546,-0.0031662,0.0144958,-0.0296021,0.0247192,-0.00743866,-0.00289917,0.0181961
1,2,9.17409,0.000610352,0.00167847,-2.42714,0.0550706,-0.0747579,0.0535176,0.100878,-0.0925361,0.144403,-0.124546,-0.0837911,0.0109482,0.0189972,0.0181961,0.0141525,0.00862122,0.0501251,0.0440979,0.0138855,-9.97986,0.0226974,-0.00377655,0.0116348,-0.0265121,0.0170517,-0.0152588,0.00148773,0.0124741
1,3,10.0097,0.0012207,0.00274658,-2.42959,0.0538499,-0.0762837,0.0532125,0.0953844,-0.0928413,0.143487,-0.125766,-0.085317,0.0108719,0.0193405,0.0170898,0.0133133,0.0043869,0.045929,0.0413513,0.0133514,-9.97986,0.0184631,-0.00450134,0.0094223,-0.0173187,0.0240707,-0.0125504,0.00431061,0.0175095
1,4,10.0097,0,0.00106812,-2.42959,0.0526292,-0.0762837,0.0513814,0.0785997,-0.0961982,0.142572,-0.126682,-0.0868429,0.0137329,0.0239944,0.0195694,0.0161362,0.00659943,0.0432587,0.0391006,0.0141525,-9.97986,0.0173569,-0.00499725,0.0102615,-0.0127029,0.0229645,-0.0161743,0.000762939,0.0127411
1,5,10.0097,-0.000610352,0.000305176,-2.42928,0.0535448,-0.0753682,0.0516866,0.0734117,-0.0961982,0.143792,-0.126987,-0.0871481,0.0114441,0.0249481,0.018692,0.0127792,0.00614166,0.040741,0.0353241,0.0136185,-9.97986,0.0170135,-0.00465393,0.0112152,-0.00488281,0.0221252,-0.0178528,0.00705719,0.0126266
1,6,10.0097,-0.0012207,0.000305176,-2.42928,0.0529344,-0.0759786,0.0513814,0.0709703,-0.094062,0.144098,-0.126987,-0.0871481,0.0123596,0.019989,0.0168991,0.0123978,0.00652313,0.038414,0.0326538,0.0169373,-9.97986,0.0198746,-0.00553131,0.0124359,-0.00148773,0.0268555,-0.0151825,0.00831604,0.0135422
1,7,10.0097,-0.00213623,0.000152588,-2.42959,0.0535448,-0.0756734,0.0519917,0.0688341,-0.0943672,0.142877,-0.126377,-0.0871481,0.0127411,0.0254822,0.0188828,0.0105667,0.00606537,0.0375366,0.0299072,0.013504,-9.97986,0.0145721,0.000572205,0.0144196,0.0025177,0.0217438,-0.0115204,0.00518799,0.0118637
1,8,10.0097,0,0.000610352,-2.42806,0.0538499,-0.0753682,0.0522969,0.0700548,-0.094062,0.144403,-0.126072,-0.085317,0.01091,0.0224304,0.021019,0.00732422,0.00896454,0.0359344,0.0341797,0.0128174,-9.97986,0.0187683,-0.0050354,0.0131989,0.00770569,0.0253296,-0.0137711,0.00675201,0.0154495
1,9,10.0097,0.00152588,0.000762939,-2.42714,0.0550706,-0.0753682,0.0526021,0.0694445,-0.094062,0.144098,-0.126377,-0.0847066,0.0107193,0.0239563,0.0162125,0.0160599,0.00671387,0.0348663,0.0305557,0.0133133,-9.97986,0.017395,-0.00473022,0.00782013,0.0154495,0.0257492,-0.0194931,0.00396729,0.0123215
2,0,10.0097,0.000610352,0.000915527,-2.42684,0.0559862,-0.075063,0.0538228,0.0700548,-0.0928413,0.145013,-0.126072,-0.0847066,0.013237,0.025444,0.0239182,0.0117874,0.00656128,0.0333786,0.0361633,0.0148392,-9.97986,0.0164413,-0.000572205,0.0131226,0.0154495,0.024147,-0.0172043,0.00659943,0.0128555
2,1,10.0097,0.0012207,0.000305176,-2.42714,0.0562914,-0.0759786,0.0526021,0.07036,-0.0928413,0.144708,-0.125766,-0.0837911,0.00728607,0.0249863,0.0213242,0.0113297,0.00858307,0.0345612,0.0302124,0.01091,-9.97986,0.0143433,-0.00331879,0.0137329,0.0225067,0.0220108,-0.0177002,0.00732422,0.0112915
2,2,10.0097,0.000305176,0.000915527,-2.42501,0.0559862,-0.0735371,0.0547383,0.07036,-0.0919257,0.146234,-0.12363,-0.0819601,0.00854492,0.0253296,0.0208282,0.0133133,0.00720978,0.0286102,0.0334167,0.0140381,-9.97986,0.0162506,-0.00179291,0.0063324,0.0349808,0.0226593,-0.0176239,0.0094986,0.00938416
2,3,10.0097,-0.000610352,0.000305176,-2.42409,0.055681,-0.0735371,0.0550435,0.07036,-0.0913154,0.147455,-0.124241,-0.0816549,0.0113678,0.0259399,0.0206757,0.0125885,0.00705719,0.0289917,0.0308228,0.0177765,-9.97986,0.0107956,0.00350952,0.0109863,0.0360489,0.0237656,-0.0162888,0.00785828,0.00953674
2,4,10.0097,0.000915527,0.000610352,-2.42562,0.0565965,-0.075063,0.0553487,0.0706652,-0.090705,0.146844,-0.123325,-0.0816549,0.0114822,0.0230408,0.0188065,0.00801086,0.00934601,0.0278091,0.033493,0.0132751,-9.97986,0.0138474,-0.00274658,0.0108337,0.0422287,0.0196838,-0.0122452,0.00938416,0.010643
2,5,10.0097,0.0012207,0.0012207,-2.42531,0.0572069,-0.0741475,0.0538228,0.0715807,-0.0931465,0.146234,-0.12363,-0.0807394,0.00988007,0.027504,0.0207901,0.0151825,0.00579834,0.0224686,0.0322342,0.0127029,-9.97986,0.0125122,-0.00267029,0.0148392,0.0507736,0.0196075,-0.00926971,0.00804901,0.0104141
2,6,10.0097,0.000305176,0.00106812,-2.42714,0.0572069,-0.0741475,0.0535176,0.0706652,-0.0922309,0.146234,-0.124241,-0.0810445,0.0146103,0.0237656,0.0199509,0.0127029,0.00831604,0.0219727,0.0318527,0.0167847,-9.97986,0.0136948,-0.000495911,0.0156403,0.0592422,0.0161362,-0.00663757,0.0127029,0.0109482
2,7,10.0097,0.00244141,-0.000152588,-2.42562,0.0559862,-0.0753682,0.0535176,0.0383165,-0.0946723,0.146539,-0.126682,-0.0816549,0.0152588,0.0243759,0.0179672,0.018158,0.0125504,0.018692,0.0305939,0.0193787,-9.97986,0.0107193,-0.000495911,0.00858307,0.0658035,0.0123215,-0.0117493,0.0123215,0.0117111
2,8,7.93019,-0.0012207,-0.0012207,-2.42562,0.0565965,-0.0747579,0.0535176,0.042589,-0.0943672,0.146539,-0.125766,-0.0807394,0.0100708,0.0248337,0.0168228,0.0107956,0.00980377,0.0157928,0.0321579,0.016861,-9.97986,0.00904083,-0.00511169,0.0127029,0.065918,0.00938416,-0.0222015,0.0134659,0.0100708
2,9,6.85201,0.0012207,0,-2.42592,0.055681,-0.0726216,0.0544332,0.0563219,-0.0910102,0.145318,-0.125766,-0.0828756,0.0159454,0.0307083,0.0190353,0.0114441,0.00980377,0.0177383,0.0283813,0.0186157,-9.97986,0.0180817,-0.00232697,0.0177383,0.0735092,0.0128555,-0.0185776,0.0157547,0.0114059
3,0,6.71193,0.00152588,0.000610352,-2.42623,0.0553758,-0.0735371,0.0553487,0.0639513,-0.0931465,0.145624,-0.125461,-0.0825704,0.00953674,0.0225067,0.0152206,0.0105667,0.00621796,0.0125122,0.0310516,0.0162888,-9.97986,0.0126648,-0.00335693,0.0152588,0.0750732,0.00865936,-0.0172043,0.0151062,0.00900269
3,1,7.04885,0,0.0012207,-2.42592,0.0553758,-0.0741475,0.0547383,0.075548,-0.0922309,0.145929,-0.126072,-0.0828756,0.0152588,0.0244141,0.0196075,0.0106049,0.0102615,0.0138474,0.032959,0.0154114,-9.97986,0.017128,-0.00087738,0.0145721,0.0805283,0.0069809,-0.00759125,0.0125885,0.00888824
3,2,9.41152,-0.000305176,0.00152588,-2.42684,0.0544603,-0.0753682,0.0544332,0.102098,-0.088874,0.145624,-0.12363,-0.0837911,0.012207,0.0193787,0.017395,0.00911713,0.0107193,0.00892639,0.0261688,0.0184631,-9.97986,0.0178146,-0.00217438,0.00823975,0.0805664,0.00900269,-0.00392914,0.0160599,0.00984192
3,3,10.0097,0.00244141,0.00213623,-2.43111,0.0535448,-0.0762837,0.0526021,0.0932482,-0.0943672,0.143792,-0.125461,-0.0862325,0.014267,0.026741,0.0151062,0.0088501,0.012207,0.0118637,0.0300217,0.0151062,-9.97986,0.0122833,-0.00198364,0.0133514,0.0801849,0.00888824,0.00110626,0.0170135,0.0123596
3,4,10.0097,0.000610352,0.00106812,-2.42898,0.0541551,-0.0762837,0.0516866,0.0767687,-0.0949775,0.143792,-0.126072,-0.0859274,0.00961304,0.0229263,0.0156021,0.0139999,0.00999451,0.00686646,0.0311661,0.0182724,-9.97986,0.0177002,-0.00225067,0.0152969,0.0831223,0.0063324,0.00518799,0.0188828,0.0106049
3,5,10.0097,-0.0012207,0.000457764,-2.42898,0.0538499,-0.0753682,0.050771,0.072191,-0.0952827,0.143792,-0.126682,-0.0877584,0.0130844,0.0278473,0.0193405,0.0117111,0.0156021,0.00881195,0.0273514,0.0186539,-9.97986,0.0142288,-0.000762939,0.0116348,0.0880814,0.00362396,0.00579834,0.0204086,0.00659943
3,6,10.0097,0,0.000305176,-2.42684,0.0550706,-0.0756734,0.0516866,0.0700548,-0.0949775,0.143487,-0.127903,-0.0865377,0.0113297,0.0268173,0.0163269,0.0130463,0.0153732,0.0115967,0.0257111,0.0149918,-9.97986,0.0115204,-0.000953674,0.0120926,0.0884247,0.0030899,-0.00110626,0.0214767,0.0069046
3,7,10.0097,-0.000610352,0.000305176,-2.42928,0.0544603,-0.0762837,0.0513814,0.0709703,-0.0952827,0.144098,-0.127598,-0.0868429,0.0107193,0.0263977,0.0221252,0.0122452,0.0149918,0.00785828,0.024147,0.0180817,-9.97986,0.0157547,-0.00160217,0.0144577,0.0907135,0.00629425,-0.00492096,0.0225449,0.00896454
3,8,10.0097,-0.00244141,0.000610352,-2.42806,0.0550706,-0.0753682,0.0519917,0.0688341,-0.094062,0.143792,-0.127598,-0.0874532,0.0122833,0.0218582,0.019989,0.0117111,0.0168228,0.012207,0.0243759,0.0180435,-9.97986,0.0177765,-0.00255585,0.015564,0.0951767,0.00232697,-0.00640869,0.0238419,0.00923157
3,9,10.0097,0.000610352,0.000457764,-2.43081,0.0541551,-0.0762837,0.0532125,0.0697496,-0.0943672,0.144708,-0.126987,-0.0840963,0.01297,0.0270462,0.0202179,0.00980377,0.0160599,0.00900269,0.0235367,0.0193024,-9.97986,0.0128937,0.000305176,0.0177002,0.103989,0.0069809,-0.0101089,0.0260162,0.00808716
4,0,10.0097,-0.000305176,0.000305176,-2.42745,0.0559862,-0.0753682,0.0526021,0.07036,-0.0934516,0.144098,-0.126072,-0.0850118,0.0102997,0.0205612,0.0162125,0.0114441,0.0141144,0.0094223,0.0250244,0.0190353,-9.97986,0.0147629,-0.00408173,0.0173187,0.10273,0.00591278,-0.0138855,0.0239563,0.00705719
4,1,10.0097,-0.0012207,0.00106812,-2.42714,0.0550706,-0.075063,0.0532125,0.0694445,-0.0931465,0.145013,-0.125461,-0.085317,0.00972748,0.0218582,0.0142288,0.0151825,0.0200653,0.00904083,0.0206375,0.017395,-9.97986,0.0156784,-0.0019455,0.0148773,0.106392,0.00766754,-0.0157928,0.0273895,0.00732422
4,2,10.0097,-0.000915527,0.00152588,-2.42684,0.0553758,-0.0741475,0.0538228,0.07036,-0.0913154,0.146234,-0.12363,-0.0822652,0.00846863,0.0201797,0.0235748,0.0112915,0.0166321,0.00759125,0.020256,0.0163651,-9.97986,0.0154495,-0.00148773,0.0119019,0.10891,0.00450134,-0.0225449,0.0252151,0.0107574
4,3,10.0097,-0.000610352,0.000457764,-2.42562,0.0572069,-0.0735371,0.054128,0.0709703,-0.0922309,0.145318,-0.124241,-0.0804342,0.00389099,0.0231552,0.0226593,0.00644684,0.0193787,0.00804901,0.0205994,0.0166702,-9.97986,0.0144577,-0.00694275,0.0119781,0.106697,0.00106812,-0.0196075,0.0265884,0.00743866
4,4,10.0097,0.000610352,0.0012207,-2.42623,0.0562914,-0.0741475,0.0544332,0.0712755,-0.0913154,0.145929,-0.124851,-0.078298,0.00396729,0.0226593,0.019455,0.00915527,0.0202179,0.0119781,0.0191116,0.019455,-9.97986,0.0136185,-0.00522614,0.0136185,0.112457,0.00545502,-0.0183105,0.0304413,0.00831604
4,5,10.0097,-0.000305176,0.000305176,-2.42714,0.0572069,-0.0741475,0.0553487,0.0709703,-0.0922309,0.146234,-0.123935,-0.0819601,0.00244141,0.0224686,0.014534,0.00797272,0.015564,0.0111771,0.0254059,0.0187683,-9.97986,0.0163651,-0.00160217,0.012207,0.113411,0.00431061,-0.0222015,0.0282669,0.00976563
4,6,10.0097,0.000305176,0.000457764,-2.42531,0.0569017,-0.075063,0.0544332,0.0718859,-0.0925361,0.146234,-0.12241,-0.0810445,-0.0038147,0.0252151,0.0200272,0.00774384,0.0205231,0.0112915,0.0208664,0.0184631,-9.97986,0.018692,-0.0038147,0.0139999,0.112038,0.000572205,-0.0222397,0.0315094,0.00598907
4,7,10.0097,0,-0.00137329,-2.42531,0.0553758,-0.0747579,0.0535176,0.0395372,-0.0943672,0.145318,-0.126682,-0.0822652,0.00228882,0.0201797,0.019455,0.00862122,0.0182343,0.0115585,0.0191116,0.0214386,-9.97986,0.0133133,-0.000839233,0.0131989,0.111961,0.00595093,-0.0232697,0.0312424,0.00602722
4,8,8.0602,0.000610352,-0.000610352,-2.42318,0.0569017,-0.0747579,0.0529073,0.0447252,-0.0928413,0.145318,-0.126377,-0.0819601,0.00827789,0.0246811,0.0203705,0.00995636,0.0191879,0.00823975,0.0191879,0.0197601,-9.97986,0.0121307,-0.00320435,0.0128555,0.119247,0.00118256,-0.0151825,0.0301743,0.00679016
4,9,6.98995,-0.000305176,-0.000457764,-2.42623,0.0559862,-0.075063,0.054128,0.0563219,-0.0925361,0.145318,-0.125461,-0.0816549,0.0154495,0.0273132,0.0200653,0.016861,0.0192642,0.0116348,0.0231934,0.0151062,-9.97986,0.0147629,0.00293732,0.0128555,0.118599,0.00213623,-0.0176239,0.0367355,0.00701904
5,0,6.87764,-0.000915527,0.000152588,-2.42623,0.0544603,-0.0744527,0.0544332,0.0654772,-0.0922309,0.145929,-0.125766,-0.0844015,0.0159836,0.0227737,0.0193405,0.0128555,0.0157166,0.00701904,0.0216293,0.0129318,-9.97986,0.0123215,-0.00179291,0.0148392,0.119133,0.00335693,-0.00736237,0.0352478,0.00423431
5,1,7.20876,0.000610352,0.000305176,-2.42867,0.0553758,-0.0747579,0.0544332,0.0749376,-0.0910102,0.144708,-0.125766,-0.0831808,0.0168991,0.0214005,0.0170517,0.0119019,0.0211334,0.0123596,0.0217438,0.0165176,-9.97986,0.0113678,-0.00312805,0.0141144,0.121994,0.00183105,-0.00549316,0.0366211,0.00606537
5,2,9.55251,0.000610352,0.00167847,-2.42745,0.0544603,-0.0762837,0.0556539,0.102709,-0.088874,0.144098,-0.123935,-0.0840963,0.0245285,0.0211716,0.0175476,0.0163651,0.0242233,0.00976563,0.0219345,0.0145721,-9.97986,0.0102234,0.00102997,0.0134659,0.123444,0.00274658,-0.00545502,0.0397491,0.00667572
5,3,10.0097,0,0.00167847,-2.42867,0.0526292,-0.0768941,0.0522969,0.0911119,-0.0934516,0.142877,-0.126682,-0.0847066,0.0290298,0.0231171,0.0177383,0.0124359,0.0247574,0.0101089,0.018158,0.0148773,-9.97986,0.00904083,-0.00404358,0.0109863,0.116501,0.00534058,-0.00740051,0.0411224,0.0031662
5,4,10.0097,0.00183105,0.000305176,-2.42928,0.0529344,-0.0768941,0.0522969,0.077379,-0.0968086,0.143182,-0.126987,-0.0859274,0.0238419,0.0248718,0.0180054,0.0122833,0.0210571,0.0111771,0.0198746,0.0136566,-9.97986,0.00816345,-0.0012207,0.0151062,0.11837,0.00289917,-0.0111008,0.0411606,0.00919342
5,5,10.0097,0.0012207,0.000152588,-2.42928,0.0538499,-0.0759786,0.0516866,0.0718859,-0.095893,0.143182,-0.127292,-0.0871481,0.0130463,0.0218201,0.0192261,0.00656128,0.0214005,0.0102997,0.0156784,0.0170898,-9.97986,0.00339508,-0.00556946,0.0139999,0.113869,0.00160217,-0.0102997,0.0413132,0.00545502
5,6,10.0097,0.000305176,-0.000457764,-2.42867,0.0544603,-0.0762837,0.0522969,0.0700548,-0.0946723,0.143182,-0.126987,-0.0868429,0.0154495,0.0234604,0.0146103,0.014534,0.0242233,0.0125885,0.0164032,0.0149536,-9.97986,0.00366211,-0.00785828,0.0139999,0.111656,0.00328064,-0.00400543,0.043335,0.00736237
5,7,10.0097,0.000610352,0.000305176,-2.42867,0.0541551,-0.0762837,0.0519917,0.0688341,-0.0949775,0.143487,-0.126987,-0.0871481,0.0104523,0.0227356,0.0114059,0.0111008,0.0253677,0.0154877,0.0165176,0.0148773,-9.97986,0.00572205,-0.00270844,0.0175476,0.113258,0.00953674,-0.00480652,0.0455093,0.00873566
5,8,10.0097,0.000610352,-0.000610352,-2.42806,0.0544603,-0.075063,0.0529073,0.07036,-0.0931465,0.142572,-0.126682,-0.0859274,0.00995636,0.0205612,0.0129318,0.00759125,0.0220871,0.0111771,0.0174713,0.0164413,-9.97986,0.00801086,-0.00137329,0.0149155,0.110779,0.00347137,-0.00114441,0.0444031,0.0069046
5,9,10.0097,0.000915527,-0.000152588,-2.42653,0.0553758,-0.0759786,0.0522969,0.0691393,-0.0949775,0.144708,-0.126682,-0.0859274,0.0140381,0.0233078,0.0185394,0.0117111,0.0247192,0.0163651,0.0166321,0.0164795,-9.97986,0.0106812,-0.000343323,0.0157166,0.105858,0.0094223,0.00495911,0.0439835,0.00759125
6,0,10.0097,0.000305176,-0.000152588,-2.42684,0.0559862,-0.0744527,0.0535176,0.0688341,-0.0934516,0.143792,-0.126072,-0.0847066,0.0137711,0.0207138,0.0141525,0.014267,0.0238419,0.0139236,0.0175858,0.0158691,-9.97986,0.0117493,-0.00167847,0.01297,0.104256,0.00484467,0.00411987,0.0450134,0.00617981
6,1,10.0097,-0.000915527,0.000152588,-2.42745,0.0559862,-0.075063,0.0532125,0.0697496,-0.0931465,0.145318,-0.125766,-0.0837911,0.0106049,0.0228882,0.0170898,0.0107956,0.0257874,0.0105667,0.0136185,0.01297,-9.97986,0.0142288,-0.000457764,0.0134659,0.104561,0.00358582,0.00247955,0.0447464,0.00751495
6,2,10.0097,0.000610352,0.000457764,-2.42501,0.0559862,-0.0741475,0.0544332,0.0706652,-0.0928413,0.146234,-0.124851,-0.0828756,0.0112152,0.027504,0.0157547,0.0137329,0.0253677,0.0165939,0.0132751,0.0201797,-9.97986,0.0198746,-0.00183105,0.0150681,0.105934,0.0104523,-0.000915527,0.0457382,0.00614166
6,3,10.0097,0.000610352,0.000305176,-2.42592,0.0550706,-0.0738423,0.0547383,0.0709703,-0.0913154,0.147149,-0.125156,-0.0816549,0.0124359,0.0232315,0.0201035,0.0062561,0.0234222,0.0177383,0.0186157,0.0200653,-9.97986,0.0162125,-0.00038147,0.0141525,0.108871,0.00671387,-0.00461578,0.0492859,0.000839233
6,4,10.0097,0.00213623,0.000457764,-2.42501,0.0562914,-0.0744527,0.054128,0.0724962,-0.0922309,0.147455,-0.12363,-0.080129,0.00953674,0.0241089,0.0168228,0.0106812,0.0250244,0.0194168,0.0259399,0.015831,-9.97986,0.0163651,-0.00465393,0.0116348,0.103989,0.00946045,-0.00720978,0.0477219,0.00453949
6,5,10.0097,0.00244141,0.000762939,-2.42501,0.0562914,-0.0738423,0.0550435,0.0712755,-0.0913154,0.145929,-0.124546,-0.0804342,0.00865936,0.0238419,0.0177765,0.0107574,0.0258255,0.0207901,0.0262833,0.0187302,-9.97986,0.0170135,-0.000343323,0.0126266,0.10704,0.0125122,-0.00770569,0.0479889,0.0069046
6,6,10.0097,-0.000610352,-0.000457764,-2.42714,0.0569017,-0.073232,0.054128,0.0682238,-0.0913154,0.146539,-0.125156,-0.0810445,0.013504,0.0243759,0.0157166,0.0108719,0.0252533,0.0143051,0.0230026,0.0151062,-9.97986,0.0160599,0.00087738,0.014267,0.102158,0.0113678,-0.00354767,0.046196,0.00747681
6,7,10.0097,0,-0.00152588,-2.42592,0.0559862,-0.0753682,0.0544332,0.0370958,-0.0949775,0.146844,-0.126072,-0.0816549,0.01091,0.0246048,0.0123978,0.0112152,0.0286865,0.0179291,0.0177383,0.0173187,-9.97986,0.0104141,-0.000839233,0.0136185,0.102654,0.0131226,-0.00289917,0.049324,0.00869751
6,8,7.72267,0.000915527,-0.00106812,-2.42531,0.0569017,-0.0738423,0.0553487,0.042589,-0.0937568,0.145929,-0.126987,-0.0816549,0.0129318,0.0216675,0.0174713,0.0129318,0.0242996,0.013504,0.00873566,0.0161362,-9.97986,0.0101471,-0.00190735,0.0144196,0.0993729,0.0107574,-0.0044632,0.046196,0.00450134
6,9,6.66066,0.00152588,-0.000610352,-2.42684,0.0569017,-0.0747579,0.0547383,0.0554064,-0.0910102,0.145624,-0.125766,-0.0822652,0.0118637,0.0228119,0.0186157,0.0131226,0.0236893,0.0178146,0.0038147,0.018158,-9.97986,0.0107956,-0.00190735,0.0141144,0.0954819,0.0102615,-0.00232697,0.0473785,0.00423431
7,0,6.50502,0.000610352,-0.000152588,-2.42623,0.0541551,-0.075063,0.0544332,0.0639513,-0.0928413,0.145318,-0.125766,-0.0837911,0.01091,0.0231934,0.0184631,0.0107193,0.0223541,0.0187683,0.00263214,0.017128,-9.97986,0.0113297,-0.00175476,0.00850677,0.0922012,0.0119781,0.00087738,0.0462341,0.0063324
7,1,6.80745,0,-0.000152588,-2.42653,0.0550706,-0.0744527,0.0556539,0.0752428,-0.0913154,0.145929,-0.125156,-0.0831808,0.0107956,0.0223923,0.0158691,0.00930786,0.0228882,0.0138855,0.00988007,0.0127411,-9.97986,0.0115967,0.00209808,0.00598907,0.090065,0.0134277,0.00133514,0.0465393,0.00530243
7,2,9.09841,-0.000610352,0.00183105,-2.42653,0.0550706,-0.0741475,0.0550435,0.101488,-0.0891792,0.144403,-0.124241,-0.0834859,0.01091,0.0218964,0.0154495,0.00854492,0.030365,0.0177002,0.0194168,0.017128,-9.97986,0.0104523,-0.00175476,0.00976563,0.0921631,0.0139999,0.00293732,0.0497055,0.00476837
7,3,10.0097,0.000915527,0.00213623,-2.42867,0.0535448,-0.0762837,0.0526021,0.0959947,-0.0925361,0.143792,-0.124851,-0.0862325,0.00961304,0.0242615,0.0236893,0.0094986,0.0252151,0.0191116,0.0271988,0.0169754,-9.97986,0.0125122,-0.00179291,0.0107193,0.0914383,0.0148773,0.00232697,0.049324,0.00595093
7,4,10.0097,-0.000305176,0.000305176,-2.42837,0.0529344,-0.0753682,0.0513814,0.0782946,-0.0971137,0.144098,-0.126682,-0.0862325,0.0088501,0.026741,0.0168991,0.00881195,0.0252151,0.0123596,0.0269699,0.018425,-9.97986,0.0157166,0.001297,0.0114059,0.0883484,0.0128555,-0.00328064,0.0473785,0.00617981
7,5,10.0097,0.00244141,-0.000305176,-2.42959,0.0535448,-0.0759786,0.0513814,0.0728014,-0.0949775,0.143792,-0.126987,-0.0874532,0.00991821,0.0261688,0.0169373,0.00934601,0.0278854,0.0137711,0.0291824,0.0159836,-9.97986,0.0160599,0.00141144,0.012207,0.0869751,0.0144958,-0.000228882,0.0466156,0.00480652
7,6,10.0097,0.0012207,-0.000305176,-2.4302,0.0532396,-0.0765889,0.0522969,0.0712755,-0.0952827,0.142877,-0.127598,-0.0877584,0.0105667,0.0233078,0.0185013,0.00759125,0.0277328,0.014267,0.0292969,0.0134277,-9.97986,0.0131989,-0.00137329,0.00789642,0.0873947,0.017662,-0.00114441,0.0466919,0.00995636
7,7,10.0097,0.00244141,-0.000152588,-2.43111,0.0538499,-0.0762837,0.0522969,0.07036,-0.0952827,0.144098,-0.127903,-0.0865377,0.00953674,0.0196838,0.0142288,0.00919342,0.0217056,0.00984192,0.022049,0.016861,-9.97986,0.0179291,-0.000610352,0.00637054,0.0828934,0.0153351,-0.00579834,0.0477982,0.00495911
7,8,10.0097,0.000610352,-0.000457764,-2.42837,0.0535448,-0.0759786,0.0526021,0.0697496,-0.0928413,0.144403,-0.125766,-0.0862325,0.0108337,0.0248718,0.0177383,0.0116348,0.0266647,0.0177383,0.0185013,0.0143051,-9.97986,0.00957489,-0.000228882,0.00915527,0.0838852,0.0159454,-0.00312805,0.0475693,0.00724792
7,9,10.0097,0.0012207,0,-2.42867,0.0550706,-0.0756734,0.0526021,0.0712755,-0.0934516,0.145318,-0.127292,-0.0847066,0.0063324,0.0229645,0.0156784,0.00770569,0.024147,0.0135803,0.0200272,0.0201416,-9.97986,0.0162888,-0.000648499,0.00679016,0.0827789,0.0126648,-0.00499725,0.0452423,0.00339508
8,0,10.0097,0.00152588,0.000152588,-2.42745,0.0550706,-0.073232,0.0538228,0.0691393,-0.0928413,0.145013,-0.127292,-0.0847066,0.00572205,0.0239944,0.0180817,0.0117111,0.0278854,0.0172806,0.0301361,0.0133514,-9.97986,0.0169373,-0.00198364,0.00957489,0.0772476,0.0159836,-0.0126266,0.0453568,0.00289917
8,1,10.0097,-0.000610352,0.000305176,-2.42684,0.0550706,-0.0753682,0.0519917,0.0706652,-0.0931465,0.144708,-0.124241,-0.0831808,0.00541687,0.0226974,0.0159836,0.0119019,0.0247955,0.0145721,0.0272369,0.0185776,-9.97986,0.0152206,-0.000228882,0.00610352,0.0735474,0.0173569,-0.0136948,0.0455475,0.0030899
8,2,10.0097,0.00152588,-0.000305176,-2.42562,0.0569017,-0.0735371,0.054128,0.072191,-0.0931465,0.147149,-0.124546,-0.0816549,0.00770569,0.0284576,0.0180817,0.00846863,0.0276947,0.0151443,0.0318909,0.0151825,-9.97986,0.01297,0.00305176,0.00598907,0.0686646,0.0143433,-0.0134277,0.0434494,0.000495911
8,3,10.0097,0,0.000305176,-2.4247,0.0559862,-0.0738423,0.0553487,0.0706652,-0.0919257,0.147455,-0.124241,-0.0822652,0.00572205,0.0234604,0.0203323,0.0112915,0.02285,0.0117493,0.030098,0.0130081,-9.97986,0.0154114,3.8147e-005,0.00858307,0.0632095,0.0191498,-0.0105667,0.0429916,0.00408173
8,4,10.0097,-0.000610352,-0.000305176,-2.42501,0.0553758,-0.0729268,0.054128,0.0718859,-0.0931465,0.146234,-0.123935,-0.0813497,0.0107193,0.0242615,0.0173187,0.0102997,0.0210571,0.0139236,0.031929,0.0164413,-9.97986,0.0163651,-0.000839233,0.0103378,0.0576019,0.0178146,0.00617981,0.0439835,0.00282288
8,5,10.0097,0.0012207,0,-2.42623,0.0575121,-0.075063,0.0547383,0.0712755,-0.090705,0.146539,-0.124546,-0.0807394,0.0117111,0.0225449,0.0173569,0.00843048,0.0232315,0.0122452,0.0328064,0.018158,-9.97986,0.0149918,-0.00293732,0.0111389,0.0490952,0.0165176,0.00740051,0.0397873,0.00087738
8,6,10.0097,0.000305176,-0.000610352,-2.42592,0.0559862,-0.0729268,0.0529073,0.0679186,-0.0913154,0.145013,-0.12363,-0.0813497,0.0114822,0.0258255,0.0204086,0.0104904,0.0191116,0.0154495,0.0459671,0.0154877,-9.97986,0.0154114,0.000495911,0.00881195,0.0424957,0.0211334,0.0125504,0.0448227,0.00228882
8,7,10.0097,0.000915527,-0.00152588,-2.42562,0.0559862,-0.0735371,0.0547383,0.0370958,-0.0952827,0.144708,-0.126377,-0.0822652,0.00926971,0.0270462,0.0190735,0.00862122,0.0180435,0.00904083,0.0522232,0.0162888,-9.97986,0.0172043,-0.00137329,0.00617981,0.042572,0.0253296,0.0162888,0.0430679,0.00518799
8,8,7.66377,0.00183105,-0.00137329,-2.42623,0.0575121,-0.073232,0.0550435,0.0422838,-0.0931465,0.145929,-0.127598,-0.0828756,0.0120544,0.0245285,0.0175476,0.0088501,0.0177765,0.00614166,0.0473785,0.0164795,-9.97986,0.0110626,-0.000915527,0.00896454,0.0409317,0.0247574,0.0171661,0.0384903,0.00392914
8,9,6.54561,0.0012207,-0.000915527,-2.42562,0.0559862,-0.0738423,0.0544332,0.0557115,-0.0919257,0.145318,-0.125766,-0.0822652,0.0113297,0.0227737,0.0199509,0.0134277,0.0164032,0.00968933,0.0483322,0.0180817,-9.97986,0.0206375,0.000686646,0.00667572,0.039444,0.0267792,0.0141525,0.0407028,0.00476837
9,0,6.36037,0.00213623,0,-2.42684,0.0559862,-0.0744527,0.054128,0.0633409,-0.0919257,0.146539,-0.126987,-0.0828756,0.00606537,0.0206375,0.0162125,0.0112534,0.0206375,0.0104904,0.0357056,0.0208664,-9.97986,0.0167084,-0.00358582,0.00938416,0.0354767,0.0318527,0.00614166,0.0396347,0.00415802
9,1,6.68813,-0.000610352,0.000152588,-2.42623,0.0547655,-0.0744527,0.054128,0.0740221,-0.0913154,0.145013,-0.125156,-0.0825704,0.00854492,0.0248718,0.0147247,0.00640869,0.0189209,0.00492096,0.0310898,0.0204849,-9.97986,0.0144577,-0.00350952,0.0106049,0.0349045,0.0294113,0.00297546,0.0370789,0.00518799
9,2,8.92934,0.000305176,0.00137329,-2.42623,0.0547655,-0.0753682,0.0550435,0.103929,-0.0891792,0.144403,-0.12302,-0.0834859,0.0148392,0.0259399,0.018158,0.0129318,0.0216675,0.00747681,0.0266266,0.0211334,-9.97986,0.0172043,-0.00282288,0.010376,0.0288773,0.0335312,0.0043869,0.0382233,0.00514984
9,3,10.0097,-0.00152588,0.0012207,-2.4305,0.0541551,-0.0759786,0.0522969,0.0969103,-0.0922309,0.143487,-0.125461,-0.0871481,0.00839233,0.0256729,0.0191116,0.0141144,0.0211334,0.00679016,0.0231934,0.0188446,-9.97986,0.0136185,-0.000267029,0.00923157,0.0279236,0.0323868,0.00644684,0.0372696,0.00583649
9,4,10.0097,0,0.000457764,-2.42867,0.0529344,-0.0765889,0.0526021,0.0798204,-0.095893,0.142877,-0.126987,-0.0871481,0.0128937,0.0273895,0.0195694,0.0128174,0.0213242,0.00289917,0.0200653,0.0175476,-9.97986,0.0141525,0.00663757,0.00911713,0.0267029,0.026474,0.00270844,0.0361252,0.00350952
9,5,10.0097,0.0012207,0,-2.42898,0.0544603,-0.0756734,0.0516866,0.0718859,-0.0965034,0.144098,-0.127292,-0.0877584,0.0094223,0.0249481,0.0185394,0.0117111,0.0210953,0.00572205,0.0200653,0.0256729,-9.97986,0.0137711,-0.00408173,0.00679016,0.0204468,0.0287628,0.00301361,0.0346756,0.00396729
9,6,10.0097,0.00213623,-0.000915527,-2.42653,0.0535448,-0.0756734,0.0516866,0.07036,-0.0946723,0.143182,-0.128208,-0.0862325,-0.00087738,0.0236893,0.0218201,0.00846863,0.0165176,0.001297,0.0205612,0.0239563,-9.97986,0.0146484,-0.00427246,0.00648499,0.0200272,0.0273895,-0.000190735,0.0336456,0.00751495
9,7,10.0097,0.0012207,-0.000610352,-2.42928,0.0535448,-0.0765889,0.0526021,0.0700548,-0.0943672,0.144708,-0.127903,-0.0874532,-0.00102997,0.0292969,0.022049,0.0127029,0.0226593,0.00675201,0.0205612,0.0349045,-9.97986,0.0178909,-0.000648499,0.00843048,0.0143814,0.0269699,-0.00518799,0.0299072,0.00598907
9,8,10.0097,-0.000610352,-0.000152588,-2.42806,0.0538499,-0.0762837,0.0522969,0.0706652,-0.0946723,0.144403,-0.126072,-0.0856222,0.00480652,0.0265503,0.021286,0.0102997,0.0206757,-0.00141144,0.0302887,0.0337219,-9.97986,0.0169754,-0.00301361,0.0069809,0.0129318,0.0301743,-0.00968933,0.0328445,0.00450134
9,9,10.0097,-0.000915527,-0.000152588,-2.42745,0.0547655,-0.0741475,0.0538228,0.0694445,-0.0928413,0.145624,-0.126987,-0.0856222,-0.0030899,0.0266647,0.0211716,0.0105286,0.0233078,-0.00038147,0.0188828,0.0343323,-9.97986,0.0178528,-0.00137329,0.0119019,0.0104904,0.0315857,-0.00499725,0.0348663,0.00495911
10,0,10.0097,-0.000915527,-0.000457764,-2.42776,0.0544603,-0.0759786,0.0535176,0.0697496,-0.094062,0.145929,-0.126987,-0.0847066,-0.0206757,0.0290298,0.0242996,0.0123978,0.019989,-0.000457764,0.0170517,0.038681,-9.97986,0.0162506,-0.00255585,0.00957489,0.00972748,0.0283051,-0.00297546,0.0298309,0.00312805
10,1,10.0097,0.000915527,-0.000152588,-2.42623,0.055681,-0.0753682,0.0544332,0.0700548,-0.0937568,0.144708,-0.126072,-0.085317,-0.0208282,0.029068,0.0288773,0.00789642,0.0216293,0.00152588,0.0180054,0.03685,-9.97986,0.0131226,-0.00167847,0.00652313,0.00312805,0.0317383,0.00270844,0.0349808,0.00709534
10,2,10.0097,0.000305176,0.000610352,-2.42653,0.055681,-0.073232,0.0538228,0.0700548,-0.0922309,0.145929,-0.123935,-0.0816549,-0.0102997,0.0326157,0.0273514,0.0139999,0.0214386,0.000228882,0.0170517,0.0325012,-9.97986,0.00808716,0.00102997,0.0104523,0.00629425,0.0276947,0.00740051,0.0298691,0.00652313
10,3,10.0097,0.000610352,-0.000305176,-2.42562,0.0559862,-0.0735371,0.0562642,0.0718859,-0.0910102,0.147149,-0.124546,-0.0810445,-0.0056839,0.0358963,0.0279236,0.0189972,0.0244141,-0.0031662,0.0183487,0.0214767,-9.97986,0.00968933,7.62939e-005,0.0107956,0.00236511,0.0289917,0.0108719,0.0263214,0.00518799
10,4,10.0097,0.000305176,-0.000305176,-2.42501,0.0562914,-0.0744527,0.0550435,0.0697496,-0.0903999,0.145929,-0.124851,-0.0804342,0.0148773,0.0365448,0.0294113,0.0115967,0.0157547,0.000114441,0.0162125,0.0170517,-9.97986,0.0037384,0.00148773,0.00556946,-0.000762939,0.0255585,0.00591278,0.0278473,0.00396729
10,5,10.0097,0.000610352,0.000152588,-2.4244,0.055681,-0.073232,0.0535176,0.0709703,-0.0916206,0.147455,-0.124851,-0.0813497,-0.00507355,0.0368118,0.0349045,0.0101089,0.0182343,0.000801086,0.0161743,0.00743866,-9.97986,0.00301361,0.00160217,0.0107574,-0.00164032,0.0294876,0.0018692,0.0278473,0.00518799
10,6,10.0097,0.0012207,0.000305176,-2.42684,0.0550706,-0.0741475,0.054128,0.0697496,-0.0949775,0.147149,-0.124241,-0.0804342,-0.00675201,0.034523,0.0323868,0.0178146,0.0176239,-0.0030899,0.0170135,0.00640869,-9.97986,0.0063324,-0.00221252,0.00991821,-0.00114441,0.0276947,-0.000495911,0.0281525,0.00217438
10,7,10.0097,0.000610352,-0.000915527,-2.42562,0.0569017,-0.0726216,0.0538228,0.0395372,-0.0955879,0.146234,-0.126377,-0.0819601,0.0196838,0.0338364,0.0276184,0.0169373,0.0219345,-0.00263214,0.0177383,0.0164032,-9.97986,-0.0127411,-0.000343323,0.00717163,-0.00549316,0.0318527,-0.00354767,0.025444,0.0038147
10,8,7.8954,0.000305176,-0.000915527,-2.42837,0.0565965,-0.075063,0.0547383,0.0447252,-0.0931465,0.146844,-0.126072,-0.0810445,0.0251007,0.0368118,0.0331116,0.0202942,0.0182343,-3.8147e-005,0.0165176,0.0176239,-9.97986,-0.0159073,-0.00247955,0.0056076,-0.00556946,0.030632,0.00305176,0.0213242,0.00530243
10,9,6.84316,-0.0012207,-0.000457764,-2.4244,0.0559862,-0.0744527,0.0556539,0.0590685,-0.088874,0.145624,-0.126072,-0.0825704,0.0402069,0.0329971,0.0315475,0.0207901,0.0151443,-3.8147e-005,0.0177765,0.0273895,-9.97986,-0.0156403,0.00225067,0.00717163,-0.00831604,0.028801,0.00282288,0.0253677,0.00457764
11,0,6.69911,-0.000305176,-0.000152588,-2.42714,0.0562914,-0.0744527,0.0550435,0.0657823,-0.0919257,0.146234,-0.125766,-0.0859274,0.0416183,0.0292587,0.0330353,0.00968933,0.0214767,-0.00347137,0.0180817,0.0366592,-9.97986,-0.0188828,-0.00366211,0.0044632,-0.0108337,0.026207,0.00232697,0.0254822,0.00289917
11,1,7.04488,-0.000305176,0.000610352,-2.43142,0.0550706,-0.0747579,0.0544332,0.0743273,-0.0913154,0.144708,-0.125461,-0.0834859,0.0364685,0.0283813,0.0273132,0.011673,0.0181198,-0.00652313,0.0146103,0.0377274,-9.97986,-0.0126648,-0.000953674,0.00602722,-0.00282288,0.0284958,0.00175476,0.0259018,0.00347137
11,2,9.46797,-0.000610352,0.00183105,-2.42714,0.0541551,-0.0756734,0.0544332,0.099962,-0.0910102,0.144098,-0.124241,-0.0834859,0.0215912,0.0240707,0.0247192,0.0156784,0.0186157,-0.00602722,0.0146103,0.035553,-9.97986,-0.0206757,0.000457764,0.00518799,-0.00659943,0.0281525,0.00221252,0.0224686,0.00480652
11,3,10.0097,-0.000305176,0.00198364,-2.4305,0.0544603,-0.0765889,0.0519917,0.092943,-0.0955879,0.143792,-0.125766,-0.0874532,0.00331879,0.0256348,0.0244522,0.0117493,0.0212479,-0.00511169,0.0120544,0.033493,-9.97986,-0.0274658,-0.00102997,0.0069809,-0.00595093,0.0246811,0.00762939,0.0233841,0.0018692
11,4,10.0097,-0.000610352,0.000762939,-2.4247,0.055681,-0.0753682,0.0513814,0.0767687,-0.0946723,0.143182,-0.126682,-0.0874532,-0.000305176,0.019455,0.0219345,0.00858307,0.0163651,-0.00354767,0.0178528,0.02491,-9.97986,-0.0222015,0.00141144,0.00137329,-0.00602722,0.0262833,0.00606537,0.0238419,0.00339508
11,5,10.0097,-0.000305176,0,-2.42928,0.0535448,-0.0762837,0.0519917,0.075548,-0.0977241,0.142877,-0.126682,-0.0868429,0.000190735,0.0198746,0.0187683,0.0087738,0.0141907,-0.0102997,0.0139999,0.0137329,-9.97986,-0.0216675,-0.00400543,0.000419617,-0.0043869,0.0274658,0.00263214,0.0217438,0.0025177
11,6,10.0097,0.00305176,0.000457764,-2.42959,0.0553758,-0.0759786,0.0532125,0.0715807,-0.094062,0.142572,-0.127292,-0.085317,0.02491,0.0173187,0.0167084,0.00892639,0.0152588,-0.0101089,0.0157547,0.0103378,-9.97986,-0.0246429,-0.00278473,-0.00144958,-0.00968933,0.0235748,-3.8147e-005,0.0231552,0.00724792
11,7,10.0097,0.00274658,0.000152588,-2.43233,0.055681,-0.0759786,0.0510762,0.0691393,-0.0937568,0.143792,-0.126987,-0.0862325,0.0672531,0.0183868,0.0157166,0.0136948,0.0169373,-0.00808716,0.0223923,0.00720978,-9.97986,-0.0151825,-0.000457764,0.00743866,-0.00423431,0.0257492,-0.00144958,0.0246048,0.00724792
11,8,10.0097,-0.000305176,-0.000915527,-2.42928,0.0550706,-0.0753682,0.0532125,0.07036,-0.0946723,0.143182,-0.127598,-0.0871481,0.0777817,0.0112534,0.0100327,0.00598907,0.0114059,-0.0164795,0.0127792,-0.00915527,-9.97986,-0.014801,-0.00328064,0.000991821,-0.00827789,0.0177002,-0.00808716,0.0229645,-0.00274658
11,9,10.0097,-0.00213623,0.000305176,-2.42714,0.0538499,-0.0759786,0.0538228,0.0700548,-0.094062,0.144708,-0.125766,-0.0810445,0.0669098,0.02388,0.0139618,0.014801,0.0143433,-0.00831604,0.0161362,-0.0109482,-9.97986,0.000610352,0.00144958,0.00862122,-0.00766754,0.0244522,-0.000419617,0.0279999,0.00804901
12,0,10.0097,-0.000610352,0,-2.42928,0.0599535,-0.0744527,0.0526021,0.0685289,-0.0934516,0.145013,-0.126682,-0.0844015,0.0229645,0.0212097,0.0128174,0.0122833,0.0134659,-0.00995636,0.0153732,-0.010643,-9.97986,-0.001297,-0.0012207,0.00598907,-0.0138474,0.0292206,-0.00144958,0.0282288,0.00270844
12,1,10.0097,0.00152588,-0.000152588,-2.42684,0.0550706,-0.0747579,0.0538228,0.0728014,-0.0925361,0.146539,-0.126377,-0.0831808,0.00263214,0.0187683,0.0122833,0.01194,0.0133133,-0.0136948,0.0177765,-0.010376,-9.97986,-0.00747681,0.000495911,0.00640869,-0.0156021,0.0217438,-0.00038147,0.0263977,0.00202179
12,2,10.0097,0.0012207,0,-2.42592,0.0553758,-0.0744527,0.0538228,0.0706652,-0.0919257,0.145013,-0.124851,-0.0807394,0.00473022,0.0129318,0.0094986,0.011673,0.0147247,-0.0166321,0.0148773,-0.0069046,-9.97986,0.00434875,0.000534058,0.00587463,-0.0140381,0.0234604,0.00221252,0.0232315,0.00347137
12,3,10.0097,-0.000305176,0.000457764,-2.42714,0.0611742,-0.0744527,0.0544332,0.0718859,-0.0928413,0.146234,-0.124241,-0.0819601,0.0120163,0.0170517,0.00732422,0.00507355,0.0175858,-0.0168228,0.0178146,0.00167847,-9.97986,0.0257492,0.000228882,0.00511169,-0.0162888,0.025177,0.00591278,0.026207,0.00358582
12,4,10.0097,-0.000915527,0,-2.42501,0.055681,-0.0735371,0.0544332,0.0743273,-0.0922309,0.146539,-0.124241,-0.0807394,0.0331497,0.0108337,0.00759125,0.00648499,0.0154877,-0.0172424,0.0188065,0.00152588,-9.97986,0.061264,-0.0056839,0.00518799,-0.0175858,0.0239944,0.00495911,0.0222778,0.00564575
12,5,10.0097,-0.000305176,0.000305176,-2.4247,0.0572069,-0.0738423,0.0562642,0.0724962,-0.0931465,0.146539,-0.123935,-0.0770773,0.0350189,0.00892639,-0.000915527,0.00511169,0.0169754,-0.0165558,0.0123215,0.00553131,-9.97986,0.0799942,-0.0012207,0.00263214,-0.0197983,0.0206757,0.00156403,0.0139236,-0.00205994
12,6,10.0097,0.0012207,0.000152588,-2.42592,0.0547655,-0.0735371,0.054128,0.0706652,-0.0919257,0.146234,-0.124241,-0.0807394,0.0298691,0.00728607,0.00450134,0.00305176,0.0174332,-0.0186539,0.0175476,0.00518799,-9.97986,0.110321,0.00545502,0.00896454,-0.0198364,0.0228882,-0.00133514,0.0180435,0.0030899
12,7,10.0097,0.00183105,-0.00152588,-2.4247,0.0559862,-0.0744527,0.054128,0.0331285,-0.095893,0.145624,-0.126987,-0.0813497,0.0233841,0.00198364,-0.00205994,0.00507355,0.012207,-0.022583,0.0117874,-0.00537872,-9.97986,0.110321,0.000839233,0.00648499,-0.0247574,0.0168991,-0.00709534,0.0160217,0.00278473
12,8,7.83864,0.000610352,-0.0012207,-2.42562,0.0562914,-0.0747579,0.0550435,0.0431993,-0.0943672,0.146539,-0.126987,-0.0828756,0.0125122,0.00579834,0.00408173,0.00423431,0.0154114,-0.0170135,0.0135422,0.000724792,-9.97986,0.108986,-0.000991821,0.00610352,-0.0187302,0.0229263,-0.00431061,0.0148392,-0.000572205
12,9,6.71956,0.000305176,-0.000610352,-2.42531,0.0535448,-0.0741475,0.0550435,0.0560167,-0.0919257,0.146844,-0.126072,-0.0822652,0.00358582,0.0069046,0.00469208,0.00320435,0.0153732,-0.0190735,0.0183868,0.00720978,-9.97986,0.113068,-0.00179291,0.00518799,-0.0205994,0.0192642,-0.00671387,0.0107193,-0.000534058
13,0,6.57796,0.000610352,-0.000305176,-2.42745,0.0550706,-0.0753682,0.0535176,0.0685289,-0.0913154,0.145929,-0.125156,-0.0825704,-0.00152588,0.00591278,0.00164032,0.00644684,0.0130081,-0.0154114,0.0127792,0.0126648,-9.97986,0.110512,0.00110626,0.0069046,-0.0197601,0.0227737,-0.00278473,0.00968933,0.00133514
13,1,6.92281,0.000915527,0.000915527,-2.42684,0.0562914,-0.0744527,0.054128,0.0740221,-0.0910102,0.144403,-0.125766,-0.0840963,-0.0167465,0.0116348,-0.000686646,0.00617981,0.013237,-0.0169754,0.0160599,0.0147629,-9.97986,0.0881577,-0.000762939,0.00774384,-0.017395,0.0234222,-0.00476837,0.010643,-0.00110626
13,2,9.34896,0.00366211,0.00137329,-2.42837,0.0544603,-0.0744527,0.0547383,0.100267,-0.0894843,0.143792,-0.12363,-0.0834859,-0.02388,0.00999451,0.00225067,0.0122452,0.00892639,-0.0179672,0.00938416,0.0162888,-9.97986,0.057106,-0.00354767,0.00682831,-0.021286,0.0189972,-0.00514984,0.00896454,-0.00102997
13,3,10.0097,0.000610352,0.00152588,-2.42867,0.0541551,-0.0759786,0.0510762,0.0987413,-0.0943672,0.143487,-0.124851,-0.0874532,-0.0122452,0.00545502,0.00701904,0.00888824,0.0163651,-0.0139618,0.00736237,0.0111008,-9.97986,0.0279617,-0.00148773,0.00732422,-0.0242233,0.0210953,-0.00236511,0.0062561,-0.000724792
13,4,10.0097,0.00183105,0.000305176,-2.42989,0.0550706,-0.0759786,0.0522969,0.077379,-0.0955879,0.143792,-0.126377,-0.0883688,-0.00717163,0.0112915,0.00804901,0.0110245,0.0151443,-0.0178909,0.0062561,0.0186539,-9.97986,0.0147247,0.00156403,0.00839233,-0.0264359,0.0227737,-0.00427246,0.0112915,-0.00423431
13,5,10.0097,0.00244141,-0.000152588,-2.43142,0.0517137,-0.0753682,0.050771,0.0724962,-0.094062,0.142877,-0.127598,-0.0874532,-0.0156403,0.00995636,0.0102615,0.0126648,0.0148773,-0.0157928,0.0107956,0.0152969,-9.97986,0.0180817,0.000495911,0.00404358,-0.0259399,0.017662,-0.000495911,0.0138092,0.00167847
13,6,10.0097,-0.0012207,-0.000305176,-2.42928,0.0538499,-0.0765889,0.0522969,0.0642565,-0.0955879,0.143792,-0.126377,-0.0862325,-0.0311661,0.0153351,0.0112915,0.00934601,0.0118256,-0.015564,0.0152969,0.0109863,-9.97986,0.0243759,-0.000534058,0.00148773,-0.0226593,0.019455,0.0019455,0.0194931,-0.00144958
13,7,10.0097,-0.000610352,-0.000457764,-2.42959,0.0529344,-0.0756734,0.0529073,0.0706652,-0.0946723,0.143792,-0.126987,-0.0850118,-0.0227737,0.0172806,0.00785828,0.0125122,0.00984192,-0.0160599,0.0106812,0.000915527,-9.97986,0.0294113,-0.00167847,0.00614166,-0.0259018,0.0217056,0.00247955,0.0205231,0.000762939
13,8,10.0097,-0.000915527,-0.000305176,-2.43233,0.0550706,-0.075063,0.0529073,0.0706652,-0.094062,0.145318,-0.126987,-0.0856222,-0.00583649,0.0167084,0.0170135,0.00862122,0.00919342,-0.0117493,0.00923157,0.00110626,-9.97986,0.0300217,-0.00278473,0.00629425,-0.0242233,0.0191116,0.000495911,0.0251007,0.00125885
13,9,10.0097,0,-0.000305176,-2.42837,0.0541551,-0.0756734,0.0526021,0.0666979,-0.0928413,0.144708,-0.126377,-0.0850118,0.0138092,0.018425,0.016861,0.0120926,0.0135422,-0.0154114,0.0107956,0.00701904,-9.97986,0.0294113,0.000343323,0.00850677,-0.0260162,0.0192261,-0.0056076,0.0248718,0.000495911
14,0,10.0097,0.0012207,-0.000305176,-2.42745,0.055681,-0.0753682,0.0522969,0.0694445,-0.0934516,0.144098,-0.125461,-0.0837911,0.0267792,0.0163269,0.0155258,0.0119781,0.0122833,-0.0136948,0.0128174,0.0102997,-9.97986,0.023613,0.000343323,0.00537872,-0.0269699,0.0191498,-0.00274658,0.0257111,0.00114441
14,1,10.0097,0,-0.000305176,-2.42684,0.055681,-0.0744527,0.054128,0.0697496,-0.0934516,0.145624,-0.126377,-0.0834859,0.0252914,0.0160599,0.0200272,0.00911713,0.0103378,-0.0138474,0.0193405,0.0193787,-9.97986,0.0138855,-0.00415802,0.00461578,-0.0233459,0.0178146,-0.000534058,0.0248718,0.000724792
14,2,10.0097,0.000610352,0.0012207,-2.42531,0.0569017,-0.0735371,0.054128,0.0654772,-0.0922309,0.146234,-0.125156,-0.0819601,0.00488281,0.0207138,0.0125885,0.0121307,0.00957489,-0.0137711,0.0239563,0.0185013,-9.97986,0.00141144,0.00473022,0.00976563,-0.0239944,0.0230026,0.00492096,0.0274658,0.00415802
14,3,10.0097,-0.0012207,0.000305176,-2.42531,0.0553758,-0.0741475,0.0544332,0.07036,-0.090705,0.146539,-0.124851,-0.0798238,-0.000801086,0.0208282,0.0172043,0.00999451,0.0147247,-0.0130081,0.0252914,0.0196457,-9.97986,-0.0111008,0.00431061,0.00686646,-0.0247192,0.0203705,0.00831604,0.0291824,0.00301361
14,4,10.0097,0,0.000152588,-2.42348,0.0575121,-0.0741475,0.0547383,0.0712755,-0.0922309,0.147149,-0.123935,-0.0807394,0.00274658,0.0211716,0.0218582,0.0141144,0.0112915,-0.0139236,0.0243759,0.0166321,-9.97986,-0.00160217,0.00289917,0.00671387,-0.0214005,0.0198364,0.00728607,0.0270081,0.00400543
14,5,10.0097,-0.000915527,0,-2.42348,0.0559862,-0.0729268,0.054128,0.0740221,-0.0913154,0.145929,-0.124241,-0.0810445,-0.00118256,0.0183868,0.0183868,0.011673,0.0152588,-0.012207,0.0161743,0.0170898,-9.97986,0.0183105,0.00556946,0.00881195,-0.0221252,0.0224304,0.0120163,0.0256729,0.00358582
14,6,10.0097,0.0012207,0.000610352,-2.42745,0.0562914,-0.0741475,0.054128,0.0682238,-0.0934516,0.147149,-0.12363,-0.0825704,0.000801086,0.0230026,0.0136948,0.0106812,0.0130081,-0.014801,0.0203705,0.0192642,-9.97986,0.0289536,0.00217438,0.00671387,-0.0242233,0.0217056,0.0113297,0.0262451,0.00465393
14,7,10.0097,0.00244141,-0.00213623,-2.42348,0.0569017,-0.0744527,0.0538228,0.0383165,-0.0949775,0.146844,-0.126987,-0.0816549,0.00476837,0.0211716,0.0159454,0.00892639,0.0139618,-0.0112915,0.0206375,0.0210953,-9.97986,0.0344086,-0.000343323,0.00926971,-0.02491,0.0143433,0.00652313,0.0277328,0.00728607
14,8,7.76723,-0.000915527,-0.00106812,-2.42592,0.0565965,-0.0741475,0.0535176,0.0438097,-0.0931465,0.147149,-0.126072,-0.0819601,0.00862122,0.0220108,0.0195313,0.0088501,0.0120544,-0.0131989,0.0273514,0.0240707,-9.97986,0.0239182,0.00225067,0.00740051,-0.0220108,0.0183868,0.00782013,0.0275421,0.00793457
14,9,6.68813,-0.00152588,-0.00137329,-2.42653,0.0553758,-0.0738423,0.0547383,0.0563219,-0.0919257,0.14776,-0.126072,-0.0825704,0.00709534,0.0212097,0.0118637,0.00907898,0.0107956,-0.0153732,0.0239944,0.0201416,-9.97986,-0.014801,0.00190735,0.0075531,-0.0275803,0.0146866,0.00148773,0.0266647,0.0104523
15,0,6.55202,-0.000610352,0.000305176,-2.42531,0.0550706,-0.075063,0.054128,0.0648668,-0.0922309,0.146539,-0.125461,-0.0822652,0.00747681,0.0261307,0.0197601,0.0110626,0.0143433,-0.00564575,0.0301743,0.0236511,-9.97986,-0.0341797,0.00232697,0.015564,-0.023613,0.0159836,0.00457764,0.0281143,0.00953674
15,1,6.93288,0.000610352,0.000152588,-2.42714,0.0550706,-0.0753682,0.0550435,0.0764635,-0.0910102,0.145013,-0.125766,-0.0825704,0.00709534,0.0240707,0.0165939,0.0108719,0.00953674,-0.0117111,0.0223923,0.0222778,-9.97986,-0.0444031,0.000152588,0.0143814,-0.0273514,0.0188828,0.0030899,0.0287247,0.0108337
15,2,9.34926,0.000305176,0.00106812,-2.42653,0.0544603,-0.0741475,0.0544332,0.102403,-0.0894843,0.145624,-0.12363,-0.0831808,0.00839233,0.0286865,0.0187302,0.012207,0.0120926,-0.0104141,0.0217819,0.0217438,-9.97986,-0.0300598,-0.000152588,0.0111389,-0.026474,0.0146866,0.00450134,0.0263214,0.0123978
15,3,10.0097,0.000305176,0.00167847,-2.4302,0.0544603,-0.0765889,0.0519917,0.094774,-0.094062,0.143792,-0.125766,-0.0862325,0.00183105,0.0253296,0.0145721,0.0134277,0.00938416,-0.0088501,0.0157928,0.0267792,-9.97986,-0.0117493,-0.00530243,0.0135422,-0.0257874,0.0151443,0.00396729,0.0301361,0.0126266
15,4,10.0097,-0.000610352,0.000152588,-2.42837,0.0544603,-0.0762837,0.0519917,0.0816515,-0.0952827,0.143792,-0.126682,-0.0862325,0.00762939,0.0267029,0.0225449,0.0125504,0.0112534,-0.00530243,0.0214767,0.0307465,-9.97986,0.0253677,7.62939e-005,0.0146484,-0.0252151,0.017395,0.000228882,0.0355911,0.0152588
15,5,10.0097,0,0.000305176,-2.4305,0.0523241,-0.0765889,0.0513814,0.0737169,-0.0949775,0.144098,-0.126682,-0.0840963,0.0159073,0.0251007,0.0164413,0.0102615,0.0122833,-0.00713348,0.0273132,0.0275421,-9.97986,0.0564194,-0.00137329,0.0131989,-0.0263596,0.0191498,-0.00488281,0.0296783,0.0132751
15,6,10.0097,0.00152588,0.000305176,-2.42837,0.0529344,-0.0759786,0.0522969,0.07036,-0.0955879,0.144403,-0.126682,-0.0871481,0.00595093,0.0278473,0.0213242,0.00980377,0.0128555,-0.0069046,0.0258255,0.0276184,-9.97986,0.0725555,0.000457764,0.0166321,-0.0261688,0.0167847,-0.00770569,0.0345612,0.0109863
15,7,10.0097,0.00244141,0,-2.42928,0.0541551,-0.0768941,0.0535176,0.0709703,-0.0955879,0.145013,-0.127598,-0.0871481,0.00770569,0.0272369,0.0201035,0.0088501,0.0124359,-0.0101089,0.0294113,0.0266266,-9.97986,0.0639725,-0.0043869,0.0187302,-0.0216675,0.0195694,-0.00305176,0.0328445,0.0135422
15,8,10.0097,-0.000305176,0,-2.42837,0.0547655,-0.0756734,0.0522969,0.0706652,-0.094062,0.143487,-0.126377,-0.0856222,0.0135422,0.0306702,0.0230789,0.00629425,0.0128174,-0.0105286,0.0255966,0.0321198,-9.97986,0.0535583,-0.00411987,0.0181198,-0.0219345,0.0161743,0.00141144,0.0292206,0.0128555
15,9,10.0097,0.00152588,0,-2.42562,0.0550706,-0.0744527,0.054128,0.0679186,-0.0943672,0.145318,-0.126377,-0.0847066,-0.0139236,0.028801,0.0246048,0.0119019,0.0162888,-0.00484467,0.025444,0.0276566,-9.97986,0.04673,-0.00366211,0.015831,-0.0214005,0.0154495,-0.0056839,0.0315094,0.0136566
16,0,10.0097,0,0.000305176,-2.42684,0.0547655,-0.0741475,0.0526021,0.0685289,-0.0934516,0.145624,-0.126682,-0.0847066,-0.0465775,0.0279236,0.026474,0.0112915,0.0160217,-0.00453949,0.0120544,0.0279617,-9.97986,0.0337982,-0.00598907,0.0158691,-0.0248718,0.0196838,-0.00125885,0.0311661,0.0115585
16,1,10.0097,0.000305176,-0.000457764,-2.42653,0.0553758,-0.075063,0.0526021,0.0706652,-0.0925361,0.146539,-0.124851,-0.0819601,-0.0523376,0.033493,0.0298309,0.0148773,0.0143814,-0.00545502,0.0114441,0.0254059,-9.97986,0.0247192,-0.00209808,0.0139236,-0.0250244,0.014534,-0.000839233,0.0304413,0.0105286
16,2,10.0097,0.00274658,0.000457764,-2.42501,0.0553758,-0.0741475,0.0547383,0.0706652,-0.0910102,0.146234,-0.125461,-0.0819601,-0.0271606,0.0322723,0.0308609,0.0117874,0.0123596,-0.00411987,0.0192642,0.0268555,-9.97986,0.0163651,-0.00297546,0.0180817,-0.0248337,0.0174332,-0.00106812,0.0294876,0.0121689
16,3,10.0097,0.00335693,0.000457764,-2.42501,0.0565965,-0.0735371,0.0550435,0.0697496,-0.090705,0.145929,-0.123935,-0.0813497,-0.00400543,0.0327682,0.0318146,0.0162125,0.0189209,-0.00404358,0.023613,0.0241089,-9.97986,0.0152206,-0.00255585,0.0189209,-0.0261307,0.0169754,-0.00183105,0.0318527,0.0143051
16,4,10.0097,0.000915527,-0.000152588,-2.42531,0.0562914,-0.0735371,0.0550435,0.0715807,-0.0903999,0.146539,-0.124851,-0.0825704,0.0260544,0.0350189,0.0309753,0.0169373,0.0171661,-0.00297546,0.0252914,0.0242233,-9.97986,0.00812531,-0.0038147,0.018158,-0.027771,0.0203323,-0.00720978,0.0299454,0.0125122
16,5,10.0097,-0.00183105,-0.000305176,-2.42531,0.0569017,-0.0756734,0.0550435,0.0724962,-0.0910102,0.147455,-0.124241,-0.0807394,0.0453568,0.0385284,0.0310135,0.0139618,0.018959,-0.00331879,0.0223923,0.0165176,-9.97986,-0.00354767,-0.00259399,0.0183487,-0.0252533,0.0165939,-0.0115967,0.0314331,0.0134277
16,6,10.0097,0.000610352,0.000457764,-2.42592,0.0559862,-0.0747579,0.0547383,0.0694445,-0.0928413,0.147149,-0.122715,-0.0819601,0.0447083,0.0376129,0.0339508,0.0117874,0.0191498,-0.0043869,0.0193024,0.0209427,-9.97986,-0.0113678,-0.0012207,0.0211334,-0.0243759,0.0193787,-0.0117111,0.0329971,0.0121689
16,7,10.0097,0.000610352,-0.00137329,-2.42562,0.0572069,-0.0747579,0.0538228,0.0401476,-0.0934516,0.145624,-0.126377,-0.0822652,0.0583649,0.0391388,0.0325394,0.013504,0.0176239,-0.00278473,0.023613,0.0131607,-9.97986,-0.00831604,0.00366211,0.0205231,-0.0260544,0.0196457,-0.0147247,0.0300217,0.00999451
16,8,7.92378,-0.000610352,-0.000915527,-2.42348,0.0559862,-0.0741475,0.0535176,0.04442,-0.0928413,0.146844,-0.126072,-0.0825704,0.0831604,0.0389862,0.0325394,0.0105286,0.0193405,-0.00110626,0.0271225,0.022049,-9.97986,-0.0175858,-0.00102997,0.0204086,-0.0292587,0.0131607,-0.0129318,0.0300598,0.00934601
16,9,6.86849,0.000305176,-0.000915527,-2.42592,0.0553758,-0.073232,0.0544332,0.0560167,-0.0931465,0.145318,-0.126377,-0.0822652,0.070076,0.0329971,0.0345993,0.0125504,0.0215912,0.000724792,0.0249863,0.020256,-9.97986,-0.0190353,0.00202179,0.0222778,-0.0255966,0.0147629,-0.0110245,0.0314331,0.0104904
17,0,6.72536,-0.000610352,0.000610352,-2.42653,0.0553758,-0.0753682,0.0538228,0.0645616,-0.0922309,0.145624,-0.125766,-0.0822652,0.0418854,0.0311279,0.0278854,0.01194,0.0218964,0.00209808,0.0234604,0.0211716,-9.97986,-0.0164795,0.00167847,0.021553,-0.0285339,0.0162125,-0.00301361,0.0293732,0.0105286
17,1,7.10744,0.000915527,0.000305176,-2.42776,0.0559862,-0.075063,0.0547383,0.0749376,-0.0919257,0.144403,-0.125156,-0.0837911,0.0183487,0.0278473,0.0287247,0.011673,0.0217438,0.00160217,0.0213242,0.0208282,-9.97986,-0.0132751,-0.00087738,0.0242615,-0.0238037,0.0140381,-0.00450134,0.0336456,0.00614166
17,2,9.50154,0,0.000915527,-2.42684,0.0538499,-0.0753682,0.0544332,0.10576,-0.0891792,0.144403,-0.12363,-0.0834859,0.00617981,0.0230026,0.02491,0.0165176,0.020752,0.00320435,0.0247574,0.0237656,-9.97986,-0.0106812,7.62939e-005,0.019722,-0.0302505,0.0141525,-0.00415802,0.0314331,0.00507355
17,3,10.0097,0,0.00198364,-2.42928,0.0553758,-0.0762837,0.0522969,0.0932482,-0.0946723,0.145013,-0.125766,-0.0859274,0.00534058,0.0226212,0.0186539,0.0141525,0.0241852,0.00263214,0.0200653,0.0217438,-9.97986,-0.00389099,0.00347137,0.0243759,-0.0239563,0.0120926,0.000724792,0.030098,0.00904083
17,4,10.0097,-0.0012207,-0.000152588,-2.4302,0.0535448,-0.0765889,0.0513814,0.0779894,-0.0943672,0.143792,-0.126072,-0.0865377,-0.00362396,0.0195313,0.0164032,0.0103378,0.0238037,0.00602722,0.0215149,0.0222778,-9.97986,0.00671387,-0.00236511,0.0182343,-0.0257111,0.0127792,-0.00350952,0.0305939,0.00453949
17,5,10.0097,0.0012207,0.000305176,-2.42959,0.0544603,-0.0762837,0.0522969,0.0709703,-0.0961982,0.144708,-0.126987,-0.0865377,0.0018692,0.022583,0.00778198,0.0155258,0.0257111,0.0101471,0.0244522,0.0205994,-9.97986,0.0202942,3.8147e-005,0.0225449,-0.0201797,0.0169754,-0.00167847,0.0289917,0.00740051
17,6,10.0097,-0.000610352,-0.000305176,-2.42898,0.0532396,-0.0744527,0.0510762,0.0694445,-0.0968086,0.143487,-0.126377,-0.0871481,0.0112534,0.0195694,0.00946045,0.0113297,0.0214767,0.0106812,0.0252151,0.0216293,-9.97986,0.0234985,0.00164032,0.021019,-0.0228119,0.0194931,-0.000419617,0.0291443,0.00164032
17,7,10.0097,0.000305176,-0.000457764,-2.42959,0.0535448,-0.0759786,0.0513814,0.0694445,-0.0952827,0.145318,-0.126072,-0.0871481,0.0178909,0.0232697,0.0069046,0.0130081,0.0244522,0.0115204,0.0243759,0.0198364,-9.97986,0.0284195,-0.00461578,0.0266647,-0.0209808,0.0155258,-0.00743866,0.0254822,0.00087738
17,8,10.0097,0.000915527,0.000305176,-2.42898,0.0550706,-0.0762837,0.0529073,0.0700548,-0.094062,0.144403,-0.126377,-0.0859274,0.019722,0.022316,0.00648499,0.0130081,0.026474,0.00926971,0.0244141,0.0212479,-9.97986,0.0291824,0.00110626,0.0268555,-0.0251389,0.0166702,-0.000610352,0.0281143,0.00240326
17,9,10.0097,0.000610352,-0.000152588,-2.42745,0.0541551,-0.0756734,0.0532125,0.0697496,-0.0937568,0.144708,-0.126072,-0.0856222,0.0282669,0.0219727,0.00423431,0.0121689,0.0233459,0.0174332,0.0191879,0.0226212,-9.97986,0.0276566,-0.00419617,0.0237656,-0.0227356,0.0175858,0,0.0283432,0.00202179
18,0,10.0097,0.000305176,-0.000610352,-2.42623,0.0541551,-0.0753682,0.054128,0.0697496,-0.0946723,0.145318,-0.125766,-0.0847066,0.0274658,0.0222397,0.00705719,0.00774384,0.0252533,0.0147247,0.018158,0.0230789,-9.97986,0.0336456,-0.000419617,0.0291443,-0.0205612,0.0180817,-0.00827789,0.0276947,0.00148773
18,1,10.0097,0.000610352,-0.000152588,-2.42623,0.0550706,-0.0753682,0.0538228,0.0682238,-0.0937568,0.145318,-0.124851,-0.0828756,0.0183105,0.0195694,0.00938416,0.0101471,0.0240707,0.0139618,0.0273132,0.0243378,-9.97986,0.0271225,-0.00350952,0.0278473,-0.0188065,0.017662,-0.0025177,0.0271225,-0.000762939
18,2,10.0097,-0.000305176,0.000610352,-2.42653,0.0562914,-0.0744527,0.0550435,0.0706652,-0.0922309,0.146539,-0.124851,-0.0819601,0.0160599,0.0257874,0.0125122,0.0124741,0.026207,0.014801,0.0265503,0.0244522,-9.97986,0.0221634,0.000801086,0.0270462,-0.0188446,0.0158691,-0.00713348,0.0262451,0.00125885
18,3,10.0097,0.000305176,0.000610352,-2.42623,0.0572069,-0.0744527,0.0556539,0.0709703,-0.0916206,0.147455,-0.124546,-0.0807394,0.0113297,0.0247955,0.0107193,0.0126266,0.0255966,0.0172424,0.0270844,0.0263596,-9.97986,0.0212097,-0.000495911,0.0275803,-0.0131989,0.0143051,-0.00679016,0.031395,0.00347137
18,4,10.0097,-0.000610352,0.000152588,-2.42592,0.0559862,-0.0729268,0.0556539,0.0712755,-0.0928413,0.148675,-0.124241,-0.0816549,0.010376,0.0235748,0.012207,0.0056076,0.027771,0.0202179,0.0259781,0.0259399,-9.97986,0.017395,0.0012207,0.0285339,-0.013237,0.0141144,-0.0123978,0.0342178,0.001297
18,5,10.0097,0.0012207,0.000305176,-2.42531,0.0572069,-0.073232,0.0550435,0.0709703,-0.0913154,0.147455,-0.123935,-0.0816549,0.0144577,0.0270462,0.0119019,0.0118256,0.0194168,0.0213242,0.0235367,0.0221252,-9.97986,0.0105286,0.00221252,0.0299835,-0.014534,0.0190353,-0.00694275,0.0321198,-0.00179291
18,6,10.0097,-0.000305176,0.000152588,-2.42623,0.0562914,-0.0738423,0.0550435,0.07036,-0.0931465,0.146844,-0.124546,-0.0813497,0.00743866,0.0196838,0.0157166,0.0138474,0.0229645,0.0175476,0.0252151,0.0257111,-9.97986,0.0148773,0.000534058,0.0309753,-0.014801,0.014534,-0.00637054,0.0300598,-0.00125885
18,7,10.0097,0.000610352,-0.00198364,-2.42592,0.0553758,-0.0747579,0.054128,0.0398424,-0.0952827,0.148675,-0.125156,-0.0810445,0.00263214,0.0217056,0.0174332,0.0169754,0.0258636,0.0190353,0.0261307,0.0229645,-9.97986,0.00965118,0.00087738,0.0298309,-0.0158691,0.0153351,-0.0125885,0.0318146,-0.000686646
18,8,7.91951,0.000610352,-0.000457764,-2.42501,0.0565965,-0.0738423,0.0553487,0.0431993,-0.0922309,0.146539,-0.126682,-0.0813497,0.00442505,0.0193024,0.0155258,0.0133133,0.0247192,0.0244904,0.0253296,0.0263214,-9.97986,0.0152588,-0.00343323,0.0276184,-0.0143433,0.014534,-0.0130844,0.0302887,3.8147e-005
18,9,6.84529,0.000305176,-0.00106812,-2.4247,0.055681,-0.0714009,0.054128,0.0569322,-0.0922309,0.145013,-0.126682,-0.0828756,0.00968933,0.0247955,0.0191498,0.0139999,0.0257492,0.0273514,0.0277328,0.0226593,-9.97986,0.0122452,-0.00278473,0.0315094,-0.00995636,0.0141525,-0.0131226,0.0311661,-0.00087738
19,0,6.69118,0.000610352,-0.000457764,-2.42653,0.0559862,-0.0747579,0.0532125,0.0645616,-0.0925361,0.14837,-0.125766,-0.0828756,0.00984192,0.0262833,0.0166702,0.0143814,0.0239944,0.0220871,0.0244522,0.0209808,-9.97986,0.00614166,0.0019455,0.0346375,-0.00793457,0.0185394,-0.0110626,0.0284195,-0.00305176
19,1,7.0696,0,0.00152588,-2.42623,0.0547655,-0.0741475,0.054128,0.0752428,-0.0913154,0.145013,-0.124851,-0.0825704,-0.00366211,0.0302887,0.0217819,0.0163651,0.023613,0.022583,0.021286,0.0151443,-9.97986,0.00766754,-0.00236511,0.0369644,-0.00606537,0.0182343,-0.0153351,0.0299072,-0.00205994
19,2,9.44264,0,0.0012207,-2.42623,0.0547655,-0.0768941,0.054128,0.104234,-0.0891792,0.145013,-0.12363,-0.0837911,-0.0151062,0.0239182,0.0236893,0.0163269,0.0220108,0.0264359,0.0188065,0.0153351,-9.97986,0.00263214,-0.00152588,0.0333023,-0.00518799,0.0162888,-0.00926971,0.0297928,-0.0031662
19,3,10.0097,-0.00183105,0.00167847,-2.42959,0.0538499,-0.0762837,0.0522969,0.0917223,-0.0946723,0.141351,-0.125766,-0.0859274,-0.0154114,0.0253677,0.0210953,0.0122833,0.0240707,0.028801,0.0156784,0.0118256,-9.97986,0.00427246,0.00160217,0.0336456,0.000495911,0.0138855,-0.0043869,0.0235367,-0.00556946
19,4,10.0097,0.00213623,0,-2.42867,0.0538499,-0.0753682,0.0532125,0.077379,-0.0949775,0.143792,-0.126377,-0.0874532,-0.0117874,0.0295258,0.0240326,0.01297,0.0221634,0.0262451,0.0136185,0.0170517,-9.97986,0.00259399,-0.00164032,0.0315475,0.0018692,0.0155258,-0.00743866,0.0272369,-0.00442505
19,5,10.0097,-0.000305176,-0.000305176,-2.42898,0.0535448,-0.0747579,0.0522969,0.0724962,-0.0952827,0.144403,-0.128513,-0.0871481,-0.00679016,0.0286102,0.0247574,0.0152588,0.0214767,0.0266266,0.0136185,0.0135803,-9.97986,-0.00564575,-0.00137329,0.0313568,-0.00217438,0.0156784,-0.00804901,0.0215912,-0.00598907
19,6,10.0097,0.00183105,0,-2.42898,0.0547655,-0.0762837,0.0516866,0.0709703,-0.0946723,0.141656,-0.127903,-0.0871481,0.0104904,0.0289917,0.0229263,0.0180817,0.0243759,0.0289154,0.0170135,0.0152969,-9.97986,-0.00358582,-0.000686646,0.0341034,0.00617981,0.0183105,-0.00175476,0.0199509,-0.00286102
19,7,10.0097,0.000305176,-0.000610352,-2.42989,0.0538499,-0.0762837,0.0522969,0.0706652,-0.0961982,0.143792,-0.127292,-0.0874532,0.0107956,0.0253296,0.0202179,0.0117111,0.0191116,0.0301361,0.0143051,0.0113297,-9.97986,-0.0056839,-0.00087738,0.0299072,0.00217438,0.00953674,-0.00656128,0.0168228,-0.00713348
19,8,10.0097,0.000915527,0,-2.42806,0.0544603,-0.080251,0.0529073,0.0688341,-0.0931465,0.144708,-0.128208,-0.0862325,0.00183105,0.0356293,0.0221634,0.0151443,0.0207138,0.0344086,0.0210953,0.0139618,-9.97986,-0.0105286,-0.00175476,0.0331116,0.00164032,0.0153732,-0.00370026,0.0149155,-0.00377655
19,9,10.0097,0.000305176,0.000152588,-2.42745,0.0544603,-0.0756734,0.0535176,0.0688341,-0.0925361,0.143487,-0.126377,-0.0847066,0.0226212,0.0291443,0.0191116,0.00789642,0.027504,0.0329971,0.0198746,0.0154495,-9.97986,-0.0149155,-0.00362396,0.0323868,0.00370026,0.0138855,-0.00385284,0.0172424,-0.00228882
20,0,10.0097,0.0012207,0.000305176,-2.42776,0.0547655,-0.0735371,0.0532125,0.0694445,-0.0937568,0.145013,-0.126682,-0.0831808,0.0336838,0.0264359,0.0205231,0.00659943,0.0213623,0.0294495,0.0163651,0.0172043,-9.97986,-0.00312805,-0.00038147,0.0320053,0.00789642,0.014534,-0.00671387,0.0131607,-0.00598907
20,1,10.0097,-0.00152588,0,-2.42592,0.0569017,-0.0793355,0.0535176,0.0694445,-0.0934516,0.144708,-0.126377,-0.0837911,0.0158691,0.0249481,0.0255203,0.00743866,0.0202179,0.0325394,0.0190735,0.0177765,-9.97986,0.0118637,-0.00255585,0.0357056,0.00183105,0.0144958,-0.0056839,0.0126648,-0.001297
20,2,10.0097,0.0012207,0.000457764,-2.42501,0.0581224,-0.0735371,0.0544332,0.0728014,-0.0922309,0.146234,-0.124241,-0.0819601,0.0136185,0.0281525,0.0198746,0.00148773,0.0162125,0.028801,0.0180435,0.0185776,-9.97986,0.0242996,-0.00667572,0.0338745,0.0025177,0.0151443,-0.000267029,0.0127029,0.000534058
20,3,10.0097,0.000305176,-0.00137329,-2.4247,0.0559862,-0.0738423,0.0550435,0.0718859,-0.0910102,0.146234,-0.124851,-0.0810445,0.0184631,0.0239563,0.0226593,0.00301361,0.0196075,0.0309753,0.017662,0.0197983,-9.97986,0.0231171,-0.00442505,0.032692,-0.000190735,0.0157547,0.00205994,0.0123978,-0.00133514
20,4,10.0097,0.00213623,0,-2.42531,0.0559862,-0.0744527,0.0553487,0.0715807,-0.0928413,0.146844,-0.123325,-0.0804342,0.0209808,0.0231552,0.0206757,0.00350952,0.0165176,0.0309372,0.0176239,0.00965118,-9.97986,0.0108719,0.000610352,0.0345612,-0.00133514,0.0141907,0.000495911,0.0110245,0.00133514
20,5,10.0097,-0.000610352,-0.000305176,-2.4247,0.0559862,-0.0735371,0.0550435,0.0709703,-0.0919257,0.148065,-0.124241,-0.0804342,0.0308609,0.0209045,0.0191116,-0.0018692,0.0179672,0.0266647,0.0196457,0.0115204,-9.97986,-0.00617981,-0.00160217,0.0340271,-0.00511169,0.0125504,0.00125885,0.0113297,0.00164032
20,6,10.0097,0.000305176,0.000610352,-2.42592,0.0572069,-0.0747579,0.0544332,0.0682238,-0.0913154,0.147149,-0.124546,-0.0813497,0.0277328,0.0211334,0.0190735,-0.00289917,0.0171661,0.0322342,0.0169754,0.00968933,-9.97986,-0.0224304,-0.000305176,0.0351334,-0.00869751,0.0153732,0.00286102,0.0123596,0.00247955
20,7,10.0097,-0.000305176,-0.00137329,-2.42714,0.0559862,-0.0738423,0.0532125,0.0395372,-0.0937568,0.147149,-0.126987,-0.0816549,0.0260925,0.0209427,0.0191879,-0.00740051,0.0184631,0.0304031,0.0173569,0.00507355,-9.97986,-0.0299835,0.00202179,0.0304794,-0.00988007,0.0164795,-0.0038147,0.0133133,0.00286102
20,8,7.8774,0.000305176,-0.00152588,-2.42562,0.0565965,-0.0753682,0.0532125,0.0431993,-0.0934516,0.14776,-0.126682,-0.0819601,0.0228119,0.020752,0.0147247,-0.0132751,0.0130463,0.0274277,0.0143433,0.00873566,-9.97986,-0.0334549,-0.00164032,0.031395,-0.00812531,0.0130463,-0.0107193,0.0148773,0.000267029
20,9,6.82942,-0.000305176,-0.000152588,-2.42531,0.055681,-0.075063,0.0544332,0.0554064,-0.0919257,0.146234,-0.125766,-0.0819601,0.0263214,0.0208282,0.012207,-0.0309372,0.0163269,0.028038,0.0185776,0.0146866,-9.97986,-0.0203323,-0.00488281,0.0344849,-0.00480652,0.0174332,-0.0295258,0.0138855,0.00354767
21,0,6.71193,0.000610352,-0.000457764,-2.42745,0.0559862,-0.0771993,0.0532125,0.0657823,-0.0922309,0.145318,-0.126072,-0.0831808,0.0297165,0.0185776,0.00778198,-0.0551224,0.0120926,0.0258255,0.0159836,0.0141525,-9.97986,0.0056076,-0.0031662,0.0326538,-0.00598907,0.0151825,-0.0378036,0.014534,0.00549316
21,1,7.08608,0,0.000610352,-2.42592,0.0562914,-0.0753682,0.054128,0.0746324,-0.0913154,0.145624,-0.126682,-0.0834859,0.0220871,0.0207138,0.0132751,-0.0651169,0.015831,0.0221634,0.0181198,0.00968933,-9.97986,0.0261307,-0.00175476,0.030632,-0.00328064,0.0167084,-0.0365067,0.0082016,0.00545502
21,2,9.52901,0.000610352,0.000915527,-2.42684,0.0541551,-0.0756734,0.0556539,0.102403,-0.0897895,0.145013,-0.124241,-0.0834859,0.0135803,0.0202179,0.00705719,-0.0777435,0.0157547,0.0232315,0.0228119,0.0119781,-9.97986,0.0415802,-0.00602722,0.0325394,-0.00267029,0.0128555,-0.0366211,0.00595093,0.00671387
21,3,10.0097,0.000610352,0.00198364,-2.42898,0.0541551,-0.0765889,0.0522969,0.092943,-0.0943672,0.143792,-0.125156,-0.0868429,0.0107193,0.0209808,0.00110626,-0.0813293,0.00915527,0.0161743,0.0224304,0.0152206,-9.97986,0.0502777,-0.00526428,0.0343704,-3.8147e-005,0.0146866,-0.0249863,0.0037384,0.00518799
21,4,10.0097,0.000305176,0.000762939,-2.42989,0.0538499,-0.0759786,0.0513814,0.077379,-0.0946723,0.144098,-0.126072,-0.0871481,0.01091,0.0187683,0.00679016,-0.0593185,0.0157547,0.0183868,0.0238037,0.0157547,-9.97986,0.0503922,-0.00301361,0.0344467,0.00415802,0.0128555,-0.0107193,0.00629425,0.00465393
21,5,10.0097,0.00152588,0.000152588,-2.4302,0.0544603,-0.0759786,0.0519917,0.0731066,-0.0955879,0.144098,-0.127598,-0.0871481,0.00782013,0.0156403,0.00514984,-0.0231934,0.0130844,0.0171661,0.0239563,0.0138474,-9.97986,0.0485992,-0.0030899,0.0336075,0.0037384,0.0141144,0.0146866,0.0108337,0.00289917
21,6,10.0097,0.000915527,-0.000305176,-2.42837,0.0535448,-0.0753682,0.0532125,0.0712755,-0.0952827,0.143792,-0.125461,-0.0877584,0.00865936,0.019455,0.00663757,-0.0239563,0.0146866,0.0107574,0.0263977,0.0111389,-9.97986,0.0416946,0.000152588,0.0302505,0.00732422,0.0202942,0.029068,0.0115967,0.00743866
21,7,10.0097,0.00152588,-0.000457764,-2.42959,0.0532396,-0.0756734,0.0529073,0.0682238,-0.0949775,0.143182,-0.128208,-0.0871481,0.00770569,0.0179291,0.00522614,-0.0810623,0.013237,0.012207,0.0297928,0.0117111,-9.97986,0.0309753,-0.00202179,0.0342941,0.00629425,0.0180817,0.0317383,0.0117111,0.0063324
21,8,10.0097,0.000305176,-0.000610352,-2.42806,0.0538499,-0.075063,0.0516866,0.0700548,-0.0952827,0.143792,-0.126987,-0.0859274,0.00957489,0.0196838,0.0094223,-0.0694656,0.0153351,0.0138855,0.0283051,0.0167465,-9.97986,0.0181961,0.000343323,0.0275803,0.0069046,0.0149155,0.0261688,0.0120544,0.00492096
21,9,10.0097,0.000305176,-0.000152588,-2.42745,0.0544603,-0.0765889,0.0522969,0.0688341,-0.0943672,0.144708,-0.126682,-0.0840963,0.00881195,0.0191498,0.0191116,-0.00671387,0.013504,0.0127029,0.0258255,0.0140762,-9.97986,0.0140762,-0.00461578,0.0322723,0.0130463,0.0192642,0.021553,0.00549316,0.00675201
22,0,10.0097,-0.00183105,0.000152588,-2.42898,0.0541551,-0.075063,0.0535176,0.0700548,-0.0934516,0.143182,-0.125766,-0.0847066,0.0149155,0.0179672,0.0315094,0.0507355,0.0145721,0.0128174,0.0232315,0.0162888,-9.97986,0.0141907,-0.00343323,0.0267029,0.0163651,0.0176239,0.0248718,0.010376,0.00747681
22,1,10.0097,0.00183105,0.000610352,-2.42776,0.055681,-0.0747579,0.0532125,0.0697496,-0.0919257,0.146234,-0.126072,-0.0834859,0.00823975,0.0182343,0.0354004,0.0845718,0.0126648,0.0063324,0.0246429,0.0111008,-9.97986,0.00507355,-0.00267029,0.0268936,0.0104904,0.0159073,0.0117493,0.00896454,0.00617981
22,2,10.0097,0.000610352,0.000457764,-2.4247,0.0572069,-0.0738423,0.0544332,0.0709703,-0.0919257,0.146234,-0.123935,-0.0822652,0.00991821,0.0209808,0.0534058,0.0785828,0.0174332,0.0106812,0.0243378,0.0185776,-9.97986,0.00476837,-0.00400543,0.030365,0.0143433,0.0153351,0.00759125,0.0149155,0.00263214
22,3,10.0097,0.000610352,0.000152588,-2.42531,0.0559862,-0.0729268,0.0547383,0.0715807,-0.0913154,0.145929,-0.124241,-0.0819601,0.00461578,0.0192642,0.0706482,0.0525665,0.0138092,0.00522614,0.0209045,0.0149155,-9.97986,0.00915527,-0.00270844,0.0260162,0.0200272,0.0179672,0.00576019,0.0124359,0.0075531
22,4,10.0097,0.000915527,0.000762939,-2.4247,0.0562914,-0.0738423,0.0556539,0.0706652,-0.0919257,0.147149,-0.123325,-0.0804342,0.00766754,0.0209427,0.085144,0.0240326,0.0120163,0.0063324,0.020752,0.013504,-9.97986,0.00843048,-0.00358582,0.0266266,0.0154495,0.0124359,0.0056076,0.00789642,0.00793457
22,5,10.0097,0.0012207,-0.000457764,-2.4244,0.0559862,-0.0723164,0.0550435,0.0706652,-0.0913154,0.146234,-0.124546,-0.0810445,0.00602722,0.026741,0.0961304,-0.0338364,0.014534,0.00751495,0.0216675,0.0185013,-9.97986,0.0105667,-0.00804901,0.026741,0.0177765,0.0124741,0.00404358,0.0108337,0.00572205
22,6,10.0097,-0.0012207,0.000610352,-2.42592,0.0559862,-0.0729268,0.054128,0.0682238,-0.0922309,0.146234,-0.124241,-0.0816549,0.00350952,0.0214767,0.100555,-0.112877,0.0129318,0.0125122,0.0215912,0.0139999,-9.97986,0.0136566,-0.0167847,0.0259781,0.0196457,0.0150299,0.00778198,0.0113297,0.0043869
22,7,10.0097,-0.00152588,-0.00137329,-2.42653,0.0565965,-0.0747579,0.0535176,0.0386217,-0.0946723,0.146234,-0.126377,-0.0825704,0.00843048,0.0214386,0.0899887,-0.0924301,0.0105667,0.0111389,0.0188446,0.0170517,-9.97986,0.0108337,-0.014534,0.0244904,0.0187302,0.0127792,0.00461578,0.00938416,0.00991821
22,8,7.85573,-0.000305176,-0.00152588,-2.42653,0.0562914,-0.0744527,0.0547383,0.04442,-0.0934516,0.146844,-0.126377,-0.0819601,0.00808716,0.0274658,0.0728989,-0.0105286,0.0128937,0.0104141,0.019455,0.0151443,-9.97986,0.00976563,-0.0129318,0.0247955,0.0199509,0.0150299,0.00270844,0.0127029,0.0133896
22,9,6.79006,0.00244141,-0.000915527,-2.42653,0.0562914,-0.0744527,0.0538228,0.0563219,-0.0910102,0.145624,-0.126072,-0.0828756,0.00358582,0.0304413,0.063858,0.0603485,0.0128555,0.0114441,0.0194168,0.00785828,-9.97986,0.0126266,-0.0164032,0.0268555,0.0231552,0.0125122,0.0025177,0.0149918,0.0133133
23,0,6.67836,-0.00152588,0.000152588,-2.42623,0.055681,-0.0738423,0.0544332,0.0657823,-0.0919257,0.145013,-0.125156,-0.0825704,0.00827789,0.0322723,0.0494766,0.162048,0.0137711,0.0117493,0.0195694,0.0133896,-9.97986,0.0117874,-0.0136566,0.0226593,0.0200653,0.0101471,0.00530243,0.0117493,0.0114441
23,1,7.05678,0.000610352,0.000610352,-2.42653,0.0550706,-0.0756734,0.0547383,0.075548,-0.0919257,0.146234,-0.124851,-0.0825704,0.00492096,0.0391769,0.0369263,0.208473,0.0149918,0.0115585,0.018425,0.0183105,-9.97986,0.0170517,-0.0161743,0.0233078,0.0230408,0.00934601,0.00984192,0.0130844,0.0168228
23,2,9.50215,0,0.00106812,-2.42714,0.0547655,-0.0753682,0.0544332,0.102098,-0.0897895,0.145624,-0.12363,-0.0840963,0.00255585,0.043335,0.0221252,0.188942,0.0153351,0.0123978,0.0205994,0.0152206,-9.97986,0.0243378,-0.0142288,0.0199127,0.0213623,0.0107193,0.0031662,0.00915527,0.0172043
23,3,10.0097,0,0.00198364,-2.42959,0.0544603,-0.0759786,0.0522969,0.0938585,-0.0946723,0.143792,-0.126072,-0.0859274,0.0030899,0.0492859,0.00427246,0.181541,0.0167465,0.0134277,0.0214386,0.0152969,-9.97986,0.0161743,-0.0136948,0.0211716,0.0252533,0.0137329,0.00465393,0.00843048,0.0164413
23,4,10.0097,0.000305176,0.000152588,-2.42806,0.0541551,-0.0756734,0.0519917,0.0779894,-0.0961982,0.144708,-0.126987,-0.0871481,0.0056076,0.0566864,-0.00240326,0.167389,0.018425,0.0167465,0.0261307,0.0225449,-9.97986,0.0199127,-0.0118637,0.021286,0.0203323,0.00930786,0.00694275,0.00526428,0.0161743
23,5,10.0097,-0.000610352,-0.000305176,-2.42959,0.0535448,-0.0768941,0.0522969,0.0728014,-0.095893,0.144098,-0.126987,-0.0865377,0.00419617,0.0602722,-0.0167084,0.134888,0.0164413,0.0151825,0.0231934,0.021019,-9.97986,0.0215912,-0.0075531,0.0217438,0.0263977,0.0121307,0.00732422,0.00400543,0.0196075
23,6,10.0097,-0.000305176,-0.000305176,-2.42928,0.0532396,-0.0768941,0.0516866,0.0697496,-0.0952827,0.143792,-0.126987,-0.0865377,0.00102997,0.0678253,-0.0263214,0.12104,0.0164413,0.0125504,0.0260925,0.020752,-9.97986,0.0187302,-0.0123596,0.0214386,0.0216293,0.00858307,0.00629425,0.000686646,0.0195694
23,7,10.0097,0,-0.000152588,-2.42959,0.0544603,-0.0762837,0.0522969,0.0688341,-0.0946723,0.143182,-0.126682,-0.0868429,0.00190735,0.0585175,-0.0396347,0.115089,0.0143814,0.013237,0.0208282,0.0213242,-9.97986,0.0206757,-0.00652313,0.0180054,0.0199509,0.00972748,-0.000305176,0.00473022,0.0185394
23,8,10.0097,0.000915527,0.000305176,-2.42867,0.0535448,-0.075063,0.0532125,0.0685289,-0.0943672,0.143792,-0.126377,-0.0862325,0.00286102,0.0510406,-0.0429535,0.0999832,0.0141144,0.0132751,0.0205994,0.0207138,-9.97986,0.0137329,-0.00991821,0.0208282,0.0289917,0.0115585,-0.00133514,0.00740051,0.019722
23,9,10.0097,0.000915527,-0.000152588,-2.42684,0.0547655,-0.0756734,0.0529073,0.0688341,-0.0943672,0.144403,-0.126377,-0.085317,0.00793457,0.0348663,-0.0422668,0.0759506,0.0116348,0.0125122,0.0250244,0.0181961,-9.97986,0.0169754,-0.00782013,0.0153732,0.0281906,0.0116348,-0.00087738,0.00461578,0.02285
24,0,10.0097,-0.000305176,0.000152588,-2.42806,0.0544603,-0.0738423,0.0535176,0.0688341,-0.0931465,0.144708,-0.125766,-0.0847066,0.00419617,0.0233841,-0.042038,0.0758362,0.0139618,0.0127029,0.0222015,0.0146866,-9.97986,0.012207,-0.00854492,0.0190735,0.0262451,0.00839233,0.00144958,0.00305176,0.0250244
24,1,10.0097,0.000610352,0.000610352,-2.42714,0.0550706,-0.0744527,0.0529073,0.0706652,-0.0922309,0.144098,-0.125766,-0.0844015,0.00278473,0.0127792,-0.0405121,0.0619888,0.0143051,0.0140381,0.0238037,0.0154877,-9.97986,0.0196457,-0.0062561,0.0194931,0.0269318,0.00759125,0.000343323,0.00453949,0.0196838
24,2,10.0097,0.00152588,0.000305176,-2.42531,0.0550706,-0.0735371,0.0544332,0.0706652,-0.0913154,0.145929,-0.124851,-0.0813497,0.00602722,0.00274658,-0.0360489,0.0408173,0.0180817,0.0119019,0.0274658,0.0157166,-9.97986,0.0139236,-0.0087738,0.0147629,0.0233841,0.00694275,-0.000152588,-0.000267029,0.0200272
24,3,10.0097,0.00244141,0.000305176,-2.42592,0.0553758,-0.0738423,0.0547383,0.0718859,-0.0910102,0.145624,-0.124546,-0.0813497,0.00896454,-0.00305176,-0.0330734,0.0478363,0.0150681,0.0157166,0.0237274,0.0191116,-9.97986,0.0173187,-0.00102997,0.0193787,0.0276947,0.00572205,0.0063324,0.00286102,0.0227737
24,4,10.0097,-0.000915527,-0.000152588,-2.42501,0.0575121,-0.0741475,0.0550435,0.072191,-0.0919257,0.145318,-0.124241,-0.0816549,0.0075531,0.00202179,-0.0229263,0.0588608,0.0150681,0.0100708,0.0289536,0.0175476,-9.97986,0.0151443,-0.00545502,0.0196838,0.0279999,0.00530243,-0.000648499,-0.000762939,0.0185776
24,5,10.0097,-0.000915527,0.000457764,-2.42501,0.0562914,-0.0747579,0.0556539,0.0706652,-0.0913154,0.146234,-0.124241,-0.0816549,0.00709534,0.00572205,-0.0164032,0.0522614,0.0188065,0.0156403,0.0260162,0.0173187,-9.97986,0.0114441,-0.00293732,0.0162506,0.0349808,0.00984192,0.000495911,-0.000228882,0.0220871
24,6,10.0097,0.000610352,0.000152588,-2.42501,0.0547655,-0.0741475,0.0538228,0.0663927,-0.0931465,0.146844,-0.124546,-0.0813497,0.00617981,0.00823975,-0.0171661,0.0383377,0.0127411,0.00915527,0.0242996,0.0139999,-9.97986,0.0102234,-0.0018692,0.0154114,0.0326538,0.00659943,-0.00198364,0.00286102,0.019455
24,7,10.0097,0.000610352,-0.00167847,-2.42623,0.0565965,-0.0735371,0.0544332,0.0392321,-0.0943672,0.146234,-0.126377,-0.0807394,0.0102615,0.0149155,-0.00419617,0.0291824,0.0130844,0.0123215,0.0342941,0.0120544,-9.97986,0.0149155,0.00110626,0.0155258,0.0352097,0.00965118,-0.00144958,-0.000648499,0.016098
24,8,7.65584,0.000610352,-0.000610352,-2.42501,0.055681,-0.0735371,0.0535176,0.0438097,-0.0928413,0.146234,-0.126072,-0.0819601,0.00953674,0.0164032,0.00225067,0.0183868,0.0149536,0.0128555,0.0285721,0.0133133,-9.97986,0.0147247,-0.00484467,0.0152969,0.0353622,0.0088501,-0.00125885,-0.000915527,0.0154114
24,9,6.56056,-0.000610352,-0.000457764,-2.42684,0.0547655,-0.0735371,0.0553487,0.0563219,-0.0913154,0.145929,-0.125766,-0.0819601,0.0104523,0.0167465,-0.000839233,-0.00713348,0.0118256,0.00904083,0.0279617,0.01194,-9.97986,0.0125122,0.0037384,0.0123215,0.0373459,0.00637054,0.00038147,-0.00572205,0.0119781
25,0,6.45009,0.000305176,0.000610352,-2.42623,0.0544603,-0.0747579,0.0556539,0.0642565,-0.0928413,0.145929,-0.125766,-0.0825704,0.0149918,0.0208664,0.00339508,-0.0357437,0.0115967,0.0104904,0.027504,0.011673,-9.97986,0.0112534,-0.000686646,0.0156403,0.0395203,0.00793457,-0.00232697,-0.00858307,0.0141144
25,1,6.84255,0.000915527,0.000915527,-2.42623,0.0547655,-0.075063,0.0532125,0.075548,-0.0913154,0.145318,-0.125766,-0.0828756,0.0147629,0.0199127,-0.00171661,-0.0568008,0.0131226,0.00869751,0.0250244,0.0149536,-9.97986,0.01091,0.00343323,0.0209427,0.0460815,0.00774384,0.00232697,-0.00919342,0.0114441
25,2,9.29982,0.000610352,0.00183105,-2.42776,0.0550706,-0.075063,0.0544332,0.102709,-0.0894843,0.143792,-0.123935,-0.0834859,0.0125504,0.0193787,-0.0038147,-0.0724792,0.011673,0.00968933,0.0247574,0.0143051,-9.97986,0.00831604,0.000686646,0.0166321,0.0446701,0.00705719,-0.00125885,-0.00549316,0.00888824
25,3,10.0097,0.000305176,0.00167847,-2.42898,0.0535448,-0.0759786,0.0532125,0.0938585,-0.0943672,0.144098,-0.125766,-0.0862325,0.0156403,0.0147247,-0.00602722,-0.0934601,0.00873566,0.00930786,0.0208664,0.015564,-9.97986,0.00709534,0.00244141,0.0123978,0.0462723,0.00694275,0.001297,-0.010376,0.0100708
25,4,10.0097,0.000610352,0.000152588,-2.42928,0.0541551,-0.0762837,0.0526021,0.0798204,-0.0946723,0.144403,-0.126072,-0.0877584,0.00778198,0.0164413,-0.00347137,-0.117531,0.0101852,0.0137329,0.0188446,0.0183105,-9.97986,0.00610352,-0.000152588,0.0112152,0.0470352,0.00453949,-0.000801086,-0.0134659,0.0115585
25,5,10.0097,-0.000610352,0,-2.42867,0.0535448,-0.0753682,0.0522969,0.0731066,-0.0961982,0.142877,-0.126987,-0.0865377,0.0121689,0.0120163,0.000724792,-0.146027,0.0075531,0.0156021,0.0275421,0.0172806,-9.97986,0.00659943,0.00293732,0.0143433,0.0457382,0.00827789,0,-0.0119781,0.0115204
25,6,10.0097,-0.000610352,-0.000305176,-2.42959,0.0541551,-0.0756734,0.0516866,0.0691393,-0.0968086,0.142267,-0.127903,-0.0874532,0.00869751,0.0119781,0.00759125,-0.166168,0.00923157,0.0148773,0.026741,0.0190353,-9.97986,0.00453949,0.00629425,0.011673,0.0438309,0.00659943,-0.00576019,-0.0130463,0.00831604
25,7,10.0097,-0.000305176,-0.000457764,-2.42867,0.0544603,-0.0759786,0.0526021,0.0706652,-0.094062,0.144098,-0.127903,-0.0871481,0.0050354,0.0154877,0.0211334,-0.195885,0.0110626,0.0137711,0.0282669,0.019722,-9.97986,0.00919342,0.00522614,0.0146866,0.0500107,0.00392914,-0.0182343,-0.01297,0.00522614
25,8,10.0097,0.000915527,-0.000152588,-2.42806,0.0550706,-0.0753682,0.0532125,0.0691393,-0.094062,0.143792,-0.127292,-0.0856222,0.00606537,0.0179291,0.0275803,-0.224419,0.00686646,0.0120544,0.0227737,0.0162506,-9.97986,0.00640869,0.0050354,0.0121689,0.0456238,0.00244141,-0.0203323,-0.0115585,0.00720978
25,9,10.0097,0.00183105,0.000305176,-2.42684,0.0553758,-0.0747579,0.0538228,0.07036,-0.0928413,0.143792,-0.127292,-0.0862325,0.0117493,0.0188065,0.0369644,-0.217628,0.0087738,0.0114059,0.0205231,0.017662,-9.97986,0.00774384,0.00789642,0.00930786,0.0492477,0.0050354,-0.0108337,-0.0113678,0.00583649
26,0,10.0097,0.000610352,-0.000305176,-2.42837,0.0547655,-0.0756734,0.0535176,0.07036,-0.0931465,0.144708,-0.126377,-0.0847066,0.0127411,0.019722,0.0408936,-0.0968933,0.00667572,0.00881195,0.0233841,0.0118256,-9.97986,0.00576019,0.00331879,0.00888824,0.0485229,0.00762939,-0.0094223,-0.01297,0.00717163
26,1,10.0097,0.000915527,0.000610352,-2.42592,0.055681,-0.0753682,0.0538228,0.0697496,-0.0931465,0.144403,-0.125766,-0.0844015,0.0117111,0.0265884,0.0476837,0.0747681,0.00682831,0.00968933,0.025444,0.0203705,-9.97986,0.00408173,0.00396729,0.00904083,0.0468445,0.00530243,0.00148773,-0.0133896,0.00473022
26,2,10.0097,0.000305176,0.000457764,-2.4244,0.0572069,-0.0738423,0.0550435,0.0709703,-0.0928413,0.148065,-0.126987,-0.0813497,0.0110245,0.0353241,0.0624466,0.127907,0.00888824,0.0108337,0.0214386,0.0184631,-9.97986,0.00476837,0.00907898,0.00827789,0.0505066,0.00923157,0.00415802,-0.0137711,0.00534058
26,3,10.0097,0.000610352,0,-2.42501,0.0559862,-0.0738423,0.0556539,0.0718859,-0.0925361,0.146234,-0.124851,-0.0813497,0.0123978,0.0362015,0.083046,0.104866,0.0117493,0.013237,0.024147,0.018692,-9.97986,0.00709534,0.00900269,0.00709534,0.0489044,0.00801086,0.00965118,-0.0132751,0.00556946
26,4,10.0097,0.00183105,0,-2.42531,0.0562914,-0.0747579,0.0544332,0.0728014,-0.0916206,0.148065,-0.124241,-0.0816549,0.00556946,0.0354385,0.104332,0.0682068,0.0117493,0.0144958,0.0259781,0.0201797,-9.97986,0.0105286,0.00587463,0.00331879,0.0490189,0.0082016,0.00957489,-0.0138474,0.00770569
26,5,10.0097,0.000305176,-0.000152588,-2.4247,0.0559862,-0.0744527,0.0562642,0.0709703,-0.0913154,0.145318,-0.128818,-0.0810445,0.00541687,0.0372314,0.116234,0.0300217,0.00831604,0.00934601,0.0242615,0.0168991,-9.97986,0.0139618,0.00923157,0.00427246,0.0474167,0.00724792,0.00812531,-0.0149155,0.00396729
26,6,10.0097,0.000610352,0.000305176,-2.4247,0.0565965,-0.0744527,0.0535176,0.0676134,-0.0925361,0.147149,-0.124851,-0.0825704,0.0102997,0.033226,0.121956,0.0398254,0.01091,0.0112915,0.0258636,0.0177383,-9.97986,0.0141525,0.00724792,0.00312805,0.0476074,0.0110245,0.00488281,-0.0102234,0.00804901
26,7,10.0097,-0.000915527,-0.00137329,-2.42623,0.0565965,-0.0741475,0.0513814,0.0380113,-0.095893,0.146539,-0.126682,-0.0819601,0.0122452,0.026474,0.112419,0.0395966,0.00724792,0.0102234,0.0222397,0.0153351,-9.97986,0.0133896,0.00492096,0.00324249,0.0450134,0.00934601,-0.0037384,-0.0126266,0.00835419
26,8,7.81667,0.000305176,-0.000915527,-2.42653,0.0559862,-0.073232,0.054128,0.0456407,-0.0934516,0.146539,-0.121799,-0.0822652,0.0131226,0.0353622,0.0892639,0.0519562,0.0160599,0.0135422,0.0278854,0.0147629,-9.97986,0.0165558,0.00717163,-0.00102997,0.0455093,0.00816345,-0.00431061,-0.0136566,0.0069809
26,9,6.74794,0,-0.000762939,-2.42623,0.0559862,-0.0738423,0.0544332,0.0572374,-0.0913154,0.145318,-0.125461,-0.0819601,0.00610352,0.0350571,0.0580978,0.0560379,0.0133133,0.00846863,0.0220871,0.0162125,-9.97986,0.016098,0.00141144,-0.00293732,0.0426483,0.00808716,-0.00743866,-0.0130844,0.0120163
27,0,6.64052,-0.000610352,0.000305176,-2.42623,0.0553758,-0.0744527,0.055959,0.0645616,-0.0913154,0.144403,-0.126072,-0.0831808,0.0105667,0.0260544,0.0323868,0.0578308,0.00980377,0.0120163,0.0235748,0.0101471,-9.97986,0.0187683,0.00499725,-0.0037384,0.0471115,0.00617981,-0.00656128,-0.0138092,0.0180817
27,1,7.01039,0.000915527,0.000610352,-2.42592,0.0559862,-0.075063,0.055959,0.0752428,-0.0913154,0.145318,-0.12363,-0.0834859,0.00888824,0.0195313,0.00137329,0.0762939,0.0151443,0.00667572,0.0236893,0.0107193,-9.97986,0.018959,0.0069046,-0.00724792,0.0456619,0.00553131,-0.00591278,-0.0144577,0.0194931
27,2,9.54,0.000610352,0.00106812,-2.42653,0.0541551,-0.0765889,0.0544332,0.103319,-0.0894843,0.145013,-0.123325,-0.0840963,0.0111771,0.0156021,0.00675201,0.0511932,0.0161743,0.0117874,0.0226593,0.0149536,-9.97986,0.0185013,0.00148773,-0.0104904,0.0424957,0.00728607,-0.00263214,-0.0117493,0.0178146
27,3,10.0097,0.00213623,0.00137329,-2.42959,0.0535448,-0.0759786,0.0562642,0.092943,-0.0949775,0.142877,-0.125156,-0.0862325,0.00984192,0.0118637,0.0169373,-0.0193787,0.0149536,0.011673,0.0220108,0.0122452,-9.97986,0.0213623,0.00267029,-0.0146866,0.0395584,0.0082016,-0.00423431,-0.0126648,0.0158691
27,4,10.0097,0,0,-2.42898,0.0529344,-0.0753682,0.0522969,0.0782946,-0.0949775,0.143792,-0.125766,-0.0874532,0.0133133,0.00972748,0.0230789,-0.0478745,0.0128555,0.0106812,0.0236511,0.0203323,-9.97986,0.0184631,0.00915527,-0.0162888,0.041275,0.0115204,-0.00564575,-0.00972748,0.0167465
27,5,10.0097,0.0012207,-0.000915527,-2.42989,0.0535448,-0.0762837,0.0519917,0.0728014,-0.0949775,0.144403,-0.126987,-0.0868429,0.0114059,0.0130081,0.0310898,-0.00297546,0.0145721,0.0134659,0.0183105,0.018692,-9.97986,0.0217438,0.0069046,-0.0187302,0.0377274,0.0101089,-0.0117111,-0.00968933,0.0168991
27,6,10.0097,0.000610352,-0.000305176,-2.42867,0.0541551,-0.0762837,0.0550435,0.0706652,-0.0955879,0.142877,-0.126987,-0.0868429,0.00823975,0.0196075,0.0271606,0.101738,0.014267,0.00926971,0.022049,0.010643,-9.97986,0.021553,0.00648499,-0.0186157,0.0406647,0.00926971,-0.0156784,-0.0120544,0.0138474
27,7,10.0097,-0.000305176,0,-2.42928,0.0532396,-0.0759786,0.0529073,0.0691393,-0.0943672,0.143792,-0.126987,-0.0868429,0.00854492,0.0170517,0.0176239,0.160561,0.0123215,0.0128555,0.0260925,0.0122452,-9.97986,0.0198746,0.000228882,-0.0233459,0.041008,0.0102997,-0.0140762,-0.0082016,0.0138855
27,8,10.0097,-0.000305176,-0.000152588,-2.42806,0.0544603,-0.0778096,0.0532125,0.0694445,-0.0955879,0.143792,-0.126987,-0.085317,0.0122833,0.0186157,0.014534,0.138397,0.014267,0.00892639,0.0200272,0.0153732,-9.97986,0.0233841,0.00221252,-0.0240326,0.0439835,0.0117111,-0.00598907,-0.00652313,0.0156784
27,9,10.0097,0.0012207,-0.000305176,-2.42653,0.0550706,-0.075063,0.0547383,0.0691393,-0.0931465,0.145013,-0.126377,-0.0850118,0.00919342,0.0211716,0.0120926,0.0931931,0.00659943,0.014534,0.0221252,0.0151062,-9.97986,0.0262451,0.00202179,-0.0211716,0.0482941,0.0135422,-0.00522614,-0.00576019,0.0123215
28,0,10.0097,0.00152588,0.000457764,-2.42776,0.0550706,-0.0744527,0.0532125,0.0697496,-0.0943672,0.145624,-0.125461,-0.0844015,0.00617981,0.0299072,0.00930786,0.053978,0.0133133,0.0139236,0.0192261,0.0162125,-9.97986,0.0259781,0.00236511,-0.0267792,0.0419998,0.0139236,-0.00396729,-0.00572205,0.0117493
28,1,10.0097,0.000305176,0.000762939,-2.42592,0.0544603,-0.0747579,0.0547383,0.0694445,-0.0928413,0.145318,-0.125156,-0.0844015,0.00701904,0.0403976,0.017662,0.0399399,0.0138855,0.0110626,0.0188828,0.0178146,-9.97986,0.0231934,0.00110626,-0.0221252,0.0452805,0.0126266,-0.0012207,-0.00244141,0.0105286
28,2,10.0097,0.000915527,0,-2.42531,0.0578172,-0.0747579,0.0544332,0.0706652,-0.0934516,0.146539,-0.124241,-0.0813497,0.00247955,0.0495148,0.0203323,0.0345612,0.0107574,0.0094986,0.026741,0.0293732,-9.97986,0.0210953,0.00453949,-0.0231934,0.0476456,0.0123978,0.000495911,-0.00148773,0.0122833
28,3,10.0097,-0.000610352,-0.000457764,-2.42562,0.0559862,-0.0741475,0.0553487,0.0712755,-0.0925361,0.147455,-0.126072,-0.0804342,0.00801086,0.0471115,0.00564575,0.0214386,0.0130844,0.00183105,0.0230026,0.0326538,-9.97986,0.0236893,0.00762939,-0.019722,0.0452423,0.0123596,0.00221252,-0.00244141,0.00972748
28,4,10.0097,-0.000610352,0.000305176,-2.4244,0.0569017,-0.0738423,0.0544332,0.0700548,-0.0913154,0.145929,-0.123935,-0.0819601,0.00667572,0.0445557,-0.00553131,0.0100708,0.0101089,0.0100708,0.0191116,0.0291824,-9.97986,0.019455,0.00110626,-0.0187302,0.0492477,0.0128555,0.00038147,-0.00282288,0.0117874
28,5,10.0097,0.000610352,0.000762939,-2.42592,0.0562914,-0.0738423,0.0519917,0.0697496,-0.090705,0.146539,-0.124241,-0.080129,0.00900269,0.0457001,-0.0180435,-0.00312805,0.0100327,0.00591278,0.0218201,0.0288391,-9.97986,0.024147,0.00629425,-0.0204086,0.0570679,0.0168991,0.00125885,0.000190735,0.0109863
28,6,10.0097,-0.00183105,0.000457764,-2.42501,0.0559862,-0.0741475,0.054128,0.0663927,-0.0922309,0.146844,-0.125461,-0.0819601,0.00831604,0.0371933,-0.0400543,0.0256729,0.00988007,-0.000457764,0.0202942,0.0235748,-9.97986,0.0248718,0.000991821,-0.0162888,0.0527573,0.0128555,-0.00530243,-0.00320435,0.0100708
28,7,10.0097,0.000305176,-0.00183105,-2.42562,0.0565965,-0.0741475,0.0532125,0.0383165,-0.0937568,0.145929,-0.125461,-0.0825704,0.0109482,0.0266266,-0.055275,0.110474,0.0105667,0.00396729,0.0195313,0.0223923,-9.97986,0.0201416,-0.00301361,-0.018425,0.0522614,0.0134277,-0.00125885,0.00202179,0.0119781
28,8,7.69979,0.000915527,-0.00259399,-2.42623,0.0565965,-0.0735371,0.0565694,0.0456407,-0.0937568,0.146234,-0.126682,-0.0825704,0.0088501,0.0169754,-0.0514603,0.157318,0.00926971,0.00442505,0.0198364,0.0139618,-9.97986,0.0196457,0.0030899,-0.0145721,0.0440216,0.0094223,-0.00484467,0.00278473,0.0106049
28,9,6.62953,0.00152588,-0.00106812,-2.42562,0.055681,-0.0741475,0.0544332,0.0572374,-0.0910102,0.145318,-0.126072,-0.0825704,0.0087738,0.0150299,-0.0405502,0.114555,0.0127792,0.00152588,0.0218201,0.0171661,-9.97986,0.0179291,0.0158691,-0.0178909,0.0360107,0.0130463,-0.00629425,0.000762939,0.00896454
29,0,6.51876,0.000305176,-0.000610352,-2.42684,0.055681,-0.0744527,0.0535176,0.0654772,-0.0928413,0.146539,-0.125156,-0.0822652,0.00797272,0.0169754,-0.0294113,0.0586319,0.0101471,0.00278473,0.0151062,0.0152969,-9.97986,0.0211334,0.014534,-0.0149155,0.0376511,0.016098,-0.00511169,0.00202179,0.010643
29,1,6.87093,0.00183105,0,-2.42714,0.055681,-0.0741475,0.0565694,0.0758531,-0.0919257,0.146539,-0.125766,-0.0837911,0.00911713,0.0200272,-0.00614166,0.057106,0.00961304,0.000419617,0.0175858,0.00537872,-9.97986,0.0190353,0.0112915,-0.0139999,0.0358582,0.0127411,-0.00850677,0.00427246,0.00881195
29,2,9.38893,0.000610352,0.000915527,-2.42745,0.0550706,-0.075063,0.0553487,0.104845,-0.0879585,0.145013,-0.12363,-0.0844015,0.0112915,0.0193024,0.0187683,0.0770187,0.0101852,-0.00244141,0.0205994,0.0056839,-9.97986,0.0208282,0.00770569,-0.00968933,0.0239563,0.0158691,-0.00595093,0.00751495,0.00679016
29,3,10.0097,0.000610352,0.00137329,-2.42928,0.0532396,-0.0756734,0.0522969,0.0944689,-0.0931465,0.143182,-0.125156,-0.0856222,0.00965118,0.0241852,0.0381851,0.0772095,0.0147629,-0.00343323,0.0162506,0.00190735,-9.97986,0.0210571,0.00343323,-0.0135422,0.0236511,0.0186157,-0.001297,0.00434875,0.00701904
29,4,10.0097,0.000610352,-0.000305176,-2.42898,0.0529344,-0.075063,0.050771,0.0776842,-0.0961982,0.144098,-0.125461,-0.0871481,0.0118256,0.0226593,0.0537491,0.0853348,0.0144196,-0.00549316,0.0156021,0.00141144,-9.97986,0.0192642,-0.00659943,-0.0108719,0.0169754,0.0125885,-0.00450134,0.00270844,0.00556946
29,5,10.0097,0,-0.000915527,-2.42898,0.0526292,-0.0762837,0.0519917,0.0715807,-0.0955879,0.144403,-0.126682,-0.0877584,0.0118256,0.0375366,0.0611115,0.0782394,0.0217056,-0.00667572,0.0170898,0.00518799,-9.97986,0.0175095,-0.010643,-0.00965118,0.0025177,0.0173569,-0.00312805,0.00453949,0.00476837
29,6,10.0097,-0.000610352,-0.00198364,-2.42898,0.0532396,-0.0762837,0.0516866,0.0709703,-0.0955879,0.143792,-0.126682,-0.0871481,0.00808716,0.0463486,0.0448608,0.0655365,0.0206375,-0.00736237,0.0166321,0.00869751,-9.97986,0.0198746,-0.00862122,-0.00492096,-0.0144196,0.0195694,-0.000534058,0.00541687,0.00541687
29,7,10.0097,-0.000305176,-0.00106812,-2.42959,0.0547655,-0.0771993,0.0526021,0.0697496,-0.0943672,0.143182,-0.128208,-0.0868429,0.0100327,0.0527954,0.00320435,0.0582886,0.0168228,-0.00202179,0.0182724,0.0112915,-9.97986,0.0191879,-0.0120926,-0.00946045,-0.0202942,0.0169373,0.00888824,0.00602722,0.00488281
29,8,10.0097,-0.000305176,-0.00152588,-2.42928,0.0538499,-0.0756734,0.0529073,0.0685289,-0.0943672,0.145318,-0.128208,-0.0862325,0.00988007,0.0393677,-0.0422668,0.0469589,0.0217438,-0.00320435,0.0137329,0.0140762,-9.97986,0.021553,-0.0127792,-0.00907898,-0.032692,0.018692,0.0102234,0.00869751,0.00858307
29,9,10.0097,0.00183105,-0.00106812,-2.42714,0.0544603,-0.0756734,0.0532125,0.0694445,-0.0934516,0.143792,-0.127598,-0.0840963,0.00869751,0.0123978,-0.0728607,0.0194168,0.0173569,-0.00522614,0.0167465,0.0130081,-9.97986,0.0188446,-0.0166702,-0.00843048,-0.0426483,0.015831,0.0127411,0.00465393,0.00694275
30,0,10.0097,0.000610352,-0.0012207,-2.42714,0.0565965,-0.0747579,0.0538228,0.0697496,-0.0937568,0.143487,-0.126987,-0.085317,0.00816345,-0.00823975,-0.092659,-0.0150681,0.0248337,-0.00354767,0.0137711,0.0151062,-9.97986,0.0214767,-0.0202179,-0.00743866,-0.0535202,0.0180054,0.00911713,0.00415802,0.0056839
30,1,10.0097,0.00183105,-0.000457764,-2.42684,0.0550706,-0.0744527,0.0538228,0.0682238,-0.0965034,0.144403,-0.126987,-0.0837911,0.0151443,-0.012207,-0.087471,-0.00362396,0.0268173,0.00133514,0.0167084,0.0125504,-9.97986,0.0244904,-0.0210953,-0.00514984,-0.0549698,0.0199127,0.00724792,0.00209808,0.00404358
30,2,10.0097,0.000610352,-0.000305176,-2.4247,0.0565965,-0.073232,0.0532125,0.0706652,-0.090705,0.146539,-0.124851,-0.0828756,0.0102615,-0.015831,-0.0710678,0.00629425,0.0263596,0.00747681,0.0127029,0.0180054,-9.97986,0.0235367,-0.024147,-0.00328064,-0.0595093,0.0187683,0.00930786,0.00389099,0.00785828
30,3,10.0097,0.000915527,-0.000915527,-2.42562,0.0584276,-0.0744527,0.0562642,0.0718859,-0.0922309,0.145624,-0.124546,-0.0816549,0.0082016,-0.0279236,-0.057106,0.0102997,0.0244522,0.000648499,0.0152206,0.00892639,-9.97986,0.0251389,-0.0234985,-0.00259399,-0.065155,0.0199509,0.00892639,0.00850677,0.0037384
30,4,10.0097,0.0012207,0,-2.42592,0.0565965,-0.0735371,0.0535176,0.0709703,-0.0928413,0.146234,-0.12363,-0.0804342,0.0138474,-0.0316238,-0.0454712,-0.0044632,0.0270081,0.00137329,0.0170898,0.0123978,-9.97986,0.0266266,-0.0252914,0.00282288,-0.0675964,0.0181198,0.00610352,0.00766754,0.00202179
30,5,10.0097,0.000305176,-0.00106812,-2.42501,0.0559862,-0.0729268,0.0547383,0.0706652,-0.0919257,0.147149,-0.124546,-0.0816549,0.00915527,-0.0231552,-0.0249863,-0.0183868,0.0283813,0.00469208,0.0189209,0.0128174,-9.97986,0.0221252,-0.0275421,0.00507355,-0.0752258,0.0212479,0.00759125,0.00900269,0.00255585
30,6,10.0097,0.000915527,-0.000305176,-2.42531,0.0575121,-0.0741475,0.0544332,0.0660875,-0.0931465,0.147149,-0.124851,-0.0810445,0.0129318,-0.0125885,-0.00961304,-0.021019,0.0270081,0.00907898,0.0106812,0.0164795,-9.97986,0.0222015,-0.0241089,0.00629425,-0.0736237,0.0197601,0.0094986,0.00999451,0.00492096
30,7,10.0097,0.000305176,-0.0012207,-2.42592,0.0569017,-0.0747579,0.0535176,0.0377062,-0.0946723,0.147455,-0.126377,-0.0819601,0.00953674,0.00522614,-0.00343323,-0.0189209,0.0317383,0.00717163,0.0122833,0.0128174,-9.97986,0.0192642,-0.0215912,0.00614166,-0.0754929,0.0207138,0.00728607,0.0107574,-0.000686646
30,8,7.74404,0,-0.00152588,-2.42592,0.0569017,-0.0747579,0.0544332,0.0438097,-0.094062,0.146539,-0.126987,-0.0825704,0.011673,0.0185013,0.00259399,-0.0166702,0.0245667,0.00785828,0.0165939,0.0107956,-9.97986,0.0206757,-0.018425,0.00957489,-0.0760269,0.019455,0.0108719,0.0166702,0.00343323
30,9,6.69026,0.000915527,-0.000305176,-2.42531,0.0526292,-0.0744527,0.0550435,0.0560167,-0.0913154,0.145318,-0.126987,-0.0822652,0.0115204,0.0175858,0.00312805,-0.0221252,0.0325012,0.0108719,0.0162125,0.0128174,-9.97986,0.0141525,-0.0115585,0.00980377,-0.0749207,0.0160599,0.00629425,0.0120926,0.00205994
31,0,6.53829,0.000610352,0.000152588,-2.42592,0.0547655,-0.0738423,0.054128,0.0645616,-0.0922309,0.145929,-0.126377,-0.0825704,0.0128937,0.0247574,0.00843048,-0.0251389,0.033493,0.0117493,0.0140381,0.0088501,-9.97986,0.0178146,-0.000572205,0.0112915,-0.0626373,0.022316,0.00465393,0.015564,0.00289917
31,1,6.90206,0.00244141,0.00106812,-2.42623,0.0559862,-0.0747579,0.054128,0.0758531,-0.0919257,0.146234,-0.126072,-0.0828756,0.0128555,0.0413513,0.0211334,-0.025444,0.0320053,0.0119019,0.018692,0.0100708,-9.97986,0.0138855,-0.00724792,0.0130844,-0.0589371,0.0203323,-0.001297,0.0162125,0.00183105
31,2,9.42922,-0.000610352,0.00213623,-2.42745,0.048662,-0.0753682,0.0544332,0.104845,-0.0885688,0.144708,-0.124241,-0.0834859,0.0152206,0.043602,0.034256,-0.030365,0.0284576,0.00751495,0.0161362,0.0147247,-9.97986,0.0204468,-0.00858307,0.0187302,-0.0522614,0.0207138,0.000190735,0.0191116,0.00328064
31,3,10.0097,0.000610352,0.00244141,-2.42776,0.0550706,-0.075063,0.0529073,0.0944689,-0.0900947,0.144098,-0.125766,-0.0868429,0.0123596,0.0475693,0.0473404,-0.0348282,0.0348282,0.00854492,0.0159836,0.0162506,-9.97986,0.00968933,-0.0199509,0.0168228,-0.0432587,0.0221634,0.00198364,0.0241852,0.00297546
31,4,10.0097,0.00183105,0.00152588,-2.42928,0.0529344,-0.0762837,0.0522969,0.0789049,-0.0946723,0.143792,-0.126987,-0.0859274,0.0113678,0.0498199,0.052681,-0.043335,0.0349426,0.00782013,0.01194,0.018158,-9.97986,0.0108719,-0.0297165,0.0131607,-0.0374603,0.0201035,-3.8147e-005,0.02491,-0.000343323
31,5,10.0097,0.000305176,0,-2.42867,0.0581224,-0.0747579,0.0519917,0.0724962,-0.0949775,0.143487,-0.126987,-0.0868429,0.0123596,0.0469589,0.0550079,-0.0447845,0.0328064,0.00904083,0.0127029,0.0240326,-9.97986,0.0127792,-0.0255966,0.0188446,-0.0360489,0.0218964,-0.00148773,0.027771,0.00411987
31,6,10.0097,-0.000305176,-0.000762939,-2.42928,0.0541551,-0.0759786,0.050771,0.0691393,-0.090705,0.143792,-0.126987,-0.0871481,0.0111008,0.0357437,0.0584412,-0.0457001,0.0328445,0.00900269,0.0125885,0.0164795,-9.97986,0.00637054,-0.0197983,0.018425,-0.0366211,0.0216675,0.00320435,0.0296783,-0.00328064
31,7,10.0097,-0.000610352,-0.000152588,-2.42867,0.0538499,-0.0756734,0.0529073,0.0688341,-0.0949775,0.143182,-0.127292,-0.0874532,0.0145721,0.0253677,0.0667953,-0.0464249,0.0333405,0.00728607,0.00999451,0.0156784,-9.97986,0.0112915,-0.0165558,0.0192642,-0.0322723,0.0178528,0.00125885,0.0351334,-0.00221252
31,8,10.0097,-0.000305176,0.000152588,-2.42714,0.0471361,-0.075063,0.0522969,0.0685289,-0.0943672,0.144098,-0.126682,-0.0856222,0.0130844,0.0296783,0.0699234,-0.0428009,0.0317764,0.00720978,0.0108719,0.0139999,-9.97986,0.0130463,-0.0121307,0.02388,-0.030632,0.0206757,-0.00450134,0.0344849,-0.000267029
31,9,10.0097,-0.000915527,0.000762939,-2.42776,0.055681,-0.0756734,0.0544332,0.0682238,-0.0870429,0.143182,-0.127292,-0.0847066,0.0143051,0.0273132,0.0655365,-0.0419998,0.0357056,0.00934601,0.0132751,0.0125504,-9.97986,0.00892639,-0.00999451,0.0271606,-0.0297928,0.0247574,-0.0075531,0.0348663,-0.00114441
32,0,10.0097,-0.000305176,0.000305176,-2.42714,0.0569017,-0.0741475,0.0532125,0.0697496,-0.0934516,0.144403,-0.125461,-0.0837911,0.0149536,0.0119781,0.059433,-0.0387192,0.0289154,0.00663757,0.00972748,0.00476837,-9.97986,0.0147629,-0.0138855,0.0260544,-0.0260544,0.0231171,-0.0123596,0.0320435,0.000686646
32,1,10.0097,0.000305176,0.000457764,-2.42684,0.0520189,-0.075063,0.0535176,0.0706652,-0.0928413,0.145624,-0.126072,-0.0831808,0.0119781,0.00225067,0.0491333,-0.0415802,0.0317001,0.00671387,0.0120926,0.00324249,-9.97986,0.0094223,-0.0133514,0.0260162,-0.0200272,0.0213623,-0.00389099,0.0333786,-0.00511169
32,2,10.0097,-0.0012207,0.00183105,-2.4247,0.0569017,-0.0738423,0.0535176,0.0712755,-0.0916206,0.146234,-0.124546,-0.0819601,0.0135803,0.019455,0.038681,-0.0385284,0.0334549,0.0127411,0.0206757,0.00259399,-9.97986,0.0104523,-0.00831604,0.0295258,-0.00431061,0.0232315,-0.00530243,0.0336838,-0.00553131
32,3,10.0097,-0.0012207,0.00152588,-2.4247,0.055681,-0.0735371,0.0547383,0.07036,-0.0910102,0.146234,-0.125156,-0.0807394,0.0143433,-0.00232697,0.0234222,-0.0377655,0.0302124,0.0109482,0.0104523,0.000495911,-9.97986,0.0160217,-0.00747681,0.0342941,0.00865936,0.022049,-0.00782013,0.033989,-0.00320435
32,4,10.0097,0.00244141,0.00167847,-2.42531,0.0611742,-0.0741475,0.054128,0.0706652,-0.0913154,0.146234,-0.124546,-0.0804342,0.0165939,-0.02491,0.0056076,-0.0383759,0.0340652,0.0152969,0.0115967,0,-9.97986,0.0157547,-0.0117111,0.0343323,0.0237656,0.0218964,-0.00656128,0.0299835,-0.00591278
32,5,10.0097,0.000305176,0.00213623,-2.4247,0.0565965,-0.073232,0.0550435,0.0709703,-0.0928413,0.147455,-0.124851,-0.0795187,0.0162506,-0.00644684,0.00499725,-0.0363159,0.0347519,0.0128174,0.0104904,0,-9.97986,0.0161743,-0.00911713,0.0407791,0.0498199,0.0226593,-0.00366211,0.030632,-0.00198364
32,6,10.0097,0.00213623,0.00152588,-2.42592,0.0572069,-0.0741475,0.0547383,0.0654772,-0.0931465,0.147149,-0.124546,-0.0825704,0.0056839,0.0101471,0.0038147,-0.0386047,0.0283051,0.014801,0.0128937,0.00087738,-9.97986,0.0130844,-0.00442505,0.0390244,0.0654984,0.0237274,-0.0088501,0.0284958,-0.00461578
32,7,10.0097,0.00183105,0.000457764,-2.42592,0.0538499,-0.073232,0.054128,0.0380113,-0.0955879,0.147455,-0.127903,-0.0810445,0.0110245,0.0273132,0.00518799,-0.0307846,0.0354004,0.0204468,0.0149155,0.00976563,-9.97986,0.015564,0.0019455,0.041008,0.0811768,0.0283051,-0.0031662,0.0258636,-0.00171661
32,8,7.71413,0.000610352,-0.000305176,-2.42501,0.0569017,-0.0753682,0.0529073,0.0441149,-0.0900947,0.146539,-0.126377,-0.0822652,0.0136566,0.02285,0.0104904,-0.0325012,0.030098,0.0183868,0.0137711,0.00789642,-9.97986,0.0185776,-0.000801086,0.0445938,0.089035,0.0297928,-0.00583649,0.0222778,-0.0012207
32,9,6.68538,0.00183105,-0.000305176,-2.42592,0.055681,-0.075063,0.0544332,0.0557115,-0.0922309,0.146234,-0.126377,-0.0813497,0.00873566,-0.00354767,0.00740051,-0.0313568,0.0315094,0.0133896,0.0112534,0.00888824,-9.97986,0.0159836,0.00301361,0.0373459,0.0912857,0.0268555,-0.00370026,0.0193405,-0.00205994
33,0,6.58071,0.000610352,-0.000305176,-2.42653,0.0517137,-0.0747579,0.0538228,0.0660875,-0.0922309,0.144403,-0.124546,-0.0831808,0.0116348,-0.00892639,0.00686646,-0.0273895,0.0366592,0.0229645,0.0139999,0.0141144,-9.97986,0.0182343,0.00297546,0.0381851,0.0872421,0.0246811,-0.00400543,0.0226212,-0.000152588
33,1,6.99025,-0.000305176,0.000152588,-2.42714,0.0550706,-0.0744527,0.0550435,0.0761583,-0.0858222,0.145624,-0.125461,-0.0834859,0.0136948,-0.0118637,0.00965118,-0.0287247,0.027504,0.0216293,0.0128555,0.0136566,-9.97986,0.0211716,0.00282288,0.0399399,0.0821304,0.0210953,-0.00232697,0.0173187,0.00217438
33,2,9.57112,0.000305176,0.00152588,-2.42806,0.0547655,-0.0753682,0.054128,0.104234,-0.0876533,0.144708,-0.12363,-0.0840963,0.0113297,-0.0062561,0.0170898,-0.0257111,0.0322723,0.0193787,0.0127792,0.0131226,-9.97986,0.0217819,0.0063324,0.0417709,0.0804901,0.0266647,-0.000190735,0.0177002,0.00385284
33,3,10.0097,0.000610352,0.000915527,-2.42928,0.0483568,-0.0759786,0.0519917,0.092943,-0.0946723,0.143487,-0.126072,-0.0865377,0.0101089,0.00171661,0.0209808,-0.0219727,0.032692,0.0155258,0.014267,0.00953674,-9.97986,0.0188065,0.00507355,0.0387573,0.0729752,0.0272369,-0.01297,0.0206757,0.00465393
33,4,10.0097,0.000305176,-0.000305176,-2.42959,0.0526292,-0.0753682,0.0519917,0.077379,-0.094062,0.144098,-0.126682,-0.0865377,0.0124359,0.00778198,0.0302505,-0.0191116,0.0238419,0.0189209,0.0159454,0.0170517,-9.97986,0.02285,0.00785828,0.0408554,0.0666046,0.0263596,-0.0131607,0.0215149,0.00526428
33,5,10.0097,0.00183105,-0.000915527,-2.42928,0.0538499,-0.0771993,0.0529073,0.0724962,-0.0946723,0.143792,-0.126987,-0.0877584,0.0151062,0.0115585,0.0237274,-0.0228119,0.0265503,0.0196075,0.0113678,0.0139236,-9.97986,0.013504,0.0109482,0.0345993,0.0498581,0.0261307,-0.0165176,0.0188446,0.00988007
33,6,10.0097,0.000915527,-0.00106812,-2.42989,0.0547655,-0.0756734,0.0526021,0.07036,-0.0943672,0.144403,-0.126682,-0.0868429,0.0126648,0.0131607,0.0308609,-0.0198364,0.0274277,0.0197983,0.0168228,0.0178528,-9.97986,0.0174332,0.0149918,0.0390625,0.0441742,0.0258255,-0.0121689,0.0232697,0.0118637
33,7,10.0097,-0.000305176,-0.00183105,-2.42928,0.0538499,-0.0762837,0.0526021,0.0682238,-0.0900947,0.143792,-0.127903,-0.0871481,0.014534,0.0164032,0.0350571,-0.0160217,0.0241852,0.016861,0.0187683,0.0102234,-9.97986,0.0137329,0.0175858,0.037117,0.0344849,0.029335,-0.00785828,0.022583,0.0139618
33,8,10.0097,0.0012207,-0.00137329,-2.42806,0.0541551,-0.0747579,0.0522969,0.0694445,-0.0937568,0.145013,-0.126377,-0.0859274,0.0117493,0.0210571,0.0366592,-0.0165558,0.0186539,0.0182343,0.0167465,0.0130081,-9.97986,0.0139236,0.0222015,0.0383377,0.0180435,0.0257111,-0.00587463,0.0229263,0.0152206
33,9,10.0097,0,-0.00152588,-2.42745,0.0565965,-0.0756734,0.0538228,0.0691393,-0.0946723,0.143792,-0.126377,-0.0859274,0.0125122,0.020752,0.0341797,-0.0183105,0.016861,0.0211716,0.0124741,0.0154877,-9.97986,0.0129318,0.0188446,0.0361633,0.00400543,0.0278091,-0.00717163,0.0223541,0.0171661
34,0,10.0097,-0.000915527,-0.00152588,-2.42684,0.055681,-0.0756734,0.0526021,0.0694445,-0.0934516,0.144708,-0.125766,-0.0847066,0.0127792,0.0276947,0.0372696,-0.0113678,0.0156021,0.0248718,0.0164032,0.0146103,-9.97986,0.0134277,0.00709534,0.0395966,-0.00839233,0.0236893,-0.00804901,0.0190353,0.0162506
34,1,10.0097,-0.00152588,-0.000457764,-2.42623,0.0553758,-0.0759786,0.0529073,0.0691393,-0.0931465,0.144098,-0.125461,-0.0834859,0.0159454,0.0279617,0.0378799,-0.00946045,0.0133896,0.0225067,0.0154114,0.0178146,-9.97986,0.00907898,0.00537872,0.0373077,-0.0202179,0.0265503,-0.00858307,0.0229263,0.0158691
34,2,10.0097,0.0012207,-0.000457764,-2.42562,0.0532396,-0.0738423,0.054128,0.0715807,-0.0928413,0.147455,-0.124546,-0.0816549,0.0105667,0.0287247,0.0367355,-0.00713348,0.0160599,0.0227356,0.0121307,0.017395,-9.97986,0.00846863,0.0082016,0.0382996,-0.0289154,0.0250626,-0.0131989,0.0243759,0.0163651
34,3,10.0097,0.000610352,-0.000762939,-2.42379,0.0569017,-0.0741475,0.0550435,0.0712755,-0.0974189,0.146844,-0.124546,-0.0825704,0.0141144,0.026741,0.0385666,-0.00778198,0.0110245,0.0233841,0.0132751,0.0158691,-9.97986,0.00976563,0.00427246,0.0384521,-0.0407028,0.0288773,-0.0183105,0.0218582,0.0177383
34,4,10.0097,-0.000305176,-0.00167847,-2.42196,0.0562914,-0.073232,0.0553487,0.0709703,-0.0919257,0.145929,-0.125461,-0.0816549,0.00961304,0.0292969,0.0382614,-0.00865936,0.0111771,0.0244522,0.0168228,0.019989,-9.97986,0.00873566,0.00816345,0.031929,-0.0640869,0.0286865,-0.0218964,0.0165176,0.0141525
34,5,10.0097,0.0012207,-0.000610352,-2.42562,0.0575121,-0.0753682,0.0532125,0.0700548,-0.0922309,0.146234,-0.124241,-0.0816549,0.0110245,0.0306702,0.0413895,-0.00419617,0.01194,0.0282669,0.0152206,0.0193787,-9.97986,0.00705719,0.00682831,0.0283813,-0.0772858,0.0289536,-0.0191498,0.0167465,0.0128937
34,6,10.0097,-0.000610352,-0.000915527,-2.42562,0.0569017,-0.073232,0.0535176,0.0648668,-0.0937568,0.146539,-0.124851,-0.0831808,0.0118256,0.0347137,0.0375366,-0.00263214,0.00732422,0.0259018,0.0134277,0.0228882,-9.97986,0.0113678,0.00564575,0.0166702,-0.0855637,0.0312042,-0.0212479,0.0112534,0.0139618
34,7,10.0097,-0.000610352,-0.00213623,-2.42318,0.0559862,-0.0738423,0.0532125,0.0377062,-0.0946723,0.146539,-0.125766,-0.0819601,0.00789642,0.0370789,0.0390625,-0.00141144,0.0107956,0.027504,0.0194168,0.0255966,-9.97986,0.010643,0.00709534,0.0130844,-0.0902557,0.030365,-0.0194168,0.00843048,0.0149155
34,8,7.75228,0.0012207,-0.00167847,-2.42714,0.0578172,-0.0744527,0.0544332,0.0407579,-0.0925361,0.146844,-0.126072,-0.0822652,0.00869751,0.0340271,0.0376892,3.8147e-005,0.00362396,0.0320816,0.0136185,0.0196457,-9.97986,0.00930786,0.00644684,0.00865936,-0.0893784,0.0273132,-0.0182724,0.00396729,0.0172806
34,9,6.66188,-0.000305176,-0.000457764,-2.42501,0.0550706,-0.0747579,0.054128,0.0584581,-0.0891792,0.145318,-0.126377,-0.0844015,0.0128937,0.0385284,0.0396347,-0.000343323,0.00587463,0.03479,0.0169754,0.0213242,-9.97986,0.0127029,0.00480652,0.00980377,-0.0878906,0.0284576,-0.0163269,0.00270844,0.0177383
35,0,6.57765,0,-0.000305176,-2.42623,0.0553758,-0.075063,0.0547383,0.0654772,-0.0919257,0.146234,-0.126072,-0.0837911,0.0137711,0.0356674,0.0366592,0.00175476,0.00461578,0.0375748,0.0172424,0.019989,-9.97986,0.0143433,0.00846863,0.00782013,-0.0904083,0.0292587,-0.0121689,0.00576019,0.0167847
35,1,6.99819,0.000305176,0.000152588,-2.42592,0.0550706,-0.0741475,0.0535176,0.0752428,-0.0919257,0.144403,-0.124546,-0.0831808,0.0174713,0.0357056,0.0384903,0.00423431,-0.00228882,0.0456238,0.0123596,0.0254822,-9.97986,0.0151062,0.00759125,0.000114441,-0.0967789,0.0311279,-0.00804901,0.011673,0.0221634
35,2,9.55495,0.000305176,0.00106812,-2.42714,0.0535448,-0.0762837,0.0550435,0.103929,-0.0891792,0.145013,-0.125461,-0.0840963,0.01297,0.038147,0.0373459,0.00537872,0.00228882,0.0512695,0.0136566,0.0237656,-9.97986,0.0122452,0.00358582,-0.00175476,-0.105247,0.0281906,-0.00526428,0.0187683,0.0157928
35,3,10.0097,0.00244141,0.0012207,-2.4302,0.0544603,-0.0747579,0.0526021,0.0932482,-0.0937568,0.143792,-0.125766,-0.0859274,0.0133514,0.0350189,0.0338364,-0.00038147,0.001297,0.0601578,0.0177002,0.0225067,-9.97986,0.0127029,0.00335693,-0.00621796,-0.114937,0.0288773,-0.00267029,0.0236511,0.0191116
35,4,10.0097,0.0012207,-0.000457764,-2.42837,0.050493,-0.0756734,0.0513814,0.0798204,-0.0955879,0.143792,-0.124851,-0.0871481,0.0118637,0.0351715,0.0356293,0.00705719,0.00389099,0.0684357,0.0130463,0.0274277,-9.97986,0.013237,0.0044632,-0.0050354,-0.122719,0.0285339,-0.00827789,0.0255203,0.0161743
35,5,10.0097,0,-0.000762939,-2.42928,0.0538499,-0.0765889,0.0516866,0.0712755,-0.0986396,0.144098,-0.126682,-0.0874532,0.0134659,0.034523,0.0336838,0.00923157,0.00686646,0.0722885,0.0124741,0.0297546,-9.97986,0.0142288,0.00339508,-0.0115204,-0.13279,0.0237274,-0.0030899,0.0221252,0.0131989
35,6,10.0097,0.000305176,-0.000305176,-2.42745,0.0538499,-0.0753682,0.0513814,0.0691393,-0.094062,0.143792,-0.128208,-0.0871481,0.0143433,0.0321198,0.0378418,0.00583649,0.00614166,0.0787354,0.0147629,0.0253677,-9.97986,0.0123215,0.00953674,-0.0237656,-0.132446,0.0266266,0.00347137,0.0305557,0.0156784
35,7,10.0097,0.0012207,-0.0012207,-2.42959,0.0535448,-0.0759786,0.050771,0.0691393,-0.095893,0.142572,-0.128208,-0.0871481,0.0146866,0.0280762,0.0324631,0.00862122,0.0110245,0.0766373,0.0162125,0.0270081,-9.97986,0.0120544,0.00347137,-0.0281525,-0.141144,0.0252914,0.0127792,0.0284576,0.0148773
35,8,10.0097,0.000915527,-0.000915527,-2.42867,0.0541551,-0.0756734,0.0532125,0.0697496,-0.0943672,0.145624,-0.126987,-0.0871481,0.0123978,0.0360489,0.0411987,0.0144577,0.0163651,0.0853348,0.0185394,0.0284195,-9.97986,0.0118256,0.00869751,-0.0251389,-0.13958,0.0271606,0.0165939,0.0274658,0.0144958
35,9,10.0097,0.0012207,-0.000152588,-2.42867,0.0535448,-0.0747579,0.0529073,0.0694445,-0.0919257,0.145013,-0.125766,-0.0834859,0.00297546,0.0363159,0.0362778,0.00858307,0.0181961,0.0818634,0.0191879,0.0304031,-9.97986,0.0087738,0.00816345,-0.0217819,-0.130119,0.0253677,0.0193787,0.029068,0.0166702
36,0,10.0097,-0.000610352,0.000457764,-2.42745,0.0569017,-0.0756734,0.0529073,0.0737169,-0.0943672,0.145929,-0.125156,-0.0844015,-0.00377655,0.0309372,0.0349426,0.0116348,0.0126648,0.0876999,0.0209427,0.0285339,-9.97986,0.00591278,0.00244141,-0.0211334,-0.128174,0.0248337,0.0181198,0.0296402,0.0153732
36,1,10.0097,0.000305176,0.0012207,-2.42745,0.0538499,-0.0747579,0.0544332,0.0709703,-0.0928413,0.144708,-0.125766,-0.0831808,0.000267029,0.0319672,0.0318146,0.0117493,0.0144958,0.0894547,0.0213242,0.0285339,-9.97986,0.00968933,0.0050354,-0.0171661,-0.108871,0.0289917,0.0239944,0.0285339,0.016861
36,2,10.0097,0,0.00228882,-2.42531,0.0572069,-0.0735371,0.054128,0.0715807,-0.0922309,0.146844,-0.123935,-0.0813497,0.0134659,0.0346375,0.0358963,0.0138092,0.0156021,0.0910187,0.0218201,0.0327682,-9.97986,0.0110626,0.00831604,-0.00812531,-0.0927353,0.0259018,0.0218201,0.0347137,0.0196457
36,3,10.0097,0.00152588,0.00167847,-2.42623,0.0569017,-0.0729268,0.0556539,0.075548,-0.0922309,0.146234,-0.124241,-0.0813497,0.0238037,0.033226,0.0310135,0.0202942,0.0201035,0.0923157,0.0289154,0.0401688,-9.97986,0.0176239,0.00740051,0.0075531,-0.0739288,0.0312042,0.030632,0.0464249,0.0300598
36,4,10.0097,0.0485229,0.00137329,-2.42501,0.0578172,-0.0735371,0.0547383,0.0712755,-0.0913154,0.162408,-0.123935,-0.0816549,0.0273132,0.0255966,0.0298309,0.00789642,0.0101471,0.0809479,0.0196838,0.0261307,-9.97986,0.00919342,0.0018692,0.00480652,-0.0603104,0.022583,0.0251007,0.0434494,0.0180435
36,5,10.0097,0.00366211,0.00167847,-2.42379,0.0562914,-0.0741475,0.0547383,0.0715807,-0.0922309,0.153558,-0.125156,-0.0804342,0.0307083,0.0367355,0.0306702,0.0201035,0.021286,0.0867462,0.0296783,0.0320816,-9.97986,0.0178146,0.00701904,0.0156403,-0.0308609,0.0331497,0.0353241,0.0584793,0.030899
36,6,10.0097,0.00335693,0.00137329,-2.42684,0.0562914,-0.0741475,0.0553487,0.0636461,-0.0922309,0.148675,-0.124241,-0.0798238,0.0275803,0.0311661,0.033493,0.0187683,0.0175095,0.0820923,0.0241089,0.02491,-9.97986,0.0113678,0.00720978,0.0241852,-0.0116348,0.0297165,0.0354385,0.0556946,0.0266647
36,7,10.0097,0,0.000762939,-2.42592,0.0569017,-0.0735371,0.0529073,0.0367906,-0.094062,0.14776,-0.126072,-0.0813497,0.0323486,0.0295639,0.0307083,0.0166702,0.0117874,0.0836563,0.0272751,0.0294876,-9.97986,0.01194,0.00801086,0.0229645,0.0128555,0.0305176,0.0327682,0.0587082,0.027504
36,8,7.62624,0.000610352,0.00137329,-2.42653,0.0569017,-0.0747579,0.0544332,0.0435045,-0.0931465,0.147149,-0.125766,-0.080129,0.0209045,0.0350571,0.0270844,0.0235367,0.0133133,0.0796509,0.027771,0.0256729,-9.97986,0.0183487,0.00705719,0.0346756,0.0336075,0.0292206,0.0230408,0.0595093,0.0244141
36,9,6.5511,0.0012207,0.000762939,-2.42592,0.0553758,-0.075063,0.0553487,0.0554064,-0.0928413,0.145929,-0.125461,-0.0819601,0.00946045,0.0298309,0.0283051,0.0166702,0.0144577,0.0789261,0.0273132,0.0222778,-9.97986,0.0219727,0.00404358,0.0443649,0.0645828,0.0265121,0.020256,0.0590897,0.0263214
37,0,6.43514,0,0.00228882,-2.42592,0.0559862,-0.0747579,0.0535176,0.0648668,-0.0919257,0.146234,-0.125156,-0.0816549,0.00511169,0.0315857,0.0325394,0.0205231,0.0196838,0.0803375,0.0321198,0.0183868,-9.97986,0.0241852,0.00453949,0.0576019,0.0843811,0.0310898,0.0168991,0.0602722,0.0295258
37,1,6.80745,-0.000305176,0.00228882,-2.42745,0.0544603,-0.0747579,0.0547383,0.0761583,-0.0916206,0.145929,-0.126682,-0.0825704,0.00408173,0.0306702,0.0249863,0.0188065,0.0161743,0.0751495,0.0284958,0.0181198,-9.97986,0.0138474,0.00366211,0.0656509,0.0981903,0.0274658,0.0112534,0.0650787,0.034523
37,2,9.44814,0.00274658,0.00335693,-2.42684,0.0529344,-0.0756734,0.054128,0.104845,-0.0903999,0.144403,-0.124546,-0.0844015,0.00343323,0.0317383,0.0299072,0.0197983,0.0149536,0.072403,0.031662,0.0270081,-9.97986,0.0075531,0.00324249,0.081749,0.123558,0.0261307,0.0109482,0.0661469,0.0372314
37,3,10.0097,-0.0012207,0.00411987,-2.42867,0.0520189,-0.0765889,0.0535176,0.094774,-0.0965034,0.143792,-0.125156,-0.085317,-0.00331879,0.0246429,0.0313187,0.0178528,0.0106049,0.0691223,0.0298691,0.0235748,-9.97986,0.00232697,0.00282288,0.0852585,0.139885,0.0300217,0.0104523,0.0669479,0.0392532
37,4,10.0097,0.000610352,0.00213623,-2.42867,0.0541551,-0.075063,0.0526021,0.0782946,-0.0943672,0.143487,-0.126072,-0.0865377,-0.0012207,0.0291061,0.0310898,0.0188065,0.01297,0.0696564,0.0276566,0.0283051,-9.97986,0.0115967,0.00263214,0.0908279,0.159569,0.0291824,0.0115967,0.0688553,0.0376892
37,5,10.0097,0.000915527,0.00167847,-2.42898,0.0532396,-0.0762837,0.0519917,0.0706652,-0.0955879,0.144403,-0.126987,-0.0871481,0.00232697,0.0285721,0.0299454,0.0191879,0.0114822,0.0701904,0.0299072,0.0270844,-9.97986,0.00988007,0.00217438,0.0938416,0.163612,0.0323868,0.00995636,0.0715256,0.0432205
37,6,10.0097,0.000610352,0.000610352,-2.42867,0.0544603,-0.0756734,0.050771,0.0688341,-0.0965034,0.144098,-0.126987,-0.0871481,-0.00133514,0.0271225,0.0277328,0.0176239,0.0141144,0.0624084,0.0317383,0.0263596,-9.97986,0.00823975,-0.000534058,0.0960541,0.171928,0.0314713,0.0106049,0.056839,0.0465012
37,7,10.0097,0.000305176,0.000610352,-2.42959,0.0535448,-0.0753682,0.0526021,0.0691393,-0.0946723,0.144098,-0.127598,-0.0874532,0.00114441,0.0320435,0.0261688,0.0174713,0.0125885,0.0592422,0.0245667,0.0253677,-9.97986,0.00617981,0.00591278,0.0935364,0.172272,0.0273895,0.00846863,0.0554657,0.0470352
37,8,10.0097,0.00152588,0.000457764,-2.42837,0.0541551,-0.0759786,0.0526021,0.0688341,-0.0943672,0.144708,-0.126682,-0.0859274,0.00461578,0.0270462,0.0258636,0.021019,0.0112534,0.0529099,0.0303268,0.0222015,-9.97986,-0.00305176,0.00583649,0.0950241,0.180016,0.0339508,0.00377655,0.0439453,0.0429535
37,9,10.0097,0.000610352,0.000762939,-2.42837,0.0544603,-0.0756734,0.054128,0.07036,-0.0928413,0.142877,-0.126377,-0.0840963,0.0204468,0.0261688,0.0257492,0.0230408,0.0117874,0.0434494,0.0283051,0.0233459,-9.97986,-0.00465393,0.00411987,0.100212,0.178108,0.0346375,-0.000457764,0.0404739,0.0350571
38,0,10.0097,0.000915527,-0.000762939,-2.42684,0.0544603,-0.0747579,0.0529073,0.0697496,-0.0937568,0.144403,-0.125156,-0.0844015,0.0164032,0.0276947,0.02388,0.019989,0.0107574,0.0373459,0.0270844,0.02388,-9.97986,7.62939e-005,0.00637054,0.106812,0.167122,0.0350189,-0.0019455,0.0320816,0.0310898
38,1,10.0097,0.000610352,-0.000457764,-2.42745,0.0565965,-0.0759786,0.0535176,0.07036,-0.0937568,0.144403,-0.124241,-0.0837911,0.0101089,0.0244141,0.0217819,0.0219727,0.0152206,0.0334167,0.0331879,0.0261307,-9.97986,0.00968933,0.0106049,0.109291,0.159035,0.0343704,-0.00339508,0.0283051,0.0271606
38,2,10.0097,0.0012207,-0.000610352,-2.42531,0.0562914,-0.0735371,0.054128,0.07036,-0.0925361,0.146234,-0.12363,-0.0828756,0.00564575,0.0273514,0.0208664,0.0202942,0.0165176,0.0236893,0.033226,0.0292587,-9.97986,0.00827789,0.00770569,0.110321,0.144081,0.0361252,-0.00980377,0.0248337,0.0246048
38,3,10.0097,-0.0012207,-0.0012207,-2.42501,0.0569017,-0.0741475,0.0544332,0.07036,-0.0897895,0.147149,-0.12363,-0.0816549,-0.00110626,0.0200653,0.017128,0.0239563,0.0181198,0.0242233,0.0318146,0.0344849,-9.97986,-0.0108337,0.00473022,0.105591,0.131493,0.0347137,-0.0044632,0.015831,0.0257874
38,4,10.0097,0.0012207,-0.000915527,-2.4244,0.0559862,-0.0741475,0.0544332,0.0697496,-0.0916206,0.146234,-0.124851,-0.0819601,-0.0144577,0.0202942,0.0115585,0.0197601,0.0178528,0.0188828,0.0318527,0.0380325,-9.97986,-0.0189209,0.00614166,0.105858,0.121307,0.0349808,-0.011673,0.0170517,0.0218582
38,5,10.0097,-0.000305176,-0.00183105,-2.42562,0.0572069,-0.073232,0.0550435,0.07036,-0.094062,0.146844,-0.124546,-0.0816549,-0.0655365,0.0136185,0.013237,0.0173187,0.014534,0.0130463,0.0281906,0.0450897,-9.97986,-0.0269318,0.00972748,0.0969315,0.115852,0.0323486,-0.0190735,0.0180817,0.0182343
38,6,10.0097,-0.000305176,-0.000457764,-2.42623,0.055681,-0.0741475,0.0538228,0.0648668,-0.0943672,0.146844,-0.124851,-0.0813497,-0.0664902,0.014534,0.0128937,0.0193787,0.020256,0.00961304,0.0304794,0.0416946,-9.97986,-0.0230789,0.0148392,0.0933075,0.111847,0.0338364,-0.0167847,0.0233459,0.0202179
38,7,10.0097,0.000305176,-0.00289917,-2.42653,0.0569017,-0.0735371,0.0535176,0.0358751,-0.0943672,0.147149,-0.127292,-0.0822652,-0.0457382,0.0155258,0.0141144,0.0197601,0.0166702,-0.00213623,0.0315857,0.0392151,-9.97986,-0.0310516,0.022316,0.0845337,0.0982285,0.0336838,-0.0172424,0.0218201,0.0188828
38,8,7.61281,-0.0012207,-0.00198364,-2.42562,0.0565965,-0.0723164,0.054128,0.0438097,-0.0928413,0.146539,-0.126072,-0.0816549,-0.0410843,0.0179291,0.0167465,0.015831,0.0190353,-0.0155258,0.0360107,0.0397491,-9.97986,-0.0479507,0.0174713,0.0799942,0.0816727,0.0310898,-0.0139236,0.0265121,0.0181961
38,9,6.62404,-0.00152588,-0.00213623,-2.42623,0.0559862,-0.0738423,0.0556539,0.0563219,-0.0916206,0.146234,-0.125156,-0.0831808,-0.0114822,0.0189972,0.0194168,0.0149536,0.0192261,-0.031662,0.0356293,0.0366592,-9.97986,-0.0643158,0.0150299,0.074234,0.0624084,0.0297928,-0.000343323,0.028801,0.0198364
39,0,6.50655,-0.00152588,-0.00183105,-2.42592,0.0547655,-0.075063,0.0532125,0.0645616,-0.0916206,0.145318,-0.125461,-0.0828756,0.0056839,0.0208664,0.0147247,0.0204086,0.0224686,-0.0484085,0.0354767,0.0257874,-9.97986,-0.0550079,0.017395,0.0647736,0.0451279,0.0271988,0.0160217,0.0265503,0.0226593
39,1,6.9341,0.000610352,-0.0012207,-2.42653,0.0547655,-0.075063,0.054128,0.077379,-0.0897895,0.146844,-0.124241,-0.0831808,0.0251007,0.0216675,0.0220108,0.0242615,0.0232697,-0.0481796,0.0360489,0.0327682,-9.97986,-0.0233078,0.0204849,0.0627136,0.0233841,0.0281525,0.0177002,0.0274658,0.0157547
39,2,9.55739,0.00213623,-0.000762939,-2.42745,0.0535448,-0.0756734,0.0538228,0.106066,-0.0897895,0.145318,-0.123325,-0.0844015,0.0528717,0.0249863,0.0240707,0.0191498,0.0252533,-0.0580597,0.0407028,0.0358582,-9.97986,0.0111771,0.0152588,0.0525284,-0.00667572,0.0253677,0.0197601,0.0284958,0.021019
39,3,10.0097,0.000610352,-0.000610352,-2.42989,0.0544603,-0.0753682,0.0513814,0.0941637,-0.0946723,0.144708,-0.125461,-0.0874532,0.0511169,0.0243759,0.0240326,0.0231934,0.0247955,-0.0648117,0.0362015,0.0328445,-9.97986,0.0302505,0.0167847,0.0386429,-0.0335693,0.0232315,0.0110626,0.0305176,0.0196457
39,4,10.0097,0.000610352,-0.0012207,-2.42928,0.0535448,-0.0762837,0.0513814,0.0776842,-0.0934516,0.143792,-0.126377,-0.0871481,0.0524902,0.0276184,0.0265884,0.0225449,0.0280762,-0.0680923,0.0396347,0.0257111,-9.97986,0.0289154,0.0162506,0.0311661,-0.0466919,0.0231552,0.00400543,0.0376129,0.0264359
39,5,10.0097,0.000915527,-0.00106812,-2.42959,0.0544603,-0.0756734,0.0513814,0.0718859,-0.0946723,0.142572,-0.127292,-0.0868429,0.0674438,0.0318909,0.0221634,0.0195694,0.0270462,-0.0719833,0.0383377,0.015831,-9.97986,0.0374222,0.0114822,0.0224304,-0.0558472,0.0165558,0.00236511,0.0426865,0.0299835
39,6,10.0097,-0.000305176,-0.000610352,-2.42867,0.0535448,-0.0771993,0.0529073,0.0706652,-0.0955879,0.143792,-0.127598,-0.0874532,0.0511551,0.0279617,0.0228882,0.0217438,0.033226,-0.0736237,0.0408936,0.0134277,-9.97986,0.0565338,0.01091,0.00892639,-0.0625229,0.0170517,0.00598907,0.0493622,0.0284576
39,7,10.0097,0.000305176,-0.000915527,-2.42898,0.0538499,-0.0771993,0.0516866,0.0697496,-0.094062,0.144098,-0.127903,-0.0874532,0.0720978,0.0258255,0.0267792,0.0199509,0.0337601,-0.0735474,0.0439835,0.0138092,-9.97986,0.0556564,0.0102234,-0.0101852,-0.0719833,0.0166321,0.00671387,0.0543213,0.0385284
39,8,10.0097,0.000305176,-0.00137329,-2.42806,0.0550706,-0.0747579,0.0526021,0.0691393,-0.0928413,0.145318,-0.126682,-0.0859274,0.0865555,0.0273132,0.0206375,0.0257111,0.0300217,-0.0735855,0.0403214,0.01297,-9.97986,0.0429535,0.00495911,-0.0260544,-0.0761414,0.014267,0.0126648,0.0585556,0.043602
39,9,10.0097,0.000305176,-0.00137329,-2.42714,0.0538499,-0.075063,0.0538228,0.0679186,-0.0946723,0.144403,-0.126072,-0.0856222,0.0466156,0.02285,0.0172043,0.0213242,0.0330353,-0.0778198,0.0416565,0.013504,-9.97986,0.0252533,0.00968933,-0.0383377,-0.0892258,0.00751495,0.0216675,0.0556183,0.0484085
40,0,10.0097,-0.000305176,-0.00152588,-2.42684,0.0544603,-0.075063,0.0516866,0.0694445,-0.0925361,0.144708,-0.126682,-0.0850118,-0.00289917,0.0181198,0.0152969,0.0219345,0.030098,-0.0751877,0.0421143,0.0171661,-9.97986,0.0160217,0.0094986,-0.0537109,-0.104637,0.00751495,0.0215149,0.0569916,0.0563812
40,1,10.0097,0.00152588,-0.00106812,-2.42684,0.0544603,-0.0744527,0.0532125,0.0715807,-0.0937568,0.146844,-0.125766,-0.0834859,0.00354767,0.0126266,0.0069809,0.0179291,0.03685,-0.0773621,0.0440598,0.0250244,-9.97986,0.0450516,0.00789642,-0.0639343,-0.117149,0.0125122,0.0131607,0.0613022,0.063858
40,2,10.0097,-0.000915527,-0.000305176,-2.4247,0.0562914,-0.0738423,0.0544332,0.0718859,-0.090705,0.147149,-0.125156,-0.0816549,0.0378418,0.00915527,0.00457764,0.0167847,0.0360489,-0.0751877,0.0430298,0.028038,-9.97986,0.0730133,0.00953674,-0.0762558,-0.125847,0.0101471,0.00907898,0.0606918,0.0716782
40,3,10.0097,0.000915527,-0.000457764,-2.42592,0.0559862,-0.0738423,0.0532125,0.0728014,-0.0931465,0.147455,-0.123935,-0.0822652,0.0399017,0.0131226,0.00743866,0.0201797,0.0334549,-0.0775146,0.0414276,0.0301743,-9.97986,0.0717545,0.00587463,-0.084343,-0.129471,0.00888824,0.00671387,0.0575638,0.0794601
40,4,10.0097,0.000305176,-0.000915527,-2.4244,0.0565965,-0.0735371,0.0550435,0.0709703,-0.0925361,0.145624,-0.123935,-0.0816549,0.0272369,0.0121689,0.00221252,0.0166702,0.0337601,-0.0741577,0.0419998,0.0315094,-9.97986,0.0680161,0.00713348,-0.0952148,-0.141106,0.00526428,0.0031662,0.0505066,0.086441
40,5,10.0097,0,-0.00137329,-2.4244,0.0550706,-0.0735371,0.0535176,0.0706652,-0.0913154,0.147455,-0.12363,-0.0819601,0.00797272,0.00850677,0.00339508,0.0167847,0.0353241,-0.0754166,0.0392151,0.0285339,-9.97986,0.0707626,0.00923157,-0.0940704,-0.154228,0.0056076,0.00808716,0.0510406,0.0932693
