
Devices
1200
,,BP Load cell - Voltage,String Length - Voltage,Clutch Active - Voltage,#7 iPecs - Voltage,,,,,,,,,EMG 1-8 Left - Voltage,,,,,,,,Pylon Force - Voltage,EMG 9-16 Right - Voltage,,,,,,,,
Frame,Sub Frame,BP Load Cell,String Length,From Arduino Logic,A45,A135,A225,A315,S0,S90,S180,S270,ZSum,EMG 1 Glut Max,EMG 2 Glut Med,EMG 3 Biceps Femoris Long,EMG 4 Rectus Femoris,EMG 5 Vastus Medialis,EMG 6 Tib Ant,EMG 7 Med Gas,EMG 8 Soleus,Pylon volts,EMG 9 Glut Max,EMG 10 Glut Med,EMG 11 Biceps Femoris Long,EMG 12 Rectus Femoris,EMG 13 Vastus Medialis,EMG 14 Tib Ant,EMG 15 Med Gas,EMG 16 Soleus
,,V,V,V,V,V,V,V,V,V,V,V,V,V,V,V,V,V,V,V,V,V,V,V,V,V,V,V,V,V
1,0,10.0097,0.000305176,0.00305176,-2.42745,0.0541551,-0.0759786,0.0532125,0.0697496,-0.0931465,0.145318,-0.126072,-0.0837911,0.0164032,0.0226974,0.0217438,0.00926971,0.0527954,0.045433,-0.0396729,0.0318909,-9.97986,0.00808716,-0.0025177,-0.0548935,0.0259781,0.0559235,-0.0281906,0.00312805,0.0837326
1,1,10.0097,0.000305176,0.00274658,-2.42531,0.0569017,-0.0735371,0.0544332,0.0706652,-0.0919257,0.146539,-0.12302,-0.0819601,0.0114441,0.0236511,0.0252914,0.0126266,0.0470352,0.0613022,-0.0373077,0.0257111,-9.97986,0.00923157,0.00610352,-0.0611115,0.0469971,0.0605392,-0.0278854,0.000610352,0.0862885
1,2,10.0097,0.0012207,0.00228882,-2.42653,0.0562914,-0.0738423,0.0544332,0.072191,-0.0916206,0.144403,-0.123935,-0.080129,0.0152206,0.0253677,0.0266647,0.00850677,0.0474167,0.0782394,-0.0387955,0.0297928,-9.97986,0.00980377,0.00804901,-0.0659561,0.0733185,0.0614929,-0.0302124,0.00297546,0.0862122
1,3,10.0097,0.00152588,0.00274658,-2.42562,0.0575121,-0.0744527,0.054128,0.0706652,-0.0919257,0.147455,-0.12363,-0.0807394,0.0153351,0.0307465,0.0267029,0.0139618,0.0500488,0.0994492,-0.0382614,0.0269318,-9.97986,0.0140762,-0.00442505,-0.0636292,0.108643,0.0601196,-0.0268555,-0.00259399,0.0936508
1,4,10.0097,-0.000305176,0.00274658,-2.42592,0.0559862,-0.0726216,0.0550435,0.0706652,-0.090705,0.146234,-0.124546,-0.0804342,0.00751495,0.0283051,0.0238419,0.00934601,0.0450134,0.119476,-0.0372314,0.031662,-9.97986,0.019722,-0.00797272,-0.0630188,0.134697,0.0537491,-0.0263596,0.00221252,0.0925446
1,5,10.0097,0.000915527,0.00305176,-2.4247,0.0565965,-0.0741475,0.055959,0.07036,-0.0925361,0.147149,-0.12363,-0.0795187,0.00717163,0.0309753,0.0259399,0.0109482,0.0438309,0.131264,-0.0290298,0.0288773,-9.97986,0.0215149,-0.0167084,-0.0574112,0.159187,0.0598907,-0.0249481,0.000686646,0.0959396
1,6,10.0097,-0.000610352,0.00244141,-2.42531,0.0562914,-0.0741475,0.0532125,0.0608995,-0.0922309,0.146844,-0.125766,-0.0798238,0.00717163,0.0275803,0.0252914,0.010643,0.0417709,0.149727,-0.0323486,0.0265884,-9.97986,0.0269318,-0.0211334,-0.0532532,0.181351,0.0611877,-0.0352859,0.000267029,0.100327
1,7,10.0097,0.0012207,0.00213623,-2.42745,0.0565965,-0.0744527,0.0538228,0.0532701,-0.0928413,0.147149,-0.126377,-0.080129,0.0018692,0.032196,0.0230026,0.00972748,0.0400925,0.157852,-0.0302887,0.0297546,-9.97986,0.026207,-0.0196838,-0.0461578,0.210609,0.0620651,-0.0348663,-0.00339508,0.0969696
1,8,9.96388,0.00183105,0.00183105,-2.42562,0.0562914,-0.0741475,0.0556539,0.058153,-0.0925361,0.145318,-0.125461,-0.0813497,-0.0122833,0.0280762,0.0243378,0.0125122,0.0427628,0.168076,-0.0383759,0.0335312,-9.97986,0.0201797,-0.0198746,-0.0328827,0.234222,0.0572968,-0.0374603,-0.00331879,0.0899506
1,9,9.959,0.000915527,0.00244141,-2.42714,0.0553758,-0.0735371,0.0535176,0.0654772,-0.0922309,0.144708,-0.125766,-0.0825704,-0.0193405,0.0252914,0.0254822,0.00926971,0.0396729,0.170059,-0.0318146,0.0317383,-9.97986,0.0197983,-0.0179672,-0.0210571,0.256805,0.0563812,-0.0381088,-0.0062561,0.0869751
2,0,10.0097,-0.0012207,0.00167847,-2.42714,0.0553758,-0.0747579,0.0550435,0.075548,-0.0922309,0.145929,-0.125156,-0.0819601,-0.0274658,0.032196,0.0268173,0.00328064,0.0370407,0.169449,-0.0257874,0.0329971,-9.97986,0.0173187,-0.0223541,-0.00804901,0.271301,0.055275,-0.0337601,-0.00492096,0.0823593
2,1,10.0097,0.00183105,0.00259399,-2.42776,0.0550706,-0.0744527,0.054128,0.0953844,-0.0913154,0.145013,-0.12363,-0.0840963,-0.00823975,0.0343704,0.0294113,0.00926971,0.0391769,0.170364,-0.0276566,0.0275421,-9.97986,0.00854492,-0.0173569,0.00835419,0.283318,0.0524902,-0.0310898,-0.00217438,0.0694275
2,2,10.0097,0.00183105,0.00198364,-2.42898,0.0538499,-0.0768941,0.0526021,0.0782946,-0.0955879,0.142877,-0.126682,-0.085317,0.00526428,0.0329208,0.0252151,0.00988007,0.0391006,0.172653,-0.0283051,0.0242233,-9.97986,0.00862122,-0.0150681,0.0193024,0.300827,0.0484085,-0.0254822,-0.00644684,0.0675201
2,3,10.0097,0.000610352,0.00274658,-2.42959,0.0538499,-0.0753682,0.0522969,0.072191,-0.0952827,0.143792,-0.126987,-0.0865377,0.0188446,0.0312805,0.0246048,0.00873566,0.0485229,0.168915,-0.025177,0.0244904,-9.97986,0.0018692,-0.0193405,0.0312042,0.315285,0.0484848,-0.0178528,-0.00389099,0.0601578
2,4,10.0097,-0.000610352,0.00167847,-2.42898,0.0547655,-0.0747579,0.0529073,0.0706652,-0.0949775,0.143487,-0.127903,-0.0865377,0.0235748,0.0320435,0.0247192,0.00862122,0.0615692,0.166321,-0.0206757,0.0254059,-9.97986,0.000114441,-0.0196075,0.0407791,0.327301,0.0441742,-0.0130844,0.000305176,0.0551987
2,5,10.0097,0.00183105,0.000152588,-2.42959,0.0544603,-0.0759786,0.0526021,0.0691393,-0.0943672,0.143182,-0.127292,-0.0862325,0.0297546,0.0323105,0.0205994,0.0104904,0.0698471,0.153618,-0.0241089,0.0230789,-9.97986,-0.00789642,-0.017128,0.055542,0.328484,0.0400925,-0.0101471,0.000839233,0.0495148
2,6,10.0097,0.000305176,0.000152588,-2.43081,0.0538499,-0.0756734,0.0532125,0.0682238,-0.094062,0.143182,-0.127292,-0.0862325,0.0281906,0.035553,0.0250626,0.0155258,0.0785828,0.143661,-0.019989,0.0178909,-9.97986,-0.00637054,-0.0195694,0.0644684,0.337906,0.0382233,-0.00728607,0.0044632,0.0444031
2,7,10.0097,-0.000915527,0.000152588,-2.42806,0.055681,-0.0756734,0.0522969,0.0679186,-0.0937568,0.143792,-0.127292,-0.0859274,0.0156784,0.0374985,0.026741,0.0118637,0.0829315,0.133286,-0.0228119,0.0178528,-9.97986,-0.00999451,-0.0149536,0.0699615,0.33844,0.0331879,-0.00617981,0.0133514,0.0408173
2,8,10.0097,0.000610352,0,-2.42776,0.0547655,-0.0756734,0.0532125,0.0694445,-0.0928413,0.144403,-0.126377,-0.0850118,0.0135803,0.0350571,0.0270844,0.0139618,0.0885391,0.129166,-0.0193787,0.027771,-9.97986,-0.0121689,-0.0188446,0.0776291,0.334816,0.0330734,-0.0181198,0.0114822,0.0394058
2,9,10.0097,0,-0.000762939,-2.42684,0.0553758,-0.0744527,0.054128,0.0685289,-0.094062,0.144708,-0.125766,-0.0847066,0.00312805,0.0411224,0.0287247,0.0101471,0.0917816,0.117302,-0.0214386,0.0230789,-9.97986,-0.00904083,-0.0200653,0.0777435,0.330086,0.0217819,-0.0193024,0.0217819,0.0362778
3,0,10.0097,0.00183105,0,-2.42745,0.0553758,-0.075063,0.0532125,0.0706652,-0.0928413,0.144098,-0.125461,-0.0844015,-0.0130844,0.0378036,0.0273514,0.0127411,0.0876236,0.10437,-0.0123215,0.0294495,-9.97986,-0.0151825,-0.0225067,0.0812149,0.32135,0.0228119,-0.0156784,0.0250626,0.0353622
3,1,10.0097,0.000610352,-0.000152588,-2.42623,0.0575121,-0.0735371,0.0538228,0.0694445,-0.0919257,0.145624,-0.124851,-0.0825704,-0.017395,0.0402069,0.032196,0.0156021,0.0983429,0.0989151,-0.0167084,0.0276566,-9.97986,-0.0282669,-0.0258255,0.0769043,0.30735,0.0242615,-0.00953674,0.0334549,0.0370026
3,2,10.0097,0,-0.00106812,-2.4247,0.0553758,-0.0744527,0.0532125,0.0715807,-0.0928413,0.146234,-0.124546,-0.0810445,-0.0133514,0.0411606,0.0314331,0.0140381,0.0969315,0.0876617,-0.0123215,0.0268555,-9.97986,-0.0379562,-0.0270462,0.0696182,0.292473,0.0194168,-0.00297546,0.0376129,0.0367355
3,3,10.0097,0.000610352,-0.00152588,-2.42501,0.0562914,-0.0738423,0.0547383,0.0718859,-0.090705,0.145929,-0.123935,-0.0822652,-0.00545502,0.0383759,0.0291061,0.0136948,0.0947189,0.0804901,-0.00404358,0.0278091,-9.97986,-0.0316238,-0.0257874,0.0687027,0.270615,0.0165558,7.62939e-005,0.0466537,0.0376129
3,4,10.0097,-0.00152588,-0.00289917,-2.4247,0.0553758,-0.0735371,0.0544332,0.0718859,-0.0922309,0.145929,-0.124241,-0.0819601,-0.00415802,0.0354767,0.0281525,0.0138474,0.0871658,0.0651932,-0.00648499,0.013237,-9.97986,-0.0221634,-0.0208664,0.0904465,0.250053,0.00934601,0.00087738,0.051384,0.0388336
3,5,10.0097,-0.000610352,-0.00167847,-2.42623,0.0565965,-0.0738423,0.0556539,0.0712755,-0.0919257,0.146539,-0.12363,-0.0813497,-0.00728607,0.0339127,0.0322723,0.0201035,0.085907,0.0602341,-0.00511169,-0.00404358,-9.97986,0.00411987,-0.00827789,0.125465,0.228729,0.0135422,0.00457764,0.0563812,0.0424576
3,6,10.0097,-0.000305176,-0.00137329,-2.42592,0.0565965,-0.075063,0.0547383,0.0608995,-0.0925361,0.146234,-0.125461,-0.0822652,-0.00114441,0.0422287,0.0327301,0.0161743,0.0774765,0.0544357,-0.00312805,-0.0175476,-9.97986,0.00770569,-0.00713348,0.143394,0.207138,0.00907898,0.00648499,0.0579834,0.0402069
3,7,10.0097,0.00152588,-0.00289917,-2.42653,0.0559862,-0.0741475,0.0538228,0.0526598,-0.0931465,0.145624,-0.125766,-0.0834859,0.000801086,0.0443649,0.027771,0.0244904,0.0693512,0.0485992,0.0044632,-0.0237656,-9.97986,0.0172806,-0.0050354,0.14431,0.187988,0.00816345,0.00259399,0.0649643,0.0463104
3,8,9.87477,0.0012207,-0.00228882,-2.42714,0.0562914,-0.0735371,0.0547383,0.0605944,-0.0922309,0.146234,-0.125156,-0.0831808,0.0173187,0.0412369,0.0280762,0.0207901,0.0696564,0.0364685,0.00583649,-0.0241852,-9.97986,-0.00274658,-0.00751495,0.138969,0.165634,0.0112534,0.000762939,0.066185,0.0506973
3,9,9.83144,-0.0012207,-0.00244141,-2.42562,0.0547655,-0.0744527,0.054128,0.067003,-0.090705,0.145013,-0.126072,-0.0831808,0.0686264,0.0361252,0.0279999,0.0184631,0.0667191,0.0260162,0.0110245,-0.0154877,-9.97986,-0.0524902,-0.014267,0.14164,0.145035,0.0062561,0.00274658,0.0734329,0.051918
4,0,10.0097,-0.000915527,-0.00183105,-2.42684,0.0559862,-0.0753682,0.0532125,0.0752428,-0.0928413,0.146234,-0.125461,-0.0837911,0.12188,0.0282669,0.0200272,0.0165176,0.0645065,0.00320435,0.0193405,-0.0124359,-9.97986,-0.0941467,-0.016861,0.139923,0.114555,0.00205994,0.00976563,0.0766373,0.0504303
4,1,10.0097,0.000610352,-0.000762939,-2.42714,0.0541551,-0.0747579,0.0547383,0.0953844,-0.0916206,0.144098,-0.124851,-0.085317,0.105934,0.0252151,0.0152588,0.0157166,0.0675583,-0.0139999,0.0203323,-0.0131607,-9.97986,-0.127106,-0.0204849,0.136452,0.0934601,-0.00274658,0.0206375,0.0767517,0.0511551
4,2,10.0097,-0.000610352,-0.00213623,-2.42928,0.0535448,-0.0744527,0.0522969,0.0776842,-0.0946723,0.143487,-0.125156,-0.0868429,0.0667572,0.0247955,0.00984192,0.0175476,0.0634766,-0.0279236,0.0271988,-0.00392914,-9.97986,-0.131073,-0.0207138,0.141106,0.0687027,-0.00259399,0.0169754,0.079155,0.0544357
4,3,10.0097,0.000915527,-0.00244141,-2.4305,0.0535448,-0.0759786,0.0529073,0.072191,-0.095893,0.142267,-0.12363,-0.0877584,0.02285,0.0136185,0.00663757,0.0108337,0.0543976,-0.0485229,0.0395966,0.00873566,-9.97986,-0.114441,-0.0172806,0.158768,0.0449371,-0.00537872,0.0206757,0.0805283,0.0525665
4,4,10.0097,0.000305176,-0.00244141,-2.42959,0.0529344,-0.0762837,0.0532125,0.0697496,-0.0949775,0.142572,-0.126987,-0.0871481,-0.043869,0.0117874,-0.0019455,0.0135422,0.0443649,-0.0762939,0.0473022,0.0114441,-9.97986,-0.0928497,-0.0125504,0.198059,0.0188828,-0.00919342,0.026741,0.0767136,0.0601578
4,5,10.0097,-0.0012207,-0.00244141,-2.42928,0.0538499,-0.0762837,0.0526021,0.0694445,-0.0952827,0.143792,-0.127292,-0.0874532,-0.0944138,0.0019455,-0.0106049,0.00556946,0.0374985,-0.0877762,0.0566101,0.0111389,-9.97986,-0.0618744,-0.0119019,0.239105,-0.00347137,-0.00839233,0.02491,0.0767517,0.0627899
4,6,10.0097,0.0012207,-0.00289917,-2.42959,0.0532396,-0.0756734,0.0535176,0.0691393,-0.0943672,0.143487,-0.127903,-0.0883688,-0.0918961,-0.00175476,-0.019722,0.00778198,0.0319672,-0.101204,0.0635147,0.00617981,-9.97986,-0.0140381,-0.00785828,0.279465,-0.0234604,-0.0127411,0.0244904,0.075264,0.0699234
4,7,10.0097,0.000610352,-0.00289917,-2.42776,0.0547655,-0.0762837,0.0535176,0.0709703,-0.0943672,0.144098,-0.127598,-0.0859274,-0.0745773,-0.00293732,-0.0223923,0.00907898,0.0312805,-0.102768,0.0731659,0.0108337,-9.97986,0.0424194,-0.0132751,0.291977,-0.0491714,-0.0120926,0.0247955,0.0792694,0.0831985
4,8,10.0097,-0.000610352,-0.00183105,-2.42745,0.055681,-0.0759786,0.0532125,0.0731066,-0.0934516,0.145624,-0.126682,-0.0859274,-0.0377274,-0.00930786,-0.0271988,0.00301361,0.0269699,-0.111122,0.0831223,0.0150299,-9.97986,0.0945282,-0.00675201,0.284081,-0.0727463,-0.014534,0.0244141,0.0785065,0.0927353
4,9,10.0097,0.000305176,-0.00183105,-2.42806,0.0550706,-0.0741475,0.0529073,0.07036,-0.0925361,0.145318,-0.126377,-0.0856222,0.0133514,-0.00705719,-0.0284195,0.00701904,0.0247192,-0.111809,0.0843048,0.0131226,-9.97986,0.117531,-0.00869751,0.278778,-0.0992584,-0.0150299,0.0220108,0.0784302,0.105019
5,0,10.0097,0.000305176,-0.00167847,-2.42623,0.0550706,-0.0768941,0.0529073,0.0718859,-0.0928413,0.145929,-0.124851,-0.0847066,0.0624084,-0.00728607,-0.0273514,0.0118256,0.0307083,-0.106583,0.0913239,0.00946045,-9.97986,0.14164,-0.00480652,0.26371,-0.122223,-0.0101471,0.0260162,0.0836182,0.106812
5,1,10.0097,0.00244141,-0.00213623,-2.42623,0.0578172,-0.0738423,0.0535176,0.0706652,-0.0913154,0.147455,-0.124851,-0.0831808,0.111122,-0.00587463,-0.0202179,0.0101852,0.0394821,-0.0950623,0.0933456,0.0142288,-9.97986,0.15564,-0.00350952,0.242767,-0.143661,-0.0108337,0.0247955,0.0809097,0.107536
5,2,10.0097,0.000610352,-0.00244141,-2.42501,0.0572069,-0.0738423,0.0544332,0.0724962,-0.0916206,0.145929,-0.124241,-0.0804342,0.118332,-0.00476837,-0.0153351,0.0127411,0.0400543,-0.0778961,0.101662,0.013237,-9.97986,0.174141,0.00244141,0.224686,-0.171394,-0.00602722,0.0264359,0.0829697,0.0892258
5,3,10.0097,-0.000305176,-0.00274658,-2.42409,0.0565965,-0.0729268,0.0544332,0.0718859,-0.0928413,0.147149,-0.124546,-0.0825704,0.0972748,-0.000991821,-0.0128555,0.0114059,0.0516891,-0.0683594,0.104942,0.0104523,-9.97986,0.200043,0.00480652,0.203438,-0.196342,-0.00362396,0.0211334,0.0857162,0.0439072
5,4,10.0097,0.0012207,-0.00244141,-2.42531,0.0565965,-0.0744527,0.0535176,0.0718859,-0.0925361,0.14776,-0.124241,-0.0816549,0.071106,-0.00606537,-0.0127792,0.00640869,0.0554276,-0.0514603,0.104141,0.0156021,-9.97986,0.236168,0.00709534,0.170517,-0.220337,-0.00244141,0.021286,0.0866699,-0.00541687
5,5,10.0097,0.000915527,-0.00167847,-2.42501,0.0569017,-0.0741475,0.0529073,0.0718859,-0.0922309,0.144098,-0.124241,-0.0810445,0.0273514,0.00102997,-0.00858307,0.0158691,0.0580215,-0.0219727,0.111198,0.0110245,-9.97986,0.252266,0.00419617,0.12291,-0.241089,-0.00164032,0.018959,0.0901031,-0.0492096
5,6,10.0097,-0.000305176,-0.00259399,-2.42592,0.0562914,-0.0741475,0.0544332,0.0615099,-0.0946723,0.145929,-0.125461,-0.0822652,-0.0243759,0.00293732,-0.00850677,0.00682831,0.0621414,-0.0192261,0.106697,0.0110245,-9.97986,0.232048,0.0154114,0.0722885,-0.267868,0.00343323,0.0177765,0.0943756,-0.0870132
5,7,10.0097,0.000915527,-0.0038147,-2.42684,0.0562914,-0.073232,0.0529073,0.0526598,-0.0937568,0.145624,-0.126072,-0.0825704,-0.0398254,0.00679016,-0.00675201,0.00988007,0.0645828,-0.0050354,0.103569,0.00743866,-9.97986,0.184669,0.0146484,0.00312805,-0.298042,0.00831604,0.0183105,0.102348,-0.112
5,8,10.0097,0.000915527,-0.00350952,-2.42684,0.055681,-0.0744527,0.050771,0.0584581,-0.0916206,0.145624,-0.125156,-0.0822652,-0.0515747,0.00423431,-0.00591278,0.00717163,0.0637817,0.00812531,0.108223,0.0107956,-9.97986,0.130196,0.0159073,-0.069046,-0.329132,0.0102615,0.0159454,0.104446,-0.126915
5,9,10.0097,-0.000305176,-0.00335693,-2.42653,0.0562914,-0.0738423,0.0519917,0.0648668,-0.0925361,0.145318,-0.126072,-0.0834859,-0.04879,0.00514984,-0.00217438,0.0110626,0.0614548,0.0180817,0.111275,0.00522614,-9.97986,0.0680923,0.00858307,-0.139275,-0.356636,0.0133514,0.0136948,0.110168,-0.138435
6,0,10.0097,-0.000610352,-0.00289917,-2.42714,0.0550706,-0.0741475,0.0522969,0.0749376,-0.0922309,0.145929,-0.124851,-0.0844015,-0.0260544,0.0104141,-0.00110626,0.00686646,0.0543594,0.0137711,0.11055,0.00827789,-9.97986,0.0217819,0.00904083,-0.202789,-0.389977,0.0119781,0.0101089,0.109329,-0.13916
6,1,10.0097,-0.000610352,-0.00183105,-2.42806,0.0553758,-0.0753682,0.0522969,0.0914171,-0.0910102,0.141961,-0.125461,-0.0865377,-0.00247955,0.0123596,0.00606537,0.00572205,0.0468826,0.0151443,0.111465,0.0102234,-9.97986,-0.00209808,0.00968933,-0.246315,-0.424995,0.0146866,0.0108337,0.111389,-0.137825
6,2,10.0097,0,-0.00396729,-2.42837,0.0532396,-0.0759786,0.0516866,0.0749376,-0.0931465,0.142877,-0.127598,-0.0871481,0.0112152,0.0157928,0.00579834,0.00785828,0.0419617,0.00370026,0.108032,0.00389099,-9.97986,-0.0087738,0.015831,-0.284653,-0.470047,0.0143814,0.00988007,0.118408,-0.136528
6,3,10.0097,-0.00274658,-0.00366211,-2.42928,0.0532396,-0.0756734,0.0519917,0.0728014,-0.094062,0.145318,-0.126377,-0.0877584,0.0251389,0.0159073,0.0103378,0.00999451,0.0320053,-0.0185776,0.103416,-0.0044632,-9.97986,0.00305176,0.0169754,-0.309105,-0.506554,0.0104141,0.00465393,0.11528,-0.138321
6,4,10.0097,0.000305176,-0.00442505,-2.42898,0.0541551,-0.075063,0.0522969,0.0709703,-0.0943672,0.143792,-0.126987,-0.0871481,0.0442505,0.0128937,0.0157166,0.00923157,0.0301361,-0.0376129,0.103798,-0.000495911,-9.97986,0.0187302,0.0164795,-0.322227,-0.542488,0.0136566,0.00347137,0.116348,-0.13031
6,5,10.0097,0.00152588,-0.00488281,-2.42745,0.0538499,-0.0762837,0.0516866,0.0700548,-0.0934516,0.143487,-0.127903,-0.0877584,0.0639343,0.017128,0.0161743,0.00999451,0.0232697,-0.0462723,0.0991058,0.00225067,-9.97986,0.0363541,0.00743866,-0.329704,-0.57888,0.0128174,0.00160217,0.118256,-0.117416
6,6,10.0097,-0.000305176,-0.00442505,-2.42959,0.0541551,-0.0756734,0.0526021,0.0697496,-0.0937568,0.144708,-0.128818,-0.0880636,0.0634003,0.0179672,0.00991821,0.00991821,0.014534,-0.0551605,0.096283,0.000305176,-9.97986,0.0496292,0.00831604,-0.333405,-0.613136,0.0135803,-0.00144958,0.118179,-0.109367
6,7,10.0097,0.00274658,-0.00335693,-2.42898,0.0538499,-0.0747579,0.0526021,0.0682238,-0.0946723,0.144098,-0.126377,-0.0859274,0.0434494,0.0146866,0.0143433,0.0107956,0.00770569,-0.0484848,0.0922394,0.00396729,-9.97986,0.0577164,0.0137711,-0.340385,-0.638847,0.012207,0.0019455,0.114746,-0.0985718
6,8,10.0097,0.000915527,-0.00305176,-2.42806,0.0541551,-0.0753682,0.0526021,0.07036,-0.0928413,0.145013,-0.126987,-0.0859274,0.0520325,0.0170135,0.0191498,0.01194,0.00175476,-0.0389099,0.090065,0.00267029,-9.97986,0.0561523,0.0190735,-0.345993,-0.663223,0.00576019,-0.00213623,0.11158,-0.0909805
6,9,10.0097,0.000305176,-0.00228882,-2.42776,0.0547655,-0.075063,0.0532125,0.0682238,-0.0934516,0.145318,-0.124851,-0.0850118,0.0690079,0.0150299,0.0153732,0.0123978,-0.0102997,-0.0376511,0.0854874,0.00274658,-9.97986,0.0531769,0.0263214,-0.352669,-0.682564,0.00724792,-0.000991821,0.107918,-0.0865173
7,0,10.0097,0.000915527,-0.00198364,-2.42745,0.055681,-0.0756734,0.0535176,0.07036,-0.0928413,0.146539,-0.126072,-0.0837911,0.0619125,0.0162888,0.0180817,0.0108337,-0.0171661,-0.0328064,0.0797272,0.0136185,-9.97986,0.0531769,0.0233078,-0.356255,-0.69191,-0.00171661,-0.00102997,0.105286,-0.0819397
7,1,10.0097,0.000610352,-0.000457764,-2.42531,0.0569017,-0.075063,0.0544332,0.0734117,-0.0925361,0.145624,-0.124851,-0.0825704,0.0522232,0.0193405,0.0143051,0.00465393,-0.0273895,-0.0367355,0.0759506,0.0120163,-9.97986,0.0468826,0.0206757,-0.358963,-0.697327,-0.0018692,-0.00411987,0.10067,-0.0793457
7,2,10.0097,-0.000305176,-0.000457764,-2.42653,0.0553758,-0.0738423,0.0550435,0.0709703,-0.0910102,0.146234,-0.125156,-0.0819601,0.0232315,0.0200272,0.0205231,0.00888824,-0.032196,-0.0372314,0.0718689,0.0165558,-9.97986,0.0547028,0.0210571,-0.356178,-0.698242,-0.00156403,-0.00408173,0.101547,-0.0722122
7,3,10.0097,0.00152588,-0.000305176,-2.42562,0.0565965,-0.0741475,0.054128,0.0718859,-0.0900947,0.151117,-0.123935,-0.0807394,0.01091,0.0183105,0.0148392,0.00434875,-0.0412369,-0.0405121,0.0708389,0.0168228,-9.97986,0.0708389,0.0200272,-0.351028,-0.690041,-0.000762939,-0.00492096,0.0909805,-0.0780106
7,4,10.0097,0,0.0012207,-2.42531,0.0569017,-0.0741475,0.0550435,0.0706652,-0.0922309,0.146539,-0.124546,-0.0804342,0.0131607,0.0207138,0.0189209,0.00305176,-0.042305,-0.0533676,0.0637054,0.0209427,-9.97986,0.0694656,0.0210571,-0.338058,-0.678062,0.00202179,-0.0038147,0.0883102,-0.0775909
7,5,10.0097,-0.000915527,0.00198364,-2.4247,0.0565965,-0.0741475,0.0547383,0.0700548,-0.0913154,0.145929,-0.123325,-0.0810445,0.0146484,0.0216293,0.0166702,0.00743866,-0.0493622,-0.0611115,0.062027,0.0206757,-9.97986,0.050621,0.014801,-0.31517,-0.65567,0.00514984,-0.00328064,0.0774002,-0.0816345
7,6,10.0097,0,0.00244141,-2.42562,0.0562914,-0.0741475,0.0544332,0.0593737,-0.0928413,0.147149,-0.126072,-0.0807394,-0.00263214,0.0249863,0.0214005,0.0087738,-0.059166,-0.0677872,0.0587463,0.0111771,-9.97986,0.0398254,0.0116348,-0.294838,-0.629845,0.00995636,-0.00301361,0.0700378,-0.0842285
7,7,10.0097,-0.000610352,0.00152588,-2.42714,0.0553758,-0.0753682,0.0550435,0.0499132,-0.0934516,0.146844,-0.126072,-0.0816549,-0.0144577,0.0296402,0.0196457,0.0094223,-0.070076,-0.0704956,0.0579453,0.00556946,-9.97986,0.02388,0.014267,-0.266342,-0.6073,0.00812531,0.000534058,0.0594711,-0.0827408
7,8,9.83632,0.000610352,0.00259399,-2.42501,0.0553758,-0.0738423,0.055959,0.0602892,-0.0925361,0.144708,-0.125766,-0.0813497,-0.0337982,0.031929,0.02491,0.0167465,-0.0735092,-0.0770569,0.0510025,-3.8147e-005,-9.97986,0.019989,0.00659943,-0.242271,-0.568123,0.0125885,0.00347137,0.0463104,-0.0802612
7,9,9.85616,0.00152588,0.00305176,-2.42714,0.0550706,-0.0747579,0.0547383,0.0645616,-0.0925361,0.146234,-0.126072,-0.0825704,-0.0434113,0.0295639,0.0290298,0.00953674,-0.0748825,-0.0776672,0.0481033,0.00461578,-9.97986,0.0082016,0.00644684,-0.222969,-0.536003,0.0212479,-0.00236511,0.0372314,-0.0781631
8,0,10.0097,0.000610352,0.00473022,-2.42562,0.0559862,-0.0756734,0.0553487,0.0752428,-0.0919257,0.146234,-0.124851,-0.0816549,-0.0494766,0.0312042,0.032196,0.0123215,-0.0715637,-0.0814438,0.0411987,0.011673,-9.97986,-0.00141144,0.0142288,-0.212059,-0.494881,0.019989,-0.00305176,0.0299072,-0.0753403
8,1,10.0097,0.000915527,0.00427246,-2.42714,0.0541551,-0.075063,0.054128,0.0956896,-0.090705,0.145318,-0.124241,-0.0831808,-0.0495911,0.0321579,0.0303268,0.011673,-0.0699234,-0.0818253,0.0338745,0.01297,-9.97986,-0.018959,0.0176239,-0.196991,-0.450478,0.0230026,-0.00240326,0.0207138,-0.0716019
8,2,10.0097,0.0012207,0.00442505,-2.42928,0.0538499,-0.0759786,0.0532125,0.0776842,-0.0946723,0.143182,-0.126072,-0.0850118,-0.0143814,0.0326157,0.0277328,0.0104523,-0.0683212,-0.0814056,0.0298691,0.0146103,-9.97986,-0.0260162,0.0144577,-0.17746,-0.401955,0.0232315,-0.000534058,0.0160599,-0.0680542
8,3,10.0097,0.00183105,0.00396729,-2.42867,0.0538499,-0.0765889,0.0529073,0.0709703,-0.095893,0.144403,-0.126987,-0.0847066,0.0274658,0.0347519,0.0317383,0.0118256,-0.0598907,-0.0744247,0.0294113,0.0203705,-9.97986,-0.0466156,0.0115585,-0.15419,-0.351982,0.0235367,-0.00358582,0.0130081,-0.0669098
8,4,10.0097,0.00305176,0.00457764,-2.42867,0.0541551,-0.0756734,0.0529073,0.0697496,-0.0955879,0.144708,-0.127903,-0.0850118,0.0452423,0.0333405,0.0292587,0.0153732,-0.0590897,-0.0718689,0.0204849,0.0179291,-9.97986,-0.0592041,0.0132751,-0.141106,-0.294151,0.0289917,0.000991821,0.00205994,-0.0654221
8,5,10.0097,0.00274658,0.00579834,-2.42928,0.0529344,-0.0775044,0.0526021,0.0688341,-0.0955879,0.142877,-0.128208,-0.0850118,0.0547028,0.0330353,0.028038,0.00827789,-0.0619125,-0.0603867,0.0149918,0.0312424,-9.97986,-0.0704956,0.0172424,-0.118103,-0.231857,0.0342941,0.00511169,-0.00366211,-0.0627518
8,6,10.0097,0.000610352,0.00640869,-2.42928,0.0526292,-0.0762837,0.0526021,0.0676134,-0.0965034,0.142877,-0.128208,-0.0859274,0.0365067,0.0288391,0.0259018,0.0133133,-0.0590515,-0.0539398,0.0116348,0.0214767,-9.97986,-0.0814056,0.0178528,-0.105667,-0.17128,0.0331497,0.00125885,-0.0137329,-0.0618362
8,7,10.0097,0,0.00534058,-2.42867,0.0532396,-0.0747579,0.0535176,0.0682238,-0.0946723,0.143792,-0.126987,-0.0834859,0.00114441,0.0275803,0.0212097,0.00965118,-0.0539398,-0.0498962,0.00389099,0.0227737,-9.97986,-0.0829697,0.0154495,-0.0902557,-0.111618,0.0376129,0.0030899,-0.0190353,-0.0574875
8,8,10.0097,0.00183105,0.00549316,-2.42684,0.0553758,-0.0747579,0.0535176,0.0691393,-0.0946723,0.144708,-0.126987,-0.0837911,-0.0125122,0.0226974,0.0175095,0.00801086,-0.0489044,-0.0484085,-0.000152588,0.0264359,-9.97986,-0.0555801,0.0133133,-0.0773621,-0.0489044,0.0401306,0.00278473,-0.0271988,-0.0569153
8,9,10.0097,0.000610352,0.00595093,-2.42745,0.0553758,-0.0741475,0.054128,0.0694445,-0.094062,0.144403,-0.125461,-0.0825704,-0.0260544,0.0250244,0.019722,0.00782013,-0.0447464,-0.0444794,-0.00534058,0.0208664,-9.97986,-0.0389481,0.00869751,-0.0640488,0.0130844,0.0402451,0.00366211,-0.0378036,-0.0545502
9,0,10.0097,0.000610352,0.00610352,-2.42684,0.0553758,-0.0744527,0.054128,0.0691393,-0.0937568,0.145929,-0.125156,-0.0825704,-0.0533295,0.0247574,0.021019,0.0127029,-0.0385666,-0.0363159,-0.0100708,0.0201035,-9.97986,-0.0297546,0.00427246,-0.0530624,0.0706863,0.0407791,0.00740051,-0.042572,-0.049324
9,1,10.0097,0.000305176,0.00579834,-2.42501,0.055681,-0.0741475,0.0550435,0.0709703,-0.0913154,0.14837,-0.122715,-0.080129,-0.019455,0.0241089,0.0254822,0.0124741,-0.031662,-0.0258636,-0.0114441,0.019455,-9.97986,-0.0257492,0.00453949,-0.0437927,0.136337,0.0508881,0.00392914,-0.0478745,-0.0497437
9,2,10.0097,0.0012207,0.00534058,-2.42592,0.0578172,-0.0741475,0.054128,0.0700548,-0.0925361,0.147149,-0.125156,-0.0804342,0.0291824,0.0284576,0.0291824,0.0136566,-0.0192261,-0.0211334,-0.0110626,0.0232315,-9.97986,-0.0252151,0.00843048,-0.0355148,0.19043,0.0527191,0.00370026,-0.0483322,-0.0518417
9,3,10.0097,0.000610352,0.00579834,-2.4247,0.055681,-0.0744527,0.0538228,0.07036,-0.0922309,0.146234,-0.12363,-0.0792135,0.0220108,0.0249481,0.0242233,0.0124359,-0.012207,-0.0214767,-0.0154114,0.0257111,-9.97986,-0.0235748,0.00995636,-0.0235748,0.246811,0.0553131,0.00213623,-0.0535965,-0.0497437
9,4,10.0097,0.00213623,0.00518799,-2.4247,0.0562914,-0.0744527,0.0547383,0.0715807,-0.0903999,0.145624,-0.124241,-0.080129,0.00602722,0.0270844,0.0182724,0.00896454,-0.00270844,-0.0133133,-0.021553,0.013504,-9.97986,-0.0194931,-0.00171661,-0.0186157,0.297356,0.0579453,0.000724792,-0.0492477,-0.047493
9,5,10.0097,0,0.00442505,-2.42531,0.0553758,-0.0747579,0.0553487,0.0706652,-0.0922309,0.14776,-0.125156,-0.0798238,-0.00484467,0.0255585,0.0251389,0.0123596,0.00873566,-0.0157166,-0.0190353,0.022583,-9.97986,-0.00965118,0.00141144,-0.0110626,0.334053,0.0665665,0.00774384,-0.0481415,-0.0428772
9,6,10.0097,0,0.00427246,-2.42592,0.0553758,-0.0747579,0.0547383,0.0615099,-0.0928413,0.145624,-0.125461,-0.0804342,-0.0134277,0.0254822,0.0286102,0.0106049,0.0136185,-0.00858307,-0.0231171,0.0179672,-9.97986,0.00617981,0.00610352,-0.00114441,0.37735,0.0695801,0.00549316,-0.0485992,-0.0428391
9,7,10.0097,0,0.00335693,-2.42592,0.0559862,-0.0741475,0.0550435,0.0532701,-0.0925361,0.14898,-0.125766,-0.0795187,-0.00988007,0.0227356,0.0243378,0.0082016,0.0241852,0.000534058,-0.0236511,0.0140381,-9.97986,0.0266647,0.0056839,0.00705719,0.420265,0.0731277,0.00831604,-0.0391769,-0.0458145
9,8,10.0097,-0.000305176,0.00411987,-2.42592,0.0559862,-0.0738423,0.055959,0.0596788,-0.0922309,0.145624,-0.126682,-0.0810445,-0.00919342,0.0220871,0.0179291,0.0143814,0.0309753,0.00637054,-0.0273514,0.0156784,-9.97986,0.0364685,0.00629425,0.0181961,0.454407,0.0778961,0.0123596,-0.038414,-0.046463
9,9,10.0097,0.000610352,0.00335693,-2.42592,0.0553758,-0.0753682,0.054128,0.0673082,-0.0922309,0.145624,-0.125461,-0.0819601,-0.00488281,0.0231171,0.0180817,0.0129318,0.0329971,0.0069046,-0.0248337,0.0108337,-9.97986,0.0385666,-0.000648499,0.0272751,0.486374,0.0794983,0.00694275,-0.0296783,-0.0424194
10,0,10.0097,0.000305176,0.00335693,-2.42653,0.055681,-0.0744527,0.0538228,0.0749376,-0.0931465,0.144403,-0.125156,-0.0816549,-0.00656128,0.0156784,0.0166321,0.0153351,0.0423431,0.0134277,-0.0257111,0.0130081,-9.97986,0.0234604,-0.00144958,0.0412369,0.518799,0.0828171,0.0120926,-0.0239944,-0.0475693
10,1,10.0097,0.000610352,0.00396729,-2.42837,0.0532396,-0.075063,0.0535176,0.0914171,-0.0910102,0.143182,-0.125156,-0.0837911,-0.0145721,0.0183868,0.0189209,0.0154495,0.0473022,0.00591278,-0.0257492,0.0131607,-9.97986,0.0184631,-0.00713348,0.0447845,0.538406,0.0831604,0.0100327,-0.0116348,-0.0518417
10,2,10.0097,-0.000305176,0.00305176,-2.42806,0.0538499,-0.0759786,0.0522969,0.0761583,-0.0952827,0.144098,-0.126682,-0.0859274,-0.0112534,0.0160599,0.0168991,0.0122452,0.0499344,0.00839233,-0.0259781,0.00831604,-9.97986,0.0112915,-0.00736237,0.0585938,0.564423,0.0798798,0.0120163,0.00133514,-0.0535965
10,3,10.0097,0.000610352,0.00274658,-2.42867,0.0535448,-0.0759786,0.0522969,0.0728014,-0.0943672,0.143487,-0.127598,-0.0859274,0.00259399,0.0105667,0.0151825,0.0156021,0.0572586,0.00614166,-0.0227356,0.0117111,-9.97986,0.00946045,0.000457764,0.0631714,0.584221,0.08358,0.015564,0.0150681,-0.0580215
10,4,10.0097,0.0012207,0.00228882,-2.42959,0.0547655,-0.0762837,0.0516866,0.0694445,-0.0934516,0.143487,-0.127292,-0.0865377,0.0184631,0.0108337,0.0141525,0.0174713,0.0609589,0.0123215,-0.0217438,0.0129318,-9.97986,-0.00312805,-0.00221252,0.0705719,0.603409,0.0885391,0.0107574,0.0303268,-0.0593185
10,5,10.0097,0.000915527,0.00106812,-2.42837,0.0544603,-0.0759786,0.0553487,0.0691393,-0.0952827,0.141351,-0.127598,-0.0865377,0.0272369,0.00862122,0.00946045,0.0161362,0.0630569,0.00915527,-0.0221252,0.0162888,-9.97986,-0.0222778,-0.00492096,0.0723267,0.614471,0.0918961,0.0167847,0.0429916,-0.062027
10,6,10.0097,-0.000610352,0.0012207,-2.42867,0.0541551,-0.0765889,0.0519917,0.0679186,-0.0937568,0.143487,-0.127903,-0.0871481,0.0395966,0.012207,0.0120544,0.0139999,0.0634384,0.0125504,-0.0185394,0.0177765,-9.97986,-0.0536346,-0.0112152,0.0783157,0.62851,0.0889969,0.0215149,0.0592804,-0.0678253
10,7,10.0097,0.000305176,0.000762939,-2.42837,0.0575121,-0.0753682,0.0526021,0.0697496,-0.0943672,0.143182,-0.125766,-0.0862325,0.052948,0.0117111,0.0141907,0.0165939,0.0698853,0.0169373,-0.019989,0.0133133,-9.97986,-0.0674438,-0.0215149,0.0784683,0.636253,0.0881195,0.0227356,0.0777054,-0.0707626
10,8,10.0097,-0.000915527,0.0012207,-2.42806,0.0544603,-0.0738423,0.0538228,0.0712755,-0.0943672,0.144403,-0.126987,-0.0844015,0.067749,0.0147247,0.00793457,0.0179672,0.0740814,0.019455,-0.0127411,0.0220108,-9.97986,-0.0554657,-0.0182343,0.0804138,0.647774,0.0894928,0.0247955,0.0881958,-0.0662613
10,9,10.0097,0.000915527,0.00106812,-2.42714,0.0559862,-0.0753682,0.0535176,0.0712755,-0.0931465,0.146234,-0.126377,-0.0847066,0.0838852,0.0151062,0.0123596,0.0148392,0.0759888,0.0127792,-0.0148773,0.0205994,-9.97986,-0.0293732,-0.0136948,0.0816727,0.651169,0.086441,0.0269318,0.0994492,-0.0690079
11,0,10.0097,0.000305176,0.0012207,-2.42684,0.0550706,-0.075063,0.0532125,0.0709703,-0.0946723,0.145624,-0.125766,-0.0828756,0.0905228,0.0106049,0.0125122,0.0145721,0.0717926,0.00450134,-0.0131989,0.0219345,-9.97986,0.00736237,-0.0103378,0.079689,0.662231,0.0854111,0.0261307,0.108299,-0.0696945
11,1,10.0097,0.00213623,0.00137329,-2.42531,0.0553758,-0.073232,0.054128,0.0715807,-0.0937568,0.146844,-0.125156,-0.0813497,0.0831985,0.0155258,0.00965118,0.0115204,0.0775528,0.00419617,-0.00732422,0.025177,-9.97986,0.0418854,-0.0120926,0.0878143,0.670128,0.087471,0.0232315,0.112457,-0.076561
11,2,10.0097,0.000305176,0.000152588,-2.42653,0.0562914,-0.0738423,0.0544332,0.0712755,-0.0925361,0.147455,-0.124546,-0.0813497,0.0427628,0.0113678,0.0120926,0.0125885,0.0737381,-0.00617981,-0.0106812,0.0211334,-9.97986,0.0622177,-0.0121689,0.0888443,0.676994,0.0812531,0.0254059,0.118637,-0.0799942
11,3,10.0097,0.000610352,-0.000457764,-2.4244,0.0550706,-0.0738423,0.0553487,0.0706652,-0.0910102,0.146234,-0.123935,-0.0813497,0.0094223,0.00961304,0.0150299,0.0121689,0.0731277,-0.00972748,-0.0094223,0.0220871,-9.97986,0.0654221,-0.0107193,0.0937271,0.682793,0.0753403,0.0213623,0.118599,-0.0839615
11,4,10.0097,0.000610352,0.000762939,-2.42409,0.0559862,-0.0747579,0.0547383,0.0694445,-0.0922309,0.146539,-0.124851,-0.0810445,-0.0208664,0.0165939,0.0236893,0.0220108,0.0802994,-0.00106812,-0.00301361,0.0215912,-9.97986,0.0486755,-0.0112152,0.103302,0.692902,0.0758743,0.0304031,0.128365,-0.0792694
11,5,10.0097,0.00274658,0.000762939,-2.4247,0.0575121,-0.0741475,0.0547383,0.0712755,-0.0922309,0.146234,-0.123935,-0.0807394,-0.0657272,0.00896454,0.0144577,0.01297,0.0727463,-0.00205994,-0.00862122,0.0144958,-9.97986,0.0379181,-0.0159454,0.0956345,0.695457,0.061264,0.0205231,0.119133,-0.0884247
11,6,10.0097,0.000305176,0.000762939,-2.42806,0.0569017,-0.0729268,0.0553487,0.0596788,-0.0891792,0.145318,-0.125156,-0.0813497,-0.0828552,0.0205612,0.0193405,0.0225067,0.0813293,0.00953674,-0.00244141,0.0172043,-9.97986,0.0325012,-0.0126648,0.106964,0.703239,0.0601959,0.026741,0.124207,-0.0849915
11,7,10.0097,-0.000610352,-0.000457764,-2.42531,0.055681,-0.0738423,0.0544332,0.0517443,-0.0919257,0.146234,-0.125156,-0.0819601,-0.0917435,0.0218582,0.0231934,0.0191116,0.079689,0.0056076,-0.00617981,0.000915527,-9.97986,0.00770569,-0.00362396,0.102959,0.702858,0.0507736,0.0246048,0.121956,-0.0892639
11,8,10.0097,-0.000610352,0,-2.42501,0.0550706,-0.0753682,0.0544332,0.0602892,-0.0916206,0.146844,-0.125461,-0.0816549,-0.0755692,0.0218201,0.0259399,0.0207138,0.0790024,0.0118637,-0.00137329,-0.00720978,-9.97986,-0.0062561,-0.0115204,0.0935745,0.706673,0.0414276,0.0238037,0.12001,-0.0900269
11,9,10.0097,0.00152588,0,-2.42623,0.0544603,-0.0747579,0.0538228,0.0685289,-0.0928413,0.145929,-0.124546,-0.0825704,-0.0196457,0.0265121,0.0276566,0.0223541,0.078125,0.00713348,-0.000762939,-0.00679016,-9.97986,-0.00350952,-0.01194,0.0881195,0.707321,0.035553,0.02388,0.111847,-0.0882339
12,0,10.0097,0.000610352,0.000610352,-2.42623,0.0547655,-0.075063,0.054128,0.075548,-0.088874,0.146234,-0.123935,-0.0828756,0.0331497,0.0281525,0.0275421,0.021286,0.0779724,0.0135803,0.000610352,-0.00850677,-9.97986,0.00808716,-0.0082016,0.0852585,0.708733,0.0246811,0.0310135,0.102844,-0.0815582
12,1,10.0097,0.00244141,0.00198364,-2.42806,0.0541551,-0.075063,0.0538228,0.0938585,-0.0900947,0.143487,-0.124546,-0.0840963,0.0542068,0.0284576,0.0253296,0.0207901,0.0783539,0.022049,0.00244141,-0.00541687,-9.97986,0.0106049,-0.0106049,0.0741959,0.709763,0.022049,0.0415039,0.0920105,-0.0788879
12,2,10.0097,-0.000305176,0.000915527,-2.42959,0.0547655,-0.0753682,0.0516866,0.0758531,-0.0946723,0.144403,-0.126377,-0.0862325,0.0537872,0.0283432,0.025444,0.0202179,0.0746918,0.0312424,0.00362396,-0.00354767,-9.97986,0.00896454,-0.00102997,0.0722504,0.698051,0.0165558,0.0383377,0.0936508,-0.0743103
12,3,10.0097,0.00213623,-0.000457764,-2.42928,0.0538499,-0.0756734,0.0519917,0.0718859,-0.0946723,0.143792,-0.126987,-0.0871481,0.0610733,0.0243759,0.0209427,0.0179672,0.0754929,0.0301361,0.00331879,-0.00858307,-9.97986,0.00617981,0.00629425,0.0729752,0.691986,0.00991821,0.0336456,0.096817,-0.0688171
12,4,10.0097,0.0012207,-0.000762939,-2.42837,0.0501878,-0.0759786,0.0513814,0.0706652,-0.094062,0.143487,-0.127292,-0.0874532,0.0758362,0.0288773,0.0235367,0.0190735,0.0714493,0.0260925,0.0106812,-0.00728607,-9.97986,0.0044632,0.00320435,0.0705719,0.682182,0.00198364,0.0324249,0.0994492,-0.0664139
12,5,10.0097,0.00244141,-0.000915527,-2.42898,0.0535448,-0.0753682,0.0532125,0.0700548,-0.0949775,0.142877,-0.128513,-0.0871481,0.0687408,0.022583,0.0191116,0.0152206,0.0617981,0.0289917,0.00450134,-0.0094986,-9.97986,-0.00358582,-0.000610352,0.068779,0.66925,-0.00514984,0.0270462,0.0989151,-0.0625229
12,6,10.0097,0.00183105,-0.00198364,-2.42837,0.0535448,-0.0762837,0.0532125,0.07036,-0.0931465,0.143487,-0.126987,-0.0871481,0.0563812,0.0210953,0.0178528,0.0144958,0.0634766,0.0371933,0.00965118,0.00221252,-9.97986,0.000839233,-0.001297,0.0683975,0.650635,-0.00961304,0.026207,0.0981903,-0.057869
12,7,10.0097,0.0012207,-0.00198364,-2.42776,0.0547655,-0.0744527,0.0538228,0.0691393,-0.0955879,0.144098,-0.127292,-0.0868429,0.0442123,0.0159454,0.0137329,0.0114059,0.0576401,0.0399399,0.0139236,0.00152588,-9.97986,0.00278473,-0.00389099,0.0753784,0.623856,-0.0195313,0.0262451,0.0865173,-0.0542831
12,8,10.0097,0.000610352,-0.00106812,-2.42837,0.0544603,-0.0756734,0.0516866,0.0691393,-0.0946723,0.143487,-0.126987,-0.0856222,0.0381851,0.0169754,0.00995636,0.0132751,0.0547791,0.0523376,0.0109482,0.00217438,-9.97986,-0.00358582,-0.000648499,0.0741196,0.605659,-0.0228119,0.0183868,0.0731277,-0.0463104
12,9,10.0097,0.000610352,-0.00183105,-2.42684,0.0553758,-0.0756734,0.0538228,0.0700548,-0.0919257,0.145624,-0.125766,-0.0856222,0.0479126,0.0187302,0.0143433,0.0125504,0.0439835,0.052681,0.0164413,0.00621796,-9.97986,-0.00907898,-0.00400543,0.0748444,0.580635,-0.0269318,0.0171661,0.0573349,-0.0405502
13,0,10.0097,0.000915527,-0.00320435,-2.42714,0.0547655,-0.0744527,0.0538228,0.0694445,-0.0928413,0.145013,-0.126377,-0.085317,0.0511169,0.0181961,0.0107574,0.0107956,0.0427628,0.0663757,0.0154114,0.00366211,-9.97986,-0.00999451,-0.0030899,0.0821304,0.545921,-0.0328445,0.00598907,0.0387955,-0.0320435
13,1,10.0097,0.000915527,-0.00289917,-2.42501,0.0538499,-0.075063,0.0547383,0.07036,-0.0916206,0.147149,-0.124851,-0.0828756,0.0492477,0.0153732,0.0111389,0.00938416,0.0380325,0.0621796,0.0156784,0.00717163,-9.97986,0.0237274,-0.00339508,0.0875854,0.515747,-0.0341797,0.00370026,0.0245285,-0.0182343
13,2,10.0097,0.000305176,-0.00366211,-2.4247,0.055681,-0.0747579,0.0553487,0.0709703,-0.0900947,0.146234,-0.12363,-0.0822652,0.043602,0.00980377,0.00732422,0.0094986,0.0339127,0.055542,0.0205994,0.00713348,-9.97986,0.0492096,-0.00495911,0.0939178,0.476265,-0.0395966,-0.00972748,0.00507355,-0.01091
13,3,10.0097,-0.00335693,-0.00396729,-2.42562,0.0565965,-0.0726216,0.0553487,0.0712755,-0.0925361,0.147149,-0.124851,-0.0816549,0.0332642,0.0108719,0.00701904,0.0119019,0.0339508,0.0559616,0.0234604,0.00843048,-9.97986,0.0745392,-0.00141144,0.0961304,0.433388,-0.0450897,-0.0170517,-0.0178146,0.0019455
13,4,10.0097,0,-0.00320435,-2.42409,0.0565965,-0.0726216,0.0550435,0.0700548,-0.0913154,0.146539,-0.124241,-0.0825704,0.0133133,0.0139618,0.00534058,0.00827789,0.0286865,0.0632095,0.0235748,0.00640869,-9.97986,0.0925064,0.00270844,0.109253,0.389671,-0.0497818,-0.0196838,-0.0340271,0.0119781
13,5,10.0097,0.000915527,-0.00396729,-2.42623,0.0569017,-0.073232,0.055959,0.0715807,-0.0922309,0.147149,-0.124851,-0.0825704,0.00663757,0.0120163,0.00545502,0.00469208,0.0226593,0.0669098,0.028038,0.01297,-9.97986,0.0986099,0.00202179,0.123711,0.342026,-0.0550079,-0.0173187,-0.0587082,0.0198746
13,6,10.0097,-0.0012207,-0.00488281,-2.42623,0.0569017,-0.0753682,0.0547383,0.0596788,-0.094062,0.145929,-0.123935,-0.0825704,0.00587463,0.0111008,0.0122452,0.00431061,0.0125885,0.0745392,0.0297546,0.0152206,-9.97986,0.0871658,0.000572205,0.135307,0.287285,-0.0577545,-0.00938416,-0.0763702,0.0279617
13,7,10.0097,0.0012207,-0.00579834,-2.42562,0.0565965,-0.0744527,0.0544332,0.0505236,-0.094062,0.146234,-0.125461,-0.0847066,0.00831604,0.0131989,0.00583649,0.0037384,0.00617981,0.0767899,0.0269699,0.0157547,-9.97986,0.0737,0.0030899,0.143623,0.223427,-0.062294,-0.00549316,-0.100899,0.0387955
13,8,10.0097,0.00152588,-0.00656128,-2.42684,0.055681,-0.0741475,0.0544332,0.0590685,-0.0949775,0.146234,-0.125461,-0.0847066,-0.00289917,0.0162125,0.0117874,0.00270844,0.00213623,0.0801468,0.0272369,0.0178528,-9.97986,0.0584793,0.00114441,0.155487,0.153122,-0.0638962,-0.0075531,-0.117264,0.0457764
13,9,10.0097,0.000915527,-0.00579834,-2.42684,0.0565965,-0.0735371,0.0544332,0.0660875,-0.0931465,0.147149,-0.125766,-0.0859274,-0.0263596,0.013504,0.0087738,0.00469208,0.00278473,0.0751495,0.0321198,0.02491,-9.97986,0.0488281,-0.00354767,0.16922,0.0856018,-0.0678253,0.000991821,-0.131607,0.0579071
14,0,10.0097,0,-0.0062561,-2.42714,0.0544603,-0.0753682,0.0519917,0.075548,-0.0931465,0.144403,-0.125156,-0.0844015,-0.032959,0.013504,0.0137711,0.00892639,-0.00801086,0.0694656,0.0317764,0.0252914,-9.97986,0.0363159,-0.0012207,0.186653,0.0187683,-0.0700378,0.00667572,-0.149231,0.0648117
14,1,10.0097,0.00183105,-0.00518799,-2.42776,0.0541551,-0.0781148,0.0522969,0.0926378,-0.0916206,0.145318,-0.125766,-0.0865377,-0.0240326,0.0174332,0.0149918,0.0101089,-0.0120926,0.0645065,0.0293732,0.0302505,-9.97986,0.0239944,0.000686646,0.198326,-0.0434494,-0.0720596,0.00778198,-0.153809,0.070343
14,2,10.0097,0.000305176,-0.00473022,-2.42867,0.0532396,-0.0753682,0.0526021,0.0758531,-0.094062,0.143792,-0.124241,-0.0874532,0.00225067,0.02285,0.0191879,0.00320435,-0.0163269,0.0756454,0.0279236,0.031395,-9.97986,0.00873566,-0.00400543,0.212517,-0.0985336,-0.0683975,0.00522614,-0.157585,0.0814819
14,3,10.0097,-0.000305176,-0.0050354,-2.42867,0.0532396,-0.0744527,0.0538228,0.0718859,-0.0952827,0.145318,-0.126377,-0.0880636,0.00167847,0.0239182,0.0177765,0.00980377,-0.0157928,0.0815582,0.0246048,0.0348282,-9.97986,0.00343323,-0.00259399,0.224724,-0.146103,-0.0686264,-0.000190735,-0.157585,0.0892258
14,4,10.0097,0.000610352,-0.00457764,-2.42959,0.0523241,-0.0775044,0.0529073,0.0706652,-0.0931465,0.143182,-0.126072,-0.0874532,0.00801086,0.0253296,0.0204468,0.0062561,-0.0144577,0.0852966,0.0272369,0.0381851,-9.97986,-0.00507355,7.62939e-005,0.235023,-0.188942,-0.0686646,-0.00640869,-0.155182,0.0919724
14,5,10.0097,0.000305176,-0.00442505,-2.42898,0.0526292,-0.075063,0.0516866,0.0688341,-0.094062,0.142877,-0.127598,-0.0871481,0.02285,0.0278473,0.0248337,0.00583649,-0.0193405,0.0915527,0.0258255,0.0432205,-9.97986,-0.00400543,0.00221252,0.24662,-0.213394,-0.0666809,-0.00396729,-0.148735,0.0980759
14,6,10.0097,0.000610352,-0.00289917,-2.42776,0.0541551,-0.0762837,0.0510762,0.0691393,-0.0946723,0.144098,-0.127903,-0.0871481,0.0180817,0.0329971,0.0243759,0.00595093,-0.0233841,0.0901413,0.0186539,0.0484848,-9.97986,-0.0012207,0.00225067,0.255089,-0.23777,-0.0618744,-0.00720978,-0.141373,0.101738
14,7,10.0097,0.000915527,-0.00152588,-2.42776,0.0544603,-0.075063,0.0526021,0.0682238,-0.0980293,0.145013,-0.126682,-0.0859274,0.00762939,0.030365,0.0329208,0.00457764,-0.0196075,0.108719,0.0265503,0.0509262,-9.97986,-0.00305176,0.00419617,0.248146,-0.239983,-0.0540161,-0.00724792,-0.134087,0.107727
14,8,10.0097,0.000305176,-0.00137329,-2.42745,0.0547655,-0.075063,0.0538228,0.07036,-0.0937568,0.143487,-0.127292,-0.085317,0.00583649,0.0281143,0.0322342,0.0101471,-0.0271225,0.126877,0.0234604,0.0469589,-9.97986,-0.00946045,-0.00404358,0.243607,-0.249367,-0.0557709,-0.0075531,-0.12291,0.113564
14,9,10.0097,-0.0012207,0.000152588,-2.42806,0.0541551,-0.0753682,0.0522969,0.0694445,-0.094062,0.145013,-0.127292,-0.085317,-0.00453949,0.0419617,0.0407028,0.0125885,-0.0291824,0.131874,0.0274658,0.0422668,-9.97986,-0.014801,-0.00450134,0.247116,-0.250778,-0.0426865,-0.00534058,-0.115318,0.117645
15,0,10.0097,0.00152588,-0.000305176,-2.42714,0.0544603,-0.0735371,0.0538228,0.0700548,-0.0934516,0.145318,-0.126377,-0.0837911,-0.0118256,0.0373459,0.042305,0.0159073,-0.0367355,0.116997,0.0267029,0.0374603,-9.97986,-0.0189972,-0.000267029,0.235405,-0.255356,-0.040741,-0.00957489,-0.114479,0.122566
15,1,10.0097,-0.000915527,-0.00152588,-2.42501,0.055681,-0.0744527,0.0544332,0.0697496,-0.0919257,0.146844,-0.125156,-0.0822652,-0.0621796,0.0458527,0.0503159,0.017128,-0.044136,0.115662,0.0307846,0.0372314,-9.97986,-0.027771,-0.00881195,0.216866,-0.257835,-0.0342941,-0.0155258,-0.111809,0.120354
15,2,10.0097,0.00152588,0.000152588,-2.42562,0.0569017,-0.0744527,0.054128,0.0688341,-0.0922309,0.145318,-0.124851,-0.0825704,-0.110054,0.0539017,0.0516891,0.0190735,-0.0421143,0.115395,0.0303268,0.0359726,-9.97986,-0.0343323,-0.00389099,0.192642,-0.256081,-0.0322342,-0.0111771,-0.109329,0.125504
15,3,10.0097,0,-0.000305176,-2.42653,0.055681,-0.0735371,0.0544332,0.0712755,-0.0922309,0.146539,-0.123935,-0.0816549,-0.131569,0.0489426,0.0522614,0.0199509,-0.0402069,0.119209,0.0309372,0.0244904,-9.97986,-0.0414276,-0.0107574,0.153656,-0.255814,-0.0292587,-0.0121689,-0.104446,0.131989
15,4,10.0097,0,0.000305176,-2.42531,0.0569017,-0.0738423,0.054128,0.0715807,-0.0919257,0.145624,-0.124241,-0.0807394,-0.134354,0.0504684,0.057106,0.0260544,-0.0476074,0.119133,0.0312042,0.0107193,-9.97986,-0.0422668,-0.00106812,0.121727,-0.247269,-0.0195694,-0.0128937,-0.103416,0.137138
15,5,10.0097,0.000610352,-0.000152588,-2.42501,0.0572069,-0.0735371,0.0529073,0.0709703,-0.0922309,0.146234,-0.123325,-0.0807394,-0.120811,0.0553513,0.0550079,0.0256348,-0.0395584,0.112839,0.0269699,7.62939e-005,-9.97986,-0.0518417,-0.00595093,0.0992966,-0.240555,-0.0260162,-0.0159836,-0.103149,0.145035
15,6,10.0097,0.000915527,0.000915527,-2.42684,0.0569017,-0.0747579,0.0526021,0.0602892,-0.094062,0.145929,-0.125461,-0.0813497,-0.105324,0.0513458,0.0543976,0.031662,-0.0398254,0.109253,0.0205994,-0.00835419,-9.97986,-0.0615311,-0.00564575,0.0805664,-0.231209,-0.0192261,-0.0168228,-0.105247,0.149727
15,7,10.0097,-0.000610352,0.000152588,-2.42684,0.0559862,-0.0741475,0.0538228,0.0535753,-0.0916206,0.145929,-0.125766,-0.0819601,-0.0732803,0.0458145,0.0536728,0.0284958,-0.042038,0.109291,0.014534,-0.0193787,-9.97986,-0.0670624,-0.00656128,0.0737,-0.214348,-0.0170135,-0.0126648,-0.0970078,0.159302
15,8,10.0097,-0.000610352,0.000305176,-2.42501,0.0562914,-0.0741475,0.0532125,0.0615099,-0.0916206,0.145624,-0.124851,-0.0819601,-0.00965118,0.043335,0.0520325,0.0315094,-0.0437927,0.115891,0.00141144,-0.0246811,-9.97986,-0.0819778,-0.00583649,0.0673294,-0.20813,-0.0184631,-0.0138092,-0.101852,0.160484
15,9,10.0097,-0.000305176,0.000610352,-2.42684,0.0550706,-0.0735371,0.0547383,0.0691393,-0.0916206,0.146234,-0.125766,-0.0822652,0.0526428,0.0377655,0.0481033,0.0265884,-0.0364304,0.111923,-0.00171661,-0.0231934,-9.97986,-0.0984192,-0.00656128,0.0619125,-0.198441,-0.0148773,-0.0172043,-0.0943756,0.164032
16,0,10.0097,0.000610352,0.00152588,-2.42745,0.0550706,-0.0744527,0.0538228,0.075548,-0.0913154,0.144708,-0.124546,-0.0822652,0.108681,0.0323868,0.0400162,0.0247955,-0.0318527,0.110626,-0.0164413,-0.0273132,-9.97986,-0.100555,-0.00572205,0.0462723,-0.191574,-0.00507355,-0.0188446,-0.0925446,0.168648
16,1,10.0097,0,0.00167847,-2.42684,0.0535448,-0.0759786,0.0538228,0.0926378,-0.0919257,0.143792,-0.125461,-0.0847066,0.110168,0.0251389,0.0308609,0.0191879,-0.0333786,0.111504,-0.0299835,-0.02388,-9.97986,-0.111656,-0.00591278,0.0380707,-0.180473,-0.00442505,-0.0136948,-0.0917816,0.166626
16,2,10.0097,0.000915527,0.0012207,-2.4302,0.0535448,-0.0781148,0.0510762,0.075548,-0.0949775,0.143487,-0.126987,-0.0862325,0.0605011,0.0146484,0.0234985,0.0169373,-0.0271988,0.1091,-0.0336838,-0.0146103,-9.97986,-0.137444,-0.0137711,0.026474,-0.175362,-0.00450134,-0.0153732,-0.0880432,0.167732
16,3,10.0097,0,0.000762939,-2.42837,0.0535448,-0.075063,0.0513814,0.0700548,-0.0949775,0.143792,-0.126987,-0.0874532,0.0236511,0.00789642,0.0104523,0.00953674,-0.0247192,0.111237,-0.0466919,-0.00934601,-9.97986,-0.13855,-0.0139618,0.00873566,-0.178185,-7.62939e-005,-0.0190735,-0.0888824,0.17086
16,4,10.0097,0.00183105,0.000305176,-2.42959,0.0559862,-0.0753682,0.0532125,0.0706652,-0.0949775,0.144403,-0.127598,-0.0868429,0.0271606,-0.00244141,0.00255585,0.00965118,-0.0246811,0.105247,-0.0517654,0.00278473,-9.97986,-0.126991,-0.0148392,0.0062561,-0.172157,-0.00873566,-0.018959,-0.083847,0.167694
16,5,10.0097,0.00152588,0,-2.42959,0.0547655,-0.0762837,0.0513814,0.0691393,-0.0946723,0.144098,-0.126987,-0.0868429,0.0321198,-0.00171661,-0.0144958,0.0102997,-0.021553,0.113525,-0.0508499,0.0159073,-9.97986,-0.109711,-0.0143814,0.00793457,-0.168076,-0.0199509,-0.0287247,-0.0855637,0.164871
16,6,10.0097,0,-0.000152588,-2.42959,0.0526292,-0.0762837,0.0532125,0.0697496,-0.0949775,0.142877,-0.128208,-0.0874532,0.0194931,-0.0103378,-0.017662,0.00293732,-0.0224686,0.11158,-0.0501251,0.0171661,-9.97986,-0.0891876,-0.0151443,0.00923157,-0.160561,-0.0275421,-0.0273132,-0.0813293,0.164185
16,7,10.0097,0.000915527,-0.000457764,-2.42867,0.0535448,-0.0762837,0.0535176,0.0697496,-0.0928413,0.144403,-0.126987,-0.0865377,0.0325775,-0.0115204,-0.0210953,0.0069809,-0.0144577,0.106087,-0.0373459,0.0200272,-9.97986,-0.0799561,-0.00980377,0.0189209,-0.157852,-0.0255585,-0.0290298,-0.0770187,0.160561
16,8,10.0097,0.000610352,-0.000152588,-2.42806,0.0553758,-0.0759786,0.0522969,0.07036,-0.094062,0.144708,-0.126377,-0.0850118,0.0650787,-0.0144958,-0.0252533,0.00450134,-0.0152206,0.108376,-0.0341034,0.0229263,-9.97986,-0.0437546,-0.00362396,0.0247955,-0.15358,-0.0272751,-0.0340271,-0.0742722,0.153313
16,9,10.0097,0,0.000762939,-2.42776,0.0550706,-0.0738423,0.0535176,0.0709703,-0.0925361,0.145929,-0.126682,-0.0844015,0.0579834,-0.0170135,-0.0301743,0.000610352,-0.0160217,0.106735,-0.0272369,0.0286102,-9.97986,0.0166702,-0.000534058,0.0233459,-0.152779,-0.0278473,-0.03479,-0.0701904,0.149307
17,0,10.0097,0.000610352,-0.000305176,-2.42562,0.0550706,-0.0747579,0.0529073,0.0715807,-0.0925361,0.145318,-0.126377,-0.0834859,0.0158691,-0.0214386,-0.0317383,-0.000915527,-0.0153351,0.114899,-0.0146484,0.0294876,-9.97986,0.0775909,-0.000648499,0.0188446,-0.149803,-0.0227737,-0.0371933,-0.0722122,0.14328
17,1,10.0097,0.000610352,0.000457764,-2.42562,0.0569017,-0.073232,0.0547383,0.0728014,-0.094062,0.145929,-0.124851,-0.0822652,-0.0284958,-0.0168228,-0.0230408,0.00282288,-0.0141525,0.101509,-0.00495911,0.029335,-9.97986,0.141258,-0.00511169,0.0101852,-0.142555,-0.0255203,-0.0369263,-0.0648499,0.139961
17,2,10.0097,0.000305176,0.000610352,-2.42623,0.0538499,-0.073232,0.0550435,0.072191,-0.0900947,0.145624,-0.124546,-0.0810445,-0.0509644,-0.0135422,-0.0251007,0.000457764,-0.0128937,0.096283,0.00667572,0.0292206,-9.97986,0.207138,-0.00305176,0.000953674,-0.141182,-0.0272369,-0.0396729,-0.0617599,0.131683
17,3,10.0097,-0.000305176,0,-2.4247,0.0572069,-0.0744527,0.0550435,0.0715807,-0.0922309,0.145624,-0.123935,-0.0798238,-0.0517654,-0.0133514,-0.0233078,0.000991821,-0.00751495,0.0931931,0.0184631,0.0374603,-9.97986,0.240822,-0.00595093,-0.0102997,-0.140724,-0.0272369,-0.0411606,-0.0556183,0.129585
17,4,10.0097,0.0012207,0.000152588,-2.42562,0.0575121,-0.0723164,0.0553487,0.0734117,-0.0916206,0.146844,-0.124546,-0.0807394,-0.0228119,-0.00972748,-0.0189209,0.00507355,-0.0135422,0.085907,0.0262451,0.0376511,-9.97986,0.261002,-0.00804901,-0.0193405,-0.13073,-0.0304031,-0.0374603,-0.0458145,0.128212
17,5,10.0097,0.000305176,0.000762939,-2.42531,0.055681,-0.073232,0.0547383,0.0715807,-0.090705,0.147149,-0.12363,-0.0804342,-0.00087738,-0.00713348,-0.0158691,0.00209808,-0.01091,0.0814056,0.0361633,0.0428772,-9.97986,0.269241,-0.00827789,-0.0260162,-0.130806,-0.0279617,-0.038414,-0.0379944,0.122948
17,6,10.0097,0.0012207,0.000152588,-2.42562,0.0559862,-0.0744527,0.0526021,0.0593737,-0.0931465,0.146539,-0.125461,-0.0819601,0.0252533,-0.00442505,-0.0157928,0.00717163,-0.0144196,0.075264,0.0428009,0.041275,-9.97986,0.264053,-0.000419617,-0.0397873,-0.134964,-0.0253296,-0.0405121,-0.0347137,0.124741
17,7,10.0097,0.0012207,-0.00183105,-2.42623,0.0575121,-0.0738423,0.0535176,0.052965,-0.0931465,0.14776,-0.125156,-0.0819601,0.0673294,-0.000305176,-0.00858307,0.00896454,-0.0134277,0.0626755,0.0506592,0.038681,-9.97986,0.235481,-0.00221252,-0.0525284,-0.142555,-0.0276947,-0.0402069,-0.0281906,0.118713
17,8,9.96266,0.000610352,-0.0012207,-2.4244,0.0559862,-0.0729268,0.0550435,0.0596788,-0.0919257,0.145013,-0.126377,-0.0828756,0.105362,0.00175476,0.000152588,0.00831604,-0.00896454,0.0595093,0.0585938,0.038147,-9.97986,0.203133,-0.00377655,-0.0517273,-0.163383,-0.0268555,-0.0342941,-0.0199509,0.118637
17,9,9.98616,-0.0012207,-0.0038147,-2.42623,0.055681,-0.0738423,0.0547383,0.0682238,-0.0919257,0.145929,-0.125766,-0.0837911,0.116501,0.00980377,0.00396729,0.0112152,-0.0149918,0.0492477,0.0686264,0.0321579,-9.97986,0.164185,-0.00179291,-0.0523376,-0.209961,-0.0246048,-0.0391769,-0.00545502,0.115242
18,0,10.0097,-0.000610352,-0.00442505,-2.42745,0.0559862,-0.0744527,0.0535176,0.0740221,-0.0919257,0.145929,-0.124546,-0.0847066,0.0996399,0.0152969,0.0131989,0.0138855,-0.0155258,0.0393677,0.0696564,0.0269318,-9.97986,0.125122,0.000305176,-0.0610352,-0.27092,-0.0272751,-0.0348282,-0.00312805,0.116539
18,1,10.0097,0.000305176,-0.00366211,-2.42837,0.0526292,-0.0753682,0.0535176,0.0926378,-0.0919257,0.142877,-0.124241,-0.0868429,0.0535583,0.0188828,0.0167847,0.0124359,-0.0138855,0.0411606,0.0783157,0.029335,-9.97986,0.101585,-0.00324249,-0.0642776,-0.325241,-0.0292969,-0.0362015,0.00778198,0.116425
18,2,10.0097,0.0012207,-0.00411987,-2.42959,0.0544603,-0.0747579,0.0532125,0.0764635,-0.0952827,0.144098,-0.126377,-0.0868429,0.00991821,0.0233841,0.0215912,0.0123596,-0.010643,0.0382233,0.0838852,0.0315094,-9.97986,0.0817871,-0.0125504,-0.0592804,-0.355835,-0.0322723,-0.0434113,0.0181961,0.114937
18,3,10.0097,0.00152588,-0.00183105,-2.42898,0.0538499,-0.0753682,0.0532125,0.0709703,-0.0946723,0.143792,-0.125766,-0.0865377,-0.0198364,0.0259018,0.018425,0.0134277,-0.0130844,0.0385284,0.0876617,0.0352859,-9.97986,0.0634766,-0.00335693,-0.0660324,-0.364532,-0.0321579,-0.0448608,0.0312042,0.115433
18,4,10.0097,0.000915527,-0.000762939,-2.42959,0.0535448,-0.0762837,0.0522969,0.0685289,-0.0946723,0.142572,-0.127292,-0.0874532,-0.0368881,0.0252151,0.0244141,0.00961304,-0.00919342,0.0324249,0.0913239,0.045433,-9.97986,0.0399017,0.0113297,-0.069313,-0.358391,-0.0357056,-0.0406647,0.0394821,0.117493
18,5,10.0097,0.000610352,-0.000457764,-2.42898,0.0529344,-0.0765889,0.0522969,0.0688341,-0.0946723,0.144098,-0.127292,-0.0868429,-0.0144577,0.0283051,0.0212097,0.00724792,-0.00183105,0.0466537,0.0953293,0.0414658,-9.97986,0.016861,0.00640869,-0.0812149,-0.355072,-0.0509262,-0.038681,0.0455475,0.121803
18,6,10.0097,0.00152588,0,-2.42898,0.0535448,-0.0747579,0.0522969,0.0700548,-0.0937568,0.143792,-0.127903,-0.0865377,0.0308228,0.0256729,0.0230408,0.0101471,-0.000724792,0.0563431,0.0964737,0.0473404,-9.97986,0.00606537,0.00305176,-0.0898743,-0.342636,-0.0592804,-0.0377274,0.0543976,0.120277
18,7,10.0097,0,0.000762939,-2.42959,0.0535448,-0.0768941,0.0519917,0.0685289,-0.0943672,0.143792,-0.126682,-0.0856222,0.0495911,0.0289154,0.0206375,0.00854492,0.00591278,0.0614929,0.105591,0.049057,-9.97986,0.0123596,-0.00270844,-0.084877,-0.328293,-0.0673676,-0.03685,0.0616074,0.117607
18,8,10.0097,0.0012207,0.00137329,-2.42714,0.0544603,-0.0753682,0.0516866,0.07036,-0.0928413,0.141046,-0.126377,-0.0840963,0.0702667,0.0231171,0.019722,0.00583649,0.00686646,0.0704956,0.104256,0.0432968,-9.97986,0.0105667,-0.000839233,-0.0863266,-0.308228,-0.061264,-0.0361633,0.0661087,0.117912
18,9,10.0097,0.00152588,0.00183105,-2.42653,0.0544603,-0.0753682,0.0532125,0.07036,-0.0934516,0.144708,-0.126072,-0.0850118,0.0933456,0.0251389,0.0262451,0.0102997,0.00289917,0.0816727,0.107765,0.0452042,-9.97986,0.019989,0.000915527,-0.0954056,-0.28244,-0.058136,-0.032959,0.0761032,0.11364
19,0,10.0097,0.00183105,0.00167847,-2.42592,0.0550706,-0.0747579,0.0544332,0.0709703,-0.0922309,0.145013,-0.125461,-0.0822652,0.0917053,0.0264359,0.0200653,0.00556946,0.00255585,0.0824738,0.112762,0.0484467,-9.97986,0.0350952,0.0018692,-0.0938034,-0.271454,-0.0563049,-0.0334167,0.0782013,0.109787
19,1,10.0097,0,0.000915527,-2.42562,0.0553758,-0.0744527,0.054128,0.0709703,-0.0928413,0.148675,-0.124546,-0.0819601,0.0694275,0.0297928,0.0235748,0.00862122,0.000991821,0.0815964,0.112839,0.0520325,-9.97986,0.0620651,0.00350952,-0.0938797,-0.272369,-0.0529099,-0.033493,0.0795364,0.106735
19,2,10.0097,-0.000305176,0.000457764,-2.42501,0.0562914,-0.0741475,0.0547383,0.0715807,-0.0903999,0.147149,-0.125156,-0.0819601,0.0250626,0.0280762,0.0244141,0.00297546,-0.00125885,0.0797272,0.11425,0.0517273,-9.97986,0.0799179,0.00267029,-0.090332,-0.261803,-0.0492477,-0.033226,0.0798798,0.0992584
19,3,10.0097,0.000305176,0.00106812,-2.42562,0.0559862,-0.0741475,0.0550435,0.0712755,-0.0928413,0.147149,-0.123325,-0.080129,-0.00713348,0.0310135,0.0233459,0.00778198,0.00160217,0.0797272,0.119286,0.0518036,-9.97986,0.0716782,-0.00240326,-0.0933456,-0.246048,-0.0375366,-0.0353241,0.0816345,0.0958633
19,4,10.0097,-0.000610352,0.0012207,-2.42409,0.0565965,-0.0738423,0.0544332,0.0706652,-0.0919257,0.14837,-0.124546,-0.0810445,-0.0218964,0.033226,0.0273514,0.00587463,0.0062561,0.0785065,0.116425,0.056076,-9.97986,0.0677872,-0.00087738,-0.101891,-0.218925,-0.0255966,-0.0352097,0.0769043,0.0880814
19,5,10.0097,0.00152588,0.00198364,-2.4247,0.0565965,-0.0744527,0.0547383,0.0697496,-0.0925361,0.147149,-0.124241,-0.080129,-0.050621,0.0337219,0.0304794,0.00793457,0.00797272,0.0766373,0.115776,0.0574112,-9.97986,0.0547791,0.00160217,-0.119133,-0.182991,-0.014534,-0.0335693,0.0774765,0.0844574
19,6,10.0097,-0.000610352,0.00427246,-2.42562,0.0565965,-0.0704854,0.0535176,0.058153,-0.0946723,0.144708,-0.124851,-0.0807394,-0.0873566,0.0314713,0.0226212,0.0044632,0.00953674,0.078125,0.114861,0.0564957,-9.97986,0.0445557,-0.00389099,-0.124474,-0.130844,-0.00671387,-0.0317001,0.0774002,0.0782394
19,7,10.0097,-0.000610352,0.00335693,-2.42592,0.0559862,-0.0744527,0.0547383,0.0520494,-0.0934516,0.145624,-0.126987,-0.0804342,-0.0845718,0.0310135,0.028801,0.00835419,0.00976563,0.0704575,0.111885,0.04673,-9.97986,0.0428391,-0.0062561,-0.1231,-0.0770569,0.00171661,-0.0288773,0.0730896,0.0709534
19,8,9.99013,-0.000610352,0.00396729,-2.42745,0.0550706,-0.0744527,0.0532125,0.0602892,-0.0919257,0.146234,-0.126987,-0.0807394,-0.0627899,0.0344086,0.0276184,0.0102234,0.0137329,0.0624847,0.109215,0.0215149,-9.97986,0.0344086,-0.00846863,-0.121841,-0.0260925,0.0044632,-0.0313568,0.0746155,0.0631714
19,9,9.99074,0.000610352,0.00518799,-2.42592,0.0562914,-0.0744527,0.0562642,0.0691393,-0.0910102,0.145013,-0.125156,-0.0816549,-0.00968933,0.0326157,0.0271988,0.0115967,0.0120926,0.0571442,0.109787,0.0157547,-9.97986,0.0370026,-0.0102234,-0.116501,0.0181961,0.00606537,-0.0291061,0.0757599,0.0572586
20,0,10.0097,-0.00213623,0.00396729,-2.42714,0.0550706,-0.0759786,0.0544332,0.0758531,-0.0910102,0.145624,-0.124851,-0.0825704,0.0424194,0.0320816,0.0282669,0.0167465,0.0135803,0.0466919,0.107918,0.013504,-9.97986,0.0296783,-0.00869751,-0.117722,0.0684357,0.00244141,-0.0315094,0.076561,0.0485992
20,1,10.0097,0.000305176,0.00442505,-2.42806,0.0538499,-0.0747579,0.0538228,0.0923326,-0.0922309,0.144708,-0.124546,-0.0828756,0.0557709,0.0356293,0.0358582,0.0108337,0.0115204,0.0363922,0.104027,0.00938416,-9.97986,-0.00991821,0.00328064,-0.118179,0.0942993,-0.00476837,-0.0337982,0.0725937,0.0428009
20,2,10.0097,0.00152588,0.00473022,-2.42867,0.0529344,-0.0744527,0.0513814,0.0743273,-0.0955879,0.143182,-0.127292,-0.0856222,0.0407791,0.0334549,0.0326157,0.0117874,0.0139236,0.0213242,0.0990295,0.00232697,-9.97986,-0.0662231,0.00518799,-0.121231,0.139847,-0.0130844,-0.0304031,0.0745773,0.0342941
20,3,10.0097,-0.00183105,0.00350952,-2.42867,0.0541551,-0.075063,0.0529073,0.0709703,-0.0952827,0.142877,-0.127903,-0.0859274,0.0397873,0.0350952,0.0315475,0.00999451,0.0111771,-0.000419617,0.0963974,0.00427246,-9.97986,-0.123062,0.00179291,-0.119057,0.176544,-0.0295639,-0.0230408,0.0754547,0.0241852
20,4,10.0097,-0.000305176,0.00274658,-2.42898,0.0538499,-0.0759786,0.0529073,0.0691393,-0.0955879,0.142572,-0.127903,-0.0859274,0.0507736,0.0305939,0.0255203,0.0108719,0.0149918,-0.013237,0.0932312,0.0106812,-9.97986,-0.162468,-0.00259399,-0.114899,0.209465,-0.0471497,-0.0164795,0.0806427,0.0157166
20,5,10.0097,0.000610352,0.00183105,-2.42989,0.0535448,-0.0744527,0.0529073,0.0688341,-0.0952827,0.142877,-0.127598,-0.085317,0.0537491,0.0237656,0.0230408,0.00747681,0.0126266,-0.0242996,0.088501,0.0193405,-9.97986,-0.196304,0.00591278,-0.115776,0.234146,-0.0603867,-0.0111008,0.0868607,0.0113678
20,6,10.0097,-0.000610352,0.0012207,-2.42776,0.0535448,-0.0747579,0.0544332,0.0697496,-0.094062,0.146539,-0.127598,-0.0865377,0.0757599,0.0231552,0.0163651,0.001297,0.0146866,-0.0448227,0.0901031,0.021553,-9.97986,-0.217094,0.000724792,-0.111961,0.255394,-0.0719452,-0.00919342,0.0912476,0.00328064
20,7,10.0097,0.000610352,0.00411987,-2.42806,0.0550706,-0.075063,0.0535176,0.0697496,-0.0943672,0.144098,-0.126682,-0.0850118,0.0647354,0.0174332,0.016861,0.0043869,0.0138474,-0.058403,0.0857925,0.0251007,-9.97986,-0.194168,-0.00179291,-0.09758,0.297089,-0.0816727,0.00473022,0.0886536,-0.0038147
20,8,10.0097,0.0012207,0.00274658,-2.42745,0.0541551,-0.075063,0.0532125,0.07036,-0.0937568,0.143792,-0.126072,-0.0840963,0.0294113,0.017662,0.0157547,0.00396729,0.0160217,-0.0705719,0.0847244,0.0235748,-9.97986,-0.137558,3.8147e-005,-0.0878906,0.329857,-0.0841904,0.0031662,0.0975418,-0.00545502
20,9,10.0097,-0.000915527,0.00213623,-2.42684,0.0541551,-0.0747579,0.0538228,0.0715807,-0.0928413,0.142877,-0.126377,-0.0844015,0.0203705,0.0136948,0.0132751,0.00522614,0.0114441,-0.0840378,0.0786209,0.0188446,-9.97986,-0.0671387,0.00205994,-0.0780487,0.339584,-0.0795364,0.0107956,0.100899,-0.0183487
21,0,10.0097,0.000610352,0.00198364,-2.42653,0.055681,-0.0747579,0.0535176,0.0706652,-0.094062,0.145624,-0.125156,-0.0840963,-0.00469208,0.018959,0.013504,0.0075531,0.0151443,-0.0841904,0.0829315,0.0163651,-9.97986,-0.0101089,0.000724792,-0.0638962,0.360336,-0.069313,0.0185013,0.105247,-0.0197601
21,1,10.0097,0.000610352,0.00259399,-2.42653,0.0569017,-0.0744527,0.0544332,0.072191,-0.0922309,0.146539,-0.124241,-0.0816549,-0.0232697,0.0212097,0.0149918,0.00705719,0.010376,-0.0973129,0.077858,0.0144577,-9.97986,0.0349808,-0.000343323,-0.0477982,0.380669,-0.056076,0.0162506,0.102272,-0.0296021
21,2,10.0097,0,0.00259399,-2.42562,0.0559862,-0.0741475,0.0550435,0.0715807,-0.0913154,0.146539,-0.124546,-0.0807394,-0.0230026,0.0217438,0.0182724,0.00724792,0.0157166,-0.108337,0.0793839,0.00682831,-9.97986,0.0608444,-0.00133514,-0.0413132,0.410881,-0.0387573,0.0294876,0.103073,-0.0366974
21,3,10.0097,-0.000305176,0.00137329,-2.42684,0.0562914,-0.0753682,0.0550435,0.0712755,-0.0925361,0.146844,-0.124546,-0.0810445,-0.00782013,0.0201035,0.018692,0.0112534,0.0138855,-0.113564,0.0784302,0.0108337,-9.97986,0.059433,-0.0025177,-0.0382996,0.412064,-0.0223923,0.033989,0.101013,-0.0463104
21,4,10.0097,0.00152588,0.00106812,-2.42562,0.0565965,-0.0723164,0.0556539,0.07036,-0.090705,0.146234,-0.124241,-0.0819601,-0.0108719,0.0203705,0.0182724,0.0145721,0.0153351,-0.117836,0.0706863,0.00873566,-9.97986,0.0293732,-0.00152588,-0.0332642,0.412102,-0.00728607,0.0379944,0.0941086,-0.0533295
21,5,10.0097,-0.000915527,-0.000610352,-2.4247,0.0562914,-0.0738423,0.0556539,0.0691393,-0.0925361,0.146844,-0.124241,-0.0813497,-0.044899,0.0222015,0.0172043,0.00984192,0.0186157,-0.124435,0.0723648,0.0125122,-9.97986,-0.0194931,-7.62939e-005,-0.0245667,0.393105,0.00598907,0.041008,0.0896072,-0.0605011
21,6,10.0097,-0.000305176,-0.000610352,-2.42684,0.0559862,-0.0738423,0.0547383,0.0596788,-0.094062,0.146234,-0.125461,-0.0819601,-0.0622177,0.0234985,0.0165939,0.00743866,0.0210953,-0.111504,0.0706482,0.0144958,-9.97986,-0.0549316,-0.000343323,-0.0169754,0.378799,0.020752,0.0421906,0.0829315,-0.0669479
21,7,10.0097,0.000915527,-0.0012207,-2.42653,0.0550706,-0.0735371,0.0544332,0.0535753,-0.0928413,0.146234,-0.125766,-0.0825704,-0.0347137,0.0193405,0.0173187,0.0125504,0.0258255,-0.111313,0.0638962,0.0134277,-9.97986,-0.0413132,-0.00038147,-0.0141907,0.374908,0.0320435,0.0460815,0.0797653,-0.0722504
21,8,10.0097,0.000610352,-0.00366211,-2.42714,0.0541551,-0.0744527,0.0547383,0.0639513,-0.090705,0.145318,-0.126377,-0.0837911,0.0180817,0.0162125,0.0137329,0.00827789,0.0273895,-0.105247,0.0647736,0.0194168,-9.97986,-0.0102997,-0.000724792,-0.00164032,0.319252,0.0443268,0.0501251,0.0728607,-0.0796127
21,9,10.0097,-0.000610352,-0.00427246,-2.42592,0.0562914,-0.075063,0.0553487,0.0688341,-0.0922309,0.145624,-0.125461,-0.0837911,0.0561523,0.0117874,0.0107956,0.0115967,0.0348663,-0.0979233,0.0614166,0.0209808,-9.97986,0.0236511,0.00473022,0.0139236,0.271912,0.0554657,0.0455093,0.0678635,-0.0830841
22,0,10.0097,0.000305176,-0.00366211,-2.42714,0.0541551,-0.0744527,0.054128,0.0767687,-0.0922309,0.144708,-0.125156,-0.0840963,0.056839,0.0144196,0.0104523,0.010376,0.0334167,-0.0923157,0.0574493,0.0241852,-9.97986,0.0728226,-0.00350952,0.0201797,0.230408,0.0640106,0.0416183,0.0631714,-0.0885773
22,1,10.0097,-0.000915527,-0.00320435,-2.42745,0.0547655,-0.0747579,0.0544332,0.0932482,-0.0916206,0.144403,-0.125461,-0.0859274,0.0278473,0.0128555,0.00858307,0.00930786,0.0277328,-0.0955582,0.054245,0.0194168,-9.97986,0.13237,0.00343323,0.0198364,0.182877,0.077095,0.0482941,0.0592422,-0.0938034
22,2,10.0097,0,-0.00305176,-2.42806,0.0535448,-0.0759786,0.0522969,0.0770738,-0.0955879,0.143792,-0.127598,-0.0883688,0.00656128,0.0113297,0.0111771,0.00827789,0.0110245,-0.0984573,0.0486755,0.0183868,-9.97986,0.172234,-0.0025177,0.0231934,0.145493,0.0873184,0.0505447,0.0494766,-0.0979996
22,3,10.0097,-0.00183105,-0.00335693,-2.42989,0.0535448,-0.0762837,0.0529073,0.072191,-0.0968086,0.144403,-0.127292,-0.0886739,-0.00286102,0.0152206,0.00461578,0.00679016,-0.00720978,-0.102501,0.0413132,0.0164795,-9.97986,0.200996,0.00305176,0.0272751,0.115242,0.0838852,0.0627899,0.0417328,-0.105972
22,4,10.0097,-0.000305176,-0.00106812,-2.42928,0.0532396,-0.0756734,0.0529073,0.0697496,-0.0946723,0.143792,-0.126682,-0.0865377,-0.00980377,0.0134659,0.00686646,0.00831604,-0.0162125,-0.0980377,0.0370789,0.0156784,-9.97986,0.185432,0.00804901,0.0346756,0.121346,0.0839996,0.0688171,0.0408554,-0.105591
22,5,10.0097,-0.00152588,0.000152588,-2.42837,0.0538499,-0.0765889,0.0513814,0.0676134,-0.0949775,0.141656,-0.127292,-0.0874532,-0.00709534,0.0147247,0.0069809,0.00873566,-0.0162125,-0.112572,0.0288391,0.0158691,-9.97986,0.145416,-0.000572205,0.052948,0.129585,0.0858688,0.0727844,0.0402451,-0.114059
22,6,10.0097,0.000305176,-0.0038147,-2.42745,0.0547655,-0.0765889,0.0526021,0.0676134,-0.094062,0.142877,-0.128208,-0.0883688,0.00255585,0.0175476,0.0102615,0.00785828,-0.00888824,-0.116959,0.0221252,0.0167847,-9.97986,0.0960541,-0.00553131,0.0643921,0.0888443,0.0883484,0.070076,0.0369644,-0.117378
22,7,10.0097,0.0012207,-0.00305176,-2.42776,0.0544603,-0.0759786,0.0519917,0.067003,-0.0934516,0.145318,-0.126987,-0.0868429,0.00862122,0.0199127,0.0127411,0.0100327,0.001297,-0.120354,0.0196838,0.0144577,-9.97986,0.0514603,-0.00164032,0.0571442,0.0539398,0.0937653,0.0669098,0.0333023,-0.120049
22,8,10.0097,0.00213623,-0.00183105,-2.42867,0.0541551,-0.075063,0.0535176,0.0694445,-0.0943672,0.145318,-0.126072,-0.0844015,0.0225449,0.022316,0.0179291,0.0136566,0.0122833,-0.126266,0.0148773,0.0143814,-9.97986,0.0285721,-0.00205994,0.0576019,0.0415802,0.0954056,0.0587463,0.0271606,-0.123062
22,9,10.0097,0.00152588,-0.000610352,-2.42623,0.055681,-0.0756734,0.0532125,0.0688341,-0.0934516,0.144403,-0.126377,-0.085317,0.0232697,0.0260544,0.0233078,0.0126266,0.0170517,-0.113144,0.00511169,0.0151443,-9.97986,0.00972748,0.000610352,0.065155,0.0408173,0.0925446,0.0548172,0.0255585,-0.125847
23,0,10.0097,-0.0012207,0.00137329,-2.42592,0.0550706,-0.0738423,0.054128,0.0691393,-0.0931465,0.145318,-0.126072,-0.0844015,0.00923157,0.0273132,0.0234985,0.014267,0.014801,-0.120888,0.00160217,0.0117111,-9.97986,-0.00244141,-0.0025177,0.0720215,0.0648117,0.0942612,0.0490189,0.017395,-0.131035
23,1,10.0097,0.000305176,0.00137329,-2.42653,0.0562914,-0.0741475,0.0556539,0.0700548,-0.0934516,0.146234,-0.126072,-0.0816549,-0.000228882,0.0317001,0.0264359,0.0167084,0.0127411,-0.132217,-0.00785828,0.00934601,-9.97986,-0.00839233,0.00350952,0.083046,0.0722122,0.101929,0.0504303,0.0163651,-0.134544
23,2,10.0097,0,-0.000305176,-2.42653,0.0565965,-0.0744527,0.054128,0.0709703,-0.0916206,0.146539,-0.124241,-0.0810445,-0.00202179,0.0298309,0.0255585,0.0134659,0.0178528,-0.139427,-0.0121307,0.0127411,-9.97986,-0.017662,0.00209808,0.0888824,0.059433,0.102158,0.0471115,0.00915527,-0.133057
23,3,10.0097,-0.000915527,-0.00106812,-2.4247,0.0575121,-0.0738423,0.0547383,0.0709703,-0.0910102,0.146844,-0.124241,-0.0813497,0.0171661,0.0333023,0.0324249,0.0148773,0.0230408,-0.138969,-0.0163269,0.0151443,-9.97986,-0.0308228,0,0.0958633,0.0444412,0.117416,0.0469589,0.00366211,-0.13752
23,4,10.0097,0.00244141,-0.00305176,-2.42501,0.0562914,-0.0735371,0.0553487,0.0712755,-0.0919257,0.146539,-0.124546,-0.0825704,0.0305557,0.0299072,0.0320053,0.0198746,0.0222015,-0.138702,-0.0217819,0.0171661,-9.97986,-0.0437164,-0.00205994,0.0963211,0.00648499,0.133171,0.0401688,-0.00202179,-0.141678
23,5,10.0097,0.000305176,-0.00213623,-2.42531,0.0581224,-0.073232,0.0553487,0.0706652,-0.0910102,0.146234,-0.123325,-0.0816549,0.0188828,0.0318909,0.0295258,0.0163651,0.0245285,-0.145836,-0.0276184,0.014267,-9.97986,-0.0406647,0.00106812,0.104675,-0.0169754,0.145874,0.0389099,-0.00724792,-0.142097
23,6,10.0097,-0.00152588,-0.00289917,-2.42653,0.0562914,-0.0747579,0.0538228,0.0596788,-0.0943672,0.145318,-0.125156,-0.0822652,-0.00450134,0.0354767,0.0278473,0.0148773,0.0244522,-0.145264,-0.0323486,0.0102615,-9.97986,-0.0284958,-0.0031662,0.112,-0.0590134,0.150719,0.0421524,-0.0087738,-0.144424
23,7,10.0097,-0.000915527,-0.00427246,-2.42592,0.0562914,-0.0738423,0.0535176,0.0517443,-0.094062,0.146234,-0.125156,-0.0825704,-0.00171661,0.0334167,0.034256,0.0151443,0.02388,-0.146828,-0.0373459,0.0108337,-9.97986,-0.0126648,-0.00389099,0.106812,-0.0936508,0.156898,0.0307846,-0.0140762,-0.146637
23,8,10.0097,0,-0.00457764,-2.42623,0.0562914,-0.0741475,0.054128,0.0608995,-0.0934516,0.146234,-0.125461,-0.0834859,-0.019455,0.0366211,0.0400162,0.0167465,0.0255585,-0.148659,-0.0411224,0.0177765,-9.97986,-0.000572205,-0.00106812,0.105743,-0.143394,0.16655,0.0243378,-0.0164413,-0.1437
23,9,10.0097,0.000305176,-0.00518799,-2.42684,0.0559862,-0.0747579,0.0547383,0.0676134,-0.0919257,0.145013,-0.126072,-0.0828756,-0.0404358,0.0350952,0.0330353,0.0164032,0.0230789,-0.146828,-0.0424576,0.013504,-9.97986,-0.0012207,-0.00774384,0.103188,-0.202332,0.170174,0.018959,-0.0189209,-0.145798
24,0,10.0097,0,-0.00411987,-2.42684,0.0550706,-0.0738423,0.0547383,0.0758531,-0.0913154,0.145624,-0.125461,-0.0847066,-0.0394058,0.0368881,0.0346756,0.0172806,0.0242615,-0.138512,-0.0492859,0.0113297,-9.97986,-0.00362396,-0.00244141,0.112801,-0.249863,0.182228,0.015831,-0.0228882,-0.144882
24,1,10.0097,-0.000915527,-0.00518799,-2.42776,0.0538499,-0.0747579,0.0544332,0.0923326,-0.0919257,0.144403,-0.125461,-0.0865377,-0.0470734,0.0341034,0.0358582,0.0156403,0.0224686,-0.138283,-0.0511932,0.00160217,-9.97986,-0.00926971,-0.00427246,0.121994,-0.314941,0.187378,0.0117874,-0.0309753,-0.148659
24,2,10.0097,0,-0.00549316,-2.42959,0.0538499,-0.0759786,0.0522969,0.0767687,-0.0928413,0.143487,-0.126072,-0.0874532,-0.0402069,0.0369644,0.0355911,0.0120926,0.0222778,-0.133896,-0.053978,0.00312805,-9.97986,-0.0144958,-0.00328064,0.128021,-0.375023,0.191269,0.0108719,-0.0294876,-0.146942
24,3,10.0097,0.000305176,-0.00427246,-2.42867,0.0550706,-0.0759786,0.0513814,0.0712755,-0.095893,0.144403,-0.126987,-0.0883688,0.0056076,0.0358963,0.032692,0.0154877,0.0188828,-0.128136,-0.0569916,0.00595093,-9.97986,-0.0227737,-0.00282288,0.130081,-0.412598,0.188866,0.0056839,-0.0363159,-0.145149
24,4,10.0097,-0.000305176,-0.00396729,-2.42928,0.0538499,-0.0756734,0.0522969,0.07036,-0.0946723,0.144098,-0.126377,-0.0874532,0.0716019,0.0397491,0.0349808,0.0172424,0.0197601,-0.128479,-0.0642776,0.00556946,-9.97986,-0.0254822,-0.00488281,0.13279,-0.442924,0.19062,-0.00427246,-0.0365067,-0.141525
24,5,10.0097,0.00213623,-0.00396729,-2.42867,0.0538499,-0.075063,0.0519917,0.0691393,-0.094062,0.144403,-0.127292,-0.0883688,0.0968933,0.031662,0.0334167,0.0152588,0.0166702,-0.126228,-0.0709915,0.0117493,-9.97986,-0.0228882,0.00118256,0.12764,-0.471992,0.188065,-0.00591278,-0.0430679,-0.139542
24,6,10.0097,0.000915527,-0.00320435,-2.42959,0.0535448,-0.0771993,0.0513814,0.0688341,-0.095893,0.143487,-0.127598,-0.0880636,0.0734711,0.0393295,0.0367737,0.0170135,0.0157166,-0.121574,-0.0681686,0.014267,-9.97986,-0.0218582,-0.000228882,0.12291,-0.501633,0.17704,-0.013237,-0.0428772,-0.132103
24,7,10.0097,0.000915527,-0.00213623,-2.42837,0.0538499,-0.0762837,0.0526021,0.067003,-0.0961982,0.143792,-0.127292,-0.0868429,0.0408173,0.033226,0.0344849,0.0163651,0.0185776,-0.115395,-0.07267,0.018959,-9.97986,-0.0275421,-0.00453949,0.108414,-0.518837,0.158997,-0.0187302,-0.0460052,-0.124512
24,8,10.0097,-0.000915527,-0.00335693,-2.42776,0.0550706,-0.0744527,0.0535176,0.0676134,-0.0946723,0.144708,-0.126682,-0.0856222,-0.00347137,0.0392532,0.0328064,0.0151443,0.013237,-0.108185,-0.0789261,0.0149918,-9.97986,-0.021553,-0.00396729,0.0881958,-0.547562,0.142746,-0.0248337,-0.0481796,-0.119858
24,9,10.0097,0.000305176,-0.00320435,-2.42898,0.0547655,-0.0753682,0.0519917,0.0694445,-0.0937568,0.145013,-0.124851,-0.0847066,-0.0343704,0.0338745,0.0294876,0.0136566,0.0186539,-0.097847,-0.0797272,0.0212097,-9.97986,-0.0288773,-0.00606537,0.0719452,-0.574989,0.137596,-0.0258255,-0.0422287,-0.114555
25,0,10.0097,0,-0.00167847,-2.42592,0.055681,-0.0744527,0.0526021,0.0688341,-0.0922309,0.145318,-0.126072,-0.0844015,-0.0379944,0.0315475,0.0266266,0.0108719,0.0223541,-0.091362,-0.0803757,0.0233459,-9.97986,-0.0471115,-0.00980377,0.0518799,-0.588303,0.131454,-0.0227356,-0.044899,-0.109406
25,1,10.0097,0.000610352,-0.00152588,-2.42531,0.0562914,-0.0744527,0.0544332,0.0709703,-0.0925361,0.146234,-0.124851,-0.0816549,-0.00347137,0.0345612,0.0289154,0.0128937,0.0272751,-0.0840378,-0.08255,0.02388,-9.97986,-0.0606155,-0.00713348,0.0341415,-0.595093,0.115051,-0.0227356,-0.0409698,-0.107536
25,2,10.0097,0.000305176,-0.00106812,-2.4247,0.0562914,-0.075063,0.0544332,0.0718859,-0.0916206,0.146234,-0.125156,-0.0816549,0.0311279,0.0336456,0.0228882,0.0109482,0.031662,-0.074501,-0.0857544,0.0246811,-9.97986,-0.0678253,-0.00488281,0.015564,-0.602608,0.104675,-0.0236511,-0.0429916,-0.102425
25,3,10.0097,0.0012207,-0.000610352,-2.42592,0.0559862,-0.0726216,0.0544332,0.0715807,-0.0913154,0.147455,-0.123935,-0.0816549,0.0650787,0.0357056,0.0302887,0.00881195,0.0349045,-0.0711823,-0.0860596,0.0169373,-9.97986,-0.0589371,-0.00335693,0.00289917,-0.61161,0.0876617,-0.0251007,-0.042038,-0.0962067
25,4,10.0097,0.000610352,-0.000457764,-2.4244,0.0562914,-0.0741475,0.0538228,0.0712755,-0.0913154,0.145624,-0.124546,-0.0819601,0.0758362,0.0306702,0.0279999,0.0145721,0.0416183,-0.0626755,-0.0891876,0.00499725,-9.97986,-0.0432968,-0.00701904,-0.0114441,-0.621986,0.0699234,-0.0216293,-0.0391006,-0.0937653
25,5,10.0097,0,0.000610352,-2.42531,0.0572069,-0.0744527,0.0553487,0.0709703,-0.0916206,0.146539,-0.124241,-0.0798238,0.0622559,0.0325775,0.0281906,0.017128,0.0452423,-0.0545883,-0.0886536,-0.00488281,-9.97986,-0.0324631,-0.00911713,-0.0225067,-0.605354,0.0539398,-0.0240707,-0.0382996,-0.0885391
25,6,10.0097,0.000610352,0.000457764,-2.42592,0.055681,-0.0753682,0.0544332,0.0612047,-0.0946723,0.146234,-0.124241,-0.0819601,0.0262451,0.0360489,0.027504,0.0157928,0.0488281,-0.0550079,-0.0905609,-0.0237274,-9.97986,-0.0181198,-0.00564575,-0.0370026,-0.587959,0.0400543,-0.027504,-0.0363541,-0.0801849
25,7,10.0097,0.000915527,0.000457764,-2.42531,0.0550706,-0.0747579,0.0544332,0.0544908,-0.0949775,0.145013,-0.126987,-0.0810445,-0.0141907,0.0334549,0.0250626,0.019722,0.0592804,-0.0535965,-0.0906372,-0.0187302,-9.97986,-0.00865936,-0.00476837,-0.042305,-0.578766,0.0255966,-0.0235367,-0.0298691,-0.0748062
25,8,10.0097,0.000610352,0.000305176,-2.42623,0.0550706,-0.075063,0.0574849,0.0602892,-0.0925361,0.145318,-0.125766,-0.0822652,-0.028038,0.0289154,0.0235748,0.0144958,0.0633621,-0.0451279,-0.0883484,-0.00362396,-9.97986,0.00213623,-0.00526428,-0.0562668,-0.56591,0.0133514,-0.0183105,-0.0262833,-0.0635147
25,9,10.0097,0.000915527,0.00183105,-2.42592,0.0569017,-0.0744527,0.054128,0.0688341,-0.0919257,0.144708,-0.124851,-0.0822652,-0.0185776,0.0304031,0.0199127,0.0134277,0.0696564,-0.0361252,-0.0879669,0.00431061,-9.97986,0.0228882,-0.00782013,-0.0640869,-0.540199,-0.00415802,-0.00938416,-0.0222015,-0.0521851
26,0,10.0097,0.000610352,0.00244141,-2.42684,0.055681,-0.075063,0.0544332,0.077379,-0.0910102,0.14776,-0.125766,-0.0822652,-0.0056839,0.0255585,0.017395,0.00991821,0.0757217,-0.0289154,-0.0812149,0.0125504,-9.97986,0.0444794,-0.00793457,-0.0699234,-0.517082,-0.0111008,-0.00110626,-0.0175476,-0.0435257
26,1,10.0097,0.000610352,0.00213623,-2.42867,0.0532396,-0.0756734,0.054128,0.0898912,-0.0919257,0.143182,-0.126072,-0.0840963,-0.00823975,0.0221634,0.0152969,0.00770569,0.0747681,-0.0253677,-0.0839996,0.013504,-9.97986,0.0235748,-0.00205994,-0.0743866,-0.511131,-0.0182343,0.00148773,-0.0117493,-0.0299454
26,2,10.0097,0.000610352,0.0012207,-2.42928,0.0535448,-0.0765889,0.0529073,0.0752428,-0.0949775,0.143487,-0.125766,-0.0862325,-0.0405884,0.0239182,0.0128174,0.0111771,0.0739288,-0.018158,-0.0799561,0.0118637,-9.97986,0.00907898,-0.00289917,-0.08461,-0.503578,-0.0289154,-0.00259399,-0.00915527,-0.0196838
26,3,10.0097,-0.000610352,0.000152588,-2.42867,0.0547655,-0.075063,0.0519917,0.07036,-0.0955879,0.142572,-0.127598,-0.0859274,-0.0621796,0.0207901,0.0145721,0.00450134,0.0792694,-0.0211716,-0.0784302,0.0150681,-9.97986,0.0440598,-0.000801086,-0.0958633,-0.497246,-0.0480652,-0.00778198,-0.00953674,-0.00953674
26,4,10.0097,0.00183105,0.000762939,-2.42928,0.0538499,-0.0747579,0.0522969,0.0718859,-0.0949775,0.143792,-0.127903,-0.0871481,-0.0697708,0.015831,0.00709534,0.00785828,0.0756836,-0.0188065,-0.0708389,0.0133514,-9.97986,0.0934601,-0.00347137,-0.114403,-0.485039,-0.0611877,-0.0105667,0.00400543,0.00267029
26,5,10.0097,0,-0.000152588,-2.42959,0.0529344,-0.0771993,0.050771,0.0688341,-0.0949775,0.143792,-0.126377,-0.0871481,-0.0793076,0.0140762,0.00488281,0.00396729,0.0799561,-0.00701904,-0.0693512,0.0157547,-9.97986,0.114479,-0.00293732,-0.129929,-0.479965,-0.0805664,-0.0127411,0.0112534,0.0115585
26,6,10.0097,0.000915527,-0.000610352,-2.42776,0.0550706,-0.0768941,0.0513814,0.0691393,-0.095893,0.142267,-0.127903,-0.0865377,-0.0738144,0.0173569,0.0152969,0.00350952,0.0788116,-0.000991821,-0.0662994,0.0143814,-9.97986,0.110245,0.00270844,-0.163574,-0.481071,-0.0915146,-0.015831,0.0102234,0.0199509
26,7,10.0097,0.000305176,-0.000915527,-2.42867,0.0541551,-0.0759786,0.0519917,0.0694445,-0.0937568,0.144708,-0.127292,-0.0859274,-0.0478363,0.0207901,0.0135422,0.00946045,0.0780869,-0.000534058,-0.06073,0.0063324,-9.97986,0.0870132,0.00110626,-0.205231,-0.499535,-0.0983429,-0.0114822,0.0139999,0.0268173
26,8,10.0097,-0.000305176,-0.00137329,-2.42714,0.0550706,-0.0753682,0.0526021,0.0694445,-0.0937568,0.145929,-0.125766,-0.0844015,-0.0188446,0.0179672,0.0154114,0.00713348,0.0782013,0.0117874,-0.0528336,0.0105286,-9.97986,0.0634384,0.000495911,-0.257568,-0.506783,-0.116501,-0.021553,0.0156021,0.0245667
26,9,10.0097,0.00244141,-0.000152588,-2.42623,0.0559862,-0.0744527,0.0516866,0.0706652,-0.0925361,0.145318,-0.126682,-0.0844015,0.0177002,0.026474,0.0191498,0.00648499,0.0701523,0.0247955,-0.052948,0.00907898,-9.97986,0.0451279,0.00038147,-0.299492,-0.497208,-0.121269,-0.0271225,0.0167847,0.026207
27,0,10.0097,0.00152588,0.000457764,-2.42714,0.055681,-0.0756734,0.0532125,0.0700548,-0.0922309,0.143792,-0.126072,-0.0834859,0.0770187,0.0263596,0.0180435,0.00961304,0.0692749,0.0398254,-0.0408936,0.0138474,-9.97986,0.0411987,0.00125885,-0.320015,-0.49324,-0.137215,-0.0344086,0.019722,0.0328827
27,1,10.0097,-0.000610352,-0.00137329,-2.42562,0.0553758,-0.0747579,0.0538228,0.07036,-0.0916206,0.145624,-0.126987,-0.0813497,0.11795,0.0263596,0.0219345,0.0043869,0.0640488,0.0522614,-0.0317001,0.0104141,-9.97986,0.0328064,-0.00564575,-0.314293,-0.506325,-0.148315,-0.0333786,0.0219727,0.0300217
27,2,10.0097,0,-0.000305176,-2.42623,0.0559862,-0.0735371,0.0553487,0.0697496,-0.0928413,0.145624,-0.125766,-0.0822652,0.0987625,0.0282288,0.0233459,0.00579834,0.0541687,0.0470352,-0.028801,0.00808716,-9.97986,0.0190735,-0.0031662,-0.295219,-0.51506,-0.161018,-0.0286484,0.0233841,0.0299072
27,3,10.0097,0.0012207,0.000457764,-2.42531,0.0559862,-0.0738423,0.0550435,0.0694445,-0.0919257,0.145013,-0.124241,-0.0813497,0.087471,0.0287628,0.0238419,0.00953674,0.0501633,0.0525284,-0.0222397,0.00953674,-9.97986,-0.00682831,-3.8147e-005,-0.27668,-0.508652,-0.169411,-0.0263214,0.0214005,0.0322723
27,4,10.0097,0.000305176,0.000457764,-2.42501,0.0562914,-0.0741475,0.0565694,0.0700548,-0.0903999,0.146539,-0.125156,-0.0810445,0.0628281,0.0238037,0.0195694,0.00911713,0.0465012,0.0473404,-0.0183105,0.00961304,-9.97986,-0.0252533,0.00465393,-0.256271,-0.503197,-0.179214,-0.0168228,0.0247192,0.0289917
27,5,10.0097,0.0012207,-0.000152588,-2.4247,0.0572069,-0.0741475,0.0556539,0.0715807,-0.0910102,0.146234,-0.123325,-0.0807394,0.0433731,0.0188446,0.0174332,0.00679016,0.0423813,0.0450134,-0.0108337,0.0148392,-9.97986,-0.00797272,0.00213623,-0.230026,-0.508575,-0.194054,-0.0145721,0.0246048,0.0288773
27,6,10.0097,0.00152588,-0.000457764,-2.42623,0.0559862,-0.0744527,0.0526021,0.0572374,-0.0934516,0.145013,-0.125461,-0.0819601,0.0310135,0.0198364,0.0162506,0.00408173,0.0292587,0.0465775,-0.00621796,0.0122452,-9.97986,0.0116348,0.00171661,-0.196304,-0.509071,-0.196342,-0.0150299,0.0233459,0.0254822
27,7,10.0097,0.00396729,-0.000610352,-2.42562,0.0565965,-0.0744527,0.0544332,0.0523546,-0.0934516,0.145929,-0.126072,-0.0825704,0.0226974,0.0173187,0.0117493,0.00293732,0.00473022,0.0477982,-0.00038147,0.0149155,-9.97986,0.0285339,-0.00328064,-0.160217,-0.499802,-0.198021,-0.0138092,0.017662,0.022049
27,8,9.96266,0.000610352,0.000457764,-2.42684,0.055681,-0.0747579,0.0565694,0.0615099,-0.0913154,0.145318,-0.126377,-0.0828756,0.0242615,0.0199509,0.0136185,0.00137329,-0.0305939,0.0440979,0.00774384,0.0159454,-9.97986,0.0357437,-0.00720978,-0.128746,-0.485878,-0.194016,-0.0156784,0.0170517,0.0218201
27,9,9.99104,-0.000610352,0.00183105,-2.42592,0.0550706,-0.0747579,0.0562642,0.0679186,-0.0928413,0.145318,-0.125766,-0.0825704,0.0336456,0.0183487,0.0164413,0.000152588,-0.0708008,0.0473022,0.0122833,0.0151825,-9.97986,0.0359726,-0.00205994,-0.0936127,-0.464668,-0.194283,-0.0170517,0.0154877,0.0206757
28,0,10.0097,0.00213623,0.00152588,-2.42714,0.0547655,-0.0759786,0.054128,0.0767687,-0.0925361,0.144708,-0.124546,-0.0831808,0.0332642,0.0167465,0.00919342,0.00141144,-0.10601,0.0537872,0.0151062,0.0273895,-9.97986,0.01194,7.62939e-005,-0.0497437,-0.453987,-0.193596,-0.0154877,0.0169754,0.0151443
28,1,10.0097,0.000915527,0.00228882,-2.42776,0.0544603,-0.0747579,0.0550435,0.0926378,-0.0910102,0.144098,-0.124546,-0.0844015,0.0298691,0.0156784,0.0107956,0.000610352,-0.131874,0.0564194,0.0209427,0.0302887,-9.97986,-0.00846863,-0.00457764,-0.0140762,-0.443611,-0.186577,-0.00720978,0.0109863,0.0125885
28,2,10.0097,0.000610352,0.00167847,-2.42837,0.0541551,-0.0759786,0.0532125,0.0749376,-0.0965034,0.143182,-0.126682,-0.0859274,0.0231934,0.0183487,0.0133133,-0.00255585,-0.141487,0.0658417,0.0230789,0.0247192,-9.97986,-0.0254059,-3.8147e-005,0.0295258,-0.422745,-0.186157,-0.0056076,0.00514984,0.0108337
28,3,10.0097,-0.000610352,0.000762939,-2.42928,0.0541551,-0.0756734,0.0547383,0.07036,-0.0946723,0.145013,-0.127598,-0.0868429,-0.00534058,0.0190735,0.0117493,0.00141144,-0.142059,0.076561,0.0345612,0.0276947,-9.97986,-0.0328064,-0.00324249,0.065155,-0.419083,-0.176697,-0.00545502,0.00404358,0.0128937
28,4,10.0097,0.0012207,-0.000305176,-2.42806,0.0544603,-0.0747579,0.0532125,0.0688341,-0.0946723,0.144403,-0.128513,-0.0865377,-0.0267792,0.0188446,0.00476837,-0.00404358,-0.142403,0.0790024,0.0412369,0.0275421,-9.97986,-0.0342178,-0.00087738,0.10437,-0.422897,-0.169182,-0.00343323,0.00526428,0.0130081
28,5,10.0097,0.000305176,0.00167847,-2.42898,0.0538499,-0.0756734,0.0519917,0.0685289,-0.0955879,0.143792,-0.127292,-0.0856222,-0.046463,0.0142288,0.0107956,-0.000686646,-0.132103,0.0857162,0.0474167,0.0283432,-9.97986,-0.0255203,0.00102997,0.140724,-0.382957,-0.165329,-0.00358582,-0.00137329,0.00816345
28,6,10.0097,0.0012207,0.0038147,-2.42959,0.0541551,-0.0744527,0.0535176,0.0706652,-0.094062,0.143182,-0.127903,-0.0856222,-0.0415421,0.017662,0.0115967,0.001297,-0.123787,0.0894165,0.0531006,0.0220108,-9.97986,-0.0107574,-0.00217438,0.171623,-0.334015,-0.161018,0.00102997,0.000648499,0.0123215
28,7,10.0097,0.0012207,0.00350952,-2.42837,0.0544603,-0.0762837,0.0538228,0.07036,-0.0937568,0.143792,-0.126987,-0.085317,-0.0148773,0.018425,0.0101852,0.000648499,-0.120735,0.109673,0.0535583,0.021286,-9.97986,0.00602722,-0.00038147,0.203819,-0.295334,-0.158882,0.00812531,-0.00583649,0.0121307
28,8,10.0097,0.0012207,0.00411987,-2.42714,0.0538499,-0.0741475,0.0544332,0.0691393,-0.0928413,0.144098,-0.127292,-0.0834859,0.0252151,0.0228882,0.0147247,0.00171661,-0.109749,0.125847,0.0629425,0.0233459,-9.97986,0.020256,-0.000724792,0.235176,-0.247459,-0.163345,0.00343323,-0.00396729,0.0124359
28,9,10.0097,0.000610352,0.0050354,-2.42714,0.0547655,-0.0741475,0.0544332,0.07036,-0.0931465,0.145013,-0.126072,-0.0834859,0.0715256,0.0208282,0.0139618,-0.000648499,-0.102921,0.137215,0.0656891,0.0279617,-9.97986,0.0366974,-0.00267029,0.265465,-0.195389,-0.157356,0.0025177,-0.00469208,0.0149918
29,0,10.0097,0.000610352,0.00549316,-2.42684,0.0553758,-0.0744527,0.0547383,0.0709703,-0.0925361,0.145318,-0.126682,-0.0822652,0.0953674,0.0242615,0.0149918,0.00205994,-0.092926,0.149155,0.072403,0.0183868,-9.97986,0.0392914,0.000114441,0.304565,-0.145569,-0.141869,0.000190735,-0.00205994,0.0144958
29,1,10.0097,-0.00183105,0.00457764,-2.4244,0.0569017,-0.075063,0.0556539,0.0706652,-0.0922309,0.145929,-0.124851,-0.0813497,0.0777435,0.0246048,0.0175095,0.00156403,-0.0805283,0.150871,0.0815964,0.021286,-9.97986,0.0450516,0.000343323,0.342331,-0.107651,-0.133095,-0.00198364,-0.00118256,0.0179291
29,2,10.0097,0,0.00320435,-2.42531,0.0565965,-0.0729268,0.055959,0.0712755,-0.0922309,0.146234,-0.124241,-0.0807394,0.0498962,0.0255966,0.0202179,-0.00144958,-0.0737381,0.157738,0.0746536,0.0167847,-9.97986,0.0465393,-0.00423431,0.376205,-0.074234,-0.126991,-0.00621796,-0.00198364,0.0143433
29,3,10.0097,0.0012207,0.00411987,-2.4244,0.0578172,-0.0738423,0.0556539,0.072191,-0.090705,0.146844,-0.123935,-0.080129,0.0352478,0.0276184,0.0190735,-0.00175476,-0.0578308,0.160789,0.0785828,0.018158,-9.97986,0.05867,-0.000419617,0.409164,-0.0279617,-0.111732,-0.0056076,0.00263214,0.0200653
29,4,10.0097,-0.000305176,0.0038147,-2.4244,0.0562914,-0.0744527,0.0562642,0.0691393,-0.0913154,0.146844,-0.124241,-0.080129,0.0139236,0.0260544,0.0154877,0.000114441,-0.0494766,0.156898,0.0748444,0.0148392,-9.97986,0.0468826,-0.00305176,0.417976,0.00640869,-0.106163,-0.00999451,0.0018692,0.0146866
29,5,10.0097,0.00183105,0.00366211,-2.4247,0.0553758,-0.0738423,0.0544332,0.0715807,-0.090705,0.146844,-0.12363,-0.0798238,0.0151062,0.0268173,0.0156021,0.00247955,-0.039444,0.148239,0.0746536,0.0156403,-9.97986,0.0325775,-0.000457764,0.419312,0.0560379,-0.0926971,-0.00812531,0.00411987,0.011673
29,6,10.0097,0,0.00350952,-2.42531,0.0565965,-0.0735371,0.0529073,0.0563219,-0.0937568,0.145929,-0.126377,-0.0813497,0.0156021,0.0286865,0.0180435,0.00213623,-0.022316,0.147629,0.0790787,0.0200272,-9.97986,0.0134277,-0.0031662,0.402145,0.0902557,-0.0782776,-0.0100327,0.00762939,0.00930786
29,7,10.0097,-0.000915527,0.00274658,-2.42501,0.0562914,-0.0735371,0.0538228,0.0520494,-0.0937568,0.145624,-0.126072,-0.0816549,0.0122833,0.0262833,0.0196075,0.0056076,-0.0197983,0.144386,0.0842285,0.018692,-9.97986,-0.00167847,-0.00228882,0.378532,0.120049,-0.063324,-0.0105286,0.00549316,0.00804901
29,8,9.82228,-0.000305176,0.00305176,-2.42531,0.0569017,-0.075063,0.0532125,0.0587633,-0.0928413,0.146234,-0.125461,-0.080129,0.011673,0.027504,0.017128,0.00495911,-0.00839233,0.135269,0.0865555,0.0127411,-9.97986,-0.0106812,-0.00614166,0.349045,0.144768,-0.052681,-0.0119781,0.00961304,0.00205994
29,9,9.80336,0.000610352,0.00228882,-2.42562,0.0559862,-0.075063,0.0538228,0.067003,-0.0919257,0.145624,-0.124546,-0.0825704,0.00652313,0.0317764,0.0184631,0.00675201,0,0.128326,0.0876999,0.0136566,-9.97986,-0.00350952,-0.00873566,0.320091,0.15789,-0.0470352,-0.0110245,0.01194,0.00205994
30,0,10.0097,-0.000915527,0.00167847,-2.42653,0.0553758,-0.0756734,0.054128,0.0776842,-0.0891792,0.146539,-0.126072,-0.0822652,0.00415802,0.0271225,0.0154114,0.00480652,0.00530243,0.12207,0.0936127,0.0192261,-9.97986,0.00408173,-0.00133514,0.284462,0.165367,-0.0349426,-0.0161743,0.012207,-0.00499725
30,1,10.0097,0.00183105,0.00244141,-2.42806,0.0550706,-0.0768941,0.0519917,0.0953844,-0.0900947,0.145013,-0.125766,-0.0847066,0.00450134,0.0293732,0.0105286,0.0106812,0.015564,0.113335,0.0995255,0.0205231,-9.97986,0.0075531,0.00267029,0.257225,0.170364,-0.0181198,-0.0146484,0.0122833,-0.00556946
30,2,10.0097,0.000610352,0.00106812,-2.42959,0.0529344,-0.0753682,0.0519917,0.0782946,-0.0937568,0.144708,-0.126987,-0.0859274,0.00312805,0.0294113,0.0162125,-0.00267029,0.0205612,0.110893,0.094223,0.0178146,-9.97986,-3.8147e-005,0.00347137,0.219536,0.172806,-0.0149536,-0.0149155,0.0130844,-0.0119781
30,3,10.0097,0.00152588,0.000610352,-2.42898,0.0541551,-0.0759786,0.0519917,0.0737169,-0.0955879,0.145318,-0.126987,-0.0865377,0.00728607,0.0279617,0.0118256,0.00377655,0.0256348,0.105591,0.0947952,0.0194931,-9.97986,0.0069046,0.0019455,0.200005,0.174522,-0.00404358,-0.0162125,0.0144958,-0.0162888
30,4,10.0097,-0.000305176,0.000305176,-2.42928,0.0544603,-0.0756734,0.0529073,0.0709703,-0.0946723,0.142572,-0.126682,-0.0871481,0.00595093,0.025444,0.0119019,0.00389099,0.0267792,0.0993729,0.0938416,0.0199509,-9.97986,0.02491,-0.00160217,0.175514,0.170975,0.00358582,-0.0191116,0.0144577,-0.021553
30,5,10.0097,-0.000305176,0.000305176,-2.42837,0.0532396,-0.0759786,0.0519917,0.0694445,-0.0946723,0.143487,-0.126377,-0.0868429,0.000953674,0.0325394,0.0154877,0.00305176,0.0332642,0.096283,0.0861359,0.0200272,-9.97986,0.0233459,-0.00526428,0.15316,0.179443,0.0165939,-0.0192261,0.0130081,-0.0256348
30,6,10.0097,0.000610352,0.000610352,-2.42898,0.0547655,-0.0753682,0.0510762,0.0682238,-0.0949775,0.144098,-0.127292,-0.0865377,0.00450134,0.031662,0.0175858,0.00682831,0.0344086,0.0939941,0.0923157,0.0131607,-9.97986,0.0367737,-0.00537872,0.13073,0.19207,0.0257492,-0.0184631,0.0136566,-0.0315094
30,7,10.0097,0.000610352,0.000915527,-2.42867,0.0550706,-0.0756734,0.0510762,0.0694445,-0.0946723,0.144098,-0.126682,-0.0859274,0.00598907,0.0307083,0.0140381,0.0105667,0.0409698,0.0902176,0.0940323,0.0165176,-9.97986,0.0510406,-0.00133514,0.107841,0.200577,0.0416946,-0.0172806,0.0152969,-0.0350571
30,8,10.0097,0.0012207,0.000915527,-2.42867,0.0544603,-0.075063,0.0522969,0.0700548,-0.0937568,0.145929,-0.126377,-0.085317,0.0140762,0.0286102,0.0146866,0.0088501,0.0451279,0.0800323,0.0910187,0.0159454,-9.97986,0.0558472,0.0044632,0.0937271,0.208435,0.0443649,-0.0118637,0.016098,-0.0372696
30,9,10.0097,0,0.000305176,-2.42714,0.0541551,-0.0759786,0.0532125,0.0694445,-0.0934516,0.145318,-0.125766,-0.0840963,0.0203323,0.0351715,0.0172806,0.00888824,0.0497055,0.0808716,0.0885391,0.0181961,-9.97986,0.0527573,-0.00339508,0.0837326,0.210228,0.039444,-0.00766754,0.015564,-0.041008
31,0,10.0097,0.0012207,0.00137329,-2.42684,0.0547655,-0.0747579,0.054128,0.0715807,-0.0934516,0.144708,-0.125156,-0.0844015,0.0156784,0.0308228,0.0165558,0.00843048,0.0437927,0.0694275,0.0875473,0.0156784,-9.97986,0.0567627,0.000534058,0.0695038,0.223312,0.0420761,-0.00892639,0.0186539,-0.0428009
31,1,10.0097,0.000610352,0.000915527,-2.42501,0.0553758,-0.0738423,0.0556539,0.0709703,-0.0916206,0.146844,-0.124241,-0.0813497,0.00171661,0.0345993,0.0198746,0.00331879,0.0482559,0.0695801,0.0816345,0.0135803,-9.97986,0.0527573,-0.000228882,0.0585938,0.237389,0.0514221,-0.00896454,0.0156403,-0.0444031
31,2,10.0097,0.000610352,0.000610352,-2.42562,0.0550706,-0.0741475,0.0547383,0.0697496,-0.0922309,0.145318,-0.124851,-0.0813497,0.00171661,0.0361252,0.019989,0.0094986,0.0458908,0.0578308,0.071907,0.0186539,-9.97986,0.0490952,0.0012207,0.0499725,0.234833,0.0506592,-0.00766754,0.0150299,-0.0437164
31,3,10.0097,0.000305176,0,-2.42531,0.0575121,-0.0738423,0.0538228,0.07036,-0.0922309,0.146234,-0.12302,-0.0819601,0.00144958,0.0352478,0.0174713,0.00720978,0.0475311,0.055542,0.064888,0.0196838,-9.97986,0.0357437,0.000343323,0.0428009,0.231247,0.0486374,-0.00720978,0.0185394,-0.0515366
31,4,10.0097,0.00152588,-0.000457764,-2.4247,0.0569017,-0.073232,0.0544332,0.07036,-0.0897895,0.14837,-0.123325,-0.0804342,0.0069046,0.0386429,0.0193024,0.00923157,0.0494003,0.0505447,0.0715637,0.019722,-9.97986,0.0333023,0.00282288,0.0423813,0.226517,0.0575638,0.001297,0.0196075,-0.0445557
31,5,10.0097,0.000610352,-0.000305176,-2.42592,0.0562914,-0.0744527,0.054128,0.0709703,-0.090705,0.14776,-0.125461,-0.0810445,0.00553131,0.0321198,0.0196838,0.00530243,0.0456238,0.0443268,0.0666428,0.0217819,-9.97986,0.0230026,-0.000343323,0.0311661,0.224037,0.0722122,0.0132751,0.0188828,-0.0433731
31,6,10.0097,-0.000305176,0.000457764,-2.42653,0.0562914,-0.075063,0.0538228,0.0590685,-0.0943672,0.148065,-0.125156,-0.0813497,0.0131607,0.0381088,0.0224686,0.00728607,0.0508881,0.0352097,0.062027,0.0171661,-9.97986,0.0131226,-0.00713348,0.0257492,0.22728,0.0847626,0.0102615,0.0188446,-0.0406647
31,7,10.0097,0.000305176,-0.000457764,-2.42592,0.0553758,-0.0741475,0.0538228,0.0514391,-0.0946723,0.146234,-0.125766,-0.0822652,0.0123978,0.0369644,0.0154877,0.0025177,0.0478363,0.0288391,0.0576401,0.0171661,-9.97986,0.00659943,-0.00740051,0.0220871,0.222092,0.0995636,0.00938416,0.0166702,-0.0329208
31,8,10.0097,0.00152588,-0.000915527,-2.42653,0.0565965,-0.0747579,0.0529073,0.0590685,-0.0928413,0.146234,-0.125766,-0.0831808,0.00926971,0.033493,0.0213623,0.00427246,0.0550461,0.0270844,0.048027,0.0183105,-9.97986,0.00301361,-0.00358582,0.0156021,0.220222,0.107613,0.00587463,0.0185776,-0.0276947
31,9,10.0097,0.000305176,0.000915527,-2.42653,0.055681,-0.0735371,0.054128,0.067003,-0.0919257,0.147149,-0.125461,-0.0825704,0.0129318,0.0367737,0.022583,0.00965118,0.056572,0.0207138,0.0380707,0.0117111,-9.97986,-0.000610352,0.00160217,0.00743866,0.23365,0.108147,-0.000762939,0.0168991,-0.0226974
32,0,10.0097,-0.00213623,0.00198364,-2.42562,0.0559862,-0.0744527,0.0550435,0.0770738,-0.0919257,0.145013,-0.124851,-0.0822652,0.00221252,0.0361633,0.0231552,0.00865936,0.055809,0.0191116,0.0227737,0.00457764,-9.97986,-0.00476837,0.00617981,-0.00213623,0.256271,0.110931,-0.00904083,0.0127411,-0.0155258
32,1,10.0097,-0.000305176,0.00183105,-2.42989,0.0532396,-0.0756734,0.0535176,0.0883654,-0.0922309,0.143182,-0.125766,-0.0844015,-0.0249481,0.0343323,0.019989,0.0105667,0.057373,0.0117493,0.00904083,0.00354767,-9.97986,-0.0107956,-0.00320435,-0.00930786,0.250778,0.114746,-0.0149536,0.0138092,-0.0134277
32,2,10.0097,0.000915527,0.000610352,-2.42959,0.0547655,-0.0747579,0.0516866,0.075548,-0.094062,0.142572,-0.126987,-0.0859274,-0.0352478,0.0376129,0.0231552,0.0117111,0.0587845,0.0131989,0.0123596,0.00534058,-9.97986,-0.00915527,-0.000228882,-0.0105667,0.250893,0.11631,-0.0101471,0.0128937,-0.00904083
32,3,10.0097,0.000915527,-0.00106812,-2.42928,0.0547655,-0.0756734,0.0516866,0.0718859,-0.0937568,0.144403,-0.127292,-0.0868429,-0.0374603,0.0342941,0.0228119,0.0128937,0.0605392,0.0100708,0.0154877,0.0119781,-9.97986,-0.0182343,-0.00843048,-0.0217056,0.239334,0.131226,-0.00156403,0.0136948,-0.000915527
32,4,10.0097,-0.000305176,-0.0012207,-2.42867,0.0538499,-0.0759786,0.0519917,0.0697496,-0.0949775,0.143182,-0.126377,-0.0871481,-0.0323486,0.0337982,0.0235748,0.0128937,0.0590515,0.00904083,0.0156784,0.0115967,-9.97986,-0.0235748,-0.00709534,-0.0263596,0.228958,0.146523,-0.00240326,0.0152588,0.00240326
32,5,10.0097,-0.000915527,-0.000915527,-2.42837,0.0532396,-0.0762837,0.0522969,0.0700548,-0.0919257,0.143792,-0.128513,-0.0868429,-0.000152588,0.0341034,0.0217056,0.00999451,0.0605011,0.00911713,0.0229263,0.0174713,-9.97986,-0.028801,-0.00526428,-0.0347519,0.222015,0.150528,-0.00324249,0.0144577,0.00587463
32,6,10.0097,0.000915527,-0.00198364,-2.42867,0.0532396,-0.075063,0.0532125,0.0682238,-0.0952827,0.143182,-0.128208,-0.0871481,0.00366211,0.0291443,0.0204849,0.0156784,0.0627899,0.0105286,0.0215912,0.0161743,-9.97986,-0.0217438,-0.00694275,-0.0415802,0.209846,0.1548,0.00553131,0.0180435,0.0112152
32,7,10.0097,0.000305176,-0.00167847,-2.42806,0.0547655,-0.0765889,0.0522969,0.0700548,-0.0946723,0.144708,-0.126987,-0.0862325,-0.0100327,0.0330353,0.0192261,0.0150681,0.0611496,0.00602722,0.0259781,0.0145721,-9.97986,-0.015564,0.000839233,-0.0488281,0.190887,0.155296,0.0104141,0.015831,0.0128937
32,8,10.0097,0.0012207,-0.00137329,-2.42745,0.0547655,-0.0759786,0.0519917,0.0700548,-0.0934516,0.144403,-0.126682,-0.085317,-0.00892639,0.0308609,0.0195313,0.0112152,0.0645065,0.0111389,0.032959,0.0178528,-9.97986,0.00675201,0.00343323,-0.0539398,0.19249,0.156708,0.00938416,0.0170135,0.0174713
32,9,10.0097,0.000305176,-0.000305176,-2.42776,0.0547655,-0.0756734,0.0519917,0.07036,-0.094062,0.145318,-0.125766,-0.0840963,0.00720978,0.0302124,0.0149918,0.0075531,0.0630951,0.0112152,0.0396729,0.0177002,-9.97986,0.0192642,-0.00167847,-0.0574493,0.190582,0.161362,0.00675201,0.0166321,0.0194931
33,0,10.0097,0.000610352,-0.000610352,-2.42714,0.0541551,-0.0753682,0.0529073,0.07036,-0.0925361,0.145624,-0.126072,-0.0840963,0.00133514,0.0277328,0.0148773,0.0134277,0.0614929,0.0127411,0.0521469,0.0154495,-9.97986,0.0278854,0.00404358,-0.0626755,0.178909,0.168839,-0.00114441,0.0161362,0.0188828
33,1,10.0097,0.000610352,0.000610352,-2.42623,0.0562914,-0.0738423,0.054128,0.0718859,-0.0916206,0.145929,-0.124851,-0.0825704,0.00988007,0.0296402,0.0154877,0.0128174,0.0617218,0.0157166,0.0579071,0.00682831,-9.97986,0.0437164,0.00732422,-0.0618362,0.184135,0.187073,-0.00823975,0.0190353,0.0194931
33,2,10.0097,0.000610352,0.000915527,-2.4244,0.0575121,-0.0762837,0.0550435,0.0706652,-0.0913154,0.146844,-0.123935,-0.0813497,0.0246048,0.0304413,0.0172043,0.0170898,0.0590897,0.0202179,0.0541687,0.00137329,-9.97986,0.0552368,0.00583649,-0.0651932,0.192528,0.190125,-0.0135803,0.017128,0.0242233
33,3,10.0097,0,0.000915527,-2.42592,0.0569017,-0.0738423,0.054128,0.0718859,-0.090705,0.147149,-0.124241,-0.0813497,0.0310135,0.028801,0.0190735,0.0144577,0.0600433,0.020752,0.0435638,0.00366211,-9.97986,0.0489426,0.00408173,-0.0624084,0.18837,0.197182,-0.0172424,0.0148773,0.0291061
33,4,10.0097,0.0012207,-0.000305176,-2.4247,0.0565965,-0.073232,0.0550435,0.0709703,-0.0910102,0.14776,-0.124241,-0.0810445,0.0313568,0.0266266,0.0127411,0.0154495,0.0621033,0.018692,0.0394058,0.00675201,-9.97986,0.027771,0.00400543,-0.0654984,0.194168,0.207558,-0.0217819,0.0168228,0.0322723
33,5,10.0097,0.00213623,0.000915527,-2.42409,0.0569017,-0.0726216,0.0553487,0.0706652,-0.0913154,0.146234,-0.124546,-0.080129,0.033226,0.0227356,0.0133514,0.0135422,0.0617599,0.0207138,0.0284958,0.00938416,-9.97986,0.0110626,0.00152588,-0.0600815,0.197372,0.20813,-0.0331116,0.0204468,0.0349808
33,6,10.0097,0.000305176,0.000152588,-2.42623,0.0569017,-0.0741475,0.0538228,0.0605944,-0.094062,0.146539,-0.126377,-0.0822652,0.0275421,0.0239944,0.0159073,0.0143051,0.0564194,0.0215912,0.0255203,0.0132751,-9.97986,-0.000991821,-0.000572205,-0.0620651,0.198288,0.208092,-0.0330353,0.0180817,0.0363159
33,7,10.0097,0.000915527,0,-2.42562,0.055681,-0.0738423,0.0547383,0.0532701,-0.0934516,0.146539,-0.125766,-0.0807394,0.0190735,0.0196075,0.0127029,0.0156021,0.0602341,0.0233078,0.0362778,0.0131989,-9.97986,-7.62939e-005,0,-0.0614548,0.208931,0.216827,-0.0325012,0.0178146,0.0402069
33,8,10.0097,-0.000610352,0.000915527,-2.42592,0.0550706,-0.073232,0.0544332,0.0608995,-0.0922309,0.145318,-0.125461,-0.0822652,0.014534,0.0232315,0.0177383,0.0163651,0.0622177,0.0215149,0.0247574,0.0182343,-9.97986,0.015564,0.00114441,-0.0605011,0.217896,0.225143,-0.0279999,0.0190353,0.0449371
33,9,10.0097,0,0,-2.42837,0.0547655,-0.0747579,0.0547383,0.0685289,-0.0925361,0.146539,-0.126072,-0.0831808,0.00537872,0.0191116,0.0168228,0.0165558,0.0609589,0.0216293,0.0132751,0.0216675,-9.97986,0.0075531,0.00324249,-0.0582504,0.220375,0.233574,-0.0254822,0.018158,0.0446701
34,0,10.0097,0,0.000305176,-2.42592,0.0550706,-0.075063,0.0538228,0.077379,-0.0913154,0.145013,-0.125156,-0.0834859,0.00602722,0.0204086,0.013504,0.0146484,0.0580215,0.0218582,0.00171661,0.0142288,-9.97986,0.00236511,0.00156403,-0.0537491,0.218697,0.245667,-0.0240326,0.0192642,0.0485611
34,1,10.0097,0,0.000610352,-2.42745,0.0541551,-0.0741475,0.054128,0.0883654,-0.0922309,0.144098,-0.125461,-0.0859274,0.0145721,0.0234604,0.0184631,0.0175858,0.06073,0.0182343,-0.00751495,0.0143814,-9.97986,0.000839233,3.8147e-005,-0.0515747,0.223236,0.237999,-0.0250626,0.0201035,0.0508118
34,2,10.0097,0.000915527,0.000762939,-2.42806,0.0547655,-0.0762837,0.0526021,0.0758531,-0.0937568,0.139215,-0.126682,-0.0859274,0.0304031,0.0212479,0.0193787,0.0149536,0.0527954,0.0117111,-0.00724792,0.0133514,-9.97986,0.0136185,-0.00106812,-0.0522995,0.227356,0.243492,-0.0202179,0.0183487,0.0481415
34,3,10.0097,-0.000305176,0.000305176,-2.42806,0.0544603,-0.0753682,0.0526021,0.0724962,-0.0946723,0.143792,-0.126682,-0.0859274,0.0273514,0.0197983,0.0230026,0.0198746,0.0558472,0.0147629,0.00350952,0.0167465,-9.97986,0.0349045,-0.00377655,-0.0489426,0.2314,0.249481,-0.0180054,0.0191498,0.0514603
34,4,10.0097,0.000610352,0.000152588,-2.42928,0.0541551,-0.0762837,0.0538228,0.0709703,-0.0949775,0.144403,-0.127292,-0.0865377,0.0205994,0.0242233,0.022316,0.0147247,0.0566864,0.00740051,0.00961304,0.01091,-9.97986,0.0445938,0.00114441,-0.0479889,0.236282,0.248489,-0.00770569,0.0187683,0.0511169
34,5,10.0097,0,-0.000152588,-2.42959,0.0535448,-0.0762837,0.0516866,0.0682238,-0.0943672,0.144708,-0.126987,-0.0865377,0.0127792,0.0226593,0.0242996,0.0186157,0.0503922,0.0110626,0.0148773,0.0069809,-9.97986,0.0421906,0.00282288,-0.0473785,0.240898,0.23613,0.000610352,0.0169754,0.0534821
34,6,10.0097,-0.000915527,0.000762939,-2.42898,0.0532396,-0.0759786,0.0519917,0.067003,-0.0949775,0.143792,-0.128208,-0.0871481,0.00335693,0.0287247,0.0244522,0.0177383,0.0470352,0.00865936,0.0126266,0.01194,-9.97986,0.0289154,0.00110626,-0.0415421,0.251808,0.241241,0.000915527,0.019455,0.0500488
34,7,10.0097,0.000610352,0.000152588,-2.42776,0.0550706,-0.0747579,0.0519917,0.0694445,-0.0949775,0.144403,-0.127598,-0.0856222,-0.00469208,0.0272751,0.0252151,0.0172043,0.045929,0.00331879,0.00411987,0.00686646,-9.97986,0.0261688,0.00301361,-0.0441742,0.258141,0.245819,-0.00648499,0.0191498,0.0444412
34,8,10.0097,0.000610352,0.000610352,-2.42348,0.0553758,-0.075063,0.0526021,0.0694445,-0.094062,0.143487,-0.125766,-0.0847066,-0.00247955,0.0294876,0.0275803,0.0221634,0.0436783,0.00930786,0.000534058,0.00621796,-9.97986,0.0183105,0.00293732,-0.0404739,0.268288,0.255775,-0.00648499,0.0213242,0.0518417
34,9,10.0097,0.000915527,0.00198364,-2.42745,0.0544603,-0.0753682,0.0535176,0.0700548,-0.0931465,0.145624,-0.126377,-0.0837911,-0.00205994,0.0284576,0.0249481,0.0218582,0.0424957,0.00362396,-0.0018692,0.00968933,-9.97986,0.0106812,-0.00930786,-0.0369644,0.281982,0.259476,-0.00823975,0.0227356,0.0537491
35,0,10.0097,-0.00183105,-0.000610352,-2.42592,0.0565965,-0.0747579,0.0535176,0.0700548,-0.0931465,0.145929,-0.125766,-0.0819601,0.0105667,0.0233459,0.0235367,0.0209808,0.0421524,-0.00286102,-0.00595093,0.00484467,-9.97986,0.00881195,-0.00892639,-0.0377655,0.274048,0.257645,-0.0094986,0.0214386,0.0524902
35,1,10.0097,0.00183105,0.000915527,-2.42379,0.0562914,-0.0744527,0.0547383,0.0715807,-0.0913154,0.146234,-0.124851,-0.0825704,0.0390244,0.0282288,0.0265503,0.0220108,0.0448608,0.00339508,0.00675201,0.0125504,-9.97986,0.0151825,-0.00801086,-0.0320816,0.28244,0.260849,-0.00148773,0.0243378,0.0562286
35,2,10.0097,0.000305176,0.000610352,-2.42531,0.0559862,-0.0738423,0.0547383,0.0709703,-0.0916206,0.146539,-0.125156,-0.0816549,0.0370789,0.0194168,0.0208664,0.0143814,0.0389099,-0.00152588,0.0142288,0.019722,-9.97986,0.0351334,-0.00209808,-0.0312805,0.291481,0.257339,0.00991821,0.0233459,0.0609589
35,3,10.0097,0.0012207,0.000305176,-2.42531,0.0565965,-0.07842,0.0556539,0.07036,-0.090705,0.146234,-0.124851,-0.0813497,0.0204468,0.0180435,0.0212479,0.0183105,0.0347137,-0.0062561,0.0327301,0.0177002,-9.97986,0.0392151,-0.0025177,-0.0245667,0.289726,0.261536,0.00980377,0.0271225,0.0631332
35,4,10.0097,0.00213623,0.000152588,-2.42745,0.0565965,-0.0747579,0.0544332,0.0715807,-0.0916206,0.14776,-0.122715,-0.0813497,0.013504,0.0192642,0.0160217,0.013504,0.0365829,-0.0125504,0.0481415,0.0212479,-9.97986,0.0320053,-0.0037384,-0.0210953,0.295792,0.255013,0.0156021,0.0305176,0.0612259
35,5,10.0097,0.000305176,-0.000305176,-2.42592,0.0565965,-0.0741475,0.0547383,0.07036,-0.0925361,0.146234,-0.124851,-0.0804342,0.00602722,0.0156403,0.0220871,0.0100327,0.0321198,-0.0118256,0.0569916,0.0209427,-9.97986,0.0120544,0.000915527,-0.0171661,0.294609,0.24971,0.01194,0.0279999,0.0539017
35,6,10.0097,-0.00152588,0,-2.42623,0.0562914,-0.0747579,0.0535176,0.0563219,-0.0937568,0.145929,-0.124851,-0.0807394,-0.0043869,0.0196075,0.0196838,0.0156784,0.0362396,-0.00911713,0.0682449,0.0245667,-9.97986,-0.00480652,0.00385284,-0.0206375,0.290794,0.245781,0.00888824,0.0287247,0.0528717
35,7,10.0097,0.000305176,-0.00106812,-2.42898,0.0550706,-0.0738423,0.0535176,0.0526598,-0.0943672,0.14776,-0.126682,-0.0813497,-0.00785828,0.0157166,0.0203323,0.0124741,0.0340652,-0.0126266,0.0686264,0.0191116,-9.97986,-0.0182724,0.00270844,-0.01091,0.305176,0.248032,0.00514984,0.0271225,0.0495529
35,8,10.0097,0,0,-2.42653,0.0550706,-0.0735371,0.0544332,0.0615099,-0.0928413,0.145929,-0.124546,-0.0822652,-0.00038147,0.0192261,0.0225067,0.0144196,0.0320435,-0.021019,0.0715637,0.0182343,-9.97986,-0.0255203,-0.00419617,-0.0075531,0.304527,0.239944,0.0167465,0.0298691,0.0508499
35,9,10.0097,0.000915527,-0.00106812,-2.42653,0.0553758,-0.0744527,0.054128,0.0685289,-0.0919257,0.145929,-0.126377,-0.0844015,0.0012207,0.0152588,0.0189972,0.0125122,0.0325394,-0.0208664,0.0727463,0.0182343,-9.97986,-0.027771,-0.0038147,-0.00423431,0.288811,0.233727,0.0181961,0.028038,0.046463
36,0,10.0097,0.000610352,-0.000305176,-2.42531,0.0550706,-0.0753682,0.0544332,0.0776842,-0.0916206,0.145013,-0.125766,-0.0834859,0.0094986,0.0247955,0.0250244,0.0163269,0.0323105,-0.0177765,0.0681305,0.02388,-9.97986,-0.0056076,0.00209808,0.0103378,0.285568,0.240402,0.0206375,0.0313568,0.0510788
36,1,10.0097,0.000610352,0.000152588,-2.42776,0.0538499,-0.0756734,0.0529073,0.0874498,-0.0916206,0.144098,-0.125156,-0.0847066,-0.0012207,0.0171661,0.0185776,0.0133514,0.0291443,-0.0294495,0.0470734,0.0163651,-9.97986,-0.00267029,-0.00881195,0.00499725,0.264969,0.227394,0.0180817,0.0260925,0.0396347
36,2,10.0097,-0.0012207,-0.000915527,-2.42837,0.0538499,-0.0747579,0.0526021,0.0767687,-0.0949775,0.143487,-0.126987,-0.0868429,-0.000915527,0.0224686,0.0273514,0.0123978,0.030365,-0.0204086,0.0463486,0.0178528,-9.97986,-0.00522614,-0.00869751,0.01297,0.25074,0.227013,0.0257492,0.0280762,0.0302505
36,3,10.0097,0.000610352,-0.0012207,-2.42928,0.0541551,-0.0768941,0.0516866,0.0734117,-0.0952827,0.144098,-0.126377,-0.0865377,-0.00713348,0.0242996,0.0222015,0.00797272,0.0276566,-0.0292969,0.0391006,0.0228882,-9.97986,-0.00225067,-0.00797272,0.0135803,0.235977,0.22438,0.025444,0.0328064,0.0254822
36,4,10.0097,0.00183105,-0.000915527,-2.42776,0.0532396,-0.0762837,0.0510762,0.0709703,-0.0952827,0.142877,-0.127292,-0.0868429,-0.00171661,0.0229645,0.0231171,0.0169754,0.0287247,-0.0272751,0.0379562,0.0188065,-9.97986,0.0117493,0.000190735,0.0101852,0.230713,0.21431,0.00846863,0.0322342,0.0274658
36,5,10.0097,0.00244141,-0.000915527,-2.42837,0.0535448,-0.0778096,0.0519917,0.0691393,-0.0946723,0.144708,-0.127292,-0.0862325,-0.0019455,0.0237656,0.0238419,0.0139618,0.0341415,-0.0298309,0.035553,0.016098,-9.97986,0.0243759,0.00812531,0.0154114,0.237694,0.207863,-0.00301361,0.0325394,0.0308609
36,6,10.0097,0,0.000305176,-2.42837,0.0541551,-0.0762837,0.0519917,0.0679186,-0.0955879,0.143182,-0.128208,-0.0868429,-0.00751495,0.022316,0.0227737,0.0166321,0.0274658,-0.0279617,0.0410461,0.0178909,-9.97986,0.0288773,0.00442505,0.0147629,0.241432,0.20359,-0.00476837,0.0344086,0.0410461
36,7,10.0097,0.000305176,-0.000915527,-2.42898,0.0547655,-0.0738423,0.0519917,0.067003,-0.0946723,0.144098,-0.126682,-0.0850118,-0.0115585,0.0240326,0.0265884,0.0118637,0.0286865,-0.0304794,0.0389481,0.0159454,-9.97986,0.0331116,0.00225067,0.0102234,0.238571,0.197639,-0.00675201,0.0314713,0.0447464
36,8,10.0097,0.0012207,0,-2.42684,0.0541551,-0.0738423,0.054128,0.0691393,-0.0934516,0.144098,-0.126682,-0.085317,-0.0152588,0.0265503,0.0269699,0.0148392,0.0287628,-0.0322342,0.0453186,0.0196457,-9.97986,0.0348282,0.00301361,0.0122833,0.235825,0.197563,-0.00118256,0.029335,0.0525665
36,9,10.0097,0.00183105,-0.000762939,-2.42684,0.055681,-0.075063,0.0535176,0.0709703,-0.094062,0.14898,-0.124851,-0.0844015,-0.0102997,0.0239563,0.0226212,0.015564,0.0279999,-0.0355148,0.0432205,0.0239563,-9.97986,0.0336456,0.00213623,0.0136948,0.229187,0.193405,0.00385284,0.0346375,0.0547409
37,0,10.0097,0.000610352,-0.000457764,-2.42714,0.0547655,-0.0753682,0.0532125,0.0685289,-0.0931465,0.146234,-0.126072,-0.0844015,0.00545502,0.0234985,0.0276184,0.0177765,0.027771,-0.0354767,0.0391769,0.0208664,-9.97986,0.0228882,0.00293732,0.0144577,0.219307,0.190506,0.001297,0.0347519,0.0598907
37,1,10.0097,0.00152588,-0.000152588,-2.42592,0.0559862,-0.0735371,0.0547383,0.0712755,-0.0910102,0.146234,-0.123935,-0.0816549,0.0111008,0.0272369,0.0280762,0.0168228,0.0178909,-0.0349045,0.0287247,0.022049,-9.97986,0.021553,0.000534058,0.0139999,0.212936,0.177269,0.0056076,0.032692,0.0587082
37,2,10.0097,-0.000305176,-0.00137329,-2.42653,0.0559862,-0.073232,0.0535176,0.0697496,-0.0925361,0.145929,-0.124851,-0.0816549,-0.0153732,0.0280762,0.027504,0.0146484,0.0139236,-0.033989,0.0280762,0.0196457,-9.97986,0.0271606,-0.00087738,0.0156021,0.196304,0.164909,0.0063324,0.0315094,0.0573349
37,3,10.0097,0.0012207,-0.00167847,-2.42562,0.0572069,-0.0744527,0.0544332,0.0700548,-0.0919257,0.145929,-0.125156,-0.0819601,-0.0469971,0.0270462,0.0285721,0.0159454,0.00789642,-0.0318146,0.03685,0.0196838,-9.97986,0.0200272,-0.0012207,0.0162125,0.174751,0.149727,-0.00629425,0.0292587,0.0482941
37,4,10.0097,0.000610352,-0.00183105,-2.4247,0.0572069,-0.073232,0.0544332,0.0706652,-0.0910102,0.147455,-0.123325,-0.0813497,-0.0533676,0.0275421,0.0248337,0.0181198,0.00541687,-0.0345993,0.0370026,0.0191879,-9.97986,0.0217438,0.001297,0.0175476,0.156708,0.146103,-0.0262833,0.0297546,0.0452423
37,5,10.0097,0,-0.000457764,-2.42562,0.055681,-0.0723164,0.0550435,0.0718859,-0.0900947,0.147149,-0.124241,-0.0816549,-0.0107193,0.0315475,0.0328064,0.0175095,0.00850677,-0.0332642,0.03685,0.00953674,-9.97986,0.037117,-0.0012207,0.0136948,0.141525,0.147324,-0.0327301,0.028801,0.0441742
37,6,10.0097,0.0012207,-0.00137329,-2.42623,0.055681,-0.0729268,0.0532125,0.0572374,-0.0952827,0.144403,-0.125766,-0.0828756,0.0340652,0.0289917,0.031662,0.0173187,0.00293732,-0.0340652,0.0273514,0.00740051,-9.97986,0.0390244,-0.00770569,0.0121689,0.127106,0.14122,-0.0365448,0.024147,0.0413895
37,7,10.0097,-0.000915527,-0.00198364,-2.42531,0.055681,-0.0738423,0.0538228,0.0535753,-0.094062,0.145624,-0.126072,-0.0819601,0.0522614,0.0243378,0.0278473,0.019722,0.00232697,-0.0298691,0.0313187,0.0183487,-9.97986,0.0424576,0.00171661,0.0165558,0.121956,0.132523,-0.0296402,0.0258255,0.0469971
37,8,10.0097,0.000610352,-0.000915527,-2.42531,0.0562914,-0.0741475,0.0547383,0.0615099,-0.0928413,0.145929,-0.125156,-0.0825704,0.061264,0.0286865,0.026207,0.0162125,-0.00167847,-0.0323486,0.0337982,0.00965118,-9.97986,0.0353622,0.000610352,0.0224686,0.116158,0.123367,-0.0251007,0.0230789,0.0408936
37,9,10.0097,0,0.000457764,-2.42684,0.0553758,-0.0735371,0.0535176,0.0688341,-0.0925361,0.144403,-0.126377,-0.0825704,0.0909424,0.024147,0.026741,0.0170898,-0.0018692,-0.0310516,0.0378036,0.01194,-9.97986,0.0273895,-0.00419617,0.0240707,0.117569,0.111847,-0.0231552,0.0227737,0.0403595
38,0,10.0097,0.00152588,-0.000152588,-2.42623,0.0562914,-0.0735371,0.0538228,0.0779894,-0.0900947,0.145318,-0.125156,-0.0828756,0.160103,0.0198364,0.0266266,0.0166702,0.00087738,-0.0284576,0.0366592,0.0133133,-9.97986,0.0127792,-0.00572205,0.0182343,0.118523,0.102425,-0.0211334,0.0224304,0.0357056
38,1,10.0097,0,0.0012207,-2.42867,0.0547655,-0.0768941,0.0532125,0.0889757,-0.0934516,0.13952,-0.126072,-0.0859274,0.173798,0.0228119,0.0268173,0.0153351,0.0075531,-0.0307465,0.0346375,0.0162888,-9.97986,-0.00553131,-0.000686646,0.0195694,0.111542,0.101318,-0.0255585,0.0207138,0.0316238
38,2,10.0097,0.000915527,0,-2.42806,0.0535448,-0.0765889,0.0529073,0.0746324,-0.0961982,0.142877,-0.127292,-0.0871481,0.0621033,0.0270081,0.0284195,0.0219727,0.000686646,-0.0304031,0.0260162,0.00797272,-9.97986,-0.026474,-0.00427246,0.0123978,0.107651,0.0896072,-0.0163651,0.0198746,0.026741
38,3,10.0097,0.000610352,-0.000152588,-2.42837,0.0538499,-0.0771993,0.0529073,0.0694445,-0.0968086,0.145318,-0.127903,-0.0871481,-0.051651,0.0255585,0.0304413,0.0147629,-0.0025177,-0.0304031,0.0200653,0.00453949,-9.97986,-0.0271988,-0.0044632,0.020752,0.101738,0.0843048,-0.00526428,0.0221634,0.0220871
38,4,10.0097,0,-0.000610352,-2.42867,0.0532396,-0.0765889,0.0513814,0.0676134,-0.0946723,0.145013,-0.127292,-0.0868429,-0.109406,0.0250244,0.0304413,0.0177765,0.00278473,-0.0265503,0.00312805,0.00190735,-9.97986,-0.0123596,-0.00358582,0.0184631,0.0878143,0.0801468,-0.00183105,0.0230408,0.0190735
38,5,10.0097,-0.0012207,-0.00152588,-2.42867,0.0541551,-0.0771993,0.0522969,0.0694445,-0.0952827,0.142572,-0.127292,-0.0862325,-0.0966263,0.0193024,0.020752,0.0194931,0.000495911,-0.0297165,-0.0122452,0.00114441,-9.97986,-0.0137711,-0.00991821,0.0107956,0.0756454,0.0807953,0.00270844,0.0175095,0.0193787
38,6,10.0097,0.000305176,-0.00152588,-2.42959,0.0529344,-0.0753682,0.0519917,0.0682238,-0.0943672,0.143182,-0.128208,-0.0871481,-0.0596237,0.0209427,0.0240707,0.0157928,0.00350952,-0.0233078,-0.0178146,0.00289917,-9.97986,-0.0400162,-0.00522614,0.00640869,0.0685501,0.0816727,0.0147247,0.0166702,0.0147629
38,7,10.0097,0.00244141,-0.00106812,-2.42806,0.0538499,-0.0759786,0.0529073,0.0691393,-0.0943672,0.145624,-0.126682,-0.0868429,-0.0160599,0.0244522,0.0214005,0.013237,0.00579834,-0.0270844,-0.0237274,0.0190735,-9.97986,-0.065918,-0.00495911,-0.000648499,0.0590134,0.0848389,0.0207138,0.0217056,0.0175858
38,8,10.0097,0.0012207,-0.00106812,-2.42837,0.0541551,-0.0744527,0.0538228,0.0709703,-0.0931465,0.144098,-0.126377,-0.0850118,0.0213623,0.0177383,0.0164032,0.0114822,0.00740051,-0.0304031,-0.0301743,0.0147247,-9.97986,-0.042305,-0.00335693,0.00274658,0.047493,0.0759506,0.015564,0.0192261,0.0114441
38,9,10.0097,0.0012207,-0.000610352,-2.42806,0.0541551,-0.0735371,0.0544332,0.0718859,-0.0934516,0.146234,-0.126072,-0.0844015,0.0409698,0.0214767,0.0178909,0.0151062,0.00850677,-0.0283813,-0.033989,0.0144196,-9.97986,-0.00720978,-0.0063324,0.00801086,0.0409698,0.0653839,0.011673,0.021286,0.0191498
39,0,10.0097,-0.000610352,-0.000457764,-2.42653,0.0544603,-0.0753682,0.0526021,0.0697496,-0.0934516,0.144403,-0.126682,-0.0840963,0.0491333,0.0143051,0.0147247,0.01091,0.00110626,-0.0269318,-0.0423431,0.0121307,-9.97986,-0.00217438,-0.00118256,0.0145721,0.0416183,0.0571823,0.0101852,0.0170135,0.0227737
39,1,10.0097,0.000610352,-0.000152588,-2.42592,0.0565965,-0.0741475,0.0538228,0.0700548,-0.0925361,0.146539,-0.124546,-0.0822652,0.0665665,0.0147247,0.0165558,0.0145721,-0.00312805,-0.0233459,-0.0488663,0.00576019,-9.97986,-0.00816345,-0.0018692,0.015564,0.0337601,0.0494766,-0.00255585,0.0172043,0.0246048
39,2,10.0097,0.0012207,-0.000152588,-2.42501,0.0559862,-0.075063,0.0547383,0.0691393,-0.0916206,0.146539,-0.124851,-0.0819601,0.0353622,0.00991821,0.013504,0.0164032,-0.00205994,-0.0193024,-0.052948,0.0135422,-9.97986,-0.0252533,-0.0082016,0.0206757,0.0266266,0.0383377,-0.0031662,0.0166702,0.0287628
39,3,10.0097,0.00183105,-0.000457764,-2.42531,0.0553758,-0.0756734,0.0538228,0.0724962,-0.0928413,0.145624,-0.123935,-0.0813497,0.0234985,0.0125122,0.00747681,0.0126648,-0.0019455,-0.0155258,-0.0497437,0.0164413,-9.97986,-0.02285,-0.0134277,0.0222015,0.0203323,0.0289536,-0.0031662,0.0128937,0.0297928
39,4,10.0097,0.000915527,-0.000762939,-2.42379,0.0572069,-0.0738423,0.0553487,0.0724962,-0.0910102,0.146234,-0.123935,-0.0804342,0.0222778,0.0111771,0.00995636,0.00770569,-0.00785828,-0.01091,-0.03685,0.0156021,-9.97986,0.0164032,-0.0165176,0.0239944,0.00808716,0.0231552,-0.0136566,0.0146484,0.0278473
39,5,10.0097,-0.000305176,-0.000915527,-2.42562,0.0559862,-0.0741475,0.0550435,0.0728014,-0.0910102,0.145318,-0.123935,-0.0813497,0.0094223,0.0138092,0.00480652,0.00770569,-0.00930786,-0.0128174,-0.0228119,0.0257874,-9.97986,0.0544739,-0.0118256,0.0240707,0.00282288,0.0128174,-0.0164413,0.0107956,0.0263596
39,6,10.0097,0.000610352,-0.000457764,-2.42592,0.0562914,-0.0738423,0.0535176,0.0593737,-0.0934516,0.148065,-0.124851,-0.0822652,0.00789642,0.0117874,0.00705719,0.00858307,-0.00873566,-0.00595093,-0.0249863,0.0268555,-9.97986,0.0714493,-0.00907898,0.0192261,-0.00320435,-0.000305176,-0.020256,0.00579834,0.0271988
39,7,10.0097,-0.0012207,-0.00137329,-2.42531,0.0565965,-0.0744527,0.054128,0.0532701,-0.0937568,0.146234,-0.126072,-0.0828756,0.00148773,0.0113678,0.00957489,0.0087738,-0.00827789,-0.000228882,-0.0313568,0.0238419,-9.97986,0.082016,0.00862122,0.0152206,-0.00915527,-0.0111008,-0.0220871,0.00480652,0.0231552
39,8,10.0097,0.000610352,-0.00137329,-2.42592,0.055681,-0.0747579,0.0532125,0.0596788,-0.0928413,0.145318,-0.125156,-0.0816549,-0.0211716,0.0135803,0.00614166,0.0107193,-0.00549316,0.00640869,-0.0505066,0.0175095,-9.97986,0.112648,0.0254822,0.0196075,-0.0132751,-0.018425,-0.021019,0.00282288,0.0237656
39,9,10.0097,0,-0.000152588,-2.42562,0.0553758,-0.0753682,0.0550435,0.0682238,-0.0943672,0.145624,-0.126072,-0.0828756,-0.00762939,0.0115204,0.010376,0.0128174,0.00114441,0.00576019,-0.0817108,0.0155258,-9.97986,0.12722,0.018692,0.0172043,-0.0233459,-0.025444,-0.0311279,0.000762939,0.0244904
40,0,10.0097,-0.0012207,-0.000457764,-2.42623,0.0547655,-0.075063,0.0544332,0.0779894,-0.0913154,0.143792,-0.125461,-0.0840963,0.0259781,0.00938416,0.00980377,0.0123978,-0.000419617,0.00488281,-0.114822,0.0121689,-9.97986,0.118523,0.0147629,0.00965118,-0.0326157,-0.0334549,-0.0446701,0.00274658,0.0217056
40,1,10.0097,0.0012207,0.00137329,-2.42837,0.0541551,-0.0781148,0.0532125,0.0895861,-0.0934516,0.143792,-0.126072,-0.0856222,0.0280762,0.0144958,0.0114059,0.0144196,0.00770569,0.0139618,-0.131378,0.0222778,-9.97986,0.102348,0.00511169,0.00839233,-0.0353241,-0.0384521,-0.0402069,0.00190735,0.0230789
40,2,10.0097,0,-0.000915527,-2.42989,0.0532396,-0.0759786,0.0519917,0.0749376,-0.0949775,0.142267,-0.126377,-0.0874532,0.0224686,0.0112915,0.00812531,0.00835419,0.0133896,0.00881195,-0.125504,0.0178528,-9.97986,0.0771332,-0.000572205,-0.00495911,-0.0484848,-0.0429153,-0.0265121,0.00526428,0.0226974
40,3,10.0097,0,-0.000915527,-2.42837,0.0538499,-0.0759786,0.0529073,0.0712755,-0.0952827,0.143487,-0.126987,-0.0865377,0.0417328,0.00972748,0.00488281,0.00595093,0.017128,0.0126266,-0.116463,0.019455,-9.97986,0.0535583,-0.00167847,-0.00904083,-0.0617981,-0.050621,0.00232697,0.00400543,0.0219727
40,4,10.0097,0.00244141,-0.00106812,-2.42959,0.0547655,-0.0768941,0.0519917,0.0688341,-0.0961982,0.142877,-0.127598,-0.0865377,0.0385666,0.0147247,0.00843048,0.00999451,0.0193405,0.0192642,-0.0959396,0.0148773,-9.97986,0.0265503,-0.00156403,-0.01091,-0.0711823,-0.0568771,0.0440216,0.00835419,0.0174332
40,5,10.0097,0.00183105,-0.00137329,-2.42959,0.0532396,-0.0765889,0.0513814,0.0688341,-0.0955879,0.145013,-0.127292,-0.0868429,0.0349426,0.0185013,0.00652313,0.00488281,0.0160599,0.0156403,-0.0747681,0.0172424,-9.97986,0.0159454,0.00404358,-0.0185013,-0.077858,-0.0739288,0.0699234,0.0111771,0.0133896
40,6,10.0097,-0.00244141,-0.00183105,-2.42867,0.0541551,-0.0762837,0.0516866,0.0688341,-0.0955879,0.141961,-0.127903,-0.0865377,0.0335693,0.0114059,0.00614166,0.00740051,0.0191498,0.0154495,-0.0618744,0.0226593,-9.97986,0.00495911,0.00492096,-0.0206757,-0.0741196,-0.0985336,0.0697708,0.00804901,0.00679016
40,7,10.0097,0.00244141,-0.000152588,-2.42898,0.0538499,-0.075063,0.0538228,0.0676134,-0.094062,0.145013,-0.126682,-0.0859274,0.0230408,0.0170898,0.0101852,0.00953674,0.0151825,0.0199509,-0.0432587,0.0241852,-9.97986,-0.00328064,0.00499725,-0.0247192,-0.0640488,-0.121155,0.0661469,0.00598907,7.62939e-005
