
Devices
1200
,,BP Load cell - Voltage,String Length - Voltage,Clutch Active - Voltage,#7 iPecs - Voltage,,,,,,,,,EMG 1-8 Left - Voltage,,,,,,,,Pylon Force - Voltage,EMG 9-16 Right - Voltage,,,,,,,,
Frame,Sub Frame,BP Load Cell,String Length,From Arduino Logic,A45,A135,A225,A315,S0,S90,S180,S270,ZSum,EMG 1 Glut Max,EMG 2 Glut Med,EMG 3 Biceps Femoris Long,EMG 4 Rectus Femoris,EMG 5 Vastus Medialis,EMG 6 Tib Ant,EMG 7 Med Gas,EMG 8 Soleus,Pylon volts,EMG 9 Glut Max,EMG 10 Glut Med,EMG 11 Biceps Femoris Long,EMG 12 Rectus Femoris,EMG 13 Vastus Medialis,EMG 14 Tib Ant,EMG 15 Med Gas,EMG 16 Soleus
,,V,V,V,V,V,V,V,V,V,V,V,V,V,V,V,V,V,V,V,V,V,V,V,V,V,V,V,V,V
1,0,10.0097,-0.000305176,-0.000915527,-2.42714,0.0562914,-0.0753682,0.0532125,0.0541857,-0.0961982,0.146234,-0.126682,-0.0831808,0.011673,0.0244904,0.0217819,-0.000495911,0.0218582,0.011673,0.0224304,0.0153732,-9.97986,0.0147247,-0.00209808,0.0120544,0.00648499,0.0152206,0.0056076,0.0146103,0.00595093
1,1,7.73366,0.000305176,-0.00274658,-2.42592,0.0559862,-0.0738423,0.0519917,0.021837,-0.0965034,0.146234,-0.126987,-0.0822652,0.0131607,0.019989,0.0209427,0.00530243,0.0159454,0.0164795,0.0218582,0.0188065,-9.97986,0.0119781,-0.00495911,0.018158,0.00480652,0.0201416,0.00106812,0.0172424,0.00858307
1,2,-0.92967,0.00152588,-0.00518799,-2.42562,0.0578172,-0.0741475,0.0538228,-0.00807019,-0.095893,0.145929,-0.129123,-0.0828756,0.0110626,0.0210571,0.0254059,0.0105667,0.0138092,0.0162506,0.0235367,0.0245667,-9.97986,0.0139236,0.00106812,0.0113297,0.00476837,0.0169373,-0.00778198,0.0168228,0.00595093
1,3,-7.86815,0,-0.00457764,-2.42592,0.0559862,-0.0747579,0.0550435,-0.0153944,-0.0965034,0.147149,-0.129734,-0.0816549,0.00961304,0.0218201,0.0196457,0.0050354,0.0138855,0.014801,0.0220108,0.0175476,-9.97986,0.0123978,-0.00183105,0.0114822,0.00717163,0.0205231,-0.01194,0.0160599,0.00442505
1,4,-9.99003,-0.000305176,-0.00396729,-2.42379,0.0553758,-0.0726216,0.0553487,0.0154283,-0.0910102,0.14776,-0.127903,-0.080129,0.0113678,0.0194931,0.0234985,0.000686646,0.0154495,0.0111771,0.0210953,0.0162888,-9.97986,0.0127411,-0.00179291,0.0138855,0.00389099,-0.00846863,-0.00770569,0.016861,0.00663757
1,5,-9.99003,0.000610352,-0.0012207,-2.4244,0.0562914,-0.0744527,0.0562642,0.0499132,-0.090705,0.145013,-0.125766,-0.0810445,0.0109482,0.0230789,0.028038,0.00114441,0.0187302,0.00934601,0.0255966,0.0159836,-9.97986,0.0127029,-0.00484467,0.0144958,0.00667572,-0.0117111,-0.00720978,0.0153351,0.00415802
1,6,-9.99003,0.000610352,-0.000152588,-2.42531,0.0553758,-0.0741475,0.0553487,0.0596788,-0.0903999,0.145624,-0.126682,-0.0822652,0.0107574,0.0159454,0.020752,-0.00156403,0.0180054,0.0107574,0.0218964,0.0141525,-9.97986,0.0133133,-0.00610352,0.0140762,0.00209808,-0.00667572,-0.00507355,0.0137329,0.0082016
1,7,-9.99003,0.000305176,0.000457764,-2.42745,0.0547655,-0.075063,0.054128,0.0645616,-0.0925361,0.143792,-0.126377,-0.0834859,0.0117874,0.0158691,0.0180817,0.00717163,0.0161743,0.0102997,0.0201797,0.0128555,-9.97986,0.0101471,-0.00324249,0.0119019,0.00457764,-0.00740051,-0.00328064,0.014801,0.00804901
1,8,-9.99003,0.00183105,0.00152588,-2.42531,0.0550706,-0.0747579,0.0568746,0.111559,-0.0858222,0.145929,-0.12302,-0.0822652,0.0135422,0.0191498,0.0200272,0.0242615,0.0185776,0.0114059,0.0239182,0.0182724,-9.97986,0.0161743,-0.000839233,0.0112534,0.00762939,0.0121689,-0.00442505,0.0165176,0.00469208
1,9,-4.34947,0.000610352,0.00335693,-2.42745,0.0535448,-0.0747579,0.0553487,0.137499,-0.0885688,0.144098,-0.121799,-0.0837911,0.014801,0.0157547,0.0124741,0.0235367,0.0225449,0.0075531,0.0234222,0.0173569,-9.97986,0.0134659,-0.00419617,0.0111771,0.0025177,0.018692,-0.00465393,0.0164795,0.00389099
2,0,3.37728,-0.000915527,0.00488281,-2.42745,0.0541551,-0.0762837,0.0532125,0.153063,-0.0885688,0.143487,-0.121189,-0.0844015,0.0127792,0.0139236,0.0130463,0.017662,0.017395,0.0088501,0.0197601,0.0206757,-9.97986,0.0143814,-0.000419617,0.0123596,0.00434875,0.0174332,-0.0111389,0.0141144,0.00419617
2,1,10.0097,0.000610352,0.00488281,-2.42837,0.0535448,-0.0771993,0.0519917,0.149401,-0.0916206,0.143487,-0.122104,-0.0865377,0.0122833,0.0134277,0.0152206,0.0156021,0.0203705,0.00907898,0.0191116,0.0203323,-9.97986,0.013237,-0.00553131,0.00862122,0.00595093,0.0137711,-0.0110626,0.0146866,0.00549316
2,2,10.0097,-0.00274658,0.00167847,-2.43081,0.0529344,-0.0765889,0.04894,0.103014,-0.0974189,0.142572,-0.124851,-0.0886739,0.0177765,0.0203705,0.0143433,0.0119781,0.0162506,0.0101471,0.0205612,0.02388,-9.97986,0.0137329,-0.0062561,0.0161743,0.00720978,0.0160217,-0.00804901,0.0157928,0.00419617
2,3,10.0097,0.00244141,0.000762939,-2.4302,0.0535448,-0.0775044,0.0513814,0.0831774,-0.0971137,0.144708,-0.127598,-0.0883688,0.00823975,0.0199127,0.0172806,0.00888824,0.0162506,0.0108337,0.0213623,0.026741,-9.97986,0.0130463,0.0019455,0.0141525,0.00495911,0.0159836,-0.00312805,0.0165176,0.00656128
2,4,10.0097,0.000915527,0,-2.42837,0.0547655,-0.0762837,0.0510762,0.0749376,-0.0955879,0.143487,-0.126377,-0.0862325,0.0110626,0.0244522,0.0195313,0.0138092,0.0190353,0.012207,0.0242996,0.029068,-9.97986,0.0127029,-0.000686646,0.0120163,0.00686646,0.0157928,0.00087738,0.016098,0.00675201
2,5,10.0097,0.00152588,-0.000152588,-2.42806,0.0547655,-0.075063,0.0526021,0.0724962,-0.0949775,0.144708,-0.126377,-0.0856222,0.00858307,0.0215149,0.0141144,0.0103378,0.0196457,0.0105667,0.0212097,0.026207,-9.97986,0.0102234,-0.00465393,0.011673,0.0056839,0.0180817,0.00511169,0.0131989,0.00541687
2,6,10.0097,0,0,-2.42745,0.0565965,-0.0747579,0.0522969,0.0715807,-0.0937568,0.144098,-0.126682,-0.0844015,0.01297,0.0220108,0.0214767,0.0121689,0.0183868,0.00965118,0.0209045,0.0240707,-9.97986,0.0120926,-0.00236511,0.0107574,0.00743866,0.0147629,0.0075531,0.0171661,0.00411987
2,7,10.0097,0.00152588,0.000305176,-2.42714,0.0550706,-0.0753682,0.0538228,0.0709703,-0.0931465,0.143792,-0.126682,-0.0831808,0.0113678,0.0204468,0.0164795,0.014267,0.0121307,0.00850677,0.0259399,0.022049,-9.97986,0.0103378,-0.000686646,0.0179291,0.00652313,0.0124741,0.00888824,0.0134277,0.00789642
2,8,10.0097,0.0012207,0.000610352,-2.42562,0.0565965,-0.0738423,0.0553487,0.0724962,-0.0937568,0.145318,-0.124546,-0.0822652,0.0115204,0.0184631,0.0200272,0.0158691,0.0161362,0.00785828,0.0239944,0.0220871,-9.97986,0.0131226,-0.00267029,0.0119019,0.00614166,0.0143051,0.00297546,0.0173569,0.00675201
2,9,10.0097,0.000305176,0.000305176,-2.42501,0.0562914,-0.0735371,0.054128,0.0706652,-0.0913154,0.145929,-0.124851,-0.0816549,0.00991821,0.0244141,0.0170898,0.0132751,0.0115967,0.0114822,0.0198364,0.0229645,-9.97986,0.0105286,-0.00198364,0.0102997,0.00495911,0.0110626,-0.00347137,0.0124359,0.00549316
3,0,10.0097,-0.0012207,0.000152588,-2.42653,0.055681,-0.0735371,0.0519917,0.0517443,-0.0952827,0.145318,-0.126682,-0.0825704,0.0128937,0.0221252,0.0123215,0.0162888,0.0132751,0.00984192,0.0195313,0.0217819,-9.97986,0.0137711,-0.00118256,0.0137329,0.00656128,0.0170517,0.000267029,0.0157547,0.00743866
3,1,7.64638,0.000610352,-0.00213623,-2.42684,0.0562914,-0.0726216,0.0532125,0.0203112,-0.0955879,0.145624,-0.127598,-0.0819601,0.014801,0.0256729,0.0143433,0.0224686,0.0169754,0.00827789,0.0226212,0.0145721,-9.97986,0.0163269,0.00335693,0.0161362,0.0094223,0.0175858,0.00621796,0.0154877,0.00812531
3,2,-1.05693,-0.000305176,-0.00473022,-2.42562,0.0569017,-0.073232,0.0547383,-0.00776502,-0.0965034,0.146539,-0.128818,-0.0810445,0.011673,0.0211716,0.0131989,0.0191116,0.0193024,0.0116348,0.0230408,0.00961304,-9.97986,0.012207,0.00335693,0.0174713,0.0101471,0.0140762,0.0108719,0.014801,0.0111389
3,3,-8.01127,-0.00274658,-0.00518799,-2.42592,0.0565965,-0.0738423,0.0550435,-0.0141737,-0.0961982,0.14776,-0.130649,-0.0810445,0.0101471,0.0241852,0.0138474,0.0146866,0.0121689,0.00606537,0.019455,0.00637054,-9.97986,0.0111389,0.00087738,0.014534,0.00686646,0.0163651,0.00823975,0.0113678,0.00480652
3,4,-9.99003,0,-0.00289917,-2.42409,0.0572069,-0.0735371,0.0568746,0.0169542,-0.0913154,0.146234,-0.127903,-0.0798238,0.0151825,0.0230408,0.0193024,0.0124359,0.0182343,0.00770569,0.0246429,0.00782013,-9.97986,0.0181961,0.00461578,0.0159073,0.00827789,-0.00751495,0.00801086,0.0127029,0.00862122
3,5,-9.99003,0.00152588,-0.00137329,-2.42531,0.0547655,-0.0747579,0.0562642,0.0489977,-0.0897895,0.145624,-0.126377,-0.0813497,0.0145721,0.0279999,0.0226212,0.0109863,0.0167465,0.0082016,0.018158,0.00999451,-9.97986,0.0088501,0.000228882,0.0117111,0.00957489,-0.00835419,0.001297,0.0140381,0.00480652
3,6,-9.99003,0.000305176,0,-2.42562,0.0565965,-0.0741475,0.0532125,0.0608995,-0.0913154,0.146234,-0.125156,-0.0825704,0.0134659,0.0328445,0.0243759,0.00789642,0.0140381,0.0106049,0.0235367,0.017662,-9.97986,0.0130463,0.00450134,0.0155258,0.00980377,-0.00728607,-0.00728607,0.0142288,0.00705719
3,7,-9.99003,0,0.000610352,-2.42714,0.0550706,-0.0756734,0.0550435,0.0645616,-0.090705,0.144708,-0.125766,-0.0828756,0.0157928,0.034523,0.02388,0.00934601,0.015831,0.00762939,0.017662,0.0168991,-9.97986,0.0123596,0.00717163,0.00843048,0.00793457,-0.00694275,-0.00579834,0.0147247,0.00858307
3,8,-9.99003,0.000915527,0.00152588,-2.4244,0.0544603,-0.0744527,0.0568746,0.110948,-0.0870429,0.146539,-0.12302,-0.0825704,0.0131226,0.0294495,0.0315094,0.00553131,0.0172806,0.00534058,0.0226593,0.018425,-9.97986,0.0147247,0.00087738,0.0168228,0.00289917,0.0152969,-0.017662,0.016098,0.00782013
3,9,-4.3397,0.00152588,0.00366211,-2.42684,0.0544603,-0.0747579,0.0553487,0.134752,-0.0882636,0.144098,-0.122715,-0.0840963,0.0132751,0.0273132,0.0363922,0.0102234,0.0158691,0.00892639,0.0241852,0.0202179,-9.97986,0.0182343,0.00385284,0.0148773,0.00526428,0.0169754,-0.0344086,0.0141144,0.00770569
4,0,3.26161,0.000305176,0.0038147,-2.42837,0.0532396,-0.0753682,0.0535176,0.152147,-0.0882636,0.144098,-0.119968,-0.0856222,0.0144958,0.0310516,0.0405502,0.0225449,0.0156403,0.00900269,0.0212479,0.0183487,-9.97986,0.0168991,0.00221252,0.0130844,0.0102997,0.0185013,-0.0370407,0.0130844,0.00671387
4,1,10.0097,0.000610352,0.00457764,-2.42959,0.0532396,-0.0762837,0.0532125,0.147264,-0.090705,0.145013,-0.12241,-0.0856222,0.0137329,0.0350952,0.0476456,0.0334167,0.0166702,0.0162506,0.0222015,0.0170898,-9.97986,0.0154877,-0.000152588,0.0123978,0.00873566,0.0191498,-0.0392914,0.0165558,0.00881195
4,2,10.0097,0.00244141,0.00137329,-2.43203,0.0529344,-0.0762837,0.0495503,0.103014,-0.0974189,0.142267,-0.125766,-0.0883688,0.013504,0.037384,0.0513458,0.0214005,0.0131607,0.00881195,0.0258255,0.0150299,-9.97986,0.0151825,0.000228882,0.0168991,0.00667572,0.0125122,-0.0242233,0.0181961,0.00823975
4,3,10.0097,0,-0.000152588,-2.4305,0.0538499,-0.0753682,0.0498555,0.0822618,-0.0961982,0.143792,-0.126377,-0.0880636,0.0105286,0.0325775,0.0450516,0.0209808,0.0173569,0.00900269,0.0230789,0.0149155,-9.97986,0.0109482,-0.00423431,0.0131607,0.00602722,0.0144577,-0.00556946,0.0201416,0.00957489
4,4,10.0097,0.000305176,0,-2.42898,0.0547655,-0.0756734,0.0513814,0.0752428,-0.0952827,0.143487,-0.126072,-0.0871481,0.0164413,0.029335,0.0481415,0.0208282,0.0137711,0.00606537,0.0272369,0.0124359,-9.97986,0.0125885,0.00312805,0.0131226,0.00843048,0.013237,0.0122452,0.0147629,0.00534058
4,5,10.0097,0.000305176,-0.000610352,-2.42806,0.0547655,-0.075063,0.0526021,0.0728014,-0.0943672,0.144403,-0.126377,-0.0856222,0.0155258,0.0276947,0.0360489,0.0159073,0.0140762,0.00812531,0.0274658,0.00980377,-9.97986,0.0112915,-0.00293732,0.0165939,0.00782013,0.013504,0.0253677,0.0169754,0.00465393
4,6,10.0097,0,0.000305176,-2.42745,0.0550706,-0.0738423,0.0547383,0.0724962,-0.0931465,0.145013,-0.126072,-0.0844015,0.0136566,0.0279617,0.022049,0.0157166,0.0151443,0.0120544,0.0242233,0.0149918,-9.97986,0.0184631,-0.00602722,0.0185013,0.00675201,0.0160599,0.0261307,0.0207138,0.00797272
4,7,10.0097,-0.00152588,0.000152588,-2.42653,0.0553758,-0.0747579,0.0538228,0.0718859,-0.0922309,0.144708,-0.125156,-0.0840963,0.0115967,0.0217056,0.00747681,0.0107574,0.0152969,0.01194,0.019989,0.0159073,-9.97986,0.0163651,-0.00530243,0.0126648,0.00358582,0.0149536,0.0139618,0.0137329,0.00667572
4,8,10.0097,0.0012207,0,-2.42592,0.0565965,-0.073232,0.054128,0.0712755,-0.0919257,0.147455,-0.125156,-0.0822652,0.0113678,0.0257874,-0.00465393,0.00846863,0.0154114,0.0123596,0.0232315,0.0177765,-9.97986,0.0172043,-0.00404358,0.0105667,0.00637054,0.0140381,0.00576019,0.0152969,0.00701904
4,9,10.0097,0.00152588,0.000305176,-2.4247,0.0562914,-0.0738423,0.0547383,0.0706652,-0.0916206,0.146844,-0.125461,-0.0813497,0.0111008,0.0271606,-0.0202179,0.00331879,0.0145721,0.00888824,0.0233078,0.0136948,-9.97986,0.0185776,-0.00144958,0.0165558,0.00576019,0.01194,0.00209808,0.0163269,0.00587463
5,0,10.0097,-0.000915527,0,-2.42653,0.0565965,-0.0747579,0.0522969,0.0520494,-0.0952827,0.145318,-0.126987,-0.0831808,0.0102997,0.0204468,-0.0180054,0.00507355,0.0175095,0.0106812,0.0244904,0.0169373,-9.97986,0.0169754,-0.00747681,0.0162125,0.00614166,0.0144958,-0.000762939,0.0191116,0.00610352
5,1,7.44802,0,-0.00289917,-2.42592,0.0569017,-0.0744527,0.0532125,0.0190905,-0.0974189,0.146844,-0.127598,-0.0831808,0.00999451,0.017395,-0.0107193,0.00331879,0.0188446,0.0101852,0.0238037,0.0137711,-9.97986,0.0172806,-0.00362396,0.0129318,0.00728607,0.0126266,-0.00423431,0.0138092,0.00762939
5,2,-1.36271,0.000305176,-0.00488281,-2.42623,0.0575121,-0.073232,0.0544332,-0.00959607,-0.0965034,0.146234,-0.129429,-0.0804342,0.0114822,0.0179291,-0.00766754,-7.62939e-005,0.016861,0.0104523,0.0233459,0.0147247,-9.97986,0.0181961,-0.00343323,0.0151062,0.00846863,0.0120544,-0.00961304,0.0178528,0.00926971
5,3,-8.23863,0.000915527,-0.00457764,-2.42501,0.0565965,-0.0738423,0.054128,-0.0156996,-0.0949775,0.146539,-0.130954,-0.0810445,0.00881195,0.0268555,0.00125885,0.00190735,0.0210953,0.0140381,0.0233841,0.0191879,-9.97986,0.0181198,-0.00404358,0.017395,0.00995636,0.0177765,-0.00839233,0.0156021,0.00816345
5,4,-9.99003,0.000305176,-0.00335693,-2.42409,0.0581224,-0.0738423,0.0562642,0.0193956,-0.0910102,0.146539,-0.127598,-0.080129,0.0147629,0.0217819,0.00556946,0.00137329,0.0148773,0.0094986,0.0217438,0.0170517,-9.97986,0.0128555,-0.0063324,0.0124359,0.00465393,-0.00896454,-0.00865936,0.0146103,0.00530243
5,5,-9.99003,-0.000915527,-0.00137329,-2.4247,0.055681,-0.0756734,0.0556539,0.0489977,-0.0903999,0.145318,-0.126377,-0.0807394,0.0130463,0.0025177,0.00377655,0.0146484,0.0175095,0.0105667,0.0218201,0.017395,-9.97986,0.0163651,-0.00564575,0.0154114,0.00518799,-0.00728607,-0.00137329,0.017128,0.00770569
5,6,-9.99003,0.000305176,0,-2.42501,0.0547655,-0.0738423,0.055959,0.0615099,-0.0910102,0.146539,-0.126377,-0.0819601,0.00976563,0.00125885,0.00980377,0.0276566,0.0173569,0.0123596,0.0224304,0.0219345,-9.97986,0.0191116,-0.00572205,0.013504,0.00858307,-0.0148773,0.00385284,0.0189209,0.00751495
5,7,-9.99003,0.000305176,0.000152588,-2.42684,0.0553758,-0.0747579,0.0553487,0.0645616,-0.0919257,0.145013,-0.126377,-0.0831808,0.00862122,0.0101852,0.00923157,0.0202179,0.0214386,0.0107956,0.0221634,0.0132751,-9.97986,0.0107193,-0.00160217,0.0147629,0.00778198,-0.00934601,-0.00190735,0.0151062,0.00602722
5,8,-9.99003,0.000610352,0.000915527,-2.4244,0.055681,-0.0741475,0.055959,0.108812,-0.0855171,0.146234,-0.12363,-0.0828756,0.0117493,0.0179672,0.0128937,0.0194168,0.0199127,0.0125885,0.0247574,0.0218201,-9.97986,0.0130844,-0.0018692,0.0156403,0.00537872,0.0175476,-0.00415802,0.0187683,0.00827789
5,9,-4.6699,0.000305176,0.00289917,-2.42806,0.0538499,-0.0759786,0.0544332,0.136583,-0.0876533,0.145318,-0.122104,-0.0834859,0.00602722,0.0202942,0.0121689,0.015831,0.0170517,0.0114441,0.0208664,0.027504,-9.97986,0.0113297,-0.00621796,0.0120544,0.00869751,0.0194168,-0.00724792,0.0185013,0.00782013
6,0,2.99642,-0.000610352,0.00411987,-2.42806,0.0547655,-0.0747579,0.0538228,0.150621,-0.0900947,0.142267,-0.121189,-0.085317,0.0117874,0.0229263,0.0124741,0.00160217,0.0147247,0.0114822,0.0218201,0.0276184,-9.97986,0.013504,-0.00682831,0.0125122,0.00534058,0.0177765,-0.0050354,0.0164032,0.00686646
6,1,10.0097,-0.000915527,0.00457764,-2.42837,0.0538499,-0.0768941,0.0532125,0.14879,-0.0910102,0.144403,-0.121799,-0.0859274,0.00938416,0.0242996,0.0172806,-0.00694275,0.0183487,0.0104904,0.0209045,0.0283813,-9.97986,0.0137329,-0.00171661,0.0141907,0.00526428,0.0195313,-0.00198364,0.0145721,0.00904083
6,2,10.0097,-0.000305176,0.00198364,-2.43172,0.0529344,-0.0765889,0.0495503,0.106066,-0.0974189,0.142877,-0.124851,-0.0889791,0.00869751,0.0306702,0.021553,-0.0104904,0.0141144,0.00907898,0.0211334,0.0263214,-9.97986,0.0154114,-0.0012207,0.0152588,0.0108719,0.0153351,0.000114441,0.0176239,0.00751495
6,3,10.0097,0.000610352,-0.000305176,-2.42928,0.0532396,-0.0762837,0.0504659,0.0819567,-0.0968086,0.142267,-0.126377,-0.0874532,0.00862122,0.0236511,0.0165939,-0.0135422,0.0153351,0.00839233,0.0171661,0.0180054,-9.97986,0.0120163,-7.62939e-005,0.0114822,0.00614166,0.0134277,-0.00301361,0.0146103,0.00328064
6,4,10.0097,0.000610352,-0.000152588,-2.42928,0.0535448,-0.0756734,0.0510762,0.0761583,-0.0965034,0.143487,-0.126377,-0.0868429,0.00911713,0.0241089,0.0198364,-0.00934601,0.0196457,0.0106812,0.0224304,0.0131989,-9.97986,0.0160217,0.00164032,0.0130463,0.00762939,0.0165558,-0.00274658,0.0193024,0.00537872
6,5,10.0097,0.000610352,0,-2.42714,0.0538499,-0.0744527,0.0522969,0.0731066,-0.0949775,0.145624,-0.126377,-0.0859274,0.0116348,0.0226974,0.0180054,-0.0087738,0.0199509,0.0152588,0.0212479,0.0102615,-9.97986,0.0124359,-0.00156403,0.0151443,0.00904083,0.0170898,0.000915527,0.0169373,0.00602722
6,6,10.0097,0.00183105,0.000152588,-2.42806,0.0538499,-0.0756734,0.0529073,0.0700548,-0.0931465,0.145624,-0.126377,-0.0850118,0.0104523,0.0230408,0.0195694,-0.0105286,0.0169754,0.0122452,0.022316,0.00991821,-9.97986,0.0112534,-0.00350952,0.0107956,0.00339508,0.0156403,-0.000991821,0.0148392,0.00621796
6,7,10.0097,0,0.000457764,-2.42684,0.0553758,-0.075063,0.0535176,0.0706652,-0.0937568,0.145624,-0.125156,-0.0844015,0.00980377,0.027504,0.0194931,-0.02491,0.0186539,0.00751495,0.0247192,0.00865936,-9.97986,0.0143051,-0.00160217,0.0133133,0.00682831,0.0167847,0.00232697,0.0160217,0.00518799
6,8,10.0097,-0.000305176,0.000305176,-2.42592,0.055681,-0.0744527,0.0544332,0.0718859,-0.0919257,0.145929,-0.125461,-0.0831808,0.00602722,0.0332642,0.0194931,-0.00671387,0.0201035,0.00812531,0.0212479,0.0119019,-9.97986,0.0151062,-0.00587463,0.0144196,0.00667572,0.0131989,0.00419617,0.0154877,0.00549316
6,9,10.0097,-0.000305176,-0.000152588,-2.4247,0.0565965,-0.0741475,0.0538228,0.0715807,-0.0916206,0.146844,-0.125461,-0.0816549,0.0134277,0.0320816,0.0204468,0.0245285,0.0159836,0.0143814,0.0221252,0.0170135,-9.97986,0.0170135,-0.00400543,0.0125885,0.00888824,0.0187683,0.00823975,0.0162506,0.00576019
7,0,10.0097,0.000610352,0.000152588,-2.42653,0.0553758,-0.0744527,0.0529073,0.0517443,-0.0946723,0.144708,-0.126072,-0.0822652,0.00659943,0.0127792,0.0185013,0.0262451,0.019989,0.00888824,0.022583,0.0178909,-9.97986,0.00919342,0.00419617,0.013504,0.00774384,0.0160599,0.00938416,0.0144196,0.00934601
7,1,7.54842,0.000610352,-0.00305176,-2.42623,0.0562914,-0.0747579,0.0522969,0.0193956,-0.0968086,0.146234,-0.128208,-0.0819601,0.00709534,0.00785828,0.0241089,0.0394821,0.0156403,0.0108337,0.0185776,0.0259018,-9.97986,0.0161362,0.00179291,0.0131226,0.00770569,0.016098,0.0113297,0.0175095,0.00686646
7,2,-1.25285,0.000305176,-0.00518799,-2.42562,0.0581224,-0.073232,0.0538228,-0.00776502,-0.0971137,0.147149,-0.128818,-0.0813497,0.00679016,0.0155258,0.0270844,0.0523376,0.0187683,0.0127792,0.0217819,0.022316,-9.97986,0.0146484,-0.000648499,0.014267,0.00598907,0.0172043,0.00980377,0.0172424,0.00469208
7,3,-8.17393,0.000305176,-0.00518799,-2.42409,0.0559862,-0.0738423,0.0538228,-0.0156996,-0.0968086,0.145624,-0.130039,-0.0816549,0.00968933,0.0260925,0.0274277,0.0590134,0.019722,0.00892639,0.0156403,0.0244141,-9.97986,0.0151825,0.00171661,0.0164413,0.00267029,0.0174713,0.00514984,0.0150299,0.00709534
7,4,-9.99003,-0.00274658,-0.00366211,-2.42287,0.0565965,-0.0726216,0.055959,0.0193956,-0.0916206,0.146844,-0.127292,-0.0795187,0.00663757,0.0283813,0.0287628,0.0532913,0.0160599,0.00984192,0.021286,0.0247192,-9.97986,0.0155258,0.00663757,0.0124359,0.00480652,-0.00701904,0.00286102,0.014801,0.00423431
7,5,-9.99003,0,-0.0012207,-2.4247,0.0559862,-0.0738423,0.0568746,0.0480822,-0.090705,0.145929,-0.125156,-0.0813497,0.0088501,0.0275421,0.0310135,0.0478745,0.0135422,0.00991821,0.0169373,0.0227737,-9.97986,0.0140762,3.8147e-005,0.011673,0.00427246,-0.00846863,0.00171661,0.0157547,0.00511169
7,6,-9.99003,-0.000610352,-0.000305176,-2.42592,0.0550706,-0.0741475,0.0556539,0.0602892,-0.0910102,0.145318,-0.126072,-0.0828756,0.00988007,0.0181198,0.0298309,0.0324631,0.0156784,0.0111008,0.0181961,0.0222015,-9.97986,0.0159454,-0.0030899,0.0151443,0.00629425,-0.00762939,-0.00350952,0.0128174,0.0063324
7,7,-9.99003,0.000305176,0,-2.42714,0.0550706,-0.075063,0.0535176,0.0645616,-0.0925361,0.146234,-0.125766,-0.0828756,0.00659943,0.0232315,0.0301361,0.0246429,0.0184631,0.00915527,0.0231934,0.0157547,-9.97986,0.0213242,-0.00701904,0.0160599,0.00682831,-0.00774384,-0.0062561,0.0144196,0.00354767
7,8,-9.99003,0.00244141,0.0012207,-2.42501,0.0553758,-0.0738423,0.0571797,0.109422,-0.0861274,0.145929,-0.12302,-0.0822652,0.00614166,0.0196457,0.0203705,0.0222397,0.0161362,0.00934601,0.0213623,0.0138092,-9.97986,0.0166321,-0.0165558,0.0155258,0.0043869,0.0191116,-0.0165176,0.0153351,0.00637054
7,9,-4.54051,0.000305176,0.00320435,-2.42684,0.0544603,-0.075063,0.0547383,0.136278,-0.0876533,0.144098,-0.121799,-0.0844015,0.00343323,0.0216293,0.0242615,0.0222015,0.0190353,0.0151825,0.0225067,0.0168991,-9.97986,0.0167847,-0.00946045,0.0162125,0.00606537,0.0199127,-0.0255585,0.0175476,0.00663757
8,0,3.10781,0.0012207,0.00396729,-2.42898,0.0550706,-0.0756734,0.0544332,0.152147,-0.0894843,0.143487,-0.12241,-0.085317,0.00816345,0.0321198,0.02491,0.0188828,0.0164413,0.0130844,0.0162506,0.0130463,-9.97986,0.0188065,-0.00804901,0.0142288,0.00385284,0.0185394,-0.0252151,0.0169754,0.00869751
8,1,10.0097,-0.000305176,0.00442505,-2.42898,0.0526292,-0.0759786,0.0526021,0.149401,-0.0910102,0.143182,-0.121189,-0.0859274,0.0104523,0.0424576,0.0250244,0.0148773,0.0153351,0.0143433,0.0205231,0.0108337,-9.97986,0.0169373,-0.00419617,0.0151443,0.00404358,0.0208282,-0.0161743,0.0177765,0.00652313
8,2,10.0097,0.000305176,0.00152588,-2.43111,0.0544603,-0.0759786,0.0501607,0.10454,-0.0961982,0.141961,-0.124851,-0.0886739,0.00793457,0.0364685,0.0224304,0.0174713,0.0117111,0.0137711,0.0246429,0.0104904,-9.97986,0.0143814,-0.00545502,0.0114059,0.0031662,0.0178528,-0.010643,0.0116348,0.00400543
8,3,10.0097,0.00274658,0.000915527,-2.42959,0.0538499,-0.0768941,0.0513814,0.0831774,-0.0965034,0.143792,-0.126072,-0.0886739,0.00862122,0.0357819,0.0111008,0.0139236,0.0140381,0.00900269,0.0222015,0.0114441,-9.97986,0.0166321,-0.00469208,0.0141144,0.00179291,0.0212479,0.000267029,0.0168228,0.00953674
8,4,10.0097,0.000305176,0.000610352,-2.42928,0.0538499,-0.0753682,0.0519917,0.0761583,-0.0955879,0.143792,-0.126377,-0.0865377,0.00797272,0.0296021,0.00278473,0.0122452,0.0189209,0.015564,0.0214767,0.0143433,-9.97986,0.0179672,-0.00907898,0.0177383,0.00507355,0.0185013,0.00907898,0.0154877,0.00709534
8,5,10.0097,0.00274658,0,-2.42776,0.0550706,-0.0756734,0.0519917,0.0740221,-0.0946723,0.144708,-0.125766,-0.0850118,0.00816345,0.026207,0.00514984,0.010643,0.0163269,0.00965118,0.0247955,0.0107574,-9.97986,0.0165939,-0.00495911,0.0193787,0.00320435,0.0159836,0.0110626,0.0129318,0.00549316
8,6,10.0097,0.000305176,0.000305176,-2.42776,0.055681,-0.0744527,0.0532125,0.0712755,-0.0931465,0.144403,-0.126682,-0.0847066,0.00907898,0.0199127,0.00537872,0.00549316,0.0142288,0.00747681,0.0205231,0.0139999,-9.97986,0.0174332,-0.00587463,0.0166702,0.00686646,0.0194931,0.00640869,0.0170135,0.00595093
8,7,10.0097,0.000610352,-0.000305176,-2.42592,0.0562914,-0.0744527,0.054128,0.0709703,-0.0943672,0.144708,-0.125156,-0.0840963,0.00732422,0.0190735,0.0121689,0.00926971,0.0190353,0.0107193,0.0188446,0.0161743,-9.97986,0.0166321,-0.0062561,0.0169373,0.00404358,0.0208664,0.0062561,0.0157166,0.00530243
8,8,10.0097,0.000915527,0.000610352,-2.42562,0.0559862,-0.0741475,0.0532125,0.0728014,-0.0922309,0.146234,-0.125156,-0.0825704,0.00259399,0.0229263,0.014801,0.00530243,0.0177765,0.00923157,0.0256729,0.0173569,-9.97986,0.0182343,-0.00679016,0.0173187,0.00904083,0.0210571,0.00202179,0.0177765,0.00595093
8,9,10.0097,0.000610352,0.000457764,-2.42501,0.0565965,-0.0741475,0.0538228,0.0718859,-0.090705,0.146234,-0.124241,-0.0816549,0.00740051,0.0202942,0.0167847,0.00228882,0.0162888,0.0102615,0.0182343,0.0179291,-9.97986,0.0128937,-0.00385284,0.0167847,0.00370026,0.0198746,-0.000572205,0.0159073,0.00709534
9,0,10.0097,0.0012207,-0.000305176,-2.42776,0.0553758,-0.0744527,0.0529073,0.0526598,-0.0952827,0.145013,-0.126682,-0.0828756,0.0112915,0.0236511,0.0152588,0.00221252,0.0192261,0.0121689,0.019989,0.0152588,-9.97986,0.014534,-0.0018692,0.0088501,0.00370026,0.0166702,-0.00125885,0.0136948,0.00392914
9,1,7.6888,-0.0012207,-0.00289917,-2.42714,0.0559862,-0.0744527,0.0522969,0.0212267,-0.0955879,0.146844,-0.127903,-0.0831808,0.0101471,0.025177,0.0160599,0.00156403,0.0211716,0.00839233,0.0202942,0.0211716,-9.97986,0.0154877,-0.00595093,0.0145721,0.00164032,0.021019,-0.00144958,0.0136948,0.00522614
9,2,-1.12315,0,-0.00473022,-2.4244,0.0569017,-0.0735371,0.0538228,-0.00684949,-0.0965034,0.146539,-0.128513,-0.0819601,0.0109863,0.0254059,0.0107193,0.00148773,0.0149536,0.0118637,0.0255585,0.0183487,-9.97986,0.014534,-0.00354767,0.0136185,0.00720978,0.0177002,-0.00343323,0.0150681,0.00415802
9,3,-7.91118,0.000915527,-0.00411987,-2.4247,0.0565965,-0.0738423,0.0547383,-0.0138685,-0.0961982,0.146539,-0.129734,-0.0810445,0.0142288,0.0244904,0.0126648,0.00652313,0.0179291,0.00656128,0.0237274,0.0148392,-9.97986,0.0139999,-0.00705719,0.0152969,0.00587463,0.0202179,-0.00377655,0.0170898,0.00717163
9,4,-9.99003,0.000915527,-0.00335693,-2.42379,0.0565965,-0.0747579,0.0556539,0.0157335,-0.090705,0.146234,-0.127903,-0.0804342,0.00808716,0.0289917,0.0166321,-0.00209808,0.0153732,0.00995636,0.0204086,0.0223923,-9.97986,0.0154114,-0.00701904,0.0173187,0.00228882,-0.00659943,-0.00362396,0.0148773,0.00713348
9,5,-9.99003,0.00183105,-0.00228882,-2.42501,0.0553758,-0.0735371,0.0553487,0.0471666,-0.090705,0.145929,-0.126377,-0.0813497,0.00720978,0.0321198,0.0150299,-0.00347137,0.0169754,0.00709534,0.019989,0.0138855,-9.97986,0.0140762,-0.00541687,0.0150681,0.00476837,-0.00793457,-0.00759125,0.0147247,0.00404358
9,6,-9.99003,0,-0.000152588,-2.42531,0.0562914,-0.0738423,0.0550435,0.0602892,-0.0919257,0.146234,-0.126682,-0.0822652,0.0087738,0.0290298,0.0148392,-0.00392914,0.0181961,0.0082016,0.0227356,0.0185394,-9.97986,0.0138855,-0.00198364,0.0162125,0.0075531,-0.011673,-0.00564575,0.0148773,0.00747681
9,7,-9.99003,0.000610352,0.000152588,-2.42745,0.0553758,-0.075063,0.0535176,0.0654772,-0.0928413,0.144403,-0.126377,-0.0834859,0.0113297,0.0182343,0.00865936,0.0030899,0.0196457,0.0088501,0.0178146,0.021019,-9.97986,0.0187302,-0.000228882,0.0139236,0.00473022,-0.00797272,-0.00362396,0.0141525,0.00553131
9,8,-9.99003,0.0012207,0.00137329,-2.42531,0.0547655,-0.0747579,0.0568746,0.112169,-0.0867378,0.145318,-0.121799,-0.0828756,0.0119019,0.0182343,0.0163269,0.00370026,0.0175858,0.00537872,0.0225067,0.0191498,-9.97986,0.0186157,0.00125885,0.0161743,0.00499725,0.0198364,-0.00453949,0.0117111,0.00747681
9,9,-4.07603,0.000305176,0.00411987,-2.42776,0.0544603,-0.0759786,0.0550435,0.137499,-0.0882636,0.145013,-0.122104,-0.0834859,0.0112915,0.0223541,0.0168228,0.00495911,0.0175095,0.0134659,0.0205994,0.0192642,-9.97986,0.0162506,-0.0031662,0.0108337,0.00812531,0.0206375,-0.00198364,0.0120926,0.00797272
10,0,3.60219,0.000610352,0.00396729,-2.42837,0.0547655,-0.0756734,0.0532125,0.152757,-0.0900947,0.143487,-0.121799,-0.0859274,0.00587463,0.0263977,0.0183105,0.01091,0.0182343,0.00919342,0.0185776,0.0164795,-9.97986,0.0141144,-0.00171661,0.0142288,0.00804901,0.0181198,-0.00606537,0.0151443,0.00366211
10,1,10.0097,0.0012207,0.0050354,-2.42745,0.0535448,-0.0762837,0.0532125,0.150011,-0.0913154,0.143792,-0.122104,-0.0859274,0.00602722,0.0217056,0.0223541,0.0140762,0.0189972,0.00946045,0.0238419,0.0224686,-9.97986,0.0170517,-0.00339508,0.0141144,0.00431061,0.0198746,-0.0146866,0.0161743,0.00286102
10,2,10.0097,-0.000305176,0.00137329,-2.43081,0.0532396,-0.0759786,0.0501607,0.102098,-0.0971137,0.142267,-0.125766,-0.0889791,0.00679016,0.0208282,0.0178146,0.0148392,0.0167084,0.00770569,0.0180817,0.0203705,-9.97986,0.0159836,-0.00247955,0.0141525,0.00793457,0.0144196,-0.0115204,0.0113297,0.00919342
10,3,10.0097,0.000305176,0.000305176,-2.42928,0.0550706,-0.0759786,0.0513814,0.0822618,-0.0968086,0.142877,-0.126682,-0.0877584,0.0104523,0.0262451,0.0178528,0.0127411,0.0177765,0.00671387,0.0205612,0.0174713,-9.97986,0.0123215,-0.00225067,0.0149536,0.00667572,0.0160599,-0.0146866,0.0161743,0.00793457
10,4,10.0097,-0.00183105,0.000305176,-2.42928,0.0538499,-0.0756734,0.0522969,0.075548,-0.0952827,0.145013,-0.126987,-0.0865377,0.0100708,0.0183105,0.0225449,0.00976563,0.0169754,0.0120163,0.0175858,0.0171661,-9.97986,0.0177002,-0.00270844,0.0164032,0.0103378,0.0218582,-0.0135422,0.0143814,0.00621796
10,5,10.0097,-0.000305176,-0.000152588,-2.42684,0.0544603,-0.0759786,0.0526021,0.0740221,-0.0946723,0.143792,-0.126072,-0.0850118,0.00926971,0.0271606,0.0187683,0.00892639,0.0135422,0.0104523,0.0187302,0.017395,-9.97986,0.0149536,-0.00320435,0.0107574,0.00492096,0.0218201,-0.0108337,0.0160599,0.00637054
10,6,10.0097,-0.0012207,0.00106812,-2.42653,0.0547655,-0.0759786,0.0535176,0.0715807,-0.0937568,0.145013,-0.126377,-0.0847066,0.00720978,0.0238037,0.02285,0.00926971,0.0194168,0.00892639,0.0206757,0.0210571,-9.97986,0.0172043,-0.00415802,0.0131989,0.00843048,0.0183105,-0.0102234,0.0137711,0.00659943
10,7,10.0097,0.00183105,0.000610352,-2.42653,0.0550706,-0.0738423,0.0532125,0.0706652,-0.0934516,0.145624,-0.125156,-0.0834859,0.00896454,0.0255966,0.019722,0.00762939,0.0141525,0.0128937,0.0205994,0.0221252,-9.97986,0.0182343,0.000457764,0.0134659,0.00766754,0.0166702,-0.00751495,0.0147629,0.00923157
10,8,10.0097,0.000610352,0.000152588,-2.42501,0.0565965,-0.0747579,0.0544332,0.0712755,-0.0922309,0.14776,-0.125156,-0.0825704,0.0087738,0.0246811,0.0185394,0.00389099,0.0161362,0.0104523,0.0208664,0.0164032,-9.97986,0.0133133,-0.00629425,0.0119781,0.00370026,0.021286,-0.00282288,0.0161362,0.00469208
10,9,10.0097,0.000610352,-0.000610352,-2.42562,0.0565965,-0.0744527,0.0547383,0.072191,-0.0916206,0.145929,-0.124241,-0.0807394,0.0111389,0.0246429,0.0258636,0.000534058,0.0208282,0.00595093,0.0224686,0.0138092,-9.97986,0.0168991,-0.00839233,0.0117874,0.00553131,0.0167847,-0.00896454,0.0161362,0.00518799
11,0,10.0097,0,0.000305176,-2.42714,0.0553758,-0.0741475,0.0526021,0.0523546,-0.0943672,0.145013,-0.126682,-0.0825704,0.00732422,0.0267792,0.0227356,-0.00415802,0.0156021,0.0069046,0.0188446,0.0171661,-9.97986,0.0129318,0.000686646,0.0112534,0.00453949,0.0167465,-0.00713348,0.0185776,0.00778198
11,1,7.67354,0.000610352,-0.00289917,-2.42623,0.0565965,-0.0744527,0.054128,0.0203112,-0.0974189,0.146234,-0.126987,-0.0822652,0.00778198,0.0260925,0.0211334,-0.00530243,0.0177765,0.00823975,0.0236893,0.0206375,-9.97986,0.0124359,-0.000343323,0.0151825,0.00740051,0.0214005,-0.00740051,0.0131607,0.00652313
11,2,-1.04503,0.0012207,-0.00518799,-2.4247,0.0575121,-0.0735371,0.0538228,-0.00776502,-0.0961982,0.147455,-0.127903,-0.0825704,0.0115204,0.0230789,0.0208282,-0.00686646,0.0165558,0.00770569,0.0220871,0.0158691,-9.97986,0.0178909,-0.00591278,0.0109863,0.00808716,0.0214005,-0.0151443,0.0153351,0.00743866
11,3,-7.96184,0.000610352,-0.00457764,-2.42562,0.0559862,-0.0738423,0.0550435,-0.012953,-0.095893,0.14837,-0.129734,-0.0810445,0.0127411,0.0214767,0.0188446,-0.00724792,0.0139999,0.0128937,0.0204849,0.0152206,-9.97986,0.0153351,-0.00511169,0.00904083,0.00762939,0.0218964,-0.019722,0.0154877,0.00835419
11,4,-9.99003,0.0012207,-0.00289917,-2.4244,0.055681,-0.0738423,0.0562642,0.0160387,-0.090705,0.145929,-0.129123,-0.0807394,0.0113678,0.0197601,0.0201797,-0.00240326,0.0139618,0.0103378,0.0202179,0.018959,-9.97986,0.0134659,-0.00865936,0.0112915,0.0088501,-0.00114441,-0.0191498,0.0170135,0.00747681
11,5,-9.99003,-0.000305176,-0.00106812,-2.42531,0.0553758,-0.0744527,0.0556539,0.0493029,-0.0894843,0.146234,-0.126072,-0.0810445,0.0108719,0.020256,0.0187683,0.0175858,0.0180435,0.0102234,0.0236893,0.0185394,-9.97986,0.015831,-0.00953674,0.0118256,0.00865936,-0.00640869,-0.0228119,0.022049,0.00576019
11,6,-9.99003,0.00274658,-0.000152588,-2.42623,0.0550706,-0.075063,0.0550435,0.059984,-0.0916206,0.146844,-0.125766,-0.0813497,0.00583649,0.0197983,0.0218964,0.0279617,0.0157547,0.00965118,0.020256,0.0215149,-9.97986,0.0123596,-0.00717163,0.0187683,0.00488281,-0.0037384,-0.018959,0.0170135,0.0104141
11,7,-9.99003,-0.0012207,0.000152588,-2.42562,0.0550706,-0.0747579,0.0538228,0.0645616,-0.0925361,0.144403,-0.125766,-0.0834859,0.0062561,0.018425,0.0193024,0.0181198,0.0162125,0.0119019,0.0256348,0.0214767,-9.97986,0.0175095,-0.00450134,0.0113678,0.00610352,-0.00839233,-0.0106049,0.0175476,0.00583649
11,8,-9.99003,0.00152588,0.0012207,-2.4244,0.0559862,-0.0753682,0.0568746,0.11461,-0.0858222,0.145013,-0.121799,-0.0819601,0.0111771,0.0152588,0.0195313,0.0138855,0.0196457,0.0141144,0.0213242,0.017662,-9.97986,0.0164795,-0.00488281,0.0114441,0.00854492,0.0196075,-0.00228882,0.0194168,0.00759125
11,9,-3.98021,0.000915527,0.00289917,-2.42684,0.0544603,-0.075063,0.0544332,0.138414,-0.0876533,0.145318,-0.12241,-0.0850118,0.00930786,0.0190353,0.0182724,0.0128937,0.0207901,0.0112534,0.0203323,0.0195694,-9.97986,0.0132751,-0.00274658,0.0160599,0.0094223,0.0204086,0.0031662,0.0200272,0.00583649
12,0,3.71236,0.000610352,0.00488281,-2.42806,0.0538499,-0.0759786,0.0529073,0.152757,-0.0891792,0.143487,-0.121494,-0.0859274,0.0133133,0.0270462,0.0195694,0.00976563,0.0192261,0.00850677,0.0191498,0.0177002,-9.97986,0.0167465,-0.0012207,0.0120163,0.00709534,0.0152588,-0.00125885,0.018425,0.00682831
12,1,10.0097,0.000610352,0.00457764,-2.42867,0.0541551,-0.0762837,0.0535176,0.150011,-0.0913154,0.143487,-0.121799,-0.085317,0.0149536,0.02285,0.0222778,0.0153732,0.0195694,0.0094223,0.0249863,0.0214005,-9.97986,0.0161362,0.000724792,0.0125122,0.0069046,0.0172043,0.00106812,0.0177383,0.00274658
12,2,10.0097,0.000305176,0.00183105,-2.42959,0.0535448,-0.0768941,0.0504659,0.101793,-0.0980293,0.142572,-0.126682,-0.0886739,0.0150299,0.0279236,0.0183868,0.0105667,0.0161362,0.00751495,0.0199509,0.0185776,-9.97986,0.0159454,0.00511169,0.0113297,0.00843048,0.019722,-0.000267029,0.0179291,0.00747681
12,3,10.0097,0.000915527,0.000305176,-2.42898,0.0535448,-0.0759786,0.0498555,0.0822618,-0.0961982,0.142877,-0.126987,-0.0883688,0.0127029,0.031929,0.0195694,0.0151443,0.0184631,0.0127029,0.0227356,0.0185013,-9.97986,0.0164413,0.00991821,0.014534,0.0069809,0.0205231,-0.00114441,0.0163651,0.0056076
12,4,10.0097,0.000305176,-0.000457764,-2.42928,0.0547655,-0.0759786,0.0519917,0.0752428,-0.0955879,0.144098,-0.126377,-0.0859274,0.0144958,0.026741,0.0199127,0.0113678,0.0148392,0.00862122,0.0243759,0.0178146,-9.97986,0.0167084,0.00747681,0.0164795,0.00854492,0.0174332,-0.00102997,0.0196838,0.00465393
12,5,10.0097,0.000305176,-0.00106812,-2.42776,0.0547655,-0.0744527,0.0538228,0.0731066,-0.094062,0.145318,-0.126072,-0.085317,0.00640869,0.0233078,0.0205994,0.0094986,0.0173569,0.0113297,0.0196075,0.014534,-9.97986,0.0149536,0.00389099,0.0154114,0.0075531,0.0152206,-0.00110626,0.0164032,0.00469208
12,6,10.0097,-0.000305176,-0.000457764,-2.42837,0.0553758,-0.075063,0.0532125,0.0709703,-0.0943672,0.144403,-0.125461,-0.0850118,0.0138092,0.0231552,0.0213242,0.0140762,0.0152588,0.012207,0.0203705,0.0187302,-9.97986,0.0172424,0.00720978,0.0151062,0.00785828,0.0183487,-0.00247955,0.0159836,0.00812531
12,7,10.0097,0,0.000305176,-2.42684,0.0544603,-0.0753682,0.0535176,0.07036,-0.0928413,0.144708,-0.124851,-0.0840963,0.0102234,0.0203705,0.0172806,0.014267,0.018959,0.0124359,0.0191879,0.0176239,-9.97986,0.0143051,0.00888824,0.0128555,0.00511169,0.018692,-0.00423431,0.0145721,0.00556946
12,8,10.0097,-0.00335693,0.000457764,-2.42531,0.0565965,-0.0741475,0.054128,0.0718859,-0.0925361,0.146539,-0.123935,-0.0813497,0.0148773,0.0193024,0.0141144,0.0125885,0.0185394,0.0115204,0.0234604,0.0167465,-9.97986,0.00984192,0.0018692,0.013504,0.00541687,0.0184631,-0.00335693,0.0177765,0.00659943
12,9,10.0097,0.000610352,0.000152588,-2.42562,0.055681,-0.0744527,0.0544332,0.0715807,-0.0922309,0.145929,-0.125156,-0.0813497,0.0152588,0.0219345,0.018425,0.0141525,0.0182724,0.0134277,0.0234985,0.0196075,-9.97986,0.0171661,0.00789642,0.0141907,0.00648499,0.0186157,-0.00648499,0.0188828,0.00667572
13,0,10.0097,0.000610352,0.000152588,-2.42592,0.0559862,-0.0735371,0.0529073,0.0541857,-0.0946723,0.144708,-0.126377,-0.0828756,0.0147247,0.0207138,0.0186539,0.0178909,0.0170517,0.00892639,0.019455,0.0232697,-9.97986,0.0154877,0.00713348,0.0138855,0.00930786,0.0178909,-0.00453949,0.0195694,0.00793457
13,1,7.69704,-0.000305176,-0.00320435,-2.42623,0.0562914,-0.0741475,0.0522969,0.0193956,-0.0983344,0.145624,-0.128208,-0.0834859,0.0123978,0.0202179,0.0191116,0.00980377,0.0185013,0.00808716,0.0206375,0.0173569,-9.97986,0.00946045,0.000724792,0.00648499,0.00114441,0.0102997,-0.00869751,0.0122833,0.00362396
13,2,-1.10606,0.000305176,-0.00473022,-2.42501,0.0569017,-0.0729268,0.0538228,-0.00684949,-0.0971137,0.14776,-0.129429,-0.0810445,0.0123978,0.0201035,0.0207901,0.00682831,0.020256,0.0146484,0.0265884,0.0229645,-9.97986,0.0175476,0.00629425,0.0162125,0.00801086,0.0174332,-0.00221252,0.0207901,0.00957489
13,3,-7.96123,-0.000305176,-0.00488281,-2.42592,0.0562914,-0.073232,0.0547383,-0.0153944,-0.0971137,0.146234,-0.130954,-0.0813497,0.0121307,0.0177383,0.018158,0.00377655,0.0170135,0.00801086,0.0206757,0.0152588,-9.97986,0.0123596,0.00267029,0.0136566,0.0100708,0.0163269,-0.00358582,0.0188446,0.00411987
13,4,-9.99003,0.000305176,-0.0038147,-2.42379,0.0562914,-0.0729268,0.0568746,0.0172594,-0.0913154,0.147149,-0.127903,-0.0798238,0.0102615,0.015831,0.0170898,0.00164032,0.0169754,0.011673,0.0232697,0.0212097,-9.97986,0.0152206,0.00453949,0.0153732,0.0075531,-0.00282288,0.0012207,0.0169754,0.00713348
13,5,-9.99003,-0.000305176,-0.00137329,-2.42562,0.055681,-0.0738423,0.0553487,0.0493029,-0.0903999,0.145929,-0.126682,-0.0813497,0.0127029,0.0238037,0.019989,-0.00751495,0.0217438,0.00782013,0.0230026,0.019989,-9.97986,0.0131607,0.00396729,0.0154877,0.00648499,-0.00797272,0.00247955,0.0154114,0.00564575
13,6,-9.99003,0.00183105,0,-2.42592,0.0550706,-0.0744527,0.0547383,0.0605944,-0.0910102,0.145318,-0.126072,-0.0831808,0.0136948,0.0260925,0.0212097,-0.00938416,0.018425,0.00965118,0.0234985,0.0202942,-9.97986,0.0162125,-0.000915527,0.0127029,0.00926971,-0.00534058,0.00530243,0.0168991,0.00610352
13,7,-9.99003,0,0.000610352,-2.42684,0.0550706,-0.0744527,0.0544332,0.0648668,-0.0919257,0.145318,-0.126072,-0.0837911,0.00995636,0.0283051,0.018959,-0.0109863,0.0164032,0.0120926,0.0221634,0.0197983,-9.97986,0.0146866,0.000190735,0.0143814,0.0075531,-0.00553131,0.00923157,0.0148392,0.00400543
13,8,-9.99003,0.000610352,0.0012207,-2.42531,0.0550706,-0.0735371,0.0580953,0.11461,-0.0867378,0.146234,-0.122104,-0.0828756,0.0146484,0.0254822,0.0184631,-0.00286102,0.0191879,0.0106049,0.0180817,0.0174332,-9.97986,0.0112534,0.00576019,0.0165558,0.00892639,0.0182724,0.00858307,0.0183487,0.00511169
13,9,-4.05681,0.000915527,0.0038147,-2.42684,0.0529344,-0.0753682,0.0544332,0.139025,-0.0870429,0.144708,-0.12241,-0.0834859,0.0134277,0.0272369,0.018158,0.00038147,0.0189209,0.00839233,0.0246048,0.0153732,-9.97986,0.0150299,0.00434875,0.01297,0.00938416,0.019722,0.00408173,0.0181198,0.00564575
14,0,3.65315,0.000305176,0.00442505,-2.42806,0.0535448,-0.0762837,0.0526021,0.152452,-0.0882636,0.143792,-0.120884,-0.0850118,0.0125504,0.0237656,0.0181961,-0.01091,0.0175858,0.01091,0.0242615,0.0180435,-9.97986,0.0148392,0.00442505,0.0148392,0.0069046,0.0218964,-0.00526428,0.0170517,0.00679016
14,1,10.0097,0.000915527,0.00442505,-2.42837,0.0535448,-0.0753682,0.0516866,0.149095,-0.0913154,0.142877,-0.122104,-0.0862325,0.013504,0.0264359,0.0145721,0.016861,0.018425,0.0125885,0.0230789,0.0212479,-9.97986,0.0125122,-0.000534058,0.0132751,0.0100327,0.0167465,-0.00572205,0.0183868,0.00564575
14,2,10.0097,0.000610352,0.00183105,-2.42989,0.0538499,-0.0768941,0.04894,0.101793,-0.0980293,0.142877,-0.125766,-0.0874532,0.00812531,0.0214005,0.0136566,0.0519562,0.016861,0.012207,0.0178146,0.0207138,-9.97986,0.0146866,-0.00183105,0.0138474,0.00579834,0.0140381,-0.00843048,0.0162888,0.00556946
14,3,10.0097,-0.000305176,0,-2.42959,0.0544603,-0.0753682,0.050771,0.0822618,-0.0968086,0.144098,-0.126682,-0.0889791,0.00766754,0.014534,0.0139236,0.0498199,0.0209045,0.0116348,0.0209427,0.0182343,-9.97986,0.0117874,0.00125885,0.0121307,0.0063324,0.0146866,-0.00553131,0.0173187,0.00778198
14,4,10.0097,-0.000610352,0.000152588,-2.42959,0.0544603,-0.0753682,0.0516866,0.0767687,-0.0949775,0.144098,-0.126072,-0.0874532,0.0133514,0.0181961,0.017395,0.0352859,0.014267,0.00999451,0.0238037,0.0191116,-9.97986,0.0143433,-0.000495911,0.0177383,0.00667572,0.0180817,-0.00148773,0.0184631,0.0056076
14,5,10.0097,0,0.000457764,-2.42745,0.0547655,-0.0747579,0.0522969,0.0724962,-0.0943672,0.144403,-0.126072,-0.0856222,0.0111389,0.0221634,0.0167084,0.0229263,0.018425,0.00991821,0.0230408,0.015564,-9.97986,0.0139236,0.000724792,0.0123978,0.00701904,0.0209427,-0.00137329,0.0144958,0.00324249
14,6,10.0097,-0.000305176,0.000305176,-2.42745,0.055681,-0.075063,0.0529073,0.0718859,-0.0931465,0.145013,-0.126072,-0.0847066,0.0087738,0.0231934,0.0209427,0.032196,0.0186539,0.0130844,0.0182724,0.0210571,-9.97986,0.0140381,-0.000228882,0.0109482,0.00526428,0.0190735,0.00156403,0.0165176,0.00827789
14,7,10.0097,-0.00213623,-0.000152588,-2.42745,0.0559862,-0.075063,0.0529073,0.0706652,-0.0937568,0.145624,-0.125461,-0.0834859,0.00968933,0.0283051,0.0234604,0.0377274,0.0208664,0.00854492,0.0217438,0.018158,-9.97986,0.0139999,-0.00247955,0.0121689,0.001297,0.0146484,-0.00114441,0.0162888,0.00526428
14,8,10.0097,-0.000610352,0.000610352,-2.42348,0.0562914,-0.0735371,0.0547383,0.0706652,-0.0922309,0.146234,-0.124546,-0.0825704,0.014267,0.0260544,0.0229263,0.0283051,0.0157547,0.0101471,0.0218582,0.013504,-9.97986,0.0147247,-0.00141144,0.0148392,0.00289917,0.0167847,0.00183105,0.0170517,0.00679016
14,9,10.0097,-0.000305176,0.000152588,-2.42531,0.0562914,-0.0744527,0.0544332,0.072191,-0.0928413,0.145929,-0.124241,-0.0819601,0.0141907,0.0275803,0.030365,0.0205612,0.0199509,0.0138474,0.0190735,0.0141525,-9.97986,0.0164032,0.00221252,0.0128937,0.00564575,0.0160599,0.00938416,0.0158691,0.00408173
15,0,10.0097,-0.000305176,-0.000152588,-2.42592,0.0559862,-0.0741475,0.0529073,0.0532701,-0.095893,0.145624,-0.126072,-0.0828756,0.0133896,0.0253677,0.0278473,0.0229263,0.0178528,0.010643,0.0217438,0.0189209,-9.97986,0.0175095,-0.00190735,0.0167847,0.0069046,0.0169754,0.00751495,0.0155258,0.00465393
15,1,7.68392,0.000305176,-0.00335693,-2.42653,0.0565965,-0.0738423,0.0532125,0.0209215,-0.0961982,0.146539,-0.127292,-0.0825704,0.0162125,0.0262833,0.0279617,0.0164032,0.0149155,0.0134659,0.0217438,0.0191879,-9.97986,0.0165558,0.000953674,0.0140762,-0.000152588,0.0152969,0.00602722,0.0151443,0.00629425
15,2,-1.0908,0.000305176,-0.00518799,-2.4247,0.0578172,-0.073232,0.0535176,-0.00745984,-0.095893,0.146539,-0.129123,-0.0810445,0.0133133,0.0250626,0.0313568,0.00965118,0.0205612,0.00904083,0.02285,0.0165558,-9.97986,0.00904083,0.000648499,0.015831,0.0018692,0.015831,0.00110626,0.0181961,0.00774384
15,3,-7.99296,-0.00152588,-0.00442505,-2.42501,0.0562914,-0.0729268,0.0544332,-0.0144789,-0.0968086,0.146844,-0.129123,-0.0813497,0.0094223,0.0209427,0.0335693,0.00736237,0.0183487,0.0119019,0.021286,0.012207,-9.97986,0.0115585,-0.00198364,0.0148773,0.00602722,0.0174713,-0.00564575,0.0165176,0.00614166
15,4,-9.99003,0.000610352,-0.00305176,-2.42409,0.0569017,-0.0738423,0.0562642,0.0157335,-0.0913154,0.147149,-0.127598,-0.0795187,0.0113678,0.0246048,0.0246048,0.00297546,0.0114059,0.0177002,0.0181961,0.0136185,-9.97986,0.0187683,-0.00656128,0.0107574,0.00549316,-0.00846863,-0.00839233,0.0156403,0.00667572
15,5,-9.99003,0,-0.0012207,-2.42501,0.0559862,-0.0735371,0.0562642,0.0486925,-0.0897895,0.146539,-0.126072,-0.080129,0.0138092,0.0299835,0.0203705,0.00801086,0.0174713,0.0112915,0.0198364,0.0139999,-9.97986,0.0170898,-0.00553131,0.0189972,0.00244141,-0.00617981,-0.00919342,0.0152206,0.0069809
15,6,-9.99003,0.000915527,-0.000915527,-2.42501,0.0553758,-0.0744527,0.0547383,0.059984,-0.0910102,0.145624,-0.126377,-0.0819601,0.0125504,0.0197983,0.016098,0.0102997,0.0160599,0.0120163,0.0197601,0.0189209,-9.97986,0.0171661,-0.00450134,0.0144958,0.00232697,-0.0101852,-0.00679016,0.0125504,0.00457764
15,7,-9.99003,0.00152588,0.000305176,-2.42684,0.0562914,-0.0747579,0.0544332,0.065172,-0.0925361,0.145013,-0.126072,-0.0834859,0.0136566,0.024147,0.0110626,0.0126648,0.0217056,0.0110245,0.0256729,0.020256,-9.97986,0.018692,-0.00183105,0.0159836,0.0031662,-0.00473022,0.00133514,0.0164795,0.0100327
15,8,-9.99003,0.000915527,0.000457764,-2.4244,0.0547655,-0.075063,0.0565694,0.115831,-0.0861274,0.145318,-0.12241,-0.0822652,0.0110245,0.019455,0.00705719,0.010376,0.0124359,0.00831604,0.0208664,0.0151443,-9.97986,0.0135803,-0.00782013,0.014534,0.00473022,0.0153732,0.00179291,0.0108719,0.00675201
15,9,-3.89079,0,0.00350952,-2.42745,0.0538499,-0.0747579,0.0547383,0.139025,-0.0882636,0.144708,-0.122715,-0.0850118,0.0151062,0.0150681,0.00858307,0.01091,0.0175476,0.0108719,0.0229263,0.0168228,-9.97986,0.0185013,-0.00370026,0.0159454,0.00473022,0.0168228,0.0138855,0.0148392,0.00606537
16,0,3.77553,0.00244141,0.00457764,-2.42837,0.0541551,-0.0762837,0.0538228,0.152757,-0.0885688,0.143792,-0.121494,-0.085317,0.0127029,0.0126648,0.00663757,0.0094223,0.0179291,0.0114059,0.0164795,0.0153732,-9.97986,0.0172043,-0.00164032,0.0169754,0.00514984,0.0175476,0.0109482,0.0143433,0.00919342
16,1,10.0097,-0.00152588,0.00350952,-2.42806,0.0535448,-0.0747579,0.0532125,0.150011,-0.0910102,0.142877,-0.121799,-0.0859274,0.0102234,0.0160599,0.00701904,0.00881195,0.0143433,0.0105286,0.019989,0.0175858,-9.97986,0.01297,-0.0056839,0.0173569,0.0050354,0.0125122,0.00209808,0.0144958,0.00801086
16,2,10.0097,-0.000610352,0.00106812,-2.4302,0.0535448,-0.0762837,0.0510762,0.100878,-0.0977241,0.143792,-0.126072,-0.0883688,0.0115967,0.0157547,0.0102615,0.00804901,0.0151443,0.0118256,0.0213623,0.0177002,-9.97986,0.0112152,-0.00476837,0.0156021,0.00480652,0.0115967,0.00278473,0.0125504,0.00598907
16,3,10.0097,0.0012207,0.00106812,-2.43172,0.0547655,-0.0765889,0.0513814,0.0813463,-0.0971137,0.144403,-0.126377,-0.0883688,0.0131607,0.0196075,0.0124359,0.0105286,0.0195313,0.0103378,0.0227737,0.0183868,-9.97986,0.0167465,-0.00648499,0.0150681,0.00598907,0.01194,-0.00297546,0.0128174,0.00762939
16,4,10.0097,-0.000305176,0,-2.42928,0.0535448,-0.0744527,0.0522969,0.0761583,-0.0955879,0.143487,-0.126072,-0.0871481,0.0126266,0.0197983,0.0126648,0.00934601,0.0161743,0.0160217,0.0231552,0.0190735,-9.97986,0.0154495,-0.00423431,0.0157928,0.00862122,0.00961304,-0.0094986,0.0146866,0.00785828
16,5,10.0097,0.000915527,0.000152588,-2.42776,0.0553758,-0.0756734,0.0522969,0.0731066,-0.0937568,0.144708,-0.126987,-0.0847066,0.0131607,0.0216675,0.0130463,0.00827789,0.0164413,0.0108719,0.0243759,0.0148392,-9.97986,0.0143051,-0.0019455,0.0161362,0.00659943,0.0182343,-0.0218964,0.0175476,0.00637054
16,6,10.0097,0,0.000915527,-2.42684,0.0541551,-0.0747579,0.054128,0.0718859,-0.0955879,0.145624,-0.126377,-0.0844015,0.0120926,0.0224686,0.0149155,0.01091,0.0205994,0.0100708,0.0190353,0.0216293,-9.97986,0.0168228,-0.00106812,0.0172043,0.00843048,0.0159836,-0.0125504,0.0158691,0.00923157
16,7,10.0097,0.000915527,-0.000305176,-2.42714,0.0562914,-0.0744527,0.0526021,0.0712755,-0.0952827,0.143182,-0.126682,-0.0850118,0.0128555,0.019455,0.0140381,0.0103378,0.0165558,0.0146103,0.0244904,0.0175476,-9.97986,0.0130844,-0.0056076,0.0121307,0.00389099,0.0134659,0.000114441,0.0164413,0.0063324
16,8,10.0097,0.000610352,0.000305176,-2.42623,0.0559862,-0.0741475,0.0553487,0.0718859,-0.0919257,0.147149,-0.124851,-0.0822652,0.0114441,0.0180817,0.0157166,0.0111389,0.017395,0.0139999,0.0228882,0.0163269,-9.97986,0.0142288,-0.00797272,0.0117874,0.00728607,0.0172806,0.0144577,0.019722,0.00751495
16,9,10.0097,0.00183105,0.000457764,-2.42592,0.0553758,-0.0741475,0.0550435,0.0715807,-0.0922309,0.145624,-0.124851,-0.0816549,0.00862122,0.0191498,0.0154877,0.0153732,0.0167465,0.0130463,0.0226593,0.0191116,-9.97986,0.0134659,-0.00507355,0.0157928,0.00595093,0.0101471,0.0159073,0.0164795,0.00598907
17,0,10.0097,0.000610352,0,-2.42714,0.0559862,-0.0753682,0.0532125,0.052965,-0.0961982,0.146234,-0.125766,-0.0825704,0.0104904,0.0234985,0.014801,0.00923157,0.0194168,0.0113297,0.0195694,0.0175476,-9.97986,0.0143433,-0.00724792,0.0164032,0.00473022,0.0165558,0.0171661,0.0215912,0.00709534
17,1,7.67842,0.000305176,-0.00289917,-2.42684,0.0562914,-0.0741475,0.0519917,0.0184801,-0.0965034,0.146234,-0.127598,-0.0831808,0.0119781,0.022316,0.0221634,0.00713348,0.0151825,0.0113678,0.0167465,0.0188446,-9.97986,0.0144577,-0.0012207,0.0127029,0.00751495,0.018158,0.0193024,0.0174332,0.00846863
17,2,-1.07371,0.000915527,-0.00518799,-2.42562,0.0578172,-0.0744527,0.0522969,-0.00684949,-0.0971137,0.146844,-0.128513,-0.0816549,0.0104904,0.02388,0.0189209,0.00751495,0.0164032,0.011673,0.0196075,0.0213242,-9.97986,0.017128,-0.00465393,0.0138855,0.0069046,0.0135803,0.0114441,0.0185776,0.00598907
17,3,-7.96184,0.000610352,-0.00457764,-2.42531,0.0559862,-0.073232,0.0547383,-0.0156996,-0.0955879,0.146844,-0.130649,-0.0816549,0.0109863,0.0221634,0.0162506,0.00911713,0.0157547,0.0109482,0.0154877,0.0197601,-9.97986,0.0121307,-0.000495911,0.0139618,0.0050354,0.0165939,0.00156403,0.016098,0.00720978
17,4,-9.99003,0.000305176,-0.00274658,-2.42409,0.0562914,-0.0738423,0.0577901,0.0157335,-0.0913154,0.147149,-0.126987,-0.0807394,0.00797272,0.018158,0.0170517,0.0148392,0.0179291,0.0133133,0.0204849,0.0161362,-9.97986,0.0126266,-0.000724792,0.0153351,0.00274658,-0.0128937,0.0087738,0.0170135,0.0069809
17,5,-9.99003,0.000610352,-0.00106812,-2.4247,0.0562914,-0.0741475,0.0562642,0.0486925,-0.0919257,0.146539,-0.126377,-0.0813497,0.0125122,0.0241852,0.0177383,0.00804901,0.0192261,0.0104523,0.0208282,0.0189972,-9.97986,0.0139618,-0.00164032,0.0159454,0.00644684,-0.0087738,-0.00087738,0.0186157,0.00522614
17,6,-9.99003,0.000305176,-0.000305176,-2.42684,0.055681,-0.0747579,0.0553487,0.0605944,-0.0903999,0.145318,-0.125766,-0.0825704,0.00358582,0.0243759,0.017128,0.0094223,0.0156021,0.00839233,0.0193787,0.0128937,-9.97986,0.0131226,-0.00415802,0.0176239,0.00301361,-0.00926971,0.000915527,0.0159836,0.00331879
17,7,-9.99003,0.000915527,-0.000457764,-2.42714,0.0559862,-0.075063,0.0538228,0.0657823,-0.0919257,0.144708,-0.125156,-0.0828756,0.00579834,0.0230026,0.0195313,0.01297,0.0175858,0.0115204,0.0236511,0.0181961,-9.97986,0.0146103,-0.00259399,0.0144196,0.00720978,-0.0104904,-0.00377655,0.0165939,0.00495911
17,8,-9.99003,0.000915527,0.000762939,-2.4247,0.0553758,-0.0747579,0.0568746,0.113695,-0.0858222,0.146234,-0.12241,-0.0813497,0.0107193,0.0233459,0.022583,0.00991821,0.0194931,0.0116348,0.0154495,0.0150299,-9.97986,0.010643,-0.00247955,0.0119781,0.00648499,0.0144958,-0.0167465,0.0156021,0.00679016
17,9,-4.07054,-0.000305176,0.00350952,-2.42714,0.0532396,-0.0759786,0.0544332,0.13933,-0.0885688,0.143792,-0.122715,-0.0840963,0.0126648,0.0245667,0.0221634,0.0101471,0.019989,0.00629425,0.0198364,0.0153351,-9.97986,0.0108337,-0.00183105,0.018692,0.00621796,0.0167847,-0.0204849,0.0146866,0.00583649
18,0,3.63698,0.0012207,0.00411987,-2.42867,0.0538499,-0.0765889,0.0538228,0.153063,-0.0882636,0.143487,-0.121189,-0.085317,0.0133133,0.0282288,0.0170135,0.00617981,0.0157166,0.0108337,0.0195313,0.016098,-9.97986,0.014534,-0.000419617,0.0136185,0.0082016,0.0165176,-0.0172806,0.0147247,0.00411987
18,1,10.0097,0.000610352,0.00534058,-2.42776,0.0541551,-0.0759786,0.0526021,0.150011,-0.0916206,0.144708,-0.12241,-0.0862325,0.00621796,0.0240326,0.0202179,0.00854492,0.0136948,0.01194,0.0244904,0.0152969,-9.97986,0.0162506,-0.00240326,0.0148392,0.00816345,0.0154877,-0.00621796,0.0161362,0.00553131
18,2,10.0097,0,0.00167847,-2.43172,0.0529344,-0.0765889,0.0495503,0.102098,-0.0980293,0.142572,-0.124851,-0.0883688,0.00434875,0.0230408,0.0192642,0.0119781,0.0221634,0.0088501,0.0247574,0.021553,-9.97986,0.0156403,-0.000610352,0.016098,0.00652313,0.0102997,0.0082016,0.0166321,0.00656128
18,3,10.0097,0,0.000762939,-2.42898,0.0544603,-0.0762837,0.0504659,0.0819567,-0.0971137,0.144403,-0.126987,-0.0877584,0.00629425,0.0286102,0.0209427,0.0102615,0.0161362,0.00701904,0.018959,0.0209427,-9.97986,0.0141525,-0.00442505,0.0133896,0.0094223,0.0141525,0.0140381,0.0168991,0.00442505
18,4,10.0097,0.000610352,0.000305176,-2.42867,0.0547655,-0.0741475,0.0516866,0.0752428,-0.0949775,0.143487,-0.126682,-0.0865377,0.00274658,0.0234985,0.0152588,0.0088501,0.0173187,0.00850677,0.0160217,0.0154495,-9.97986,0.0125122,-0.00209808,0.0133896,0.00614166,0.0124741,0.0167084,0.0123978,0.00946045
18,5,10.0097,0.000305176,-0.000457764,-2.42837,0.0547655,-0.075063,0.0516866,0.0718859,-0.0952827,0.145013,-0.125766,-0.0862325,0.0106049,0.0271225,0.0190735,0.0166321,0.0172424,0.0129318,0.0218964,0.0152969,-9.97986,0.00999451,-0.000305176,0.0157928,0.00694275,0.0125885,0.0126266,0.0194931,0.00480652
18,6,10.0097,0.000915527,0,-2.42837,0.0547655,-0.0747579,0.0519917,0.0706652,-0.0931465,0.144098,-0.126377,-0.085317,0.00453949,0.0265503,0.0156021,0.00648499,0.0147629,0.0104141,0.02285,0.0156021,-9.97986,0.0161362,-0.00144958,0.0104141,0.0107193,0.0143433,0.00240326,0.0165939,0.00789642
18,7,10.0097,0.000610352,0.000610352,-2.42623,0.055681,-0.0747579,0.0544332,0.0724962,-0.0937568,0.145318,-0.124851,-0.0837911,0.0120544,0.0259399,0.0150299,0.0124741,0.0157928,0.0108337,0.020752,0.0170898,-9.97986,0.0124359,0.000953674,0.012207,0.00724792,0.0125122,-0.0176239,0.0171661,0.00778198
18,8,10.0097,0.000915527,0.000457764,-2.42562,0.0562914,-0.073232,0.0550435,0.0724962,-0.0928413,0.146844,-0.125156,-0.0822652,0.00770569,0.0269699,0.0189209,0.0155258,0.0205994,0.0115585,0.0215149,0.0173187,-9.97986,0.0119781,0.00087738,0.0144196,0.00934601,0.0135422,-0.0285721,0.018692,0.00469208
18,9,10.0097,0.00152588,-0.000152588,-2.42562,0.0562914,-0.0744527,0.0544332,0.0718859,-0.0903999,0.145318,-0.124546,-0.0816549,0.00484467,0.0289536,0.0223923,0.00968933,0.0188065,0.00831604,0.019989,0.0149536,-9.97986,0.014801,0.00171661,0.0152969,0.00419617,0.0174332,-0.0279617,0.0164032,0.00717163
19,0,10.0097,0.00183105,-0.000305176,-2.42592,0.0553758,-0.0741475,0.0526021,0.0520494,-0.0946723,0.145929,-0.127292,-0.0819601,0.00656128,0.0268173,0.0221252,0.00518799,0.0190353,0.00938416,0.0214386,0.0165176,-9.97986,0.0111389,0.00247955,0.0121307,0.00934601,0.0139236,-0.0162125,0.0171661,0.00881195
19,1,7.62715,0.000610352,-0.00289917,-2.42684,0.0562914,-0.0738423,0.0529073,0.0193956,-0.0965034,0.147455,-0.128513,-0.0828756,0.00579834,0.0246048,0.02491,0.00102997,0.0170135,0.00675201,0.0198746,0.014534,-9.97986,0.0133133,0.000343323,0.014534,0.00545502,0.0161743,-0.00747681,0.0151825,0.00614166
19,2,-1.18876,0.00152588,-0.00473022,-2.42531,0.0569017,-0.0726216,0.0535176,-0.00593396,-0.0965034,0.146539,-0.127903,-0.0822652,0.00751495,0.0234604,0.0214767,-0.0031662,0.018158,0.010643,0.0229645,0.0191498,-9.97986,0.0108337,-0.000724792,0.0130463,0.00385284,0.0121307,0.00492096,0.0164032,0.0094986
19,3,-8.10435,0.000305176,-0.00427246,-2.42592,0.0572069,-0.0735371,0.0538228,-0.0150892,-0.0952827,0.146234,-0.130344,-0.0804342,0.0113297,0.0237274,0.0157547,-0.00347137,0.0214005,0.0122833,0.0210571,0.0156784,-9.97986,0.0107574,0.00282288,0.0117111,0.0107193,0.0131989,0.0102997,0.0149155,0.00576019
19,4,-9.99003,0.0012207,-0.00305176,-2.4247,0.0575121,-0.0738423,0.0562642,0.0169542,-0.090705,0.147455,-0.127598,-0.0795187,0.00717163,0.0226974,0.0220871,-0.000648499,0.0155258,0.00946045,0.0226974,0.0157928,-9.97986,0.0127792,0.0030899,0.0157928,0.00862122,-0.00984192,0.00785828,0.0157166,0.00774384
19,5,-9.99003,0.00183105,-0.00137329,-2.42592,0.0572069,-0.0744527,0.055959,0.049608,-0.0897895,0.145624,-0.125766,-0.0807394,0.00907898,0.0321198,0.0224686,-0.00576019,0.0180435,0.00957489,0.0237274,0.0199127,-9.97986,0.01297,0.0018692,0.0142288,0.00492096,-0.00953674,0.00598907,0.014534,0.00576019
19,6,-9.99003,0.000305176,0.000305176,-2.42684,0.055681,-0.0747579,0.0550435,0.059984,-0.0894843,0.145624,-0.124851,-0.0816549,0.00972748,0.0339508,0.0216675,-0.00766754,0.015831,0.0069809,0.0204849,0.0216675,-9.97986,0.015831,-0.00564575,0.0133133,0.00667572,-0.0115967,0.00518799,0.0150299,0.00545502
19,7,-9.99003,-0.000305176,0,-2.42653,0.055681,-0.0738423,0.0538228,0.065172,-0.0913154,0.144708,-0.126682,-0.0840963,0.00427246,0.0271606,0.0188065,0.00881195,0.0191116,0.00743866,0.0218964,0.0189209,-9.97986,0.0140762,-0.00202179,0.0124741,0.0100327,-0.00888824,-0.000953674,0.0151062,0.00656128
19,8,-9.99003,0.000610352,0.00106812,-2.42531,0.0553758,-0.0753682,0.0562642,0.11461,-0.0867378,0.145013,-0.122715,-0.0822652,0.00694275,0.0197983,0.0151062,0.013504,0.0188446,0.00961304,0.0264359,0.0219727,-9.97986,0.0159836,-0.00160217,0.0141144,0.00621796,0.0165176,-0.00362396,0.0192642,0.00816345
19,9,-4.00554,0.000305176,0.00350952,-2.42592,0.0535448,-0.0753682,0.0550435,0.138109,-0.0885688,0.143487,-0.122104,-0.0847066,0.00831604,0.0131989,0.0172806,0.00892639,0.0188828,0.0108719,0.02285,0.0204468,-9.97986,0.0164413,0.00335693,0.0161362,0.00846863,0.0141525,-0.0082016,0.0177002,0.0050354
20,0,3.73708,-0.000305176,0.00457764,-2.42714,0.0541551,-0.0759786,0.0532125,0.152147,-0.088874,0.143182,-0.121494,-0.0856222,0.00549316,0.0124359,0.0139236,0.0019455,0.0177002,0.0114059,0.0227356,0.014801,-9.97986,0.0177765,0.00511169,0.0156784,0.00976563,0.0154495,-0.00255585,0.0165558,0.00583649
20,1,10.0097,0.000915527,0.00396729,-2.42867,0.0544603,-0.0744527,0.0529073,0.152452,-0.0913154,0.144098,-0.122104,-0.085317,0.0117111,0.0137711,0.00762939,0.000457764,0.0179672,0.0111008,0.0216675,0.0150681,-9.97986,0.0143051,0.0075531,0.0130463,0.0063324,0.0172043,-0.0121689,0.0133133,0.00881195
20,2,10.0097,0.000915527,0.00167847,-2.4302,0.0535448,-0.0775044,0.0495503,0.102403,-0.0971137,0.143487,-0.125766,-0.0892843,0.0122833,0.0235748,0.0111008,0.0284576,0.0157928,0.0125504,0.0237656,0.0172043,-9.97986,0.0162888,-0.00152588,0.0139999,0.00667572,0.0210571,-0.0256729,0.0181961,0.00644684
20,3,10.0097,0.000610352,-0.000305176,-2.42959,0.0535448,-0.0759786,0.0510762,0.0819567,-0.0974189,0.144098,-0.126682,-0.0880636,0.00572205,0.0259399,0.0172806,0.030365,0.018158,0.0102615,0.0249863,0.0165558,-9.97986,0.0185013,-0.00282288,0.0101471,0.0102997,0.0177002,-0.0236893,0.0196075,0.00743866
20,4,10.0097,0,0,-2.42928,0.0547655,-0.0756734,0.0526021,0.0743273,-0.0952827,0.143792,-0.126377,-0.0862325,0.00675201,0.0331879,0.0245285,0.0206375,0.0175095,0.0100708,0.0254059,0.0146484,-9.97986,0.0163269,-0.000495911,0.011673,0.00797272,0.0150299,-0.00782013,0.0163269,0.00858307
20,5,10.0097,0.00152588,0,-2.42745,0.0550706,-0.075063,0.0529073,0.0737169,-0.0952827,0.144403,-0.125766,-0.0859274,0.00659943,0.03685,0.0320816,0.0182343,0.0179672,0.0114822,0.0254822,0.014534,-9.97986,0.0141525,0.00148773,0.0122833,0.00484467,0.0188446,-0.00343323,0.015564,0.00621796
20,6,10.0097,0.000915527,-0.000305176,-2.42837,0.0547655,-0.0738423,0.0529073,0.072191,-0.0934516,0.144403,-0.126072,-0.0837911,0.0050354,0.0325775,0.036087,0.0159073,0.0192642,0.0121689,0.0259781,0.0180054,-9.97986,0.016861,0.00320435,0.0131989,0.00808716,0.0157928,0.00747681,0.0126266,0.00862122
20,7,10.0097,0,0.000305176,-2.42653,0.0559862,-0.0744527,0.0544332,0.072191,-0.0928413,0.145318,-0.125156,-0.0844015,0.00869751,0.0290298,0.0445175,0.0217819,0.0180054,0.0114441,0.0259781,0.0193024,-9.97986,0.0165558,0.00621796,0.0128937,0.00667572,0.0158691,0.00991821,0.0157928,0.00656128
20,8,10.0097,-0.0012207,0,-2.42562,0.0544603,-0.0747579,0.0535176,0.0731066,-0.0922309,0.146234,-0.124241,-0.0822652,0.00835419,0.0249481,0.0407028,0.0356293,0.0159454,0.00915527,0.0232697,0.0161743,-9.97986,0.0139236,0.00598907,0.0111389,0.00404358,0.0176239,0.0109863,0.0183868,0.00572205
20,9,10.0097,-0.000610352,-0.000457764,-2.42531,0.0553758,-0.0744527,0.054128,0.0712755,-0.0925361,0.145624,-0.124851,-0.0822652,0.00965118,0.0183105,0.0406647,0.0338745,0.0199127,0.0112915,0.0226593,0.0179672,-9.97986,0.0170898,0.0062561,0.0124359,0.00988007,0.0163269,0.00415802,0.0178528,0.00480652
21,0,10.0097,-0.000610352,-0.000152588,-2.42623,0.055681,-0.073232,0.054128,0.0505236,-0.0946723,0.145624,-0.126682,-0.0828756,0.00789642,0.0151825,0.0419617,0.0297165,0.0179291,0.0100708,0.0204086,0.0129318,-9.97986,0.00900269,0.000686646,0.0109863,0.00461578,0.0146866,0.000457764,0.0115204,0.00816345
21,1,7.54232,-0.000610352,-0.00289917,-2.42653,0.0565965,-0.0744527,0.0526021,0.0184801,-0.0968086,0.146539,-0.127292,-0.0834859,0.00919342,0.0162506,0.0413513,0.0297165,0.018959,0.0113678,0.0214767,0.018959,-9.97986,0.0187683,0.00507355,0.015564,0.0088501,0.0212479,0.00106812,0.0155258,0.00854492
21,2,-1.28703,0.000610352,-0.0050354,-2.42562,0.0565965,-0.073232,0.054128,-0.00623914,-0.0965034,0.146539,-0.128818,-0.0816549,0.00831604,0.0167465,0.0227356,0.0239182,0.0172806,0.00850677,0.0216293,0.0164795,-9.97986,0.0159454,0.00209808,0.0122833,0.00553131,0.0189972,-0.00473022,0.0107956,0.00549316
21,3,-8.09794,-0.000305176,-0.00488281,-2.42592,0.0569017,-0.073232,0.0532125,-0.0141737,-0.095893,0.146539,-0.129429,-0.0816549,0.00816345,0.0165558,0.0165939,0.0189209,0.0159836,0.00621796,0.0249863,0.0193024,-9.97986,0.0135422,0.00274658,0.0100708,0.00499725,0.0162125,-0.00617981,0.0154877,0.00518799
21,4,-9.99003,0.00183105,-0.00259399,-2.42501,0.0565965,-0.0729268,0.0568746,0.0193956,-0.0910102,0.147455,-0.127292,-0.0795187,0.00606537,0.0154495,0.00640869,0.0179291,0.0167465,0.0103378,0.0219727,0.0151443,-9.97986,0.0199509,0.00434875,0.0172043,0.00537872,-0.0107956,-0.00335693,0.0156021,0.00797272
21,5,-9.99003,0,-0.000915527,-2.42409,0.0550706,-0.0729268,0.0562642,0.0493029,-0.0900947,0.146539,-0.126072,-0.0810445,0.00740051,0.0172424,0.00354767,0.0143814,0.0156021,0.00801086,0.0187683,0.0136948,-9.97986,0.0149918,-0.000267029,0.0163269,0.00995636,-0.00816345,0.001297,0.0180054,0.00411987
21,6,-9.99003,0,-0.000762939,-2.42653,0.0550706,-0.0747579,0.0556539,0.059984,-0.0916206,0.145929,-0.126682,-0.0825704,0.00644684,0.0248718,0.00133514,0.015564,0.0161743,0.010376,0.0244904,0.0152588,-9.97986,0.0133133,-0.00247955,0.0159073,0.00831604,-0.00743866,-0.00205994,0.0156784,0.00404358
21,7,-9.99003,-0.000305176,-0.000762939,-2.42714,0.0547655,-0.0762837,0.0547383,0.0654772,-0.0919257,0.145624,-0.124851,-0.0831808,0.0075531,0.0226593,-0.000915527,0.0151443,0.0151443,0.00930786,0.0245667,0.0156403,-9.97986,0.014801,0.000114441,0.0143814,0.00591278,-0.00839233,0.000190735,0.0132751,0.00770569
21,8,-9.99003,0,0.00106812,-2.42501,0.0553758,-0.0735371,0.0568746,0.114916,-0.0855171,0.146539,-0.12241,-0.0816549,0.00827789,0.0244904,0.0038147,0.0155258,0.0191879,0.014267,0.0226593,0.0154114,-9.97986,0.0155258,0.00408173,0.0155258,0.0037384,0.013237,0.00370026,0.0143051,0.00473022
21,9,-3.97441,0.000305176,0.00335693,-2.42714,0.0535448,-0.0756734,0.0556539,0.137499,-0.088874,0.145013,-0.121799,-0.0840963,0.00484467,0.0126266,0.000343323,0.018959,0.017395,0.0125122,0.0241089,0.0164795,-9.97986,0.0127029,-0.00545502,0.016098,0.00701904,0.0196075,-0.00244141,0.0180435,0.00404358
22,0,3.76393,0.000610352,0.00457764,-2.42928,0.0541551,-0.0759786,0.054128,0.151537,-0.088874,0.143487,-0.120884,-0.0850118,0.0100327,0.00709534,0.00473022,0.0108337,0.0183868,0.00980377,0.0253677,0.0195694,-9.97986,0.0174332,-0.00312805,0.0148773,0.00923157,0.0178909,-0.00259399,0.0170135,0.00873566
22,1,10.0097,0.00152588,0.0038147,-2.42928,0.0544603,-0.0762837,0.0526021,0.150011,-0.0900947,0.143182,-0.122104,-0.0859274,0.00968933,0.00522614,0.00297546,0.0102234,0.0150299,0.00610352,0.0236893,0.0171661,-9.97986,0.0192642,-0.0050354,0.0126266,0.00606537,0.0183868,0.00144958,0.0165939,0.00766754
22,2,10.0097,-0.000915527,0.00167847,-2.43081,0.0523241,-0.0753682,0.0504659,0.102403,-0.0968086,0.142267,-0.125766,-0.0877584,0.00862122,0.0112534,0.00957489,0.00614166,0.0167465,0.00797272,0.0236893,0.0167084,-9.97986,0.0170517,-0.0043869,0.0129318,0.00953674,0.0188065,0.0043869,0.0169373,0.00667572
22,3,10.0097,-0.00274658,-0.000152588,-2.42989,0.0538499,-0.0762837,0.0492452,0.0813463,-0.095893,0.141961,-0.126987,-0.0883688,0.00789642,0.0191498,0.0143051,0.0094223,0.0165558,0.0107956,0.0179672,0.0207138,-9.97986,0.018692,-0.00656128,0.0139999,0.00778198,0.0147247,0.0012207,0.0164413,0.00782013
22,4,10.0097,0.000610352,-0.000152588,-2.42867,0.055681,-0.0756734,0.0522969,0.075548,-0.0955879,0.143182,-0.126072,-0.0865377,0.0116348,0.0208282,0.00961304,0.00923157,0.0152206,0.0107574,0.0265121,0.0191116,-9.97986,0.0143433,-0.00408173,0.0153351,0.00396729,0.0193405,-0.00453949,0.0184631,0.00354767
22,5,10.0097,0.000610352,0.000762939,-2.42776,0.0553758,-0.0738423,0.0522969,0.0718859,-0.0943672,0.145013,-0.127292,-0.085317,0.00965118,0.0206375,0.01297,-0.000915527,0.0179672,0.0175858,0.0195313,0.0166702,-9.97986,0.0134277,-0.00156403,0.019455,0.00907898,0.0189209,-0.00679016,0.0196838,0.00850677
22,6,10.0097,0.000610352,-0.000610352,-2.42684,0.0553758,-0.0747579,0.054128,0.0712755,-0.0946723,0.145013,-0.125766,-0.085317,0.00862122,0.0130844,0.0205994,0.00679016,0.0193787,0.0109863,0.022316,0.0191879,-9.97986,0.0133896,-0.00171661,0.0143051,0.00488281,0.0118256,-0.00793457,0.017395,0.00617981
22,7,10.0097,0.00183105,0.000152588,-2.42776,0.0535448,-0.0747579,0.0544332,0.0715807,-0.0937568,0.145318,-0.126377,-0.0837911,0.0069809,0.0114441,0.0193787,0.00583649,0.0201797,0.00823975,0.022049,0.0160217,-9.97986,0.0149918,0.00244141,0.0185776,0.00442505,0.0168228,-0.00743866,0.0174713,0.0056076
22,8,10.0097,0.00183105,0.000610352,-2.4244,0.0559862,-0.0747579,0.0544332,0.0718859,-0.0922309,0.145624,-0.124546,-0.0828756,0.0121307,0.0162506,0.0229645,0.00434875,0.0166702,0.00907898,0.0215149,0.0164413,-9.97986,0.0136566,-0.00282288,0.0171661,0.00614166,0.0158691,-0.00854492,0.0173569,0.00831604
22,9,10.0097,-0.000915527,0.000305176,-2.42592,0.0565965,-0.0738423,0.0553487,0.0724962,-0.0922309,0.14837,-0.124241,-0.0810445,0.0124359,0.0177383,0.027504,0.0146103,0.0199509,0.0114441,0.0195313,0.018425,-9.97986,0.0157928,0.001297,0.0157166,0.00576019,0.0169754,-0.00453949,0.0185394,0.00717163
23,0,10.0097,-0.000610352,0,-2.42531,0.0559862,-0.075063,0.0522969,0.0523546,-0.0946723,0.145013,-0.126682,-0.0828756,0.00598907,0.019989,0.0286102,0.018158,0.0170517,0.0137329,0.022049,0.0241089,-9.97986,0.01194,0.00125885,0.0143814,0.0056076,0.0171661,0.000610352,0.0156403,0.00465393
23,1,7.67324,0.000915527,-0.00244141,-2.42684,0.0559862,-0.073232,0.0526021,0.0187853,-0.0971137,0.146234,-0.128208,-0.0828756,0.0124359,0.021019,0.0278854,-0.00972748,0.0200653,0.0123215,0.0253296,0.021286,-9.97986,0.0109482,-0.00205994,0.0141525,0.00324249,0.019722,0.00183105,0.0180054,0.00835419
23,2,-1.20036,0.000610352,-0.00549316,-2.42531,0.0565965,-0.0744527,0.0550435,-0.00684949,-0.0961982,0.146844,-0.127903,-0.0819601,0.00610352,0.0209427,0.0326157,-0.00717163,0.0195313,0.01091,0.0217056,0.0205994,-9.97986,0.011673,0.00205994,0.0105667,0.00629425,0.0172806,-0.00434875,0.0143433,0.00530243
23,3,-8.0778,-0.000915527,-0.00442505,-2.4247,0.0562914,-0.0735371,0.054128,-0.0141737,-0.0955879,0.146234,-0.130649,-0.0816549,0.00679016,0.0286865,0.0328064,0.017662,0.0197983,0.0118637,0.0173569,0.0182724,-9.97986,0.0165939,-0.00179291,0.0121307,0.00686646,0.0152206,-0.00602722,0.0185776,0.00442505
23,4,-9.99003,0.000610352,-0.00320435,-2.42379,0.0575121,-0.0735371,0.0565694,0.016649,-0.0931465,0.147149,-0.126987,-0.0798238,0.0117111,0.0297928,0.0320435,0.0234604,0.0205612,0.0129318,0.0224686,0.022583,-9.97986,0.0180435,-0.00610352,0.013237,0.001297,-0.00808716,-0.00640869,0.0145721,0.00335693
23,5,-9.99003,0.00183105,-0.000915527,-2.42531,0.055681,-0.0741475,0.0565694,0.047777,-0.088874,0.145929,-0.126377,-0.0810445,0.0106812,0.0252533,0.030899,0.0241089,0.0195694,0.00492096,0.0212479,0.019455,-9.97986,0.0179672,-0.00534058,0.0119781,0.0069046,-0.0069809,-0.00694275,0.018692,0.00774384
23,6,-9.99003,0.000915527,-0.000762939,-2.42623,0.0544603,-0.0738423,0.0550435,0.059984,-0.0910102,0.145318,-0.126072,-0.0822652,0.00999451,0.0178146,0.0245667,0.0250626,0.0157547,0.0124359,0.0163269,0.0165558,-9.97986,0.0116348,-0.00190735,0.0157547,0.0102234,-0.00694275,-0.00904083,0.0153351,0.00286102
23,7,-9.99003,0,0,-2.42714,0.0547655,-0.0747579,0.0544332,0.0642565,-0.0919257,0.144098,-0.126682,-0.0822652,0.010376,0.0219345,0.0228882,0.0188065,0.0188828,0.0115585,0.0209045,0.0152588,-9.97986,0.0148392,-0.00511169,0.0150299,0.00587463,-0.00610352,-0.00789642,0.0148773,0.00576019
23,8,-9.99003,-0.0012207,0.00106812,-2.42501,0.0544603,-0.0747579,0.0565694,0.116747,-0.0846015,0.145318,-0.12302,-0.0822652,0.0130844,0.0247574,0.017395,0.0143051,0.0157547,0.00999451,0.0185013,0.0159073,-9.97986,0.0140762,-0.00183105,0.0167465,0.00774384,0.0160217,-0.0104141,0.0149155,0.00526428
23,9,-3.83983,0.00183105,0.00305176,-2.42684,0.0547655,-0.0759786,0.0544332,0.138109,-0.0879585,0.144403,-0.12241,-0.0844015,0.0156403,0.0257874,0.019722,0.0136566,0.0173187,0.0110626,0.0186539,0.0160217,-9.97986,0.0167084,-0.00637054,0.012207,0.00843048,0.0156021,-0.00774384,0.0175476,0.00541687
24,0,3.92964,0.0012207,0.00457764,-2.42837,0.0541551,-0.0753682,0.0529073,0.152147,-0.0885688,0.143487,-0.121494,-0.0859274,0.011673,0.0300598,0.0214767,0.0153732,0.0177002,0.0112152,0.0177765,0.0144196,-9.97986,0.0144196,-0.00297546,0.0147629,0.00488281,0.0185394,-0.00465393,0.0153351,0.00606537
24,1,10.0097,0.000305176,0.00518799,-2.42867,0.0541551,-0.0759786,0.0532125,0.151537,-0.0910102,0.143182,-0.121799,-0.0859274,0.0111008,0.0227737,0.0200272,0.0136185,0.0181961,0.00995636,0.0213623,0.0149155,-9.97986,0.0162888,-0.00160217,0.0125885,0.00858307,0.0203705,-0.0172424,0.0156021,0.00354767
24,2,10.0097,-0.00152588,0.0012207,-2.43172,0.0535448,-0.0775044,0.0501607,0.101488,-0.0980293,0.143182,-0.125156,-0.0889791,0.0107193,0.0335693,0.0213242,0.0130081,0.0196838,0.00980377,0.0199127,0.0138855,-9.97986,0.0160217,-0.0019455,0.0135422,0.00709534,0.0182343,-0.0205231,0.0178909,0.00347137
24,3,10.0097,-0.000915527,0.000457764,-2.43142,0.0523241,-0.0762837,0.050771,0.0822618,-0.0961982,0.142267,-0.125766,-0.0883688,0.0101852,0.0347137,0.0169754,0.0111008,0.0181961,0.00587463,0.0204849,0.0164795,-9.97986,0.0161362,-0.00564575,0.0165558,0.00793457,0.0180817,-0.0143433,0.0128174,0.00671387
24,4,10.0097,0,0,-2.42776,0.0553758,-0.0741475,0.0522969,0.0767687,-0.0955879,0.143182,-0.126682,-0.0868429,0.0101471,0.031929,0.0087738,0.0113297,0.0188446,0.00850677,0.022583,0.0187683,-9.97986,0.0170898,-0.00419617,0.0147629,0.00629425,0.0183868,-0.0139999,0.0144958,0.00377655
24,5,10.0097,-0.00183105,-0.000152588,-2.42867,0.0547655,-0.0744527,0.0526021,0.0724962,-0.0949775,0.144708,-0.126072,-0.085317,0.0102997,0.0233078,-0.000762939,0.00602722,0.0183487,0.00507355,0.0264359,0.0133514,-9.97986,0.0124741,-0.00293732,0.014801,0.00720978,0.0175858,-0.014801,0.0167465,0.00591278
24,6,10.0097,0.000305176,0.000457764,-2.42776,0.055681,-0.075063,0.0526021,0.0709703,-0.0931465,0.145624,-0.125766,-0.085317,0.0100708,0.0218964,0.000305176,0.0125122,0.0160599,0.0100327,0.0228119,0.0177383,-9.97986,0.0144958,-0.00270844,0.0150299,0.00865936,0.0200653,-0.00930786,0.0175476,0.00938416
24,7,10.0097,0.00152588,-0.000152588,-2.42653,0.0550706,-0.0744527,0.0538228,0.0718859,-0.0931465,0.145624,-0.126377,-0.0844015,0.0109863,0.0245285,0.00495911,0.00904083,0.0172806,0.00701904,0.0244522,0.0218201,-9.97986,0.0154495,-0.00320435,0.011673,0.00999451,0.0178909,0.001297,0.0162125,0.00587463
24,8,10.0097,0.000915527,0.000915527,-2.42653,0.0562914,-0.0744527,0.0535176,0.0718859,-0.0922309,0.145318,-0.125156,-0.0822652,0.0115967,0.0235748,0.00915527,0.0115204,0.0188828,0.00976563,0.0223923,0.017662,-9.97986,0.0142288,-0.00404358,0.0144577,0.00740051,0.0162125,0.0144958,0.016861,0.00595093
24,9,10.0097,0.000915527,-0.000457764,-2.42562,0.0553758,-0.0741475,0.054128,0.0712755,-0.0913154,0.145929,-0.124851,-0.0816549,0.0121307,0.0241852,0.00839233,0.0114059,0.0145721,0.00694275,0.0212479,0.0137329,-9.97986,0.0141144,-0.00282288,0.0145721,0.0114059,0.0162506,0.014801,0.0169754,0.00648499
25,0,10.0097,0,0.000305176,-2.42684,0.0547655,-0.0753682,0.0532125,0.0505236,-0.095893,0.146234,-0.125766,-0.0831808,0.00911713,0.0270081,0.0128555,0.0120544,0.0166702,0.0107193,0.0255966,0.0171661,-9.97986,0.0131226,-0.00156403,0.0130463,0.00621796,0.0144577,0.0149918,0.0172424,0.0062561
25,1,7.55025,0.000610352,-0.00320435,-2.42745,0.0559862,-0.0735371,0.0522969,0.0163439,-0.0961982,0.145624,-0.128513,-0.0819601,0.00862122,0.0241852,0.0117493,0.0102615,0.0158691,0.00465393,0.0185776,0.0214386,-9.97986,0.0152206,0.00175476,0.0131989,0.00774384,0.0142288,0.0102997,0.0152588,0.00442505
25,2,-1.25377,-0.000305176,-0.00427246,-2.4247,0.0565965,-0.0741475,0.0532125,-0.00745984,-0.0965034,0.148065,-0.129123,-0.0822652,0.0135803,0.0263977,0.0199127,0.0126648,0.0144196,0.00705719,0.0217819,0.0206757,-9.97986,0.0157928,0.00522614,0.0154114,0.0088501,0.0191879,0.00457764,0.0151825,0.00587463
25,3,-8.1071,0.000610352,-0.00427246,-2.4244,0.0562914,-0.073232,0.054128,-0.0135634,-0.0952827,0.147455,-0.130649,-0.0810445,0.0128937,0.027771,0.018425,0.00713348,0.0173187,0.0159454,0.0230408,0.0183868,-9.97986,0.016098,0.0107574,0.0179672,0.00968933,0.0182724,0.00385284,0.0235748,0.00831604
25,4,-9.99003,-0.000915527,-0.00335693,-2.4244,0.0569017,-0.0729268,0.0553487,0.0169542,-0.0919257,0.147149,-0.129123,-0.0813497,0.0111008,0.0261307,0.0166702,0.00797272,0.0114441,0.00404358,0.018425,0.0200272,-9.97986,0.0124741,-0.00179291,0.0154495,0.00228882,-0.00976563,-0.00888824,0.0122833,0.0012207
25,5,-9.99003,0.000305176,-0.000457764,-2.4247,0.0562914,-0.0741475,0.0568746,0.049608,-0.0891792,0.145318,-0.126987,-0.0804342,0.0119019,0.0299835,0.0204086,0.0119781,0.0162506,0.00957489,0.0257492,0.0260162,-9.97986,0.0176239,0.00358582,0.0146103,0.00911713,-0.00862122,-0.00160217,0.0150681,0.0105286
25,6,-9.99003,0.000305176,0,-2.42592,0.0559862,-0.075063,0.0547383,0.0593737,-0.090705,0.145013,-0.126072,-0.0831808,0.0111008,0.0260544,0.0208282,0.00526428,0.0173187,0.00782013,0.0213623,0.0202942,-9.97986,0.0159836,0.00141144,0.0150299,0.00926971,-0.00869751,-0.00648499,0.013504,0.00724792
25,7,-9.99003,-0.000305176,-0.000610352,-2.42653,0.0544603,-0.075063,0.0550435,0.065172,-0.0931465,0.145318,-0.126072,-0.0831808,0.0106049,0.0248718,0.0230408,0.00843048,0.0173569,0.00999451,0.0187302,0.0244904,-9.97986,0.0125885,0.00331879,0.0169754,0.00537872,-0.0106049,-0.00564575,0.0143051,0.00526428
25,8,-9.99003,0.000915527,0.00106812,-2.42531,0.0553758,-0.0744527,0.055959,0.116442,-0.0858222,0.145318,-0.121799,-0.0831808,0.0108719,0.0269699,0.0227737,0.00934601,0.0147629,0.0103378,0.0216293,0.0161362,-9.97986,0.00747681,0.00179291,0.016861,0.00835419,0.0124359,-0.00144958,0.0183487,0.0031662
25,9,-3.88438,0.000610352,0.00335693,-2.42714,0.0550706,-0.0747579,0.0550435,0.13994,-0.0876533,0.143487,-0.121799,-0.0847066,0.0125504,0.0257111,0.0221252,0.00892639,0.0148392,0.00904083,0.022316,0.017128,-9.97986,0.014267,0.00282288,0.0151062,0.00793457,0.0156784,-0.000724792,0.0135803,0.00770569
26,0,3.9388,0.000305176,0.00427246,-2.42837,0.0538499,-0.0759786,0.054128,0.152147,-0.0894843,0.144098,-0.122715,-0.0847066,0.010643,0.0259781,0.0214386,0.00862122,0.0130844,0.00759125,0.0198364,0.0123978,-9.97986,0.0108719,0.00209808,0.016098,0.00663757,0.0186539,-0.00267029,0.0143433,0.00389099
26,1,10.0097,-0.000305176,0.00442505,-2.42776,0.0547655,-0.0762837,0.0526021,0.151842,-0.0903999,0.142877,-0.120578,-0.0862325,0.0121689,0.0278854,0.0239182,0.00789642,0.0194168,0.0114441,0.022583,0.0114822,-9.97986,0.0160599,0.00411987,0.0129318,0.00869751,0.0169373,0.00114441,0.0139999,0.00919342
26,2,10.0097,-0.000915527,0.000915527,-2.43081,0.0535448,-0.0765889,0.0501607,0.101183,-0.0995551,0.142877,-0.125766,-0.0892843,0.011673,0.0198746,0.0213623,0.00473022,0.0122833,0.00930786,0.0213623,0.00766754,-9.97986,0.0124741,-0.00484467,0.0112152,0.00709534,0.0177765,0.00720978,0.00930786,0.00366211
26,3,10.0097,0.00152588,0.000762939,-2.43081,0.0541551,-0.0765889,0.0516866,0.0816515,-0.0968086,0.143487,-0.126377,-0.0877584,0.0138092,0.0250626,0.0205231,0.0107193,0.0188065,0.0114059,0.0223923,0.00896454,-9.97986,0.016861,0.000152588,0.0167847,0.00656128,0.0190735,0.00946045,0.0152588,0.00659943
26,4,10.0097,0.000610352,-0.000305176,-2.42928,0.0535448,-0.075063,0.0526021,0.0743273,-0.0955879,0.142877,-0.126682,-0.0874532,0.01091,0.020256,0.0204468,0.00675201,0.0141907,0.00926971,0.0215912,0.0162125,-9.97986,0.0151443,-0.00144958,0.0148773,0.0043869,0.0108719,0.00453949,0.0139236,0.00671387
26,5,10.0097,-0.000610352,-0.000152588,-2.42776,0.0550706,-0.0756734,0.0529073,0.0728014,-0.0946723,0.144708,-0.126377,-0.0856222,0.0138855,0.0194931,0.0207901,0.00991821,0.0146866,0.00915527,0.0214005,0.0140381,-9.97986,0.0125122,0.00198364,0.0147629,0.0112152,0.017662,-0.00556946,0.0162125,0.00518799
26,6,10.0097,-0.000305176,0.000152588,-2.42531,0.0562914,-0.0753682,0.0529073,0.0715807,-0.0946723,0.145013,-0.125156,-0.0844015,0.0120163,0.0260162,0.0232697,0.01297,0.018692,0.00919342,0.0202942,0.0205994,-9.97986,0.0153732,0.000991821,0.014267,0.0100327,0.0166702,7.62939e-005,0.014534,0.0037384
26,7,10.0097,0.00183105,0.000152588,-2.42684,0.0559862,-0.0753682,0.0532125,0.0709703,-0.094062,0.146234,-0.126072,-0.0850118,0.0137711,0.018959,0.0214005,0.0115585,0.0170517,0.0111771,0.0252151,0.0182724,-9.97986,0.0125885,-0.0044632,0.0101471,0.011673,0.0170898,0.00320435,0.018158,0.0100327
26,8,10.0097,-0.0012207,0.000152588,-2.42623,0.055681,-0.0741475,0.0535176,0.0718859,-0.0919257,0.146234,-0.124851,-0.0825704,0.0106049,0.0281906,0.0230789,0.00915527,0.018158,0.00869751,0.0237656,0.0190735,-9.97986,0.0126648,0.000190735,0.0125122,0.00579834,0.0196457,-0.00366211,0.0162506,0.0102615
26,9,10.0097,0.000610352,-0.000305176,-2.4247,0.0562914,-0.0741475,0.054128,0.07036,-0.0910102,0.147455,-0.125156,-0.0813497,0.0120163,0.0286102,0.025444,0.0106049,0.018959,0.010376,0.0205612,0.0183105,-9.97986,0.0176239,0.00858307,0.014534,0.00556946,0.018692,-0.0215912,0.0127029,0.00656128
27,0,10.0097,0.000305176,0.000305176,-2.42714,0.0547655,-0.0753682,0.0529073,0.0511339,-0.0955879,0.146844,-0.126682,-0.0825704,0.0110626,0.0305176,0.0224686,0.00976563,0.0175858,0.0120544,0.0215912,0.0154114,-9.97986,0.0164032,0.00255585,0.0114059,0.00797272,0.017662,-0.0234985,0.0180054,0.0069809
27,1,7.67568,0.000305176,-0.00274658,-2.42592,0.0572069,-0.0744527,0.0529073,0.0190905,-0.0971137,0.145013,-0.128513,-0.0825704,0.00930786,0.0331116,0.0249481,0.00915527,0.0191879,0.01091,0.0200272,0.0138092,-9.97986,0.0144958,0.00442505,0.0133896,0.00576019,0.0161362,-0.0234222,0.0152588,0.00465393
27,2,-1.23454,0.000610352,-0.00473022,-2.42501,0.0581224,-0.0744527,0.0544332,-0.00562879,-0.0961982,0.146234,-0.128513,-0.0819601,0.0117493,0.0357056,0.0227356,0.0132751,0.0183487,0.0130081,0.0262451,0.0193024,-9.97986,0.0137329,0.00923157,0.0131989,0.00667572,0.0187302,-0.0140762,0.015831,0.00766754
27,3,-8.06621,-0.000915527,-0.00457764,-2.42562,0.055681,-0.0723164,0.0538228,-0.012953,-0.0952827,0.14776,-0.129429,-0.0807394,0.0132751,0.039711,0.0218582,0.0117111,0.0168991,0.00778198,0.0247192,0.0210953,-9.97986,0.00846863,0.00102997,0.0170517,0.00831604,0.0220108,-0.0170898,0.0174332,0.00595093
27,4,-9.99003,-0.000305176,-0.00411987,-2.4244,0.0559862,-0.073232,0.055959,0.0157335,-0.0922309,0.146234,-0.128208,-0.0804342,0.0143814,0.0270462,0.0234222,0.0123978,0.0173187,0.0136185,0.0211334,0.0177765,-9.97986,0.0167465,0.001297,0.014801,0.00984192,-0.00480652,-0.0138855,0.0141525,0.00675201
27,5,-9.99003,-0.000610352,-0.0012207,-2.42501,0.0562914,-0.0738423,0.0568746,0.049608,-0.0900947,0.145624,-0.126072,-0.0810445,0.0106049,0.00236511,0.0204849,0.0101852,0.0147629,0.010643,0.0240707,0.0174713,-9.97986,0.0180435,-0.00644684,0.0109863,0.0111389,-0.00713348,0.00404358,0.0147247,0.00579834
27,6,-9.99003,0.000305176,0.000305176,-2.42714,0.0553758,-0.0756734,0.0547383,0.0605944,-0.0919257,0.145318,-0.125156,-0.0822652,0.0122833,0.00926971,0.0215912,0.011673,0.014801,0.0139236,0.0208282,0.0201035,-9.97986,0.0141907,-0.00984192,0.012207,0.0114822,-0.0102615,0.00648499,0.0151825,0.00679016
27,7,-9.99003,0.00152588,0.000610352,-2.42623,0.0544603,-0.0744527,0.0535176,0.0639513,-0.0928413,0.144098,-0.126682,-0.0831808,0.0140762,0.0142288,0.0191116,0.0134277,0.0164413,0.0094223,0.0193024,0.0178528,-9.97986,0.0198364,-0.00495911,0.00999451,0.00823975,-0.00675201,0.000457764,0.0151443,0.00995636
27,8,-9.99003,0.000915527,0.00183105,-2.4247,0.0559862,-0.0747579,0.0565694,0.118578,-0.0858222,0.146844,-0.122104,-0.0825704,0.0151825,0.0188446,0.0218964,0.00934601,0.0133133,0.010643,0.0208664,0.0196838,-9.97986,0.0136566,-0.0082016,0.0120544,0.00728607,0.0181198,0.00679016,0.0151825,0.00617981
27,9,-3.74797,0.000610352,0.00335693,-2.42714,0.0562914,-0.0765889,0.0547383,0.140245,-0.0873481,0.144098,-0.121799,-0.085317,0.0146484,0.0215912,0.0179672,0.0151443,0.017662,0.0105667,0.0251007,0.0175476,-9.97986,0.0138855,-7.62939e-005,0.0178909,0.0101471,0.0219345,0.00907898,0.0193024,0.00656128
28,0,4.06056,-0.000915527,0.00442505,-2.42837,0.0535448,-0.0756734,0.0538228,0.152452,-0.088874,0.144708,-0.12302,-0.0856222,0.0087738,0.0175476,0.0225449,0.0114059,0.0169754,0.00843048,0.0191879,0.0144577,-9.97986,0.016098,-0.000343323,0.0168991,0.00881195,0.0178909,0.00274658,0.0154495,0.00293732
28,1,10.0097,0.000610352,0.00457764,-2.42837,0.0538499,-0.0759786,0.0538228,0.151537,-0.090705,0.143792,-0.121494,-0.0862325,0.0155258,0.0228882,0.0239563,0.0159836,0.0189209,0.0128555,0.0227737,0.0166321,-9.97986,0.0151443,0.00179291,0.0127411,0.00839233,0.0174713,0.00766754,0.0139236,0.00450134
28,2,10.0097,-0.0012207,0.00152588,-2.43081,0.0532396,-0.0759786,0.050771,0.100267,-0.0965034,0.143182,-0.125766,-0.0886739,0.0164032,0.0213623,0.0226212,0.0151825,0.0120926,0.0109863,0.0178909,0.0169373,-9.97986,0.0130081,0.000457764,0.0159073,0.00610352,0.0156403,0.0127029,0.017128,0.00770569
28,3,10.0097,0.0765991,0.00106812,-2.4305,0.0541551,-0.0762837,0.0510762,0.0831774,-0.0943672,0.163324,-0.125766,-0.0877584,0.0130081,0.02285,0.0185776,0.014801,0.0157928,0.0134659,0.0240707,0.0201797,-9.97986,0.0152588,0.00156403,0.0139236,0.00831604,0.015831,0.00572205,0.0179291,0.00591278
28,4,10.0097,0.00579834,0,-2.42776,0.0547655,-0.075063,0.0516866,0.0737169,-0.0965034,0.150812,-0.127292,-0.0865377,0.0120926,0.0224304,0.018959,0.0141144,0.0164032,0.0148392,0.0220108,0.0187683,-9.97986,0.0150681,-0.0038147,0.0138474,0.0082016,0.0194931,0.00728607,0.0172043,0.00614166
28,5,10.0097,0.00152588,-0.000305176,-2.42776,0.0553758,-0.075063,0.0519917,0.0728014,-0.0937568,0.146539,-0.126682,-0.0847066,0.0120544,0.0203705,0.0171661,0.00900269,0.0151062,0.0094223,0.019722,0.019989,-9.97986,0.0131989,-0.00556946,0.0152969,0.00930786,0.0195694,0.0063324,0.0174713,0.00606537
28,6,10.0097,0.000915527,0.000610352,-2.42745,0.0550706,-0.075063,0.0522969,0.072191,-0.0934516,0.145929,-0.126377,-0.0850118,0.0101852,0.0243378,0.0182724,0.0127029,0.0172806,0.0167084,0.0217056,0.0235367,-9.97986,0.01297,-0.00999451,0.0120926,0.00572205,0.0167084,0.00717163,0.0144196,0.00629425
28,7,10.0097,-0.000305176,0.000152588,-2.42714,0.0553758,-0.0753682,0.0535176,0.0706652,-0.0949775,0.145318,-0.124851,-0.0844015,0.0149918,0.0223541,0.0218201,0.0162125,0.0167465,0.0167847,0.0195313,0.0175476,-9.97986,0.0114059,-0.00801086,0.0163651,0.00686646,0.021019,0.00785828,0.0195313,0.00598907
28,8,10.0097,0.00244141,-0.000305176,-2.42623,0.0553758,-0.0738423,0.0535176,0.0724962,-0.0928413,0.147149,-0.125461,-0.0822652,0.00862122,0.0218201,0.018692,0.012207,0.013504,0.010376,0.0215912,0.0123215,-9.97986,0.0120163,-0.00526428,0.0133514,0.00656128,0.0185776,0.00423431,0.0183868,0.00671387
28,9,10.0097,-0.000610352,-0.000457764,-2.42531,0.0569017,-0.073232,0.0547383,0.072191,-0.0916206,0.146844,-0.123935,-0.0813497,0.0127029,0.0232697,0.017662,0.0171661,0.0169373,0.0123215,0.021553,0.0128937,-9.97986,0.0128174,-0.000114441,0.0128174,0.00656128,0.0200272,0.00339508,0.0185394,0.00598907
29,0,10.0097,0.000915527,0.000305176,-2.42745,0.0562914,-0.075063,0.0522969,0.0499132,-0.0952827,0.146234,-0.126377,-0.0825704,0.0113297,0.0276947,0.0183487,0.0177383,0.0193024,0.0132751,0.0204849,0.0171661,-9.97986,0.0139999,0.00038147,0.0124359,0.00911713,0.0163269,0.00324249,0.0157547,0.00663757
29,1,7.55422,-0.000915527,-0.00305176,-2.42653,0.0569017,-0.0747579,0.0522969,0.0169542,-0.0980293,0.147455,-0.127903,-0.0831808,0.0110626,0.024147,0.0200653,0.0119781,0.0179672,0.00556946,0.0227356,0.016861,-9.97986,0.0172424,0.00232697,0.0168228,0.0082016,0.0154877,-0.00541687,0.0168991,0.00530243
29,2,-1.32182,-0.000610352,-0.00473022,-2.42562,0.0569017,-0.073232,0.0535176,-0.00745984,-0.0961982,0.146539,-0.129734,-0.0816549,0.0087738,0.0243759,0.019989,0.0141907,0.0212479,0.0109863,0.0223923,0.0159454,-9.97986,0.0137711,-0.00137329,0.0136948,0.00789642,0.0247192,-0.0193024,0.0180054,0.00556946
29,3,-8.22032,0.000610352,-0.00473022,-2.42562,0.055681,-0.0726216,0.0544332,-0.0138685,-0.095893,0.146539,-0.129734,-0.0807394,0.0131607,0.0210953,0.0195694,0.010643,0.0180054,0.0156403,0.02285,0.0178528,-9.97986,0.0164032,-0.00125885,0.0127029,0.00957489,0.0220108,-0.0214005,0.0202942,0.00667572
29,4,-9.99003,0.00152588,-0.00335693,-2.42409,0.0569017,-0.0738423,0.0562642,0.0181749,-0.0903999,0.147455,-0.127903,-0.0798238,0.0136948,0.0276184,0.0226212,0.0114822,0.0183487,0.00991821,0.0227737,0.0178909,-9.97986,0.0192642,0.00297546,0.0115967,0.00644684,-0.00728607,-0.00686646,0.0188446,0.00774384
29,5,-9.99003,-0.000305176,-0.00152588,-2.4244,0.055681,-0.0729268,0.055959,0.049608,-0.0903999,0.145929,-0.126072,-0.0804342,0.0128174,0.02285,0.0194168,0.0118637,0.017395,0.0126648,0.0221634,0.0179291,-9.97986,0.0159073,-0.0018692,0.0152588,0.00595093,-0.00431061,-0.0031662,0.0193024,0.0056839
29,6,-9.99003,0.000305176,-0.000152588,-2.42531,0.0553758,-0.0741475,0.0529073,0.0612047,-0.0916206,0.145624,-0.126987,-0.0816549,0.013237,0.0230408,0.0158691,0.0113678,0.0180817,0.0107956,0.0189972,0.017128,-9.97986,0.0192261,-0.00293732,0.0154495,0.00900269,-0.00583649,0.00312805,0.0189972,0.00347137
29,7,-9.99003,0.000915527,0,-2.42806,0.0544603,-0.0747579,0.0544332,0.0642565,-0.0925361,0.145318,-0.126072,-0.0834859,0.0154114,0.019722,0.0222397,0.0147247,0.0191879,0.0111771,0.0231552,0.0177383,-9.97986,0.0172806,-0.00282288,0.0167084,0.00789642,-0.00694275,0.00843048,0.0177002,0.00946045
29,8,-9.99003,0.00183105,0.0012207,-2.4247,0.055681,-0.0747579,0.0562642,0.116747,-0.0861274,0.146234,-0.121494,-0.0822652,0.0125122,0.0158691,0.0164032,0.0103378,0.019455,0.00835419,0.0168228,0.0188446,-9.97986,0.0156021,-0.00267029,0.010643,0.00621796,0.0154877,0.0102234,0.0123596,0.00743866
29,9,-3.84227,0.000610352,0.00320435,-2.42714,0.0538499,-0.0759786,0.054128,0.13933,-0.0873481,0.144403,-0.121494,-0.0844015,0.013237,0.0218201,0.0164413,0.0111771,0.0181961,0.00968933,0.0193787,0.0166702,-9.97986,0.0189972,-0.0019455,0.0125122,0.00328064,0.0163269,0.00347137,0.0152969,0.00865936
30,0,3.94216,-0.000915527,0.00442505,-2.42745,0.0535448,-0.075063,0.0535176,0.151537,-0.0894843,0.143182,-0.120884,-0.0850118,0.01091,0.0208664,0.0187683,0.0119019,0.017662,0.00759125,0.0199127,0.0151062,-9.97986,0.0201416,-0.0038147,0.00843048,0.00286102,0.0150299,-0.00141144,0.0125885,0.00679016
30,1,10.0097,0.000915527,0.00488281,-2.4302,0.0529344,-0.0765889,0.0516866,0.153368,-0.0900947,0.144708,-0.121494,-0.0859274,0.0138092,0.0257492,0.0193405,0.0162125,0.0161362,0.0120926,0.0206375,0.0163651,-9.97986,0.021553,-0.00286102,0.0166321,0.00564575,0.0188065,-0.0069809,0.0162125,0.00572205
30,2,10.0097,0.000915527,0.00167847,-2.4302,0.0526292,-0.0771993,0.0492452,0.101183,-0.0968086,0.142572,-0.126377,-0.0877584,0.0120926,0.0199509,0.0199127,0.0167084,0.0169373,0.00923157,0.0203705,0.0136185,-9.97986,0.0166702,-0.00583649,0.0150299,0.00480652,0.0153732,-0.00694275,0.0153351,0.00522614
30,3,10.0097,-0.000915527,0.000305176,-2.42989,0.0535448,-0.0768941,0.0498555,0.082567,-0.0974189,0.142572,-0.126987,-0.0880636,0.0122833,0.018425,0.021286,0.0182343,0.0150681,0.00812531,0.0177765,0.0142288,-9.97986,0.0169373,-0.00667572,0.0162125,0.00362396,0.014534,-0.00404358,0.0174332,0.00595093
30,4,10.0097,0.000915527,0.000305176,-2.42684,0.0553758,-0.075063,0.0516866,0.0752428,-0.0955879,0.144403,-0.126682,-0.0868429,0.01194,0.0234222,0.0208282,0.0171661,0.017128,0.0122833,0.020752,0.0162125,-9.97986,0.0164413,-0.00305176,0.0128937,0.00740051,0.0185394,-0.00442505,0.0173569,0.00377655
30,5,10.0097,0.00152588,0.000305176,-2.42806,0.0538499,-0.075063,0.0529073,0.0731066,-0.0943672,0.144098,-0.125156,-0.0847066,0.00617981,0.019455,0.0221634,0.0120926,0.0182343,0.0114441,0.0255585,0.0174332,-9.97986,0.0169373,-0.00320435,0.0143051,0.00904083,0.0172043,-0.00331879,0.0169754,0.00354767
30,6,10.0097,0.00152588,-0.000305176,-2.42684,0.0535448,-0.0747579,0.0519917,0.0709703,-0.0925361,0.144098,-0.126072,-0.085317,0.0123978,0.019455,0.0180817,0.011673,0.0152206,0.0106049,0.0207138,0.0204468,-9.97986,0.0112534,-0.00141144,0.0138092,0.0050354,0.0171661,-0.00160217,0.0160599,0.00423431
30,7,10.0097,-0.000305176,0.000610352,-2.42684,0.0562914,-0.0744527,0.0529073,0.0712755,-0.0931465,0.145624,-0.125766,-0.0837911,0.00930786,0.0202179,0.0203323,0.0156021,0.0214767,0.00961304,0.0257111,0.0198364,-9.97986,0.0141144,-0.00175476,0.0127792,0.0069046,0.0167465,-0.000457764,0.0163651,0.00663757
30,8,10.0097,0.000305176,0,-2.42531,0.0553758,-0.073232,0.0532125,0.0712755,-0.0910102,0.146844,-0.124241,-0.0822652,0.0141525,0.0279236,0.0181198,0.0107193,0.0144958,0.00720978,0.0217438,0.0148392,-9.97986,0.0158691,3.8147e-005,0.00968933,0.0104141,0.0188065,0.0038147,0.017128,0.00923157
30,9,10.0097,0.00213623,0,-2.4244,0.0569017,-0.0738423,0.0544332,0.0709703,-0.0913154,0.146539,-0.123935,-0.0819601,0.00812531,0.0349426,0.0187683,0.0127029,0.0175095,0.0120544,0.0268173,0.0180817,-9.97986,0.0149536,-0.0012207,0.0110245,0.00541687,0.0164032,0.00396729,0.0170517,0.00415802
31,0,10.0097,-0.000305176,0.000305176,-2.42684,0.0550706,-0.0747579,0.0532125,0.0499132,-0.0955879,0.145013,-0.126987,-0.0831808,0.00835419,0.0275421,0.0191498,0.0105286,0.0187302,0.0127792,0.027504,0.0200272,-9.97986,0.016098,-0.00114441,0.0147629,0.00335693,0.016861,0.00312805,0.0144196,0.00602722
31,1,7.51729,0.0012207,-0.00244141,-2.42623,0.0559862,-0.0741475,0.0538228,0.0160387,-0.0977241,0.146234,-0.128513,-0.0819601,0.00873566,0.0231552,0.0153732,0.0114059,0.0163651,0.0111389,0.0259781,0.0167847,-9.97986,0.0183487,-0.000724792,0.0159836,0.00419617,0.0166321,0.00835419,0.0147247,0.00511169
31,2,-1.3557,0.000610352,-0.00473022,-2.42623,0.0565965,-0.0744527,0.0538228,-0.00715467,-0.095893,0.14776,-0.128513,-0.0807394,0.00904083,0.0221634,0.0107574,0.0126648,0.0168991,0.00720978,0.0270844,0.0177383,-9.97986,0.0149918,-0.00679016,0.0187683,0.00434875,0.0165176,0.00389099,0.0136948,0.00534058
31,3,-8.21483,0.0012207,-0.00427246,-2.42531,0.0562914,-0.0738423,0.054128,-0.0144789,-0.0946723,0.145929,-0.129429,-0.0819601,0.0133514,0.0269699,0.0197601,0.0130463,0.0170517,0.0100327,0.0216675,0.0166702,-9.97986,0.0138855,-0.0050354,0.0174332,0.00434875,0.017662,0.00843048,0.0172043,0.00675201
31,4,-9.99003,0.000915527,-0.00335693,-2.4244,0.0562914,-0.0741475,0.0562642,0.0181749,-0.0913154,0.146844,-0.126682,-0.0798238,0.00938416,0.0229645,0.0174713,0.0136948,0.0177002,0.00892639,0.0205994,0.0122452,-9.97986,0.018425,-0.000648499,0.0155258,0.00476837,-0.00663757,0.00415802,0.0156784,0.00522614
31,5,-9.99003,-0.000610352,-0.000915527,-2.42531,0.0553758,-0.075063,0.0556539,0.0483873,-0.0897895,0.145318,-0.126072,-0.0804342,0.0116348,0.0297165,0.0157547,0.0152206,0.0201035,0.0105286,0.0253296,0.0210953,-9.97986,0.0167465,-0.000991821,0.0178146,0.00888824,-0.00514984,-0.00835419,0.0171661,0.00751495
31,6,-9.99003,0,-0.000457764,-2.42592,0.0553758,-0.0747579,0.055959,0.0618151,-0.0903999,0.145013,-0.126377,-0.0825704,0.0117111,0.0311661,0.0190735,0.0132751,0.0193405,0.0106049,0.0225449,0.0182724,-9.97986,0.0159073,0.000343323,0.0126266,0.00782013,-0.0123978,-0.0124359,0.0174332,0.00587463
31,7,-9.99003,0.000610352,-0.000305176,-2.42745,0.0553758,-0.0747579,0.054128,0.0645616,-0.0925361,0.145318,-0.126072,-0.0831808,0.0115967,0.0290298,0.0170898,0.0120926,0.0162125,0.01297,0.0218201,0.0148392,-9.97986,0.0167084,0.000648499,0.0176239,0.00930786,-0.00743866,-0.0124359,0.0146103,0.00396729
31,8,-9.99003,-0.000305176,0.0012207,-2.42531,0.0547655,-0.0744527,0.055959,0.116136,-0.0858222,0.145013,-0.12241,-0.0819601,0.0104523,0.0204468,0.0148773,0.0126266,0.0170517,0.00938416,0.0199127,0.0195313,-9.97986,0.0132751,-0.000305176,0.0141144,0.00339508,0.0136185,-0.0107574,0.0147247,0.00656128
31,9,-3.95274,0.000915527,0.00274658,-2.42776,0.0544603,-0.0756734,0.054128,0.138109,-0.0882636,0.145013,-0.122104,-0.0840963,0.0133133,0.0175858,0.0162125,0.0136185,0.0180817,0.0144196,0.0227737,0.017128,-9.97986,0.0151825,-0.00492096,0.0125885,0.00427246,0.014534,-0.00247955,0.0141907,0.00392914
32,0,3.73464,0.000610352,0.00396729,-2.42806,0.0535448,-0.0762837,0.0547383,0.151842,-0.0885688,0.142877,-0.122104,-0.0859274,0.00701904,0.0149918,0.00965118,0.00785828,0.0149536,0.00911713,0.0245667,0.0191879,-9.97986,0.0147247,-0.00106812,0.0121689,0.00213623,0.0144958,0.00564575,0.0142288,0.00473022
32,1,10.0097,0.000610352,0.0050354,-2.42867,0.0541551,-0.0756734,0.0529073,0.151842,-0.090705,0.142267,-0.122104,-0.0862325,0.00827789,0.0185013,0.0164032,0.00938416,0.0187683,0.0104904,0.0229645,0.0177765,-9.97986,0.00812531,-0.00541687,0.0130463,0.0043869,0.0139618,0.0104523,0.0144577,0.00404358
32,2,10.0097,0,0.00198364,-2.43172,0.0535448,-0.075063,0.0510762,0.101793,-0.0980293,0.142267,-0.125156,-0.0883688,0.00980377,0.0154495,0.0172806,0.00789642,0.0173569,0.0108337,0.0259781,0.0175476,-9.97986,0.0179672,-0.00442505,0.0141144,0.0082016,0.0157928,0.00305176,0.0146103,0.00480652
32,3,10.0097,0,0.000305176,-2.4305,0.0526292,-0.0762837,0.0501607,0.0819567,-0.0955879,0.143182,-0.127292,-0.0874532,0.00965118,0.0180435,0.0154877,0.00801086,0.0190353,0.00934601,0.0223923,0.0149155,-9.97986,0.0186157,-0.00198364,0.015831,0.00534058,0.0134659,-0.000572205,0.0141144,0.00606537
32,4,10.0097,0.0012207,0,-2.42837,0.0541551,-0.0759786,0.0519917,0.0749376,-0.0955879,0.145013,-0.126072,-0.0865377,0.014534,0.0197983,0.0139999,0.00926971,0.0196075,0.0123596,0.0235367,0.018425,-9.97986,0.0128555,-0.000991821,0.0150681,0.00537872,0.0125122,-0.00255585,0.0164795,0.00484467
32,5,10.0097,0.000915527,0.000152588,-2.42867,0.0547655,-0.0753682,0.0526021,0.0728014,-0.0934516,0.145013,-0.126377,-0.0859274,0.00934601,0.0188828,0.017395,0.00728607,0.0172424,0.010376,0.0225067,0.0190735,-9.97986,0.0147629,-0.00144958,0.0113678,0.00350952,0.0188446,-0.00297546,0.01194,0.00789642
32,6,10.0097,0.0012207,0.000305176,-2.42928,0.0547655,-0.0756734,0.0526021,0.0715807,-0.0931465,0.144403,-0.125766,-0.0850118,0.0126648,0.0216293,0.0163651,0.00976563,0.0146866,0.00640869,0.0231934,0.0237656,-9.97986,0.0157166,0.000228882,0.0157166,0.00736237,0.0175858,-0.00564575,0.0166702,0.00915527
32,7,10.0097,0.000915527,0,-2.42684,0.0550706,-0.075063,0.054128,0.0706652,-0.0925361,0.146234,-0.125461,-0.0834859,0.00713348,0.0202179,0.0151443,0.00816345,0.0204468,0.00900269,0.0222778,0.0286865,-9.97986,0.0166702,-0.00183105,0.0160599,0.00431061,0.0137329,-0.00598907,0.0161362,0.00667572
32,8,10.0097,0.00152588,0.000762939,-2.42531,0.0565965,-0.0738423,0.0547383,0.0715807,-0.0934516,0.146539,-0.125156,-0.0822652,0.0132751,0.0217438,0.0206757,0.00946045,0.0138855,0.0150299,0.0245667,0.0224686,-9.97986,0.0107193,0.000419617,0.0113297,0.00473022,0.0160217,-0.00984192,0.0160217,0.00637054
32,9,10.0097,-0.000610352,-0.000152588,-2.4247,0.0562914,-0.0729268,0.0547383,0.0724962,-0.0916206,0.146539,-0.124241,-0.0816549,0.0114822,0.0139236,0.0178146,0.00793457,0.0167465,0.00671387,0.0247955,0.026207,-9.97986,0.0112534,0.00629425,0.0151825,0.00537872,0.0143433,-0.00892639,0.0167465,0.00789642
33,0,10.0097,0.000305176,0.000457764,-2.42653,0.055681,-0.0753682,0.0519917,0.0499132,-0.0971137,0.145318,-0.125766,-0.0825704,0.0131226,0.0180054,0.0166321,0.00507355,0.0183487,0.00659943,0.0239182,0.0167847,-9.97986,0.00839233,0.000953674,0.0136185,0.0056839,0.0165939,-0.00843048,0.0155258,0.00549316
33,1,7.46785,0.000305176,-0.00289917,-2.42592,0.0572069,-0.0738423,0.0522969,0.016649,-0.0965034,0.146844,-0.127598,-0.0828756,0.0109863,0.0194931,0.0209808,0.00587463,0.0196838,0.00801086,0.0175095,0.0137329,-9.97986,0.0144958,-0.00118256,0.0183868,0.00629425,0.0159836,-0.0105286,0.0154877,0.00595093
33,2,-1.48417,-0.000915527,-0.00549316,-2.42745,0.0562914,-0.0738423,0.0538228,-0.00776502,-0.0961982,0.146844,-0.129429,-0.0822652,0.00751495,0.016861,0.0165176,0.00904083,0.0209427,0.00888824,0.0205994,0.00724792,-9.97986,0.0127411,-0.00679016,0.0151443,0.00682831,0.0149155,-0.00770569,0.0143051,0.00610352
33,3,-8.35063,0.000915527,-0.00473022,-2.42562,0.0569017,-0.0741475,0.054128,-0.0156996,-0.0955879,0.146844,-0.129734,-0.0807394,0.0115204,0.0232315,0.0196838,0.0189209,0.0199127,0.0130463,0.0217819,0.0106812,-9.97986,0.0116348,-0.0056076,0.0179291,0.001297,0.0177002,-0.00259399,0.0167847,0.00553131
33,4,-9.99003,0.000915527,-0.00396729,-2.4244,0.0559862,-0.0741475,0.0556539,0.0197008,-0.0910102,0.146539,-0.127292,-0.0804342,0.0128937,0.0244141,0.0227737,0.0246048,0.014267,0.00930786,0.0175095,0.0165558,-9.97986,0.0106049,-0.00293732,0.0118256,0.00335693,-0.0107193,0.00102997,0.0152969,0.00724792
33,5,-9.99003,0.000305176,-0.0012207,-2.4244,0.0559862,-0.0747579,0.0556539,0.0502184,-0.0903999,0.14776,-0.127292,-0.0810445,0.00980377,0.0267029,0.0167847,0.0248337,0.0205231,0.00808716,0.0224686,0.0138855,-9.97986,0.0153351,0.000190735,0.0103378,0.0038147,-0.0121307,0.00106812,0.0106812,0.00713348
33,6,-9.99003,-0.000610352,-0.000152588,-2.42501,0.0547655,-0.0741475,0.0553487,0.0608995,-0.0903999,0.145624,-0.125156,-0.0825704,0.0105667,0.0291061,0.0167847,0.0174713,0.0154114,0.00995636,0.0228119,0.0186157,-9.97986,0.0150681,-0.000534058,0.0131226,0.00499725,-0.0101471,0.00415802,0.0167084,0.0031662
33,7,-9.99003,0,-0.000152588,-2.42776,0.0544603,-0.075063,0.0532125,0.0645616,-0.0922309,0.145318,-0.126072,-0.0837911,0.00450134,0.0279617,0.0175095,0.0160217,0.019722,0.0146103,0.019722,0.0175476,-9.97986,0.0128174,-0.00770569,0.0151443,0.0075531,-0.00904083,0.00133514,0.0184631,0.0069809
33,8,-9.99003,0.000915527,0.0012207,-2.4244,0.0550706,-0.0741475,0.0571797,0.117357,-0.0852119,0.144708,-0.122715,-0.0819601,0.0124741,0.0248718,0.0174713,0.0144196,0.0196075,0.0131989,0.0211716,0.0183487,-9.97986,0.0137711,0.00183105,0.0167847,0.00926971,0.0168228,-0.00999451,0.0162506,0.00804901
33,9,-4.01286,0.000610352,0.00305176,-2.42653,0.0535448,-0.0747579,0.0550435,0.139635,-0.0882636,0.145318,-0.121799,-0.0847066,0.0100327,0.0186539,0.0165939,0.0105667,0.0146866,0.00751495,0.0183105,0.0164032,-9.97986,0.0161362,-0.00205994,0.0144958,0.00183105,0.0173187,-0.0139236,0.0166702,0.00297546
34,0,3.8152,-0.000915527,0.00442505,-2.42867,0.0538499,-0.0756734,0.0532125,0.152452,-0.0900947,0.145013,-0.121494,-0.0850118,0.0101852,0.0234222,0.0198364,0.0118637,0.0192642,0.0107574,0.0206757,0.0131989,-9.97986,0.0133514,-0.001297,0.0126266,0.00579834,0.0182724,-0.00469208,0.0182724,0.00640869
34,1,10.0097,-0.000305176,0.00518799,-2.42837,0.0544603,-0.0759786,0.0526021,0.152452,-0.0900947,0.142572,-0.120578,-0.0862325,0.0108719,0.0210571,0.0217438,0.00728607,0.0175858,0.0144577,0.0224304,0.0182724,-9.97986,0.0149918,0.00118256,0.0136566,0.00663757,0.0144577,-0.000419617,0.0148392,0.00473022
34,2,10.0097,0.00183105,0.00167847,-2.43081,0.0535448,-0.0762837,0.0501607,0.100267,-0.0983344,0.142267,-0.126377,-0.0886739,0.0153351,0.0241852,0.0209045,0.00862122,0.0151062,0.00816345,0.0222015,0.0174332,-9.97986,0.0129318,-0.00183105,0.0130463,0.00728607,0.0160217,-0.00419617,0.0137329,0.00606537
34,3,10.0097,-0.000610352,0.000762939,-2.42928,0.0541551,-0.0762837,0.0519917,0.0822618,-0.0965034,0.143792,-0.126987,-0.0880636,0.0119781,0.0270081,0.0206375,0.00953674,0.0200653,0.0124359,0.0215149,0.0225449,-9.97986,0.0120163,0.00144958,0.0157928,0.00415802,0.018692,0.0031662,0.0170135,0.00724792
34,4,10.0097,0,-0.000152588,-2.42928,0.0547655,-0.0756734,0.0516866,0.0758531,-0.095893,0.144098,-0.126987,-0.0865377,0.0110626,0.0234222,0.0203323,0.00774384,0.0164795,0.00926971,0.0188446,0.019989,-9.97986,0.0135803,-0.000305176,0.0138474,0.00267029,0.0159454,0.00648499,0.0148773,0.00606537
34,5,10.0097,-0.000610352,0.000152588,-2.42806,0.0562914,-0.0765889,0.0526021,0.0728014,-0.0937568,0.145013,-0.126377,-0.0850118,0.0133133,0.0269699,0.0193787,0.0069046,0.0190353,0.00984192,0.0186539,0.0238037,-9.97986,0.0139618,0.00392914,0.0151825,0.00682831,0.0134659,0.00415802,0.0193024,0.00404358
34,6,10.0097,0.000305176,0.000305176,-2.42806,0.0550706,-0.0747579,0.0529073,0.0700548,-0.0931465,0.144403,-0.126377,-0.0847066,0.0087738,0.0263596,0.0177002,0.00812531,0.0200272,0.00801086,0.0179291,0.025177,-9.97986,0.0144196,0.00598907,0.0160599,0.00656128,0.0128174,-0.00774384,0.0136566,0.00358582
34,7,10.0097,-0.000305176,-0.000610352,-2.42714,0.0550706,-0.0744527,0.0526021,0.0715807,-0.0928413,0.145624,-0.125156,-0.0831808,0.0118637,0.0252914,0.0173569,0.0106049,0.016098,0.0136948,0.0257111,0.0238419,-9.97986,0.0111771,0.00167847,0.0161743,0.00804901,0.0138855,-0.00854492,0.0180817,0.00526428
34,8,10.0097,0.00183105,0.000305176,-2.42592,0.0562914,-0.0738423,0.054128,0.0718859,-0.0922309,0.146844,-0.125156,-0.0813497,0.0139236,0.0317001,0.0173569,0.0062561,0.0128174,0.01091,0.0252533,0.0210953,-9.97986,0.0178909,0.0031662,0.0169754,0.0069046,0.0140381,-0.0123978,0.0128174,0.00591278
34,9,10.0097,-0.000915527,0.000457764,-2.42562,0.0562914,-0.0735371,0.0556539,0.0712755,-0.0910102,0.146234,-0.123325,-0.0807394,0.0104141,0.0244141,0.0187302,0.00198364,0.0153732,0.0110626,0.024147,0.0233459,-9.97986,0.0114822,0.00556946,0.0157928,0.00232697,0.0154114,-0.0109482,0.0159073,0.00804901
35,0,10.0097,0.000915527,-0.000610352,-2.42714,0.0541551,-0.0735371,0.0532125,0.0486925,-0.0968086,0.145318,-0.126682,-0.0831808,0.0108337,0.0204468,0.0148773,0.00526428,0.0114059,0.0104904,0.0244904,0.0231552,-9.97986,0.0149918,0.00106812,0.0183487,0.00915527,0.0183868,-0.0125504,0.0156403,0.00808716
35,1,7.42452,-0.00183105,-0.00335693,-2.42562,0.0553758,-0.0747579,0.0529073,0.0172594,-0.0965034,0.146844,-0.128513,-0.0819601,0.0112534,0.0206375,0.0154877,0.00282288,0.0151443,0.0112915,0.0205612,0.0218582,-9.97986,0.0175095,0.00152588,0.0136948,0.0063324,0.0157166,-0.0133133,0.0148392,0.0082016
35,2,-1.48295,0.000305176,-0.0050354,-2.42623,0.0572069,-0.0729268,0.0547383,-0.00776502,-0.0961982,0.14837,-0.129123,-0.0816549,0.0127792,0.0282288,0.0167847,-0.00827789,0.0170898,0.0104141,0.0243378,0.0213623,-9.97986,0.0130844,-0.000534058,0.0170517,0.0100708,0.0177383,-0.0101089,0.016098,0.00652313
35,3,-8.40648,-0.000915527,-0.00534058,-2.42501,0.0569017,-0.0738423,0.0538228,-0.0153944,-0.0965034,0.145318,-0.129123,-0.0816549,0.012207,0.0226974,0.021019,-0.00461578,0.018158,0.0087738,0.0288773,0.0185776,-9.97986,0.0141144,0.00221252,0.0138474,0.00751495,0.0167847,-0.00671387,0.0152206,0.0088501
35,4,-9.99003,-0.000305176,-0.00350952,-2.42348,0.0562914,-0.073232,0.0565694,0.0209215,-0.0903999,0.146539,-0.127292,-0.0798238,0.00888824,0.0130081,0.0191116,-0.00484467,0.0195313,0.00991821,0.017395,0.0189972,-9.97986,0.0139999,0.000228882,0.0133514,0.00823975,-0.0107193,-0.0115585,0.0114441,0.00621796
35,5,-9.99003,0.000305176,-0.000915527,-2.4247,0.0547655,-0.0726216,0.0565694,0.0502184,-0.0897895,0.145624,-0.126682,-0.0804342,0.0146484,0.0155258,0.0189972,0.000190735,0.0159836,0.00816345,0.0208282,0.0165176,-9.97986,0.0180435,0.00404358,0.0148773,0.00843048,-0.00797272,-0.00434875,0.0186539,0.00831604
35,6,-9.99003,0.000915527,0,-2.42592,0.0550706,-0.0756734,0.0565694,0.0602892,-0.0916206,0.145624,-0.125766,-0.0816549,0.0108337,0.0163651,0.02388,-0.00843048,0.0152588,0.0127411,0.0172043,0.0134277,-9.97986,0.0138092,0.00583649,0.0180435,0.00762939,-0.00640869,-0.00282288,0.0134277,0.00587463
35,7,-9.99003,-0.0012207,0.000152588,-2.42714,0.0547655,-0.0744527,0.0550435,0.0642565,-0.0931465,0.144098,-0.126072,-0.0847066,0.0134659,0.0205612,0.022049,-0.0177765,0.0182343,0.0112534,0.0226593,0.0129318,-9.97986,0.0119019,0.00450134,0.0128174,0.00499725,-0.00919342,-0.00701904,0.018425,0.00484467
35,8,-9.99003,0.00213623,0.0012207,-2.42653,0.0559862,-0.0744527,0.0568746,0.118578,-0.0855171,0.146539,-0.120884,-0.0822652,0.0114441,0.0232315,0.0192261,0.00736237,0.0167847,0.00892639,0.0213242,0.00747681,-9.97986,0.0119781,0.00694275,0.017662,0.00759125,0.0165939,-0.00118256,0.017128,0.00598907
35,9,-4.00645,0.00305176,0.00350952,-2.42745,0.0532396,-0.0753682,0.0544332,0.138109,-0.0873481,0.143487,-0.122104,-0.0844015,0.0112534,0.0261307,0.0170517,0.0453568,0.0160599,0.00816345,0.0242996,0.00694275,-9.97986,0.0154877,0.00114441,0.0143814,0.00774384,0.014801,-0.00614166,0.0140381,0.0043869
36,0,3.7499,0.000610352,0.00427246,-2.42745,0.0529344,-0.0756734,0.0544332,0.151537,-0.0885688,0.143487,-0.121494,-0.0856222,0.0119019,0.0261688,0.0188446,0.0565338,0.015564,0.0102615,0.025444,0.00831604,-9.97986,0.0163269,0.000419617,0.0129318,0.00858307,0.0142288,-0.00335693,0.0149536,0.00576019
36,1,10.0097,0.000610352,0.00411987,-2.42898,0.0538499,-0.0762837,0.0538228,0.151842,-0.0903999,0.144098,-0.121799,-0.0859274,0.00892639,0.0262451,0.0153351,0.0453568,0.0116348,0.0113297,0.0231552,0.00583649,-9.97986,0.0132751,0.00232697,0.012207,0.0082016,0.0151825,-0.0144196,0.0141144,0.00423431
36,2,10.0097,0.000915527,0.0012207,-2.4305,0.0541551,-0.0762837,0.050771,0.102709,-0.0965034,0.143182,-0.125156,-0.0889791,0.0138092,0.0170517,0.0176239,0.0393295,0.0177765,0.00865936,0.0211334,0.00774384,-9.97986,0.0142288,0.000724792,0.00602722,0.0087738,0.0102615,-0.0148392,0.0120926,0.00606537
36,3,10.0097,0.000610352,-0.000610352,-2.42898,0.0541551,-0.0762837,0.0501607,0.0828722,-0.0980293,0.143182,-0.127292,-0.0871481,0.0120926,0.0244141,0.0152969,0.0314713,0.0163651,0.00770569,0.0190735,0.00709534,-9.97986,0.0164795,0.0012207,0.0158691,0.00907898,0.0148392,-0.00751495,0.0157547,0.00644684
36,4,10.0097,0,0.000762939,-2.42867,0.0541551,-0.0765889,0.0516866,0.0740221,-0.095893,0.143487,-0.127292,-0.0868429,0.0118637,0.0213623,0.0164413,0.0283051,0.0194168,0.0104523,0.0214005,0.0139618,-9.97986,0.0138092,0.00152588,0.0129318,0.0088501,0.0144958,-0.00137329,0.0136185,0.00587463
36,5,10.0097,-0.000305176,-0.000457764,-2.42898,0.0547655,-0.0747579,0.0519917,0.0737169,-0.0943672,0.144403,-0.126682,-0.0850118,0.0101852,0.0208282,0.0190353,0.0207138,0.015564,0.0104904,0.0193787,0.0170898,-9.97986,0.0147247,0.00221252,0.01194,0.0119781,0.0125504,0.00450134,0.0141144,0.00522614
36,6,10.0097,0.000915527,-0.000152588,-2.42714,0.0547655,-0.0744527,0.0522969,0.0718859,-0.094062,0.145318,-0.125766,-0.0847066,0.0112534,0.0246048,0.0120544,0.018425,0.0160599,0.00663757,0.0222397,0.017395,-9.97986,0.016861,-0.00282288,0.0148392,0.00762939,0.0156784,0.00808716,0.0156784,0.0063324
36,7,10.0097,0.0012207,0.000305176,-2.42684,0.0559862,-0.075063,0.0532125,0.0712755,-0.0928413,0.145929,-0.125461,-0.0840963,0.0130081,0.0247955,0.016861,0.0190353,0.0180435,0.0136566,0.0271606,0.0183105,-9.97986,0.0123978,-0.00152588,0.0144196,0.00717163,0.0183487,0.00839233,0.016098,0.00598907
36,8,10.0097,0.00152588,0.000457764,-2.42562,0.0569017,-0.0744527,0.0532125,0.0706652,-0.0922309,0.145929,-0.125156,-0.0813497,0.0131226,0.0212479,0.0156784,0.0175858,0.0198746,0.0106049,0.0221252,0.0148773,-9.97986,0.0130463,-0.00335693,0.0100708,0.00667572,0.0136948,0.00400543,0.0143814,0.00473022
36,9,10.0097,0.00213623,0.000762939,-2.42501,0.0572069,-0.0744527,0.055959,0.0724962,-0.0916206,0.146844,-0.124241,-0.0819601,0.0110245,0.0221252,0.0175095,0.019722,0.0172424,0.0135422,0.0229645,0.0141525,-9.97986,0.0153732,-0.000762939,0.0113297,0.00705719,0.0151825,0.00476837,0.0153732,0.0088501
37,0,10.0097,-0.0012207,0.000305176,-2.42684,0.055681,-0.0744527,0.0532125,0.049608,-0.0961982,0.145624,-0.126682,-0.0828756,0.0100327,0.0226974,0.0154114,0.0172806,0.0156021,0.0115204,0.022049,0.0168228,-9.97986,0.0147247,-0.000495911,0.0124359,0.00904083,0.0132751,0.0120163,0.0145721,0.00598907
37,1,7.46358,-0.000610352,-0.00289917,-2.42684,0.0553758,-0.0747579,0.0535176,0.0157335,-0.0980293,0.145013,-0.127903,-0.0828756,0.0102997,0.0231934,0.0168228,0.0135803,0.016098,0.0138474,0.0214386,0.0172424,-9.97986,0.0162888,0.00106812,0.0105667,0.00488281,0.0125885,0.00747681,0.0172043,0.0043869
37,2,-1.46953,0.00213623,-0.00473022,-2.42409,0.0569017,-0.073232,0.0535176,-0.00715467,-0.0955879,0.147455,-0.129123,-0.0816549,0.0075531,0.0252151,0.0187683,0.0144196,0.0188065,0.00953674,0.0208282,0.0167465,-9.97986,0.0173187,0.00125885,0.01297,0.00637054,0.0125122,0.00419617,0.0166702,0.00465393
37,3,-8.38237,0.00152588,-0.0050354,-2.42592,0.0565965,-0.0744527,0.0544332,-0.0141737,-0.0965034,0.146539,-0.130344,-0.0816549,0.00938416,0.0259399,0.017395,0.00720978,0.0161743,0.00919342,0.0208664,0.0174332,-9.97986,0.0188065,-0.000801086,0.0125122,0.00370026,0.0138092,-0.00682831,0.0189209,0.00431061
37,4,-9.99003,0.000915527,-0.00289917,-2.42379,0.055681,-0.0735371,0.0565694,0.0184801,-0.0897895,0.145929,-0.126987,-0.0804342,0.0110626,0.026741,0.0163651,0.0107193,0.0162888,0.0120163,0.0217056,0.0183487,-9.97986,0.0128937,-0.00331879,0.00862122,0.00526428,-0.00812531,-0.0175476,0.0153732,0.00610352
37,5,-9.99003,-0.000610352,-0.000610352,-2.4247,0.0547655,-0.0744527,0.055959,0.0502184,-0.0891792,0.146234,-0.125766,-0.0810445,0.0157928,0.0244141,0.0177383,0.0151062,0.0159454,0.0105667,0.0226974,0.0223541,-9.97986,0.0143814,-0.00175476,0.0117874,0.0108719,-0.0104523,-0.0162888,0.0138474,0.00587463
37,6,-9.99003,0.000610352,-0.000152588,-2.42501,0.0562914,-0.075063,0.0550435,0.0615099,-0.090705,0.145318,-0.126072,-0.0819601,0.0118256,0.0246429,0.0216675,0.0139236,0.020256,0.016098,0.0260162,0.0186157,-9.97986,0.0167847,0.00343323,0.0144958,0.00892639,-0.00450134,-0.00499725,0.0192261,0.00663757
37,7,-9.99003,0.000305176,0.000305176,-2.42714,0.0547655,-0.0747579,0.054128,0.0645616,-0.0919257,0.144098,-0.126682,-0.0828756,0.00728607,0.0224686,0.0160599,0.00255585,0.00991821,0.00354767,0.016861,0.0137711,-9.97986,0.0107956,-0.0141525,0.00843048,0.00293732,-0.0126266,-0.00465393,0.0114441,0.00354767
37,8,-9.99003,0.000305176,0.00198364,-2.4244,0.0559862,-0.0756734,0.0565694,0.117662,-0.0852119,0.145318,-0.12302,-0.0825704,0.0123978,0.0251389,0.0197983,0.00976563,0.0177383,0.01194,0.0240326,0.0152206,-9.97986,0.0178146,-0.00240326,0.0149918,0.0113678,0.0174332,0.0131607,0.0213623,0.0101852
37,9,-3.92253,0,0.00289917,-2.42745,0.0550706,-0.0756734,0.0544332,0.138719,-0.0891792,0.145318,-0.121494,-0.0847066,0.00843048,0.0286865,0.0185013,0.00846863,0.0150681,0.00873566,0.0191879,0.0163269,-9.97986,0.0136566,-0.00846863,0.0152588,0.00598907,0.0138092,0.0196457,0.0159454,0.00740051
38,0,3.81887,-0.000610352,0.00427246,-2.42806,0.0535448,-0.0744527,0.0535176,0.151232,-0.088874,0.143182,-0.121494,-0.0840963,0.0121689,0.0246048,0.0193024,0.0087738,0.0149536,0.00911713,0.0244522,0.0214005,-9.97986,0.0138092,-0.00278473,0.0141525,0.00686646,0.0147629,0.0142288,0.018425,0.00713348
38,1,10.0097,0.00213623,0.00442505,-2.42776,0.0535448,-0.0768941,0.0532125,0.152757,-0.0903999,0.145318,-0.121494,-0.0862325,0.00976563,0.0221252,0.0195313,0.00709534,0.0158691,0.0111389,0.0237274,0.0193787,-9.97986,0.0117493,-0.0038147,0.0134659,0.00614166,0.0138092,0.00270844,0.0182724,0.00656128
38,2,10.0097,0.000305176,0.00228882,-2.43142,0.0529344,-0.0762837,0.0504659,0.099962,-0.0980293,0.141961,-0.125766,-0.0892843,0.0116348,0.0228882,0.0190735,0.00526428,0.0141907,0.00541687,0.0216293,0.0180054,-9.97986,0.0164795,-0.00110626,0.0139618,0.00659943,0.0149155,-0.00320435,0.0131607,0.00579834
38,3,10.0097,-0.00152588,0.000152588,-2.42867,0.0541551,-0.0747579,0.050771,0.0813463,-0.0968086,0.142267,-0.126682,-0.0880636,0.00717163,0.0197983,0.0199509,0.00644684,0.0107574,0.0104523,0.018692,0.0180435,-9.97986,0.0170898,0.00202179,0.0167084,0.00411987,0.0153351,-0.00461578,0.0199127,0.00827789
38,4,10.0097,0.00152588,0.000305176,-2.42806,0.0535448,-0.0753682,0.0522969,0.0752428,-0.0949775,0.144403,-0.126682,-0.0862325,0.0126266,0.0219727,0.0233459,0.0044632,0.0118256,0.010643,0.0160599,0.0202179,-9.97986,0.0175858,-0.00286102,0.0135422,0.0056076,0.0126648,-0.00694275,0.0177383,0.00785828
38,5,10.0097,0.000305176,0.000152588,-2.42745,0.0553758,-0.0753682,0.0532125,0.0728014,-0.0949775,0.144708,-0.125461,-0.085317,0.00778198,0.0225449,0.022316,0.00389099,0.0152206,0.00411987,0.0239944,0.016861,-9.97986,0.017662,-0.0050354,0.0135422,0.00595093,0.0186539,-0.00556946,0.00984192,0.00453949
38,6,10.0097,-0.00152588,0,-2.42776,0.0544603,-0.0747579,0.0532125,0.0712755,-0.0937568,0.145318,-0.126377,-0.0840963,0.0102615,0.025177,0.0170135,0.0025177,0.0221634,0.00751495,0.0246048,0.0196457,-9.97986,0.0139999,-0.00160217,0.0114059,0.00904083,0.0194168,0.00118256,0.0182724,0.00488281
38,7,10.0097,0.0012207,0.000305176,-2.42653,0.0547655,-0.0738423,0.0532125,0.07036,-0.0931465,0.145013,-0.126987,-0.0840963,0.00350952,0.0202179,0.0165176,0.00556946,0.0156021,0.00980377,0.0183487,0.0196075,-9.97986,0.0121689,-0.00343323,0.0104523,0.00789642,0.0193787,0.00522614,0.0199127,0.0082016
38,8,10.0097,0.00152588,0.000152588,-2.42562,0.0553758,-0.0735371,0.054128,0.0706652,-0.0916206,0.145929,-0.125156,-0.0831808,0.00968933,0.0189972,0.0201035,0.00606537,0.0172424,0.00659943,0.0192261,0.0184631,-9.97986,0.0117874,-0.00869751,0.0124359,0.00709534,0.0136566,0.00209808,0.0182343,0.00774384
38,9,10.0097,-0.000305176,0,-2.42501,0.0575121,-0.0747579,0.0544332,0.0712755,-0.0913154,0.145624,-0.124851,-0.0810445,0.010376,0.0170517,0.019455,-0.00404358,0.0169373,0.0112915,0.0157166,0.017395,-9.97986,0.0141144,-0.00514984,0.0159073,0.0082016,0.015831,-0.000953674,0.0162888,0.0063324
39,0,10.0097,-0.000915527,0.000305176,-2.42592,0.0559862,-0.0741475,0.0535176,0.049608,-0.0965034,0.145929,-0.126377,-0.0822652,0.0126266,0.0125885,0.0192642,0.000495911,0.0134277,0.0114822,0.019455,0.0188446,-9.97986,0.0133896,-0.00808716,0.01297,0.00499725,0.0168228,-0.000610352,0.0179672,0.00873566
39,1,7.39553,0.000305176,-0.00320435,-2.42684,0.0562914,-0.0744527,0.0535176,0.0160387,-0.0980293,0.145624,-0.128208,-0.0834859,0.0127029,0.0149918,0.0194168,0.0159836,0.0183487,0.0110626,0.0226974,0.0225449,-9.97986,0.0131607,-0.00595093,0.0128174,0.00495911,0.0149918,-0.00236511,0.0168228,0.00808716
39,2,-1.55345,0.000610352,-0.00442505,-2.4247,0.0572069,-0.0729268,0.054128,-0.00868054,-0.0968086,0.145929,-0.129123,-0.0816549,0.00965118,0.017395,0.0150681,0.0214386,0.0164795,0.0113678,0.0174713,0.0245667,-9.97986,0.013504,-0.00823975,0.0111389,0.00534058,0.0130081,-0.0043869,0.0144958,0.00789642
39,3,-8.49833,-0.000305176,-0.00488281,-2.4244,0.0562914,-0.0744527,0.0550435,-0.0141737,-0.0968086,0.145929,-0.129429,-0.0813497,0.0050354,0.028801,0.0159836,0.0178528,0.0155258,0.0124359,0.0235748,0.0248718,-9.97986,0.0153351,-0.00450134,0.0108337,0.0112152,0.0159836,0.00160217,0.0165939,0.00705719
39,4,-9.99003,-0.000305176,-0.00305176,-2.4244,0.0565965,-0.0735371,0.0577901,0.0206163,-0.0916206,0.147149,-0.127598,-0.0798238,0.00926971,0.0281525,0.0188065,0.0131607,0.0162888,0.0110245,0.0177002,0.0229645,-9.97986,0.0154877,-0.00865936,0.0121307,0.00450134,-0.0152969,0.00164032,0.0167465,0.00728607
39,5,-9.99003,0.000610352,-0.00137329,-2.42501,0.0547655,-0.0741475,0.0565694,0.0499132,-0.0897895,0.146234,-0.125156,-0.0810445,0.00911713,0.0303268,0.0197601,0.00953674,0.0164413,0.0142288,0.0200653,0.0224686,-9.97986,0.0207138,-0.00419617,0.013504,0.00522614,-0.00827789,0.000724792,0.0165939,0.00442505
39,6,-9.99003,0.000915527,-0.000457764,-2.42684,0.0550706,-0.0744527,0.0544332,0.0621202,-0.0900947,0.145318,-0.125461,-0.0819601,0.0159836,0.0321198,0.0149155,0.0101471,0.017128,0.00869751,0.0204849,0.0230408,-9.97986,0.013504,-0.00247955,0.0144577,0.00282288,-0.00946045,0.0018692,0.0143051,0.00770569
39,7,-9.99003,-0.000305176,0.000457764,-2.42623,0.055681,-0.0747579,0.0550435,0.0642565,-0.0928413,0.145624,-0.126987,-0.0834859,0.0136185,0.0201035,0.0219727,0.0069046,0.0169754,0.0108719,0.0235748,0.0203705,-9.97986,0.0125504,-0.00106812,0.0152206,0.0043869,-0.00854492,0.00125885,0.0155258,0.00747681
39,8,-9.99003,0.000610352,0.000915527,-2.42562,0.0550706,-0.073232,0.0584004,0.116442,-0.0864326,0.145929,-0.122104,-0.0822652,0.0136566,0.0298309,0.017395,0.00972748,0.0175095,0.0105286,0.0204468,0.015564,-9.97986,0.0143433,-0.00331879,0.0165558,0.00553131,0.0138092,-0.00419617,0.015564,0.00629425
39,9,-4.07237,-0.000305176,0.00274658,-2.42776,0.0538499,-0.0753682,0.054128,0.139635,-0.0879585,0.144098,-0.121799,-0.0837911,0.00915527,0.0294113,0.0205612,0.00839233,0.0152588,0.00728607,0.020256,0.0119781,-9.97986,0.0151443,-0.00278473,0.0131607,0.00244141,0.0143051,-0.000610352,0.0162125,0.0038147
40,0,3.77614,0.000610352,0.00473022,-2.42776,0.0532396,-0.0747579,0.0544332,0.151232,-0.0885688,0.143792,-0.121189,-0.0859274,0.00831604,0.030365,0.0160599,0.00770569,0.0183105,0.0134659,0.0234222,0.0138474,-9.97986,0.0166321,0.000724792,0.0151443,0.00587463,0.0172424,0.00038147,0.0179672,0.00518799
40,1,10.0097,-0.000305176,0.0038147,-2.42867,0.0538499,-0.075063,0.0538228,0.152147,-0.0903999,0.145013,-0.120578,-0.0862325,0.0147247,0.0313568,0.0200653,0.0130844,0.0166702,0.00835419,0.0205231,0.0121689,-9.97986,0.0143814,-0.0018692,0.00778198,0.00469208,0.016098,-0.00106812,0.0159836,0.00843048
40,2,10.0097,0.000305176,0.00183105,-2.43081,0.0538499,-0.0756734,0.0510762,0.101793,-0.0983344,0.143792,-0.125156,-0.0883688,0.0119781,0.0279617,0.0218582,0.0170135,0.0177002,0.0109863,0.0203705,0.0156403,-9.97986,0.0142288,0.00106812,0.0148773,0.00843048,0.0183487,-0.00133514,0.0188828,0.00572205
40,3,10.0097,0.00183105,0.000457764,-2.42959,0.0535448,-0.0765889,0.0513814,0.0813463,-0.0968086,0.142877,-0.126377,-0.0874532,0.0105286,0.0198746,0.0205994,0.014801,0.0180054,0.0094986,0.0193787,0.0153732,-9.97986,0.0117111,-0.000686646,0.0139236,0.00576019,0.019722,-0.00804901,0.0162888,0.00720978
40,4,10.0097,0.0012207,0,-2.42898,0.0538499,-0.0759786,0.0535176,0.0761583,-0.0955879,0.143792,-0.126377,-0.0865377,0.0134277,0.0239944,0.0203705,0.014534,0.0214767,0.0125504,0.0227737,0.0134277,-9.97986,0.0142288,0.001297,0.0128555,0.00511169,0.0154877,-0.00576019,0.0206757,0.00801086
40,5,10.0097,0.000305176,0.000762939,-2.42684,0.0544603,-0.0756734,0.0529073,0.0718859,-0.0949775,0.144403,-0.125766,-0.0856222,0.010376,0.0232315,0.0167084,0.00888824,0.017662,0.00873566,0.0226212,0.0183868,-9.97986,0.0154877,0.000114441,0.0109863,0.00614166,0.0164413,-0.00179291,0.0156021,0.00572205
