
Devices
1200
,,BP Load cell - Voltage,String Length - Voltage,Clutch Active - Voltage,#7 iPecs - Voltage,,,,,,,,,EMG 1-8 Left - Voltage,,,,,,,,Pylon Force - Voltage,EMG 9-16 Right - Voltage,,,,,,,,
Frame,Sub Frame,BP Load Cell,String Length,From Arduino Logic,A45,A135,A225,A315,S0,S90,S180,S270,ZSum,EMG 1 Glut Max,EMG 2 Glut Med,EMG 3 Biceps Femoris Long,EMG 4 Rectus Femoris,EMG 5 Vastus Medialis,EMG 6 Tib Ant,EMG 7 Med Gas,EMG 8 Soleus,Pylon volts,EMG 9 Glut Max,EMG 10 Glut Med,EMG 11 Biceps Femoris Long,EMG 12 Rectus Femoris,EMG 13 Vastus Medialis,EMG 14 Tib Ant,EMG 15 Med Gas,EMG 16 Soleus
,,V,V,V,V,V,V,V,V,V,V,V,V,V,V,V,V,V,V,V,V,V,V,V,V,V,V,V,V,V
1,0,10.0097,0.000305176,-0.000762939,-2.42623,0.055681,-0.0747579,0.0538228,0.0499132,-0.0949775,0.14776,-0.126682,-0.0825704,0.0088501,0.0209427,0.0179672,0.0188065,0.0200272,0.0315475,0.0163269,0.0218582,-9.97986,0.0166321,0.000305176,0.0128174,0.00980377,0.0128937,-0.00549316,-0.00259399,0.0145721
1,1,9.28304,0.000305176,-0.00259399,-2.42562,0.0562914,-0.075063,0.0550435,0.0459459,-0.0934516,0.146539,-0.125766,-0.0813497,0.00366211,0.0159836,0.0170135,0.0118256,0.0131226,0.0309372,0.0141144,0.0177765,-9.97986,0.0107956,-0.00297546,0.00282288,0.00553131,0.00652313,-0.00782013,0.00110626,0.0134277
1,2,8.05898,0.00152588,-0.0012207,-2.42745,0.0553758,-0.0738423,0.0553487,0.0541857,-0.0919257,0.145013,-0.126072,-0.0807394,0.00759125,0.025444,0.0191116,0.0131989,0.0167084,0.030365,0.0128555,0.0185776,-9.97986,0.0130081,-0.000228882,0.0056839,0.00144958,0.00881195,-0.00572205,0.00164032,0.0184631
1,3,7.71443,-0.000305176,-0.000915527,-2.42806,0.0544603,-0.075063,0.0538228,0.0630358,-0.0919257,0.145318,-0.125156,-0.0834859,0.00621796,0.022583,0.0170517,0.00431061,0.0154877,0.0312042,0.0126648,0.0196075,-9.97986,0.0148773,0.00087738,0.0112915,-0.00343323,0.00675201,-0.00461578,7.62939e-005,0.013237
1,4,7.9186,0.000915527,-0.00106812,-2.42653,0.055681,-0.0735371,0.0544332,0.0728014,-0.0919257,0.145013,-0.125766,-0.0834859,0.00938416,0.017395,0.0206757,0.0167084,0.0127029,0.0311661,0.00976563,0.0214005,-9.97986,0.0136185,0.00102997,0.00999451,-0.00740051,0.0088501,-0.000343323,0.00350952,0.0152969
1,5,9.47621,0.00152588,0.000762939,-2.42806,0.0550706,-0.075063,0.0553487,0.0880602,-0.0894843,0.146539,-0.124546,-0.0831808,0.00411987,0.0205994,0.0250244,0.0131989,0.0161362,0.0321579,0.0149155,0.0208282,-9.97986,0.0110626,-0.00106812,0.0114441,-0.00953674,0.00782013,-0.00221252,0.00270844,0.0147629
1,6,10.0097,0,0.00106812,-2.42837,0.0532396,-0.075063,0.0522969,0.0938585,-0.0925361,0.144098,-0.125461,-0.0862325,0.00751495,0.020256,0.0239563,0.00774384,0.0162506,0.0252914,0.0141144,0.0267029,-9.97986,0.00926971,0.00171661,0.013237,-0.0138474,0.00614166,0.00362396,0.00293732,0.0121307
1,7,10.0097,0.000610352,0.000305176,-2.42928,0.0532396,-0.0765889,0.0516866,0.077379,-0.0965034,0.143487,-0.126682,-0.0874532,0.0115967,0.0205612,0.0245667,0.00915527,0.015831,0.0315094,0.0137329,0.0275421,-9.97986,0.0109863,0.00370026,0.0107956,-0.0141525,0.00488281,0.00125885,0.00564575,0.0135422
1,8,10.0097,0.000915527,-0.000610352,-2.42837,0.0538499,-0.0753682,0.0526021,0.0718859,-0.0955879,0.143487,-0.126072,-0.0862325,0.00961304,0.0188828,0.0231934,-0.00297546,0.0111389,0.0262451,0.0139236,0.0283432,-9.97986,0.0116348,0.00160217,0.0137711,-0.0216675,0.00736237,0.0025177,0.00408173,0.0088501
1,9,10.0097,0.000610352,-0.00106812,-2.43142,0.0544603,-0.0762837,0.0516866,0.0712755,-0.095893,0.144098,-0.127903,-0.0877584,0.00553131,0.0213242,0.0216293,0.00198364,0.0128555,0.0273514,0.0175858,0.0296021,-9.97986,0.011673,0.000801086,0.0162506,-0.0244522,0.00835419,0.00213623,0.00434875,0.00869751
2,0,10.0097,0.0012207,-0.000610352,-2.42867,0.0547655,-0.0771993,0.050771,0.0657823,-0.0955879,0.145013,-0.126987,-0.0871481,0.010376,0.0228882,0.0190735,-0.0030899,0.0135803,0.0261307,0.0197983,0.0266266,-9.97986,0.0144196,0.00522614,0.0115204,-0.0291443,0.0106049,0.00453949,0.00286102,0.0102997
2,1,10.0097,0.0012207,-0.00137329,-2.42776,0.0544603,-0.0753682,0.0522969,0.0694445,-0.0937568,0.144098,-0.126682,-0.0850118,0.00770569,0.0192642,0.0246811,-0.0063324,0.0114441,0.0258255,0.0247192,0.0307083,-9.97986,0.0111008,0.00225067,0.0138092,-0.0299072,0.00934601,-0.000762939,0.00911713,0.00991821
2,2,10.0097,0.0012207,0.000152588,-2.42592,0.0544603,-0.0759786,0.0538228,0.0685289,-0.094062,0.144708,-0.126987,-0.085317,0.00988007,0.0279617,0.0270844,-0.0158691,0.0088501,0.0292587,0.022049,0.0273514,-9.97986,0.00804901,0.00225067,0.0151825,-0.0360107,0.0126266,-0.000648499,0.0108719,0.00389099
2,3,10.0097,0.000610352,0.000610352,-2.42776,0.0541551,-0.0756734,0.0532125,0.0679186,-0.0937568,0.145013,-0.125461,-0.0847066,0.00728607,0.0331116,0.0296783,-0.0219345,0.0069809,0.0248718,0.0227737,0.0271606,-9.97986,0.00644684,0.00087738,0.0177765,-0.0416183,0.00988007,-0.00606537,0.0138474,0.00648499
2,4,10.0097,0.000305176,0,-2.42653,0.0553758,-0.075063,0.0532125,0.0712755,-0.0928413,0.144708,-0.126072,-0.0844015,0.00591278,0.0396729,0.0320435,-0.0207901,0.00831604,0.0240707,0.020256,0.031395,-9.97986,0.00583649,0.000801086,0.0144196,-0.038681,0.010376,-0.00247955,0.0140381,0.00617981
2,5,10.0097,0.00305176,0.000762939,-2.42226,0.0572069,-0.075063,0.0538228,0.0715807,-0.0922309,0.147149,-0.124546,-0.0819601,0.00728607,0.0450516,0.0429153,-0.00778198,0.0031662,0.0242615,0.0157166,0.0228882,-9.97986,0.00587463,0.00404358,0.0169373,-0.0387192,0.0101471,-0.000534058,0.0129318,0.00572205
2,6,10.0097,0.0161743,-0.000305176,-2.42531,0.0547655,-0.0735371,0.0535176,0.0697496,-0.0910102,0.156305,-0.124546,-0.0822652,0.0105286,0.0455093,0.0474167,0.00354767,0.00247955,0.0172806,0.0141525,0.0266266,-9.97986,0.00507355,-0.000419617,0.016861,-0.0448227,0.00881195,0.00614166,0.0112915,0.00499725
2,7,10.0097,0.00152588,0,-2.42562,0.0569017,-0.0741475,0.0553487,0.0709703,-0.0928413,0.150506,-0.12363,-0.0810445,0.0135803,0.054245,0.0464249,0.0135422,0.0037384,0.0193787,0.0155258,0.0195694,-9.97986,0.00499725,0.000991821,0.0148773,-0.0457764,0.00701904,7.62939e-005,0.0170135,0.00232697
2,8,10.0097,-0.000610352,0.000305176,-2.42531,0.0569017,-0.0744527,0.0544332,0.0715807,-0.0910102,0.14776,-0.123935,-0.0813497,0.0114822,0.063324,0.047226,0.017128,0.00892639,0.0205231,0.016861,0.0192642,-9.97986,0.00679016,0.00324249,0.0140381,-0.0481796,0.0105286,0.00511169,0.0128555,0.00335693
2,9,10.0097,0.000610352,-0.000152588,-2.4244,0.0572069,-0.0735371,0.0553487,0.0731066,-0.0919257,0.14898,-0.123325,-0.080129,0.0149536,0.0570297,0.0498962,0.00209808,0.00694275,0.0178909,0.0151443,0.0177002,-9.97986,0.00118256,-0.00213623,0.0212097,-0.0502396,0.0102615,0.00202179,0.0159836,0.00488281
3,0,10.0097,-0.000305176,-0.000915527,-2.42562,0.0553758,-0.0744527,0.0535176,0.0483873,-0.0955879,0.146844,-0.126377,-0.0834859,0.0125885,0.0457382,0.0482941,-0.0231934,0.00671387,0.0166702,0.00881195,0.00904083,-9.97986,0.00598907,0.00411987,0.0179672,-0.0483704,0.00682831,0.00354767,0.0163651,0.000572205
3,1,9.0392,0.000915527,-0.00198364,-2.42684,0.0562914,-0.0744527,0.0544332,0.04442,-0.0925361,0.147455,-0.125766,-0.0813497,0.0153732,0.0508118,0.0494766,-0.0358582,0.00598907,0.0165176,0.0117111,0.00366211,-9.97986,0.00705719,0.00270844,0.0161362,-0.0522995,0.0154877,0.000801086,0.0187683,0.00343323
3,2,7.83437,-0.000610352,-0.000610352,-2.42623,0.0569017,-0.073232,0.0550435,0.0541857,-0.0928413,0.146844,-0.126987,-0.0822652,0.0148392,0.0672531,0.0519562,-0.0406647,0.0105286,0.0169754,0.0149536,0.00160217,-9.97986,0.00354767,0.00328064,0.0223541,-0.0564957,0.0139999,0.00320435,0.0177383,0.0019455
3,3,7.55605,0.00183105,-0.000610352,-2.42684,0.0550706,-0.0744527,0.0553487,0.0630358,-0.0919257,0.144708,-0.124851,-0.0831808,0.0112915,0.0381088,0.0305939,-0.0237656,0.00595093,0.0226212,0.0136948,0.00541687,-9.97986,0.00988007,0.00762939,0.0215149,-0.0552368,0.0094986,-0.000991821,0.0210571,-0.00141144
3,4,7.76692,0.000915527,0.000305176,-2.42714,0.0547655,-0.0744527,0.0547383,0.07036,-0.0922309,0.143792,-0.126377,-0.0834859,0.0125885,-0.00457764,0.00514984,0.0227737,0.0056839,0.0175095,0.0133514,0.00751495,-9.97986,0.0128937,0.00453949,0.0254059,-0.0586319,0.00896454,-0.000724792,0.0192642,-0.000190735
3,5,9.2986,-0.000915527,0.00152588,-2.42684,0.055681,-0.0753682,0.054128,0.0895861,-0.0919257,0.144708,-0.125461,-0.0840963,0.0123596,-0.021286,-0.0181198,0.0338364,0.0144577,0.017662,0.0143433,0.00465393,-9.97986,0.0215912,0.00957489,0.025444,-0.053215,0.0133896,0.0031662,0.0230408,-0.00141144
3,6,10.0097,0.000305176,0.00183105,-2.42806,0.0517137,-0.0762837,0.0519917,0.0959947,-0.0934516,0.142572,-0.124851,-0.0847066,0.0118256,-0.0405502,-0.0203323,0.0255203,0.0069809,0.0206375,0.0122452,0.00354767,-9.97986,0.019455,0.000114441,0.0216675,-0.0586319,0.00965118,-0.000152588,0.0217056,-0.00526428
3,7,10.0097,0,0.000457764,-2.42776,0.0538499,-0.0765889,0.0513814,0.0779894,-0.0955879,0.143487,-0.126987,-0.0868429,0.0119019,-0.0295639,-0.00637054,0.0294113,0.00751495,0.0172806,0.0173569,0.0135422,-9.97986,0.0213242,0.00411987,0.0240707,-0.054245,0.0104141,-0.00240326,0.0256348,0.00209808
3,8,10.0097,0.000915527,0.000152588,-2.42898,0.0538499,-0.0756734,0.0529073,0.0715807,-0.0955879,0.144403,-0.127598,-0.0865377,0.00701904,-0.00759125,-0.00785828,0.0230789,0.0056839,0.014267,0.00694275,0.00984192,-9.97986,0.0241089,0.00892639,0.0237274,-0.0538635,0.0117493,-0.0037384,0.0273514,-0.00118256
3,9,10.0097,0.000610352,-0.000762939,-2.42806,0.0541551,-0.0756734,0.0529073,0.0697496,-0.095893,0.143182,-0.126987,-0.0874532,0.00984192,-0.00141144,3.8147e-005,0.0325012,0.0103378,0.017395,0.00808716,0.0108719,-9.97986,0.0202179,0.0031662,0.0230408,-0.0579834,0.0104141,-0.00793457,0.0274658,-0.00202179
4,0,10.0097,0.0012207,-0.000610352,-2.42867,0.0535448,-0.0771993,0.0510762,0.0700548,-0.094062,0.143792,-0.127598,-0.0871481,0.0147629,-0.00183105,0.010376,0.0495911,0.00930786,0.0224304,0.00968933,0.0112534,-9.97986,0.0227356,0.00350952,0.026207,-0.0542068,0.0135422,-0.00831604,0.0310135,0.000686646
4,1,10.0097,-0.000305176,-0.000457764,-2.42837,0.0544603,-0.0765889,0.0538228,0.0706652,-0.0946723,0.144403,-0.126377,-0.0865377,0.00999451,-0.00431061,0.0087738,0.069809,0.00549316,0.0143433,0.0149918,0.0124359,-9.97986,0.022049,0.000762939,0.0233078,-0.0537491,0.00988007,-0.00774384,0.0281525,3.8147e-005
4,2,10.0097,0.000610352,0.000457764,-2.42714,0.0541551,-0.075063,0.0529073,0.0697496,-0.0949775,0.143792,-0.126682,-0.085317,0.0144577,0.00087738,0.0163651,0.0964737,0.00507355,0.0226212,0.0167465,0.0144196,-9.97986,0.0215912,0.00102997,0.020256,-0.0507736,0.0125885,-0.00541687,0.0302124,-0.0025177
4,3,10.0097,0.0012207,0.000457764,-2.42959,0.0550706,-0.0759786,0.0519917,0.0697496,-0.0922309,0.145013,-0.125461,-0.0840963,0.00896454,-0.00606537,0.0191879,0.093956,0.0123596,0.0169373,0.0208282,0.0181198,-9.97986,0.0238419,0.00110626,0.0267029,-0.0517273,0.0135803,-0.00236511,0.0331879,-0.000991821
4,4,10.0097,0.00152588,0.000305176,-2.42684,0.0547655,-0.0735371,0.054128,0.0712755,-0.0937568,0.144708,-0.125766,-0.0844015,0.00957489,0.001297,0.0199509,0.0660324,0.0112534,0.0179672,0.0225067,0.0196075,-9.97986,0.022049,0.00465393,0.0228882,-0.0507736,0.0119019,0.000419617,0.0344849,0.000343323
4,5,10.0097,0.000610352,-0.000152588,-2.42592,0.0565965,-0.0738423,0.0532125,0.0712755,-0.0928413,0.145624,-0.126072,-0.0822652,0.0114822,0.000648499,0.0127411,0.0329971,0.00892639,0.0151443,0.0226593,0.0137711,-9.97986,0.0260925,0.00442505,0.0240707,-0.0508499,0.0100708,0.00396729,0.0375366,-0.0019455
4,6,10.0097,-0.000610352,0.000305176,-2.42562,0.0569017,-0.075063,0.054128,0.0715807,-0.0910102,0.146539,-0.124241,-0.0813497,0.0154114,0.00606537,0.00190735,0.025444,0.0109863,0.0157166,0.0252151,0.0172806,-9.97986,0.0196457,0.00518799,0.0244522,-0.0446701,0.0128555,0.0094986,0.0397491,-0.00175476
4,7,10.0097,-0.000305176,0.000152588,-2.42501,0.0569017,-0.0744527,0.0550435,0.0731066,-0.0916206,0.147149,-0.124546,-0.0813497,0.00919342,0.00434875,-0.0050354,0.0348663,0.0114822,0.0133514,0.0237274,0.015831,-9.97986,0.0174713,0.00652313,0.0205612,-0.0457001,0.00980377,0.00202179,0.0431442,-0.000915527
4,8,10.0097,0.000305176,-0.000152588,-2.42592,0.0562914,-0.0741475,0.0544332,0.0706652,-0.0916206,0.147149,-0.12302,-0.0813497,0.0125504,0.0025177,-0.00881195,0.0354767,0.00846863,0.0152206,0.0303268,0.016098,-9.97986,0.0193787,0.00415802,0.0229645,-0.0462341,0.0156784,0.00537872,0.0440216,-0.000839233
4,9,10.0097,0,0.000305176,-2.42318,0.055681,-0.0747579,0.0550435,0.07036,-0.0916206,0.146539,-0.123935,-0.0804342,0.0121307,0.00301361,-0.0141144,0.0373077,0.00965118,0.0131989,0.021019,0.0153351,-9.97986,0.0167084,0.00270844,0.020752,-0.0480652,0.0174332,0.00202179,0.0416183,-0.00038147
5,0,10.0097,-0.000305176,-0.000915527,-2.42684,0.0578172,-0.0744527,0.0529073,0.049608,-0.0952827,0.145929,-0.125766,-0.0816549,0.0123215,0.00900269,-0.0198746,0.0354767,0.00782013,0.0128174,0.0259781,0.0168228,-9.97986,0.0143433,0.00385284,0.0230408,-0.0390244,0.0144196,-0.000610352,0.0453186,-0.000343323
5,1,9.19087,0.00152588,-0.00106812,-2.42562,0.0565965,-0.0747579,0.0535176,0.0459459,-0.0922309,0.147455,-0.126987,-0.0816549,0.0112915,0.00602722,-0.0115967,0.0299454,0.0128555,0.0157928,0.0326538,0.0134659,-9.97986,0.0204468,-0.000801086,0.0193024,-0.0365067,0.0191498,-0.00259399,0.0427246,0.000762939
5,2,7.98818,0.0012207,-0.00106812,-2.42592,0.0553758,-0.0735371,0.0544332,0.0557115,-0.0934516,0.145624,-0.125766,-0.0819601,0.0115585,0.0157166,-0.00328064,0.0233459,0.0138855,0.0147247,0.0267029,0.0170135,-9.97986,0.0120544,0.00682831,0.02388,-0.0346375,0.0155258,-0.00488281,0.0439835,0.00347137
5,3,7.67964,0.0012207,0.000152588,-2.42684,0.0559862,-0.0738423,0.0529073,0.0639513,-0.090705,0.145318,-0.125156,-0.0819601,0.0112915,0.0136948,-0.00114441,0.0225067,0.0107574,0.0172424,0.0289154,0.0177383,-9.97986,0.0214386,0.00232697,0.0167465,-0.0279999,0.0144958,-0.00579834,0.0482559,0.00114441
5,4,7.86672,0.000610352,0.0012207,-2.42684,0.0559862,-0.0744527,0.0547383,0.0694445,-0.0925361,0.143792,-0.128513,-0.0828756,0.0104141,0.013237,-0.00137329,0.0258255,0.0110245,0.0153732,0.0296783,0.0170898,-9.97986,0.0136566,0.00617981,0.0135803,-0.0271988,0.0154114,-0.00621796,0.0458527,0.00293732
5,5,9.41426,0.000610352,0.000915527,-2.42562,0.0550706,-0.075063,0.0532125,0.0898912,-0.0903999,0.145318,-0.125461,-0.0840963,0.011673,0.0216293,0.00720978,0.0207138,0.0143051,0.0181198,0.0304031,0.0177002,-9.97986,0.0118637,0.00423431,0.0201797,-0.0225067,0.0167465,-0.000572205,0.0481033,0.00183105
5,6,10.0097,0,0.00198364,-2.42837,0.0544603,-0.0762837,0.0547383,0.094774,-0.094062,0.144403,-0.125156,-0.0856222,0.0146103,0.0243378,0.00782013,0.0123215,0.00919342,0.0104523,0.0325394,0.0143433,-9.97986,0.0118256,0.00328064,0.0181198,-0.0249863,0.0105667,-0.00278473,0.0471115,0.00339508
5,7,10.0097,-0.000915527,0.000762939,-2.42867,0.0541551,-0.075063,0.0510762,0.077379,-0.0943672,0.143792,-0.127598,-0.0868429,0.00839233,0.0238037,0.00659943,0.0109482,0.00934601,0.0151443,0.030365,0.0193024,-9.97986,0.0123978,0.00259399,0.018959,-0.0195313,0.0156784,-0.00659943,0.0491714,0.000762939
5,8,10.0097,0.000610352,0.000152588,-2.4302,0.0547655,-0.0759786,0.0516866,0.072191,-0.0952827,0.144098,-0.127292,-0.0865377,0.00934601,0.0260544,0.00930786,0.0104904,0.0126266,0.0139999,0.0292587,0.0151443,-9.97986,0.0171661,0.00198364,0.0191498,-0.0164413,0.0190353,-0.00797272,0.0488663,0.00305176
5,9,10.0097,0.00152588,-0.000152588,-2.43081,0.0532396,-0.0756734,0.0492452,0.0691393,-0.0949775,0.143792,-0.128208,-0.0874532,0.0134277,0.0226974,0.0131607,0.00537872,0.00999451,0.0139236,0.0329971,0.0172806,-9.97986,0.0162125,0.00289917,0.016861,-0.00976563,0.0165176,-0.00827789,0.0470734,0.00419617
6,0,10.0097,0.000915527,-0.000457764,-2.42989,0.0529344,-0.0762837,0.0519917,0.0697496,-0.095893,0.143487,-0.127292,-0.0871481,0.0147247,0.0304413,0.0150299,-0.00801086,0.0159454,0.0116348,0.0283051,0.0179291,-9.97986,0.0140762,0.00518799,0.0176239,-0.00785828,0.0164032,-0.00461578,0.0475693,0.00350952
6,1,10.0097,0.00183105,-0.000762939,-2.42867,0.0538499,-0.0747579,0.0519917,0.0682238,-0.0952827,0.145013,-0.126987,-0.0856222,0.00782013,0.030365,0.0169754,-0.0218201,0.0157547,0.0134659,0.0297165,0.0183105,-9.97986,0.0127792,-0.00171661,0.0181198,-0.00530243,0.0175476,-0.00202179,0.044136,0.00267029
6,2,10.0097,-0.000610352,-0.000152588,-2.42806,0.0541551,-0.0753682,0.0526021,0.0691393,-0.0949775,0.144708,-0.125461,-0.085317,0.0105667,0.0243378,0.016861,-0.0203323,0.0111771,0.0146103,0.0265884,0.0168228,-9.97986,0.00976563,-0.000991821,0.0126648,-0.00709534,0.0143051,-0.00488281,0.042572,0.00141144
6,3,10.0097,0.0012207,-0.000152588,-2.42776,0.0559862,-0.075063,0.0526021,0.0709703,-0.0928413,0.144098,-0.127903,-0.085317,0.0102615,0.0248718,0.0218582,-0.0127411,0.0147247,0.0144958,0.030098,0.016861,-9.97986,0.0135803,0.00465393,0.0136566,-0.00400543,0.019722,-0.00610352,0.0463867,0.00205994
6,4,10.0097,0.00183105,0.000610352,-2.42653,0.0565965,-0.075063,0.0526021,0.0688341,-0.0931465,0.144708,-0.126072,-0.0831808,0.00946045,0.0223923,0.0250626,-0.0143814,0.0117111,0.0127411,0.031662,0.0157547,-9.97986,0.0141525,0.00320435,0.0152588,-0.00339508,0.019989,-0.0115967,0.0464249,0.00507355
6,5,10.0097,0,-0.000457764,-2.42562,0.0553758,-0.0738423,0.055959,0.0712755,-0.0928413,0.145929,-0.125766,-0.0825704,0.0120163,0.0276947,0.0260925,-0.022316,0.0130081,0.0108337,0.0301361,0.0166321,-9.97986,0.00843048,-0.000686646,0.00816345,-0.0031662,0.0192642,-0.00736237,0.044632,0.00762939
6,6,10.0097,0.0012207,0.000305176,-2.42684,0.0562914,-0.0735371,0.0550435,0.0712755,-0.0919257,0.147455,-0.12302,-0.0810445,0.0113678,0.0292969,0.0336075,-0.0377655,0.0111008,0.0063324,0.0256348,0.0145721,-9.97986,0.00957489,0.00106812,0.0111389,0.00282288,0.0187683,-0.00995636,0.0439835,0.00640869
6,7,10.0097,-0.000915527,0.000610352,-2.42501,0.0562914,-0.0747579,0.0544332,0.072191,-0.0910102,0.146844,-0.122715,-0.0804342,0.0106812,0.0195313,0.0374985,-0.0382233,0.0100327,0.0094223,0.0304413,0.0147629,-9.97986,0.00911713,0.00354767,0.00846863,0.00152588,0.0156021,-0.00656128,0.0439453,0.00701904
6,8,10.0097,0.0012207,-0.000305176,-2.42562,0.0569017,-0.0738423,0.0574849,0.0718859,-0.0916206,0.147149,-0.124241,-0.0813497,0.0107574,0.0199509,0.0329208,0.00106812,0.015831,0.00595093,0.0308228,0.0195694,-9.97986,0.0111008,0.00652313,0.00915527,0.0062561,0.0160599,-0.00457764,0.0419235,0.0088501
6,9,10.0097,0.000305176,0.0012207,-2.4244,0.0569017,-0.0741475,0.0547383,0.0709703,-0.0919257,0.147149,-0.12363,-0.0807394,0.010376,0.0275421,0.0365448,0.030632,0.014534,0.00385284,0.0299454,0.0140381,-9.97986,0.00705719,0.00556946,0.00709534,0.00694275,0.0168228,-0.00267029,0.0429535,0.00759125
7,0,10.0097,0.00152588,-0.000457764,-2.42592,0.0559862,-0.0747579,0.0532125,0.0480822,-0.0952827,0.146234,-0.125766,-0.0825704,0.0103378,0.031662,0.0368881,-0.0139236,0.0165176,0.00694275,0.0307846,0.0162506,-9.97986,0.010643,0.000572205,0.00671387,0.0144196,0.0183105,-0.00331879,0.0428009,0.0119781
7,1,9.18019,0,-0.000915527,-2.42501,0.0565965,-0.075063,0.0532125,0.0462511,-0.0922309,0.146539,-0.126682,-0.0822652,0.0125122,0.036087,0.038681,-0.0881195,0.0149918,0.000572205,0.0347519,0.0117111,-9.97986,0.00999451,0.00686646,0.00984192,0.0167084,0.0198746,-0.00118256,0.0437927,0.00743866
7,2,7.95796,0.000305176,-0.000610352,-2.42501,0.0559862,-0.0738423,0.0544332,0.0551012,-0.0913154,0.145013,-0.126072,-0.0831808,0.0133133,0.0107574,0.0397873,-0.0728607,0.0161362,0.0037384,0.0301743,0.0130463,-9.97986,0.0101089,-0.00217438,0.00663757,0.0169373,0.0165176,-0.00457764,0.042305,0.00766754
7,3,7.71169,0.00152588,-0.000152588,-2.42684,0.0553758,-0.0747579,0.0544332,0.0633409,-0.0916206,0.146539,-0.125766,-0.0825704,0.0137329,0.00175476,0.0459671,-0.0236511,0.0185013,0.00110626,0.0318146,0.0176239,-9.97986,0.0149536,0.00385284,0.00862122,0.0222397,0.018959,-0.00202179,0.0442886,0.011673
7,4,7.89113,0.000305176,0.000762939,-2.42684,0.0541551,-0.075063,0.054128,0.0706652,-0.0919257,0.146234,-0.125461,-0.0825704,0.0131226,0.0210571,0.0437164,-0.0183105,0.0191879,-0.000152588,0.0303268,0.0110245,-9.97986,0.00816345,0.00190735,0.0113678,0.0285339,0.0221634,-0.00270844,0.0430298,0.0115585
7,5,9.4872,-0.000610352,0.00152588,-2.42714,0.0538499,-0.0753682,0.0544332,0.0892809,-0.0900947,0.144708,-0.12363,-0.0834859,0.0102997,0.0341034,0.0337601,-0.00587463,0.0161362,-0.00232697,0.0273895,0.0167847,-9.97986,0.016861,-0.00198364,0.0116348,0.0299835,0.0185776,-0.00442505,0.0418091,0.00965118
7,6,10.0097,-0.00152588,0.00198364,-2.42898,0.0529344,-0.0765889,0.0519917,0.0935533,-0.0931465,0.143487,-0.126072,-0.0862325,0.00968933,0.0370026,0.0216293,0.00301361,0.0205612,0.00087738,0.0331116,0.013504,-9.97986,0.0128937,0.00389099,0.00343323,0.0324249,0.0199509,-0.0043869,0.0417328,0.0112152
7,7,10.0097,0.000305176,0.000457764,-2.42898,0.0544603,-0.0759786,0.0529073,0.0792101,-0.0955879,0.143792,-0.126987,-0.0868429,0.00782013,0.0224686,0.0159836,-0.0144958,0.0155258,0.000190735,0.0351334,0.0169754,-9.97986,0.0124359,0.0031662,0.00606537,0.0344467,0.0191498,-0.00514984,0.0388336,0.00953674
7,8,10.0097,0.00274658,-0.000305176,-2.42989,0.0547655,-0.075063,0.0513814,0.0731066,-0.0946723,0.141351,-0.126682,-0.0868429,0.0044632,0.0222015,0.0177002,-0.00167847,0.0174332,-0.00400543,0.0320816,0.0147247,-9.97986,0.0154114,0.00110626,0.00541687,0.0356293,0.019455,-0.000152588,0.0415039,0.00835419
7,9,10.0097,0.000610352,0.000305176,-2.42959,0.0532396,-0.0759786,0.0522969,0.0694445,-0.095893,0.141961,-0.127903,-0.0877584,0.00907898,0.0285339,0.0189209,0.0366974,0.0137329,-0.00385284,0.0356674,0.0164032,-9.97986,0.0149155,0.00434875,0.00404358,0.0379181,0.0212479,0.00476837,0.0421906,0.00862122
8,0,10.0097,0.0012207,-0.000610352,-2.42806,0.0529344,-0.0756734,0.0513814,0.0694445,-0.0949775,0.143182,-0.128208,-0.0874532,0.00980377,0.0314331,0.0230789,0.0698471,0.0111771,-0.00209808,0.0342178,0.0181961,-9.97986,0.0234604,0.00133514,0.00465393,0.0400543,0.0191116,0.00598907,0.0397873,0.00724792
8,1,10.0097,0.000305176,-0.000457764,-2.42745,0.0535448,-0.0756734,0.0532125,0.0688341,-0.0949775,0.143182,-0.126377,-0.0859274,0.0094223,0.0392532,0.028038,0.0710297,0.0182343,0.000305176,0.0360107,0.0179672,-9.97986,0.0206375,0.00419617,0.00492096,0.0440979,0.0219345,0.00747681,0.039444,0.0108337
8,2,10.0097,0,0,-2.42837,0.0541551,-0.0756734,0.0538228,0.0700548,-0.0931465,0.145318,-0.126377,-0.0856222,0.00617981,0.0370407,0.0279617,0.0666046,0.0172043,-0.00205994,0.0352859,0.0196838,-9.97986,0.019989,0.00453949,0.0069809,0.0418091,0.0206375,0.00225067,0.0422287,0.00675201
8,3,10.0097,0.000610352,0.000305176,-2.42745,0.0550706,-0.075063,0.0522969,0.0709703,-0.0937568,0.143792,-0.126377,-0.0844015,0.0075531,0.0425339,0.032959,0.0633621,0.0165939,-0.000610352,0.0351715,0.0177002,-9.97986,0.022049,-0.000495911,0.00495911,0.0453186,0.0136948,-0.00621796,0.0384903,0.00904083
8,4,10.0097,0.000915527,0,-2.42745,0.0541551,-0.0753682,0.0532125,0.0694445,-0.0931465,0.145013,-0.126072,-0.0834859,0.00534058,0.042572,0.0337219,0.0650787,0.0196838,0.00167847,0.0334167,0.0217438,-9.97986,0.0191879,0.00221252,0.00247955,0.0460815,0.0202179,-0.00976563,0.0351715,0.00740051
8,5,10.0097,0.000915527,-0.000305176,-2.42684,0.0565965,-0.0741475,0.0550435,0.0700548,-0.0922309,0.145013,-0.124241,-0.0828756,0.0101089,0.0439835,0.0274277,0.0760651,0.0194931,-0.00160217,0.0307083,0.0177765,-9.97986,0.0236893,7.62939e-005,-0.00267029,0.0434494,0.0178528,-0.0157166,0.0365829,0.00827789
8,6,10.0097,0,0.000610352,-2.4247,0.0559862,-0.0741475,0.0556539,0.07036,-0.090705,0.146539,-0.124546,-0.0810445,0.00858307,0.0427246,0.0251007,0.0841904,0.0193024,0.00301361,0.0373077,0.0166321,-9.97986,0.0222015,-0.00297546,-0.000762939,0.0465775,0.0201035,-0.0122452,0.0386429,0.00926971
8,7,10.0097,0,0.000305176,-2.42562,0.0565965,-0.0735371,0.0556539,0.0715807,-0.0922309,0.147455,-0.124241,-0.0807394,0.00541687,0.0365067,0.0201797,0.0769043,0.0167465,7.62939e-005,0.0333023,0.0141907,-9.97986,0.0186157,-0.00854492,0.000839233,0.0445938,0.0162506,-0.0156403,0.0345993,0.0106812
8,8,10.0097,-0.000915527,0.000305176,-2.4247,0.055681,-0.0744527,0.0544332,0.0697496,-0.0900947,0.146234,-0.124546,-0.0816549,0.0127792,0.0353241,0.0117111,0.0622177,0.0188446,0.000953674,0.0329971,0.0183487,-9.97986,0.0172424,-0.00610352,-0.00499725,0.042305,0.016861,-0.0157928,0.034256,0.00846863
8,9,10.0097,-0.000610352,0.000152588,-2.42592,0.0559862,-0.0738423,0.0535176,0.0712755,-0.0910102,0.148675,-0.124546,-0.0819601,0.00671387,0.0299072,0.00675201,0.0516129,0.0212097,0.00774384,0.0360489,0.0212479,-9.97986,0.0179672,-0.0044632,0.00480652,0.0470352,0.0142288,-0.0141144,0.0327301,0.010376
9,0,10.0097,-0.000610352,-0.000457764,-2.42562,0.0562914,-0.0735371,0.0535176,0.0480822,-0.0943672,0.145929,-0.126072,-0.0813497,0.00953674,0.0242615,-0.0012207,0.0469208,0.0213623,0.00324249,0.0285339,0.0216293,-9.97986,0.015564,-0.00354767,0.00328064,0.044136,0.020752,-0.0131607,0.0318909,0.0138092
9,1,9.23421,0.000915527,-0.00167847,-2.4244,0.0553758,-0.0729268,0.0532125,0.0453356,-0.0955879,0.145929,-0.125156,-0.0816549,0.0102234,0.0270462,-0.00328064,0.0400543,0.021019,0.00556946,0.0322342,0.0188446,-9.97986,0.0196457,0.00301361,0.00263214,0.048027,0.0131226,-0.0131989,0.0318909,0.0113678
9,2,8.03517,0.000610352,-0.000305176,-2.42501,0.0553758,-0.0747579,0.0550435,0.0554064,-0.0931465,0.145624,-0.126072,-0.0813497,0.00843048,0.0166702,-0.00961304,0.0355148,0.0225449,0.00320435,0.0341034,0.0164032,-9.97986,0.0175476,0.00396729,0.00595093,0.0472641,0.0156021,-0.0152206,0.029068,0.0115204
9,3,7.78676,0,-0.000152588,-2.42501,0.055681,-0.0741475,0.0550435,0.0639513,-0.0928413,0.145318,-0.126682,-0.0834859,0.00988007,0.0199127,-0.0126266,0.0308609,0.0206757,0.00457764,0.0307846,0.0216293,-9.97986,0.016098,7.62939e-005,0.00869751,0.045929,0.0153351,-0.0135422,0.0327301,0.0120163
9,4,7.99855,0.000610352,0.000610352,-2.42684,0.0550706,-0.075063,0.0538228,0.0700548,-0.0916206,0.144708,-0.125766,-0.0831808,0.0107574,0.0205612,-0.00621796,0.0343323,0.0232315,0.00400543,0.0304031,0.0243378,-9.97986,0.0192261,0.000648499,0.00965118,0.0479126,0.0164413,-0.0126266,0.030632,0.00976563
9,5,9.63155,-0.000305176,0.000610352,-2.42592,0.0553758,-0.075063,0.0544332,0.0892809,-0.0919257,0.144403,-0.124851,-0.0834859,0.0137711,0.0204086,-0.00125885,0.0255966,0.0212479,0.00297546,0.0314331,0.0179672,-9.97986,0.0167847,0.000534058,0.00976563,0.0461578,0.0142288,-0.0170898,0.0337601,0.0117111
9,6,10.0097,-0.000610352,0.00152588,-2.42928,0.0532396,-0.0771993,0.0535176,0.0926378,-0.0931465,0.145318,-0.125156,-0.0862325,0.016098,0.0207901,-0.000343323,0.0120544,0.0235367,0.00701904,0.033493,0.0208282,-9.97986,0.0164032,-0.000419617,0.0121689,0.0469208,0.0160217,-0.0188446,0.0309753,0.0111771
9,7,10.0097,0.000305176,0,-2.42989,0.0550706,-0.0756734,0.0516866,0.077379,-0.0943672,0.144098,-0.126377,-0.0862325,0.00930786,0.0195313,-0.00370026,0.00209808,0.0202179,0.00526428,0.0320435,0.0218582,-9.97986,0.0094986,-0.00164032,0.010376,0.0439835,0.0152969,-0.0194168,0.0299835,0.00823975
9,8,10.0097,-0.000915527,-0.000305176,-2.42837,0.0541551,-0.075063,0.0522969,0.0728014,-0.0934516,0.143487,-0.126987,-0.0865377,0.0108337,0.0134277,0.000839233,-0.00328064,0.0218201,0.00930786,0.0298309,0.0220871,-9.97986,0.0133133,0.000686646,0.0106049,0.0434494,0.0177002,-0.0156784,0.0288391,0.00972748
9,9,10.0097,0.000305176,-0.000610352,-2.4302,0.0529344,-0.0753682,0.0522969,0.0697496,-0.095893,0.144098,-0.127903,-0.0874532,0.0114441,0.010376,0.00328064,-0.0109863,0.0205994,0.00385284,0.031395,0.0200653,-9.97986,0.0115585,-0.00476837,0.017128,0.0408936,0.0206375,-0.0158691,0.0265121,0.00888824
10,0,10.0097,-0.00152588,-0.000915527,-2.42989,0.0538499,-0.0762837,0.0522969,0.0697496,-0.0955879,0.143182,-0.128208,-0.0880636,0.0108337,0.00816345,0.0102997,-0.0265503,0.0180435,0.0102615,0.0318146,0.0143051,-9.97986,0.0111008,-0.00465393,0.0128937,0.0394058,0.0172424,-0.00701904,0.0283051,0.0102997
10,1,10.0097,0.0012207,-0.000610352,-2.42867,0.0541551,-0.075063,0.0532125,0.0685289,-0.0949775,0.143792,-0.127292,-0.0859274,0.0100708,0.014534,0.0179672,-0.046196,0.0215149,0.0115967,0.0250626,0.0108719,-9.97986,0.0101852,-0.000190735,0.0172424,0.038681,0.0152206,-0.0100327,0.0253296,0.00724792
10,2,10.0097,0.000610352,-0.000305176,-2.42806,0.0547655,-0.075063,0.0532125,0.0691393,-0.0931465,0.144403,-0.125766,-0.0847066,0.0138092,0.0188446,0.022316,-0.0608063,0.0170517,0.0151443,0.0328827,0.00812531,-9.97986,0.0106049,0.00175476,0.0157166,0.0365829,0.015564,-0.00335693,0.0233459,0.0144958
10,3,10.0097,0.000305176,0.000152588,-2.42562,0.0535448,-0.075063,0.0538228,0.0706652,-0.094062,0.144098,-0.125461,-0.0850118,0.00972748,0.021286,0.0293732,-0.0872421,0.0214005,0.0141525,0.0287247,0.00900269,-9.97986,0.00888824,0.00331879,0.015564,0.0392914,0.0161362,-0.00862122,0.0253296,0.0126648
10,4,10.0097,0.000610352,-0.000457764,-2.42806,0.055681,-0.0744527,0.0538228,0.0700548,-0.094062,0.144403,-0.126377,-0.0840963,0.0117111,0.0205231,0.0299072,-0.117111,0.0219345,0.0135422,0.0325012,0.0044632,-9.97986,0.00717163,-0.00411987,0.0188828,0.0349426,0.0155258,-0.0148392,0.0237656,0.00999451
10,5,10.0097,0.000305176,-0.000305176,-2.42623,0.055681,-0.0741475,0.0547383,0.0706652,-0.0928413,0.145013,-0.125461,-0.0831808,0.0130081,0.0234604,0.0246811,-0.165634,0.0228882,0.0174332,0.03479,0.00659943,-9.97986,0.00286102,0.00350952,0.0190735,0.0308228,0.0161362,-0.0165558,0.0228119,0.0114059
10,6,10.0097,0,0.000305176,-2.42592,0.055681,-0.0741475,0.0544332,0.0700548,-0.0913154,0.146539,-0.124546,-0.0816549,0.010643,0.0231552,0.0272369,-0.23304,0.0236893,0.0172806,0.0290298,0.00968933,-9.97986,0.00343323,-0.0019455,0.017662,0.0358582,0.016861,-0.0133896,0.0267029,0.0108719
10,7,10.0097,0.00152588,-0.000305176,-2.42531,0.0575121,-0.0744527,0.0544332,0.0697496,-0.0910102,0.145929,-0.124546,-0.0810445,0.0123978,0.0150681,0.0314331,-0.209389,0.0218201,0.0193405,0.030098,0.00812531,-9.97986,0.00602722,-0.000762939,0.0185013,0.0286102,0.0131989,-0.00900269,0.0222778,0.00915527
10,8,10.0097,-0.000305176,0,-2.42592,0.0553758,-0.0747579,0.0550435,0.0715807,-0.0913154,0.146539,-0.123935,-0.0810445,0.0127792,0.0146103,0.0364304,-0.128136,0.0229645,0.0212097,0.0258255,0.00801086,-9.97986,0.00595093,0.000457764,0.0201035,0.0251389,0.0153732,-0.00919342,0.02491,0.00766754
10,9,10.0097,0.00152588,-0.000152588,-2.42592,0.0562914,-0.0747579,0.0544332,0.0706652,-0.090705,0.146844,-0.122715,-0.0804342,0.0123978,0.026741,0.0299072,-0.0708389,0.0273895,0.0159836,0.0246429,0.0110245,-9.97986,0.00305176,-0.00175476,0.0165558,0.0229645,0.0150681,-0.00312805,0.0222015,0.0113297
11,0,10.0097,-0.000610352,-0.000152588,-2.42745,0.0559862,-0.0729268,0.0547383,0.0502184,-0.0937568,0.146234,-0.125461,-0.0816549,0.0126266,0.0329971,0.0327301,-0.0431442,0.0214005,0.0167847,0.0259018,0.00499725,-9.97986,0.0037384,0.00110626,0.0183105,0.0255585,0.0149536,-0.00286102,0.0234604,0.0122452
11,1,9.24916,0.0012207,-0.00167847,-2.42531,0.055681,-0.0741475,0.054128,0.0453356,-0.0934516,0.148065,-0.125766,-0.0816549,0.0143814,0.0303268,0.0324631,-0.0131607,0.0210953,0.017128,0.0257492,0.00427246,-9.97986,0.00671387,0.00476837,0.0172806,0.0251389,0.0177002,-0.000152588,0.0226593,0.00923157
11,2,8.03853,0.000305176,-0.00167847,-2.42592,0.0575121,-0.0747579,0.0550435,0.0563219,-0.094062,0.145929,-0.126072,-0.0822652,0.0094986,0.0323486,0.0321198,0.0550842,0.0213242,0.0174713,0.0197601,-0.00171661,-9.97986,0.00858307,-0.00495911,0.0170517,0.018425,0.0206757,-0.0050354,0.0233078,0.00892639
11,3,7.77608,0.000915527,0,-2.42623,0.0550706,-0.0741475,0.0547383,0.0639513,-0.0916206,0.145624,-0.125156,-0.0825704,0.0156021,0.0282669,0.03479,0.101738,0.0244904,0.0193024,0.0253296,0.0106049,-9.97986,0.0122452,0.00114441,0.0210953,0.0224686,0.0200653,-0.00705719,0.0217819,0.0135422
11,4,7.99245,-0.0012207,-0.000457764,-2.42562,0.0569017,-0.0744527,0.0538228,0.0700548,-0.0916206,0.145013,-0.125461,-0.0834859,0.016861,0.0263596,0.0291443,0.0941849,0.0226593,0.0172806,0.0226593,0.00682831,-9.97986,0.0188065,-0.00125885,0.0247192,0.0170898,0.0231552,-0.00904083,0.0194931,0.0118637
11,5,9.60103,-0.000610352,0.000762939,-2.42623,0.0550706,-0.0768941,0.0550435,0.0901964,-0.0910102,0.146234,-0.124851,-0.0834859,0.00972748,0.0306702,0.0304413,0.0836563,0.0262451,0.0174713,0.0227737,0.0126266,-9.97986,0.0141907,-0.00259399,0.0227737,0.012207,0.0198746,-0.0069809,0.019455,0.00846863
11,6,10.0097,0.000915527,0.00152588,-2.42959,0.0535448,-0.0768941,0.0519917,0.0920275,-0.0934516,0.143792,-0.124851,-0.0844015,0.0109482,0.0358582,0.0305939,0.140266,0.0231552,0.0195313,0.0204849,0.0137711,-9.97986,0.0200653,-0.00141144,0.0211334,0.010643,0.017662,-0.00682831,0.0162125,0.00907898
11,7,10.0097,0.000915527,0.000305176,-2.42806,0.0547655,-0.0759786,0.0510762,0.077379,-0.094062,0.143792,-0.126987,-0.0874532,0.0123215,0.0401688,0.0348663,0.231209,0.0181961,0.0136185,0.0177765,0.0156021,-9.97986,0.0256348,-0.00152588,0.0217438,0.00946045,0.0199127,-0.0119781,0.0147629,0.0101471
11,8,10.0097,-0.000915527,0.000152588,-2.4302,0.0553758,-0.0756734,0.0526021,0.0718859,-0.094062,0.143792,-0.127292,-0.0868429,0.0104523,0.0457382,0.0450516,0.214386,0.0229645,0.0117874,0.0244904,0.0162125,-9.97986,0.0241089,-0.00659943,0.0274277,0.00843048,0.0215912,-0.0108719,0.0197601,0.0115967
11,9,10.0097,0.000915527,-0.000915527,-2.43081,0.0529344,-0.0756734,0.0519917,0.0694445,-0.0952827,0.144403,-0.128513,-0.0877584,0.00873566,0.0480652,0.0636673,0.167389,0.0234222,0.0173187,0.0207138,0.0190735,-9.97986,0.0225449,-0.00801086,0.0230408,0.00827789,0.0221252,-0.010643,0.0140762,0.00663757
12,0,10.0097,-0.000915527,-0.00106812,-2.4305,0.0529344,-0.0759786,0.0513814,0.0691393,-0.0943672,0.144098,-0.128208,-0.0865377,0.00682831,0.0426102,0.063324,0.142784,0.018692,0.011673,0.0199127,0.0177383,-9.97986,0.0287628,-0.00404358,0.0234985,0.0025177,0.0205994,-0.0138092,0.0168228,0.00556946
12,1,10.0097,0.000610352,-0.000305176,-2.42806,0.0541551,-0.0765889,0.0526021,0.0688341,-0.0949775,0.144403,-0.126987,-0.0868429,0.00324249,0.036087,0.0643539,0.117455,0.0224304,0.0108719,0.0239563,0.0195313,-9.97986,0.0244141,-0.00335693,0.0286102,0.00156403,0.0213242,-0.0108719,0.0153351,0.0109863
12,2,10.0097,0.00152588,-0.000457764,-2.42806,0.0541551,-0.075063,0.0529073,0.0685289,-0.0943672,0.144098,-0.126682,-0.085317,0.00858307,0.0283432,0.0502014,0.112,0.0234222,0.0131607,0.0208664,0.0209045,-9.97986,0.0262451,-0.0012207,0.0305176,0.000114441,0.0214005,-0.00789642,0.0135422,0.00850677
12,3,10.0097,0.000610352,0.000457764,-2.42745,0.0550706,-0.0756734,0.0532125,0.0700548,-0.0943672,0.145318,-0.126377,-0.0847066,0.00720978,0.0282669,0.0331497,0.0989914,0.0225449,0.0142288,0.0157166,0.0195313,-9.97986,0.02491,0.00354767,0.030899,0.000839233,0.0222778,-0.00938416,0.0161362,0.00392914
12,4,10.0097,0,0.000152588,-2.42684,0.0547655,-0.0747579,0.054128,0.0694445,-0.0937568,0.144098,-0.125766,-0.0837911,0.0108719,0.029335,0.0178146,0.0855255,0.0244904,0.0105667,0.0188828,0.017128,-9.97986,0.0288773,-0.00164032,0.0309372,0.00137329,0.0207138,-0.0154495,0.0133896,0.00583649
12,5,10.0097,0,0.000457764,-2.42745,0.0569017,-0.0744527,0.0550435,0.0706652,-0.0913154,0.147149,-0.125766,-0.0831808,0.00614166,0.0294113,0.000572205,0.0782013,0.0207138,0.0115967,0.0232315,0.0182343,-9.97986,0.0260162,0.00133514,0.0287628,-0.00148773,0.0258636,-0.018158,0.0153732,0.00675201
12,6,10.0097,0,-0.000152588,-2.42501,0.0565965,-0.0741475,0.054128,0.0700548,-0.0913154,0.145929,-0.124241,-0.0813497,0.0075531,0.0268936,-0.0151825,0.0640488,0.0193787,0.0119781,0.026474,0.0172043,-9.97986,0.0204086,0.000762939,0.0260162,-0.00862122,0.0237656,-0.0181198,0.0152588,0.00457764
12,7,10.0097,0.000915527,0.000152588,-2.42592,0.0565965,-0.073232,0.0550435,0.0712755,-0.0919257,0.14776,-0.12363,-0.0819601,0.00774384,0.0139999,-0.0315094,0.0557709,0.0230789,0.0121689,0.0275421,0.0185013,-9.97986,0.0233841,-0.000762939,0.0285721,-0.00362396,0.0183868,-0.0181961,0.0131607,0.00461578
12,8,10.0097,0.00335693,-0.000152588,-2.42562,0.0562914,-0.0747579,0.0547383,0.0718859,-0.0922309,0.147149,-0.123935,-0.0816549,0.00762939,0.014534,-0.0353241,0.0505447,0.0207901,0.0114822,0.0309372,0.0143433,-9.97986,0.0238037,0.00366211,0.0338364,-0.00415802,0.0230408,-0.0148773,0.0112915,0.00415802
12,9,10.0097,0.000610352,0.000457764,-2.42531,0.0562914,-0.0738423,0.0538228,0.0709703,-0.090705,0.146234,-0.123935,-0.080129,0.0087738,0.0122833,-0.0356293,0.0419235,0.0238419,0.00953674,0.0276566,0.0178146,-9.97986,0.0189209,0.00724792,0.0321198,-0.00652313,0.0233078,-0.0130844,0.01194,0.00686646
13,0,10.0097,0,-0.000762939,-2.42959,0.0559862,-0.075063,0.054128,0.0499132,-0.0955879,0.146539,-0.126072,-0.0813497,0.00793457,0.00869751,-0.0298309,0.0312042,0.0208282,0.00789642,0.026207,0.0205994,-9.97986,0.0157547,0.00427246,0.0342178,-0.0094223,0.0187683,-0.0109482,0.0112152,0.00144958
13,1,9.04866,-0.000610352,-0.00228882,-2.42562,0.0559862,-0.0738423,0.0544332,0.0453356,-0.0931465,0.146844,-0.126682,-0.0825704,0.0115204,0.0112152,-0.0191498,0.0260544,0.0242615,0.00972748,0.0316238,0.0179291,-9.97986,0.0184631,-0.00156403,0.0320435,-0.0155258,0.0208664,-0.01297,0.0124359,0.000953674
13,2,7.86153,0,-0.000762939,-2.42531,0.0559862,-0.0738423,0.054128,0.0538805,-0.0925361,0.145318,-0.126072,-0.0816549,0.00930786,0.0104523,-0.0127411,0.0204849,0.0257492,0.00656128,0.0256348,0.0202179,-9.97986,0.0165558,-0.00358582,0.0276947,-0.0167465,0.0213242,-0.00736237,0.0113678,0.00171661
13,3,7.58351,0,-0.000305176,-2.4247,0.0569017,-0.0747579,0.0547383,0.0633409,-0.0922309,0.145318,-0.126377,-0.0828756,0.0112152,0.0164032,-0.00411987,0.0132751,0.0244141,0.00637054,0.0264359,0.0196075,-9.97986,0.0154114,-0.00236511,0.0295639,-0.0133896,0.0181198,-0.00331879,0.0108337,0.00217438
13,4,7.78401,0.00305176,0.000610352,-2.42653,0.0550706,-0.075063,0.0532125,0.0724962,-0.0925361,0.145318,-0.125766,-0.0840963,0.0164413,0.016861,-0.000419617,0.0151825,0.0233841,0.00366211,0.0194168,0.0196075,-9.97986,0.0134659,-0.00118256,0.028038,-0.0172043,0.0197601,-0.00923157,0.0137329,0.00293732
13,5,9.42189,0.0012207,0.000610352,-2.42653,0.0547655,-0.0753682,0.054128,0.0920275,-0.0910102,0.144403,-0.123935,-0.0831808,0.0100327,0.0177765,0.00595093,0.00392914,0.0201035,0.00495911,0.0236893,0.0205612,-9.97986,0.0154114,-0.000762939,0.0279236,-0.0170517,0.0224304,-0.00423431,0.011673,-0.000495911
13,6,10.0097,0,0.00183105,-2.42776,0.0535448,-0.0768941,0.0526021,0.0932482,-0.0925361,0.143792,-0.125461,-0.0859274,0.010643,0.0199127,0.0104904,0.00324249,0.020752,-0.00156403,0.0206375,0.0186539,-9.97986,0.0161362,-0.00278473,0.0302887,-0.021286,0.0244904,-0.00759125,0.0111008,0.00232697
13,7,10.0097,-0.000305176,0.000457764,-2.42928,0.0535448,-0.0759786,0.0510762,0.0767687,-0.0949775,0.144098,-0.127292,-0.0874532,0.0131226,0.0193405,0.00797272,0.00423431,0.0187302,0.00488281,0.0226974,0.0219345,-9.97986,0.0153351,-0.00305176,0.0253677,-0.0202179,0.0185013,-0.00591278,0.00827789,0.0025177
13,8,10.0097,0.00152588,0.000152588,-2.42867,0.0538499,-0.0762837,0.0513814,0.0724962,-0.095893,0.144403,-0.126987,-0.0868429,0.0104904,0.0170517,0.0114059,-0.000724792,0.0224304,-0.00213623,0.0246048,0.0226593,-9.97986,0.0152969,-0.00137329,0.0228119,-0.0225449,0.0196075,-0.00679016,0.00606537,0.00110626
13,9,10.0097,-0.000915527,0,-2.42837,0.0544603,-0.0771993,0.0516866,0.0694445,-0.0955879,0.143182,-0.127292,-0.0868429,0.01297,0.0222778,0.0167847,-0.00541687,0.0224304,-0.00263214,0.0186539,0.0167465,-9.97986,0.00823975,0.00144958,0.0236511,-0.0263214,0.0174713,-0.00682831,0.0031662,-0.000610352
14,0,10.0097,0.00213623,-0.000610352,-2.42867,0.0535448,-0.0753682,0.0519917,0.0706652,-0.0971137,0.142572,-0.127292,-0.0868429,0.00778198,0.0209427,0.0183868,-0.00785828,0.0177002,0.00305176,0.0188065,0.0137329,-9.97986,0.0157166,-0.00148773,0.024147,-0.0181961,0.0190353,-0.00583649,0.0038147,0.000572205
14,1,10.0097,0,-0.000305176,-2.42806,0.0544603,-0.0762837,0.0519917,0.0688341,-0.0949775,0.144098,-0.126987,-0.085317,0.0144577,0.017395,0.0175476,-0.0107193,0.0196457,-0.00179291,0.0195694,0.0185394,-9.97986,0.0124359,-0.00404358,0.0198746,-0.0207901,0.0185013,-0.00278473,0.0031662,-0.000915527
14,2,10.0097,0,-0.000152588,-2.42714,0.0550706,-0.075063,0.0535176,0.0685289,-0.0949775,0.144403,-0.126377,-0.0862325,0.0166321,0.0230026,0.0162506,-0.010643,0.0186157,-0.000572205,0.0149155,0.0197983,-9.97986,0.0120544,-0.00404358,0.0223923,-0.0226593,0.0154114,-0.00205994,0.000991821,0.00114441
14,3,10.0097,0.000610352,0.000305176,-2.42745,0.0550706,-0.0747579,0.0522969,0.07036,-0.0943672,0.143792,-0.126377,-0.0844015,0.0129318,0.0222778,0.0212097,-0.0152206,0.0237656,-0.00236511,0.0165558,0.0207901,-9.97986,0.0141907,-0.00389099,0.0248337,-0.0218582,0.0134659,0.00038147,0.0018692,0.00286102
14,4,10.0097,0.000305176,0.000152588,-2.42653,0.0547655,-0.0756734,0.0535176,0.0694445,-0.0931465,0.145318,-0.125461,-0.0850118,0.00919342,0.0201797,0.0183868,-0.0101471,0.0177002,-0.00511169,0.0197601,0.0161362,-9.97986,0.014534,0.00106812,0.0200272,-0.0215912,0.0197601,-0.00156403,-0.00328064,0.00190735
14,5,10.0097,0.000610352,-0.000152588,-2.42501,0.055681,-0.0744527,0.0535176,0.0715807,-0.0931465,0.144708,-0.124851,-0.0825704,0.0170135,0.0233078,0.0215912,-0.0172043,0.018692,-0.00328064,0.0130081,0.0189972,-9.97986,0.0135803,-0.0037384,0.0231552,-0.0226974,0.0216675,0.00507355,-0.00236511,0.00221252
14,6,10.0097,0.000610352,0.000152588,-2.4247,0.0565965,-0.0729268,0.0553487,0.0666979,-0.0910102,0.146844,-0.125766,-0.0816549,0.0104523,0.0234604,0.0214005,-0.0147629,0.0146103,-0.00347137,0.0177765,0.0188828,-9.97986,0.00957489,-0.00534058,0.0225067,-0.0200272,0.0175858,0.00370026,-0.000190735,-0.00209808
14,7,10.0097,-0.000610352,-0.000305176,-2.4244,0.0575121,-0.0729268,0.0538228,0.0712755,-0.090705,0.14776,-0.123325,-0.0819601,0.0101471,0.0224686,0.0229263,-0.0190353,0.0210953,-0.000343323,0.0216293,0.0216293,-9.97986,0.012207,-0.00476837,0.0188065,-0.0197983,0.0114441,0.00270844,-0.00537872,-7.62939e-005
14,8,10.0097,0.00183105,0.000305176,-2.42531,0.0565965,-0.0741475,0.0538228,0.0715807,-0.0916206,0.146539,-0.124241,-0.0816549,0.0153732,0.0221634,0.0268936,-0.0195313,0.0180054,-0.00087738,0.0188828,0.021019,-9.97986,0.0165939,0.00141144,0.0239182,-0.0188065,0.0211334,0.000686646,-0.00255585,0.00240326
14,9,10.0097,0.000305176,0.000305176,-2.42531,0.0562914,-0.075063,0.0547383,0.067003,-0.0900947,0.146539,-0.123325,-0.080129,0.0168991,0.0229263,0.0204849,-0.0231171,0.0175476,-0.000762939,0.016861,0.0234222,-9.97986,0.00808716,-0.00320435,0.0215912,-0.0171661,0.0175858,0.0037384,-0.00289917,0.00366211
15,0,10.0097,0,-0.000610352,-2.42592,0.0565965,-0.0741475,0.0544332,0.0480822,-0.0952827,0.145013,-0.126377,-0.0825704,0.0123215,0.0219727,0.0257492,-0.0212479,0.0212097,-0.00492096,0.0190353,0.0153732,-9.97986,0.0119781,-0.00404358,0.0183487,-0.0161362,0.0133133,0.00576019,-0.00919342,0.00286102
15,1,9.17195,0.00152588,-0.00183105,-2.42592,0.0572069,-0.0738423,0.0547383,0.0453356,-0.0934516,0.146844,-0.126987,-0.0810445,0.0162125,0.0246048,0.0278854,-0.0179291,0.0174332,-0.00358582,0.0201797,0.0198746,-9.97986,0.0105286,0.000724792,0.0195313,-0.0183487,0.015564,0.00869751,-0.00896454,0.00217438
15,2,7.9894,0.00183105,-0.000610352,-2.42592,0.0547655,-0.0729268,0.0538228,0.0566271,-0.090705,0.145929,-0.126682,-0.0831808,0.0142288,0.0207901,0.0265503,-0.0242996,0.0188065,-0.00953674,0.0243759,0.021553,-9.97986,0.00900269,-0.00156403,0.0175858,-0.0180054,0.016861,0.00686646,-0.00461578,0.000114441
15,3,7.75807,0.000305176,0.000152588,-2.42623,0.055681,-0.0738423,0.055959,0.0630358,-0.0928413,0.145318,-0.125766,-0.0831808,0.0176239,0.0240707,0.0267792,-0.019989,0.0203323,-0.00457764,0.0177383,0.0199509,-9.97986,0.0123596,-0.00408173,0.0170898,-0.0178146,0.015831,0.00419617,-0.00869751,0.000801086
15,4,7.95491,0.0012207,0.000610352,-2.42714,0.0553758,-0.0744527,0.0544332,0.07036,-0.0919257,0.145318,-0.126377,-0.0834859,0.0133514,0.0226212,0.0271988,-0.016861,0.0208664,-0.00289917,0.0172424,0.0188828,-9.97986,0.0157166,-0.00389099,0.0219345,-0.0136948,0.0190353,0.0025177,-0.00835419,0.00343323
15,5,9.58425,0.000305176,0.000305176,-2.42592,0.0547655,-0.0738423,0.0547383,0.0895861,-0.0910102,0.145013,-0.124241,-0.0834859,0.0115585,0.0237274,0.0219345,-0.0178528,0.0219345,-0.00511169,0.0139618,0.0221634,-9.97986,0.0134659,-0.00389099,0.0257111,-0.015831,0.013504,0.00465393,-0.00957489,0.00534058
15,6,10.0097,0.00152588,0.00167847,-2.42837,0.0526292,-0.0765889,0.0516866,0.0923326,-0.0934516,0.142877,-0.125461,-0.0865377,0.00759125,0.0194168,0.0216675,-0.0215149,0.0205994,-0.00579834,0.0169754,0.0228119,-9.97986,0.0165558,-0.0019455,0.0178909,-0.013237,0.0175858,0.00343323,-0.0105667,0.00396729
15,7,10.0097,0.00305176,0.000915527,-2.42867,0.0541551,-0.0765889,0.050771,0.0770738,-0.0952827,0.142877,-0.126987,-0.0865377,0.0128174,0.0234604,0.0246811,-0.0177765,0.0209808,-0.00656128,0.0197983,0.0241089,-9.97986,0.00850677,-0.00244141,0.0175858,-0.01194,0.0175858,-0.00190735,-0.00919342,0.0038147
15,8,10.0097,0.000305176,0,-2.42989,0.0535448,-0.0765889,0.0513814,0.0734117,-0.0949775,0.144098,-0.126987,-0.0859274,0.0104141,0.0209427,0.0197601,-0.0191116,0.0206375,-0.00640869,0.0210571,0.0209808,-9.97986,0.0117874,0.000762939,0.0185776,-0.0149155,0.0181961,0.00606537,-0.0113297,0.00621796
15,9,10.0097,0.000610352,-0.000610352,-2.4302,0.0538499,-0.0765889,0.0522969,0.0709703,-0.0952827,0.144098,-0.127598,-0.0874532,0.00923157,0.0203323,0.0249863,-0.0188828,0.0220108,-0.0069809,0.0154114,0.0191116,-9.97986,0.0101471,0.00461578,0.0165558,-0.0133514,0.016098,-0.00419617,-0.00999451,-0.000724792
16,0,10.0097,0.0012207,0.000305176,-2.42806,0.0526292,-0.0765889,0.0516866,0.0694445,-0.0943672,0.143792,-0.127598,-0.0865377,0.0125885,0.0232315,0.026207,-0.0225067,0.0204086,-0.0087738,0.0132751,0.0214767,-9.97986,0.0087738,-0.00473022,0.01297,-0.017662,0.0151443,-0.00484467,-0.0124359,-0.00480652
16,1,10.0097,0.000305176,-0.000762939,-2.42837,0.0535448,-0.0759786,0.0526021,0.0691393,-0.0931465,0.144403,-0.126987,-0.0859274,0.00968933,0.0270081,0.0264359,-0.0358582,0.0227356,-0.00858307,0.0129318,0.0180054,-9.97986,0.0128174,0.00114441,0.0182343,-0.0196075,0.0169754,0.00190735,-0.00816345,0.00663757
16,2,10.0097,0.000305176,-0.00106812,-2.42898,0.0547655,-0.0762837,0.0532125,0.0697496,-0.0922309,0.143792,-0.126377,-0.085317,0.0107574,0.0233459,0.025177,-0.0398254,0.0212097,-0.00682831,0.00957489,0.0141144,-9.97986,0.0102234,-0.00549316,0.0126266,-0.0168228,0.0147247,-0.00461578,-0.0107574,0.000534058
16,3,10.0097,0.00152588,-0.000152588,-2.42745,0.0544603,-0.0741475,0.0532125,0.0697496,-0.0952827,0.144708,-0.126072,-0.0844015,0.0136566,0.0276947,0.0242233,-0.0468063,0.019989,-0.0103378,0.014534,0.0169373,-9.97986,0.00869751,0.00171661,0.0117874,-0.014534,0.0172043,0.00423431,-0.0114059,-0.000724792
16,4,10.0097,0.000610352,0.000762939,-2.42806,0.0562914,-0.0744527,0.0538228,0.0700548,-0.0910102,0.145013,-0.127292,-0.0831808,0.0111008,0.026474,0.0217438,-0.0598145,0.0221634,-0.0109482,0.0123978,0.0204086,-9.97986,0.0137329,0.000228882,0.0141144,-0.0114822,0.0140762,0.00701904,-0.0101089,0.000991821
16,5,10.0097,0.00183105,0.000305176,-2.42562,0.0553758,-0.075063,0.0547383,0.0706652,-0.0922309,0.146234,-0.124546,-0.0819601,0.0118637,0.0249481,0.02285,-0.0637054,0.0224686,-0.00663757,0.012207,0.019455,-9.97986,0.0107193,7.62939e-005,0.0139236,-0.00988007,0.0138092,0.00827789,-0.00823975,0.00331879
16,6,10.0097,-0.000915527,0,-2.4247,0.0550706,-0.0738423,0.0550435,0.0715807,-0.0931465,0.146234,-0.125156,-0.0816549,0.00923157,0.0233459,0.0263214,-0.0569534,0.0185013,-0.0075531,0.0139999,0.0159454,-9.97986,0.0104141,0.000114441,0.0120926,-0.0121689,0.0167847,0.00812531,-0.00991821,0.000190735
16,7,10.0097,0.00152588,0.000305176,-2.42562,0.0572069,-0.0729268,0.0565694,0.0700548,-0.0925361,0.147149,-0.12363,-0.0807394,0.0141144,0.0218582,0.0202942,-0.053215,0.0228119,-0.00743866,0.0148392,0.0177002,-9.97986,0.0105286,-0.000801086,0.0154495,-0.00881195,0.0135422,0.00419617,-0.0132751,0.000953674
16,8,10.0097,0.000305176,0.000762939,-2.42501,0.0569017,-0.0738423,0.0544332,0.07036,-0.0919257,0.146844,-0.12363,-0.0810445,0.0102615,0.0170135,0.0216293,-0.0679779,0.0185776,-0.0056076,0.0113297,0.018959,-9.97986,0.00938416,0.000114441,0.0177765,-0.00469208,0.014534,0.0082016,-0.00785828,0.00217438
16,9,10.0097,0.0012207,-0.000152588,-2.42562,0.0569017,-0.0738423,0.0553487,0.0700548,-0.090705,0.14837,-0.12363,-0.0804342,0.0119781,0.0192642,0.0299454,-0.0681305,0.0229263,-0.00434875,0.0102997,0.0146484,-9.97986,0.0118256,-0.00453949,0.0146484,-0.00289917,0.0138855,0.0038147,-0.0075531,0.00297546
17,0,10.0097,-0.000305176,-0.000305176,-2.42714,0.0541551,-0.0747579,0.0538228,0.0486925,-0.0980293,0.147455,-0.126072,-0.0822652,0.011673,0.0191498,0.0291061,-0.042572,0.0191116,0.000457764,0.0088501,0.0231171,-9.97986,0.0137711,-0.00171661,0.0150299,-0.00156403,0.0147247,0.00473022,-0.00907898,0.00305176
17,1,9.00502,0.0012207,-0.00167847,-2.42562,0.0572069,-0.0741475,0.0532125,0.0459459,-0.0937568,0.147149,-0.125461,-0.0816549,0.00926971,0.018425,0.0246048,-0.0128555,0.0185776,0.000343323,0.0135803,0.018692,-9.97986,0.013237,-3.8147e-005,0.0141144,-0.00274658,0.0155258,0.00938416,-0.0109482,0.00205994
17,2,7.75716,0.000305176,0,-2.42714,0.0562914,-0.075063,0.054128,0.0554064,-0.0919257,0.145013,-0.125766,-0.0822652,0.0141144,0.0197601,0.0283051,0.0283432,0.0232697,-0.000610352,0.0127792,0.0193405,-9.97986,0.0107956,-0.000686646,0.0163269,-0.001297,0.0175858,0.0118637,-0.00606537,0.00473022
17,3,7.52492,0.0012207,-0.000305176,-2.42653,0.055681,-0.0735371,0.0550435,0.0627306,-0.0922309,0.145318,-0.125766,-0.0825704,0.0133133,0.0166702,0.0247192,0.0144577,0.0196457,-0.00415802,0.00995636,0.0170135,-9.97986,0.0148773,-0.00247955,0.0163651,0.000762939,0.0154495,0.0119019,-0.00530243,0.00411987
17,4,7.68178,0,0.000305176,-2.42653,0.055681,-0.0741475,0.0538228,0.0697496,-0.0931465,0.145318,-0.125461,-0.0837911,0.00675201,0.0179291,0.028801,-0.0144958,0.0219345,-0.000648499,0.00892639,0.018959,-9.97986,0.011673,0.000152588,0.0167084,0.000839233,0.0157547,0.00499725,-0.00392914,0.00312805
17,5,9.30074,0.00274658,0.00183105,-2.42653,0.0550706,-0.0747579,0.0538228,0.0920275,-0.0903999,0.145013,-0.125461,-0.0834859,0.00686646,0.018959,0.028038,0.0109482,0.0183868,0.00377655,0.0094986,0.0178909,-9.97986,0.0150681,-0.00038147,0.015564,0.00411987,0.0177765,0.00442505,-0.00328064,0.00629425
17,6,10.0097,0,0.00213623,-2.42714,0.0541551,-0.0753682,0.0535176,0.0935533,-0.0943672,0.143487,-0.125156,-0.0856222,0.0157166,0.0191879,0.0282669,0.0374985,0.0192642,0.0037384,0.0122452,0.0202942,-9.97986,0.0141907,0.0012207,0.0157166,0.00732422,0.0179672,0.00495911,-0.00152588,0.001297
17,7,10.0097,0.0012207,0.000457764,-2.42928,0.0523241,-0.0753682,0.0519917,0.0785997,-0.0952827,0.143792,-0.126682,-0.0871481,0.0075531,0.021019,0.0307083,0.0677109,0.0192642,-0.000801086,0.0135803,0.0182724,-9.97986,0.0182724,-0.000152588,0.0139236,0.00679016,0.0233078,0.0043869,-0.00354767,0.00450134
17,8,10.0097,0.00152588,-0.000305176,-2.42928,0.0535448,-0.075063,0.0516866,0.0712755,-0.0955879,0.142572,-0.127292,-0.0877584,0.0120926,0.0229645,0.0359726,0.0797272,0.0185013,-0.000457764,0.0119781,0.0187302,-9.97986,0.015831,-0.00137329,0.0178909,0.0138092,0.0178909,0.0115967,-0.00221252,0.00522614
17,9,10.0097,0.0012207,-0.000305176,-2.42837,0.0532396,-0.0768941,0.0513814,0.0697496,-0.0971137,0.143792,-0.128208,-0.0871481,0.00717163,0.0318146,0.0382614,0.0715256,0.0156403,-0.00358582,0.0144958,0.0200272,-9.97986,0.0163651,-0.000457764,0.00831604,0.0125122,0.0195694,0.0135803,-0.00350952,0.00415802
18,0,10.0097,0.000915527,0,-2.42867,0.0529344,-0.0753682,0.0516866,0.0688341,-0.0943672,0.144098,-0.126987,-0.0865377,0.00980377,0.0302887,0.0384903,0.0659943,0.0170898,-0.00160217,0.014534,0.0217438,-9.97986,0.0122452,0.00038147,0.0127411,0.0121307,0.0221252,0.018692,-0.00228882,0.000724792
18,1,10.0097,0.00152588,0.000305176,-2.42867,0.0523241,-0.075063,0.0529073,0.0700548,-0.0943672,0.144098,-0.126682,-0.0871481,0.00766754,0.0374222,0.0411224,0.0533295,0.0168991,-0.000190735,0.017395,0.0185013,-9.97986,0.0198746,-0.00160217,0.0148773,0.0216293,0.018692,0.0217056,0.00144958,0.00305176
18,2,10.0097,0,-0.000152588,-2.42776,0.0553758,-0.0753682,0.0522969,0.0694445,-0.0903999,0.144708,-0.126377,-0.085317,0.00835419,0.0363159,0.0297546,0.0505447,0.0175476,0.00358582,0.018425,0.0243378,-9.97986,0.0163651,-0.0063324,0.00968933,0.0151062,0.0191498,0.0177765,0.00038147,0.00358582
18,3,10.0097,-0.000610352,0.000152588,-2.42806,0.0541551,-0.075063,0.0529073,0.0694445,-0.0934516,0.144708,-0.126377,-0.0847066,0.0103378,0.0377274,0.0224304,0.0483704,0.0193405,0.0037384,0.0196075,0.0259781,-9.97986,0.0161743,0.000610352,0.0107574,0.0171661,0.0209427,0.0185394,0.000267029,0.000648499
18,4,10.0097,-0.0012207,0.000305176,-2.42684,0.0541551,-0.0747579,0.0547383,0.07036,-0.0925361,0.145929,-0.126072,-0.0844015,0.00785828,0.0346756,0.01297,0.0367737,0.0125122,0.00530243,0.0157166,0.0181198,-9.97986,0.0134277,0.00270844,0.00553131,0.0149536,0.0181198,0.00938416,0.00213623,0.00358582
18,5,10.0097,-0.0012207,0.000762939,-2.42684,0.0559862,-0.0741475,0.0535176,0.0706652,-0.0968086,0.145929,-0.125156,-0.0834859,0.00892639,0.0392151,0.00850677,0.0391769,0.0178146,0.00614166,0.0217438,0.0245285,-9.97986,0.0200653,0.000991821,0.00785828,0.0217056,0.0188065,0.00511169,0.00263214,0.00423431
18,6,10.0097,0.000610352,0.000762939,-2.42592,0.0559862,-0.0738423,0.0544332,0.0700548,-0.0919257,0.146234,-0.124851,-0.0807394,0.0122452,0.0366974,0.0105667,0.0330353,0.0138092,0.00511169,0.0167847,0.0223923,-9.97986,0.0211716,-0.00144958,0.0132751,0.0191116,0.0185394,0.00518799,0.00160217,0.00415802
18,7,10.0097,-0.00152588,-0.000305176,-2.42409,0.0541551,-0.0738423,0.0544332,0.0697496,-0.0922309,0.146539,-0.123935,-0.0813497,0.00728607,0.0309372,0.00778198,0.0344086,0.0103378,0.00495911,0.0183868,0.022583,-9.97986,0.0200272,-0.00400543,0.00743866,0.0217056,0.0175476,0.00511169,-0.00144958,0.000991821
18,8,10.0097,-0.000610352,0.000457764,-2.42501,0.0565965,-0.0738423,0.0550435,0.07036,-0.0894843,0.145624,-0.124241,-0.0807394,0.010376,0.0265884,0.00541687,0.0287628,0.0154877,0.0102997,0.0215149,0.0250626,-9.97986,0.0178146,0.000305176,0.0105667,0.0208664,0.0201416,0.00167847,0.00141144,0.00762939
18,9,10.0097,0.000610352,0.000305176,-2.42592,0.0572069,-0.0729268,0.0535176,0.0712755,-0.0916206,0.146844,-0.123325,-0.0804342,0.0102234,0.0231934,0.00247955,0.026741,0.0158691,0.0129318,0.0204849,0.0203705,-9.97986,0.0152206,-0.000457764,0.00667572,0.0251007,0.0212479,0.00301361,0.00263214,0.00465393
19,0,10.0097,0.000305176,-0.000610352,-2.42684,0.0575121,-0.0735371,0.0538228,0.0474718,-0.095893,0.146539,-0.126377,-0.0825704,0.0141907,0.0173569,0.00244141,0.017662,0.0154495,0.00926971,0.0213623,0.0202179,-9.97986,0.0173187,0.001297,0.00423431,0.0265503,0.0159836,0.000572205,0.00141144,0.00328064
19,1,9.15334,0.000610352,-0.00167847,-2.4247,0.0550706,-0.0741475,0.0535176,0.0465563,-0.0916206,0.145929,-0.126377,-0.0813497,0.0122833,0.0218964,-0.000915527,0.0241852,0.0111008,0.017128,0.0169373,0.0188065,-9.97986,0.0160599,0.00354767,0.00862122,0.0211716,0.0187302,0.000114441,0.00286102,0.0056839
19,2,7.9421,0,0,-2.42562,0.0565965,-0.0741475,0.0550435,0.0551012,-0.0928413,0.145624,-0.126072,-0.0813497,0.00919342,0.022316,-0.00278473,0.0168228,0.0124741,0.0161743,0.0187683,0.0133896,-9.97986,0.0164795,0.00274658,0.00785828,0.0258636,0.0165558,-0.0012207,0.00175476,0.00629425
19,3,7.68575,0.000305176,0.000305176,-2.42623,0.0514085,-0.0753682,0.0544332,0.0630358,-0.0913154,0.145929,-0.126072,-0.0834859,0.0125504,0.0186539,0.001297,0.0167847,0.0130463,0.0145721,0.0204468,0.0133514,-9.97986,0.0229645,0.000228882,0.00854492,0.026207,0.0177765,-0.00301361,0.000534058,0.00606537
19,4,7.90425,0.00244141,0,-2.42714,0.0544603,-0.0756734,0.054128,0.0724962,-0.0955879,0.146539,-0.125156,-0.0819601,0.0108719,0.0209427,0.00289917,0.0147629,0.0130463,0.0134277,0.0161362,0.016098,-9.97986,0.0142288,0.00198364,0.00366211,0.0274658,0.0159454,-0.00579834,0.00205994,0.00171661
19,5,9.57082,0.00152588,0.00137329,-2.42562,0.0544603,-0.075063,0.054128,0.0905016,-0.0900947,0.145318,-0.124851,-0.0837911,0.00854492,0.024147,0.00762939,0.0122452,0.0129318,0.0139618,0.0186539,0.0204468,-9.97986,0.0175476,-0.00183105,0.00659943,0.0281525,0.0149155,-0.00453949,0.000801086,0.00522614
19,6,10.0097,0.000305176,0.00213623,-2.42837,0.0590379,-0.0768941,0.0526021,0.0923326,-0.094062,0.141351,-0.124546,-0.0862325,0.00801086,0.0167084,0.00789642,0.0117874,0.0152206,0.0152969,0.0203705,0.0202942,-9.97986,0.018158,7.62939e-005,0.00362396,0.0281525,0.0188065,-0.00785828,0.000305176,0.00827789
19,7,10.0097,0.000915527,0.000610352,-2.42989,0.0550706,-0.075063,0.0522969,0.0779894,-0.0900947,0.144708,-0.126377,-0.0871481,0.00881195,0.0209427,0.01194,0.0102615,0.0135422,0.0203705,0.0203705,0.0182724,-9.97986,0.018692,0.00225067,0.00640869,0.0279999,0.0210953,-0.00118256,0.00389099,0.00480652
19,8,10.0097,0,-0.000152588,-2.42898,0.0550706,-0.0759786,0.0522969,0.0728014,-0.0946723,0.143792,-0.126987,-0.0862325,0.00659943,0.0210571,0.0133896,0.00972748,0.0128937,0.0155258,0.0236511,0.017128,-9.97986,0.0191116,0.000801086,0.00411987,0.0293732,0.0162888,-0.00621796,-3.8147e-005,0.00476837
19,9,10.0097,-0.00213623,-0.000457764,-2.42928,0.0492723,-0.0759786,0.0513814,0.0682238,-0.094062,0.144098,-0.127903,-0.0868429,0.00888824,0.0170898,0.0127411,0.00808716,0.0105286,0.0146866,0.0196457,0.0200272,-9.97986,0.0175476,0.00225067,0.00511169,0.0272751,0.0157928,-0.0056076,0.00469208,0.00591278
20,0,10.0097,0.000610352,0.000152588,-2.42928,0.0538499,-0.0771993,0.0522969,0.0691393,-0.0971137,0.143182,-0.126377,-0.0871481,0.0111771,0.0228119,0.0147629,0.00843048,0.0119019,0.0170517,0.0242996,0.014534,-9.97986,0.0195694,0.00148773,0.00602722,0.0284195,0.0150299,-0.00591278,0.00713348,0.00743866
20,1,10.0097,0.00244141,-0.000305176,-2.42867,0.0538499,-0.0762837,0.0532125,0.0700548,-0.094062,0.143792,-0.127598,-0.0865377,0.0122452,0.0175858,0.0154495,0.00904083,0.0159454,0.0188446,0.0167465,0.0149155,-9.97986,0.0173187,0.00453949,0.00579834,0.0268173,0.0143051,-0.00152588,0.0044632,0.00480652
20,2,10.0097,0.00152588,-0.000152588,-2.42837,0.0526292,-0.075063,0.0526021,0.0694445,-0.0934516,0.145318,-0.126377,-0.085317,0.00717163,0.0169373,0.0154495,0.0063324,0.0147247,0.0191879,0.0217438,0.0164795,-9.97986,0.0162506,0.001297,0.00423431,0.0284195,0.0170898,-0.000534058,0.00556946,0.00595093
20,3,10.0097,0.000305176,0.000457764,-2.42714,0.0547655,-0.0756734,0.0544332,0.0691393,-0.0952827,0.145624,-0.126377,-0.0844015,0.0123215,0.0229645,0.0183105,0.00812531,0.0179672,0.0167847,0.0204849,0.015564,-9.97986,0.0136185,-0.00247955,0.00713348,0.02285,0.0151825,0.00286102,0.00541687,0.00362396
20,4,10.0097,0.00213623,0,-2.42653,0.055681,-0.0747579,0.0535176,0.0697496,-0.0931465,0.145013,-0.125461,-0.0837911,0.0069046,0.0180435,0.0138474,0.01297,0.0126648,0.0178528,0.0194168,0.0121689,-9.97986,0.0161362,0.00297546,0.00724792,0.0282669,0.0142288,-0.00225067,0.0063324,0.0037384
20,5,10.0097,-0.0012207,0.00106812,-2.42623,0.060869,-0.0747579,0.0532125,0.0712755,-0.0925361,0.146539,-0.125156,-0.0834859,0.00892639,0.0198364,0.0151443,0.00751495,0.01091,0.0203323,0.0179672,0.0191879,-9.97986,0.0147629,-0.00484467,0.0031662,0.0248718,0.0149918,-0.00125885,0.00713348,0.00644684
20,6,10.0097,0.0012207,0.000305176,-2.42501,0.0559862,-0.0741475,0.0544332,0.0700548,-0.0891792,0.145624,-0.124851,-0.0810445,0.0147629,0.0224304,0.0192261,0.00862122,0.018158,0.0186157,0.0208664,0.0192261,-9.97986,0.0160599,0.000686646,0.00320435,0.0255585,0.0185776,0.00255585,0.00965118,0.00911713
20,7,10.0097,0.00152588,0.000305176,-2.42531,0.0553758,-0.0738423,0.0544332,0.0715807,-0.090705,0.14776,-0.124851,-0.0810445,0.0104523,0.0232697,0.0169373,0.00148773,0.014801,0.0149536,0.0195313,0.0190735,-9.97986,0.0157166,0.0012207,0.0037384,0.0267029,0.0160217,0.0122833,0.0168228,0.00587463
20,8,10.0097,0.000915527,0.000457764,-2.42562,0.0645311,-0.0735371,0.0544332,0.0706652,-0.0919257,0.146844,-0.125461,-0.0819601,0.0106812,0.0237656,0.016098,0.00614166,0.013504,0.00770569,0.0149155,0.0148392,-9.97986,0.0156021,-0.00511169,0.00144958,0.0217438,0.0143051,0.00659943,0.014801,0.00679016
20,9,10.0097,-0.0012207,-0.000152588,-2.42501,0.0569017,-0.0723164,0.0553487,0.0709703,-0.0919257,0.146844,-0.123935,-0.0804342,0.0104523,0.019989,0.0149536,0.00717163,0.0138092,0.0151062,0.0216293,0.0204086,-9.97986,0.0172424,-0.000534058,0.0069809,0.0207138,0.0172424,0.00671387,0.0179291,0.00831604
21,0,10.0097,0.00183105,-0.000610352,-2.42653,0.0559862,-0.0741475,0.0538228,0.0474718,-0.0946723,0.147149,-0.126072,-0.0819601,0.00926971,0.0231171,0.0167084,0.00709534,0.0162506,0.0148392,0.0164032,0.0154114,-9.97986,0.018158,0.000801086,0.00453949,0.0193405,0.0160599,0.0082016,0.0147629,0.00736237
21,1,9.10634,-0.000305176,-0.00183105,-2.42501,0.0584276,-0.0738423,0.054128,0.0462511,-0.094062,0.146234,-0.126072,-0.0810445,0.00801086,0.0205994,0.0148392,0.00347137,0.0170898,0.014534,0.0175476,0.0148773,-9.97986,0.0218582,-0.00152588,0.00473022,0.019989,0.0148773,0.00915527,0.0162125,0.00797272
21,2,7.93355,-0.000915527,-0.00106812,-2.42684,0.0565965,-0.0741475,0.054128,0.054796,-0.0910102,0.144708,-0.126072,-0.0822652,0.00782013,0.0187683,0.0200272,0.00396729,0.0185013,0.0131989,0.0175858,0.0167465,-9.97986,0.0151825,-0.00411987,0.00389099,0.0182343,0.019989,0.0147247,0.0141144,0.0037384
21,3,7.70406,0,-0.000762939,-2.42653,0.0550706,-0.0738423,0.0535176,0.0636461,-0.0919257,0.145929,-0.125766,-0.0819601,0.00862122,0.0242615,0.0172043,0.00629425,0.018158,0.0101471,0.0235367,0.0179291,-9.97986,0.0136185,-0.00198364,0.00366211,0.0170898,0.0204468,0.0160217,0.0154114,0.00450134
21,4,7.95278,0.0012207,0.000762939,-2.42776,0.0517137,-0.0753682,0.0544332,0.0718859,-0.0913154,0.144708,-0.125156,-0.0828756,0.00804901,0.020256,0.0130844,0.00461578,0.0167465,0.0145721,0.0270844,0.0181961,-9.97986,0.0155258,0.000152588,0.00537872,0.0200653,0.0163269,0.0215912,0.0155258,0.00427246
21,5,9.63674,-0.000915527,0.00106812,-2.42714,0.0550706,-0.0753682,0.0544332,0.0923326,-0.0885688,0.145013,-0.124241,-0.0837911,0.0123596,0.0232697,0.0183868,0.00450134,0.0170517,0.0172043,0.0272751,0.0128937,-9.97986,0.017395,-0.00263214,0.00617981,0.0201797,0.0193024,0.0179672,0.0233078,0.00724792
21,6,10.0097,0.000915527,0.00183105,-2.42959,0.0547655,-0.0765889,0.0519917,0.0923326,-0.0931465,0.143182,-0.125156,-0.0862325,0.0138092,0.0222015,0.0194168,0.0094986,0.0184631,0.0147247,0.0259781,0.0191498,-9.97986,0.0174713,0.00152588,0.00644684,0.0205612,0.019989,0.014801,0.0247955,0.00644684
21,7,10.0097,0.00152588,0.000305176,-2.42928,0.0498827,-0.0753682,0.0522969,0.0767687,-0.0952827,0.143182,-0.127292,-0.0880636,0.00881195,0.0238419,0.0178528,0.00770569,0.0113297,0.0128555,0.0266266,0.0167084,-9.97986,0.0225067,-0.00167847,0.00720978,0.0178146,0.0163651,0.00995636,0.02388,0.00396729
21,8,10.0097,0.00152588,0.000152588,-2.42837,0.0544603,-0.0756734,0.0513814,0.0718859,-0.0919257,0.144708,-0.127292,-0.0871481,0.0136185,0.0219727,0.0165558,0.00961304,0.0162125,0.0166321,0.0247955,0.0214767,-9.97986,0.0159836,-0.000495911,0.00999451,0.0194931,0.0180054,0.0167084,0.0259781,0.00652313
21,9,10.0097,0.00152588,-0.000915527,-2.42928,0.0517137,-0.0759786,0.0513814,0.0694445,-0.0949775,0.142877,-0.126987,-0.0877584,0.0124741,0.019722,0.0145721,0.0135803,0.0136948,0.0144196,0.0266266,0.0191116,-9.97986,0.0175095,-0.00434875,0.0120163,0.0174332,0.0151825,0.0152588,0.0256348,0.00736237
22,0,10.0097,0.000610352,-0.000152588,-2.42989,0.0565965,-0.0765889,0.0516866,0.0688341,-0.0955879,0.143792,-0.126987,-0.0874532,0.0107574,0.0199127,0.0175858,0.00541687,0.0115204,0.0130081,0.0255966,0.0162125,-9.97986,0.0125504,-0.00198364,0.00930786,0.0191116,0.0170135,0.0100708,0.0228119,0.00320435
22,1,10.0097,0.0012207,0,-2.42837,0.0535448,-0.0753682,0.0547383,0.0688341,-0.0925361,0.145013,-0.127292,-0.085317,0.0151825,0.0168228,0.0194931,0.0115585,0.0130463,0.0125504,0.0264359,0.0177765,-9.97986,0.0125122,-0.00358582,0.00823975,0.0175095,0.0160217,0.00339508,0.0265884,0.00629425
22,2,10.0097,0.000305176,0.000305176,-2.42714,0.0553758,-0.0747579,0.0529073,0.0688341,-0.0931465,0.143792,-0.126987,-0.085317,0.0119781,0.0200272,0.0201797,0.0105286,0.013504,0.014534,0.0244522,0.0175858,-9.97986,0.0135803,-0.00434875,0.0102615,0.0185013,0.0182724,0.00301361,0.0226974,0.00297546
22,3,10.0097,0,0.000457764,-2.42745,0.0541551,-0.0753682,0.0538228,0.0694445,-0.0943672,0.145318,-0.126072,-0.0840963,0.0156403,0.0227737,0.0205231,0.0138092,0.0140381,0.0145721,0.0271225,0.0159454,-9.97986,0.0159073,-0.00282288,0.0120163,0.0137711,0.0200653,-0.00331879,0.024147,0.00591278
22,4,10.0097,0.0012207,0.0012207,-2.42623,0.0547655,-0.0756734,0.0519917,0.0691393,-0.0922309,0.143487,-0.126072,-0.0837911,0.01091,0.0208664,0.0211334,0.0129318,0.0146866,0.00881195,0.0268173,0.02285,-9.97986,0.0141144,-0.00198364,0.0114441,0.0183487,0.0183105,-0.00152588,0.0282288,0.00480652
22,5,10.0097,0.0012207,0.000457764,-2.42562,0.0559862,-0.0744527,0.0538228,0.0697496,-0.0937568,0.147455,-0.125156,-0.0825704,0.00854492,0.0239944,0.0202179,0.015564,0.0144577,0.0150299,0.0278473,0.0156403,-9.97986,0.0169373,0.00087738,0.0157928,0.0170898,0.0233459,0.000343323,0.0275803,0.00400543
22,6,10.0097,0.000610352,0.000152588,-2.42379,0.0581224,-0.0744527,0.0544332,0.07036,-0.0919257,0.145624,-0.125461,-0.0819601,0.010376,0.0228119,0.0229645,0.0144196,0.0158691,0.0135422,0.0291443,0.0206757,-9.97986,0.0149536,-0.0037384,0.0150299,0.0157547,0.0191498,0.00259399,0.0246429,0.00495911
22,7,10.0097,0.0012207,-0.000152588,-2.42501,0.0572069,-0.075063,0.055959,0.0709703,-0.0925361,0.146844,-0.124241,-0.0813497,0.00782013,0.0216293,0.0224686,0.0125122,0.0133896,0.0126266,0.0265503,0.0163651,-9.97986,0.0148392,-0.00579834,0.00709534,0.0133514,0.0170517,0.00812531,0.0262833,0.00602722
22,8,10.0097,0.000305176,0.000915527,-2.42501,0.0559862,-0.0744527,0.0544332,0.0712755,-0.0922309,0.147455,-0.124851,-0.0816549,0.0115585,0.0213623,0.0226974,0.0137329,0.0139618,0.0153351,0.0261307,0.0170517,-9.97986,0.0138092,0.000114441,0.0116348,0.0135422,0.0195313,0.0102234,0.023613,0.00843048
22,9,10.0097,0.00152588,0.000610352,-2.4247,0.0575121,-0.0744527,0.0544332,0.0724962,-0.0903999,0.147455,-0.123935,-0.080129,0.010376,0.0242996,0.0235367,0.0128174,0.0159836,0.0101852,0.0180817,0.013504,-9.97986,0.0146103,-0.00228882,0.0117111,0.011673,0.0143051,0.00740051,0.0251007,0.00553131
23,0,10.0097,-0.0012207,-0.000915527,-2.42623,0.0569017,-0.0744527,0.0522969,0.0471666,-0.0952827,0.147149,-0.125766,-0.0822652,0.0113297,0.0239182,0.0274277,0.0156784,0.0189972,0.0137711,0.0259399,0.0183487,-9.97986,0.0163651,-0.00164032,0.0150299,0.0161743,0.018425,0.00541687,0.0270081,0.00499725
23,1,9.02577,0.000305176,-0.00137329,-2.42653,0.0562914,-0.0735371,0.0553487,0.04442,-0.0943672,0.146539,-0.126377,-0.0819601,0.00823975,0.0202942,0.027504,0.0134659,0.0172806,0.014801,0.0210953,0.018158,-9.97986,0.0118637,-0.00137329,0.0124359,0.00957489,0.0143051,0.00534058,0.0234985,0.00823975
23,2,7.88961,0,-0.00167847,-2.4247,0.0559862,-0.0738423,0.0547383,0.054796,-0.0919257,0.145929,-0.125766,-0.0816549,0.0106049,0.0227737,0.0243378,0.016098,0.0193787,0.0168228,0.0218964,0.0196457,-9.97986,0.016098,-0.00648499,0.0124741,0.0113678,0.017395,-0.00286102,0.0256729,0.00865936
23,3,7.70253,0.000610352,-0.000610352,-2.42623,0.0544603,-0.0738423,0.0544332,0.0633409,-0.0922309,0.145929,-0.126377,-0.0825704,0.00606537,0.0199509,0.021286,0.0128174,0.0133133,0.0105286,0.0201035,0.0164032,-9.97986,0.0118637,-0.00808716,0.0107956,0.0118637,0.0141144,-0.0101089,0.0261688,0.00358582
23,4,7.94789,0.00152588,0.0012207,-2.42623,0.055681,-0.0744527,0.054128,0.07036,-0.0900947,0.144708,-0.125766,-0.0828756,0.0102234,0.0248718,0.0267792,0.0142288,0.0174332,0.0114441,0.023613,0.020752,-9.97986,0.0202179,-0.00205994,0.0132751,0.0102234,0.017662,-0.0142288,0.0262833,0.00598907
23,5,9.66634,0.000610352,0.000610352,-2.42714,0.0538499,-0.0741475,0.054128,0.0923326,-0.090705,0.145929,-0.124546,-0.0840963,0.0037384,0.0231552,0.0216675,0.0137711,0.0121689,0.0106049,0.0253296,0.0143433,-9.97986,0.0154877,-0.00255585,0.0137711,0.0088501,0.013504,-0.0152588,0.0253296,0.0037384
23,6,10.0097,0.000610352,0.00167847,-2.42776,0.0532396,-0.0759786,0.0529073,0.0923326,-0.0931465,0.145013,-0.126682,-0.0850118,0.00980377,0.0242615,0.0251007,0.0165558,0.0136948,0.0119781,0.0214005,0.015831,-9.97986,0.0123978,7.62939e-005,0.0159836,0.00801086,0.017128,-0.0124741,0.0261688,0.00743866
23,7,10.0097,0.00244141,0.000305176,-2.42867,0.0547655,-0.0759786,0.0519917,0.077379,-0.0952827,0.143792,-0.127292,-0.0874532,0.00762939,0.0243759,0.0237656,0.0112152,0.0131226,0.00953674,0.0216675,0.0178909,-9.97986,0.0100327,0.001297,0.0177765,0.0103378,0.0130844,-0.0141144,0.0229645,0.00514984
23,8,10.0097,-0.000915527,-0.000152588,-2.42867,0.0538499,-0.0756734,0.0519917,0.0731066,-0.0952827,0.144708,-0.126377,-0.0868429,0.00926971,0.0216675,0.0216293,0.0132751,0.0128555,0.0115204,0.0257111,0.0178528,-9.97986,0.0167084,0.000457764,0.0144577,0.0043869,0.0119781,-0.0101089,0.0291443,0.0056076
23,9,10.0097,0.000305176,-0.000457764,-2.42898,0.0535448,-0.0768941,0.050771,0.0697496,-0.0934516,0.143487,-0.126682,-0.0865377,0.0101471,0.019722,0.0209045,0.0152969,0.0122452,0.00808716,0.0189972,0.0201035,-9.97986,0.0170135,-0.00469208,0.0110245,0.00694275,0.0145721,-0.00839233,0.0293732,0.0069809
24,0,10.0097,0.000305176,-0.000152588,-2.42898,0.0538499,-0.0762837,0.0513814,0.0706652,-0.0943672,0.143792,-0.127903,-0.0871481,0.00854492,0.0223541,0.0192261,0.0149536,0.0135803,0.0115585,0.0175476,0.0173187,-9.97986,0.0151443,-0.00259399,0.0123978,0.0088501,0.0163651,-0.00320435,0.0312805,0.00694275
24,1,10.0097,0.00244141,-0.000915527,-2.42867,0.0541551,-0.0762837,0.0526021,0.0697496,-0.0946723,0.144708,-0.126987,-0.0859274,0.00587463,0.0222778,0.0210571,0.0141144,0.012207,0.01194,0.022583,0.0172806,-9.97986,0.0136185,-0.00236511,0.0146484,0.00705719,0.0163269,-0.000534058,0.0311661,0.0094986
24,2,10.0097,0.00152588,0.000152588,-2.42745,0.0547655,-0.075063,0.0526021,0.0694445,-0.0937568,0.143792,-0.126987,-0.0859274,0.0128937,0.0203323,0.0224304,0.0131226,0.0138855,0.00976563,0.0225067,0.0146484,-9.97986,0.0174332,-0.00579834,0.0127792,0.00999451,0.0125885,0.00305176,0.0309753,0.00614166
24,3,10.0097,0.000610352,-0.000457764,-2.42684,0.055681,-0.075063,0.0529073,0.07036,-0.0928413,0.145318,-0.125156,-0.085317,0.00804901,0.0265121,0.0210953,0.0209808,0.0111771,0.0129318,0.0218964,0.0162506,-9.97986,0.0134659,-0.00392914,0.0136948,0.00629425,0.0105286,0.00610352,0.0281525,0.00606537
24,4,10.0097,0.0012207,0.000457764,-2.42653,0.055681,-0.0753682,0.0544332,0.0691393,-0.0928413,0.145013,-0.125156,-0.0840963,0.0117111,0.0255585,0.0183487,0.0131989,0.0124359,0.0123215,0.0229263,0.0171661,-9.97986,0.0123596,-0.00534058,0.0134277,0.00793457,0.0138855,0.0094223,0.0270081,0.00640869
24,5,10.0097,0.00152588,-0.000152588,-2.42653,0.0553758,-0.0747579,0.0535176,0.0706652,-0.0931465,0.146539,-0.125156,-0.0822652,0.0102997,0.021286,0.0204086,0.00915527,0.0121689,0.0117111,0.0224304,0.0193787,-9.97986,0.014534,-0.00297546,0.0154877,0.0102615,0.0146866,0.00648499,0.0304031,0.00213623
24,6,10.0097,0.000305176,0,-2.42562,0.0562914,-0.0729268,0.0547383,0.0706652,-0.0916206,0.145624,-0.124546,-0.0813497,0.00926971,0.0202942,0.0182724,0.0025177,0.0132751,0.0075531,0.020752,0.0172043,-9.97986,0.0149536,-0.00198364,0.0150681,0.00865936,0.0134659,0.00110626,0.0315094,0.00545502
24,7,10.0097,0.0012207,0.000610352,-2.42531,0.0575121,-0.0726216,0.055959,0.0712755,-0.0900947,0.145318,-0.124546,-0.0807394,0.0109863,0.0190735,0.0197983,-0.00125885,0.0154495,0.0118256,0.0240707,0.0168228,-9.97986,0.0167847,-0.00244141,0.013237,0.0106812,0.0088501,-0.00362396,0.0299454,0.00617981
24,8,10.0097,-0.000610352,0.000305176,-2.42623,0.055681,-0.0738423,0.0532125,0.0697496,-0.0900947,0.147149,-0.125156,-0.0819601,0.014267,0.0223923,0.0185013,0.000228882,0.0150299,0.0141144,0.0244522,0.0183487,-9.97986,0.0113678,-0.00518799,0.0164032,0.0102997,0.0114441,-0.00236511,0.0345612,0.00816345
24,9,10.0097,-0.000305176,0.000457764,-2.42531,0.0562914,-0.0741475,0.0535176,0.0712755,-0.0903999,0.148675,-0.124546,-0.0813497,0.00980377,0.0224304,0.017662,-0.00106812,0.0136185,0.00804901,0.0163269,0.017395,-9.97986,0.0173187,-0.00106812,0.0135422,0.00774384,0.0112534,-0.00606537,0.0277328,0.00507355
25,0,10.0097,-0.000915527,-0.000457764,-2.42592,0.0572069,-0.0735371,0.0535176,0.049608,-0.0946723,0.145013,-0.126072,-0.0825704,0.00965118,0.0178146,0.0192642,-0.00595093,0.0165939,0.0150299,0.0210953,0.0196457,-9.97986,0.0167084,-0.00144958,0.0102997,0.00946045,0.00904083,-0.00423431,0.0305176,0.00511169
25,1,9.23818,0.000915527,-0.000915527,-2.42531,0.0562914,-0.0723164,0.0535176,0.0462511,-0.0928413,0.146844,-0.126377,-0.0813497,0.0160599,0.0204849,0.0178528,-0.013237,0.0148392,0.00869751,0.0217819,0.0191879,-9.97986,0.0141144,0.000457764,0.0123978,0.0121689,0.0133896,-0.00648499,0.0304794,0.00709534
25,2,8.05715,0.00152588,-0.000610352,-2.42501,0.0559862,-0.075063,0.054128,0.054796,-0.0922309,0.146234,-0.126072,-0.0807394,0.0111389,0.018425,0.0206757,-0.0215912,0.00980377,0.00926971,0.0205231,0.0144577,-9.97986,0.0172424,-0.00205994,0.0125122,0.00667572,0.0128555,-0.00892639,0.0291824,0.00392914
25,3,7.85878,-0.000305176,-0.000457764,-2.42684,0.0559862,-0.0744527,0.0532125,0.0639513,-0.0922309,0.145624,-0.126072,-0.0825704,0.0127029,0.0237656,0.0201035,-0.0217438,0.0183105,0.00858307,0.0209808,0.0201416,-9.97986,0.0136948,-0.00175476,0.0162125,0.0123978,0.014801,-0.00205994,0.0304413,0.00762939
25,4,8.07942,0.000610352,0.000762939,-2.42653,0.0553758,-0.0747579,0.0550435,0.0715807,-0.0922309,0.145013,-0.124546,-0.0828756,0.00904083,0.0215912,0.0167847,-0.0297165,0.0139236,0.00984192,0.0245667,0.0152206,-9.97986,0.0120544,0.00335693,0.0193787,0.0109863,0.0157928,-0.00488281,0.027771,0.0121689
25,5,9.76735,-0.000305176,0.000762939,-2.42684,0.0547655,-0.0744527,0.054128,0.0932482,-0.0900947,0.144403,-0.125156,-0.0834859,0.00869751,0.0194931,0.0159836,0.00171661,0.0140381,0.00469208,0.0209045,0.0185394,-9.97986,0.00743866,-0.00450134,0.0131607,0.00286102,0.00892639,-0.0121307,0.0253296,0.00514984
25,6,10.0097,0.000915527,0.000610352,-2.42959,0.0553758,-0.0768941,0.0519917,0.0914171,-0.0931465,0.144098,-0.126377,-0.085317,0.00862122,0.0229645,0.0193405,0.0518036,0.0154114,0.0173569,0.0217056,0.0169373,-9.97986,0.0154877,-0.0038147,0.0179291,0.0117493,0.0137711,-0.00591278,0.0318146,0.0113297
25,7,10.0097,-0.000915527,0.000305176,-2.42989,0.0529344,-0.0756734,0.0516866,0.0776842,-0.0949775,0.144403,-0.125766,-0.0871481,0.0120544,0.0209427,0.0150299,0.0684357,0.0133514,0.0094223,0.0246429,0.0155258,-9.97986,0.0187302,-0.0012207,0.0127411,0.0087738,0.0127792,-0.00862122,0.0274277,0.00617981
25,8,10.0097,-0.000610352,-0.000305176,-2.42898,0.0547655,-0.0744527,0.0522969,0.0724962,-0.0943672,0.143182,-0.126682,-0.0871481,0.00976563,0.0252914,0.019455,0.0749969,0.0127029,0.01194,0.0220871,0.0239182,-9.97986,0.0113678,-0.00465393,0.0147629,0.00984192,0.0127792,-0.00782013,0.0270844,0.00930786
25,9,10.0097,0.00152588,0,-2.42989,0.0544603,-0.0759786,0.0529073,0.0706652,-0.0943672,0.144403,-0.126987,-0.0868429,0.0136185,0.0244141,0.0218582,0.0515747,0.0157928,0.0106049,0.0230408,0.0232697,-9.97986,0.0150299,-0.00488281,0.0168228,0.0122452,0.0180054,-0.00408173,0.0288391,0.00957489
26,0,10.0097,-0.000305176,0,-2.42928,0.0544603,-0.0759786,0.0526021,0.0685289,-0.0952827,0.144098,-0.126072,-0.0865377,0.0120926,0.0248337,0.0225067,0.0125122,0.0167084,0.00679016,0.0222015,0.0193787,-9.97986,0.0147247,0.00167847,0.0139236,0.00793457,0.0139618,-0.00694275,0.0260162,0.00988007
26,1,10.0097,0.000305176,-0.000610352,-2.42867,0.0544603,-0.0747579,0.050771,0.0688341,-0.094062,0.143792,-0.126987,-0.0859274,0.0107956,0.0230789,0.0222015,0.0168228,0.0208664,0.0112534,0.0192642,0.0181961,-9.97986,0.0147247,-0.00114441,0.0130844,0.00659943,0.0153351,-0.00469208,0.0302505,0.00717163
26,2,10.0097,0.00183105,0.000457764,-2.42776,0.0538499,-0.0756734,0.0529073,0.0685289,-0.0931465,0.145013,-0.126072,-0.0859274,0.0130081,0.0305939,0.0214767,0.0369644,0.017662,0.0123596,0.0225067,0.018959,-9.97986,0.0167084,-0.000534058,0.0138474,0.00396729,0.0142288,-0.00667572,0.0276947,0.00934601
26,3,10.0097,0.000610352,0.000152588,-2.42745,0.0550706,-0.075063,0.0526021,0.0688341,-0.0934516,0.143792,-0.126377,-0.0847066,0.0117874,0.0268555,0.0226974,0.0414276,0.01091,0.00984192,0.0185776,0.0163269,-9.97986,0.0160599,-0.00236511,0.0127411,0.00713348,0.0125885,-0.0164795,0.0233459,0.00991821
26,4,10.0097,0,-0.000152588,-2.42684,0.0559862,-0.0756734,0.0544332,0.0706652,-0.0952827,0.144708,-0.125156,-0.0844015,0.0120926,0.0331879,0.0278473,0.0457001,0.0179291,0.0146103,0.0198364,0.0218964,-9.97986,0.0143051,0,0.0157547,0.00812531,0.0106049,-0.0202942,0.0260544,0.0104904
26,5,10.0097,0.00152588,0,-2.42623,0.0541551,-0.0744527,0.0538228,0.0709703,-0.0922309,0.146844,-0.125461,-0.0825704,0.01297,0.0318527,0.0245667,0.0322342,0.0157547,0.0118637,0.0204849,0.0207901,-9.97986,0.0127029,0.000305176,0.0105286,0.00617981,0.0136566,-0.022049,0.023613,0.0130463
26,6,10.0097,0.00183105,0.000457764,-2.42562,0.0569017,-0.0729268,0.0547383,0.0694445,-0.090705,0.145624,-0.125156,-0.0819601,0.0112534,0.0323486,0.0235748,0.0354004,0.0175476,0.0147629,0.0222015,0.0200653,-9.97986,0.0163651,-0.00480652,0.0131607,0.0140381,0.0164032,-0.0230408,0.0247192,0.011673
26,7,10.0097,0,0.000305176,-2.4244,0.0559862,-0.0738423,0.0556539,0.0715807,-0.0910102,0.146234,-0.124546,-0.0813497,0.0106812,0.0323486,0.0264359,0.0336838,0.0185394,0.0149536,0.0250244,0.022049,-9.97986,0.0189972,-0.00118256,0.0168228,0.00904083,0.0139236,-0.0141907,0.0270462,0.00976563
26,8,10.0097,-0.000610352,0,-2.42684,0.0572069,-0.0744527,0.0538228,0.0712755,-0.0925361,0.147149,-0.123935,-0.0810445,0.013504,0.0337982,0.0192261,0.0298309,0.0181198,0.0144196,0.0237274,0.0185394,-9.97986,0.0170135,-0.00179291,0.0117493,0.0082016,0.013237,-0.014801,0.0239563,0.00926971
26,9,10.0097,0.0012207,0.000762939,-2.42531,0.0553758,-0.073232,0.055959,0.0712755,-0.0919257,0.147455,-0.12363,-0.0807394,0.0101852,0.0267792,0.0166702,0.0273514,0.0141144,0.0179291,0.0237656,0.0150299,-9.97986,0.0155258,-0.0030899,0.0158691,0.00976563,0.0180054,-0.00579834,0.0223923,0.0100708
27,0,10.0097,0,-0.000457764,-2.42714,0.0550706,-0.0744527,0.0535176,0.049608,-0.0965034,0.147455,-0.125766,-0.0822652,0.0114059,0.0281143,0.0122452,0.0199127,0.0157547,0.0144958,0.0242615,0.0160217,-9.97986,0.0195694,0.000495911,0.0124741,0.00961304,0.0168991,-0.00614166,0.0277328,0.0111771
27,1,9.34926,-0.00213623,-0.00152588,-2.42562,0.0562914,-0.0735371,0.0544332,0.0471666,-0.0925361,0.146539,-0.126072,-0.0822652,0.0124359,0.0265121,0.00980377,0.0209427,0.0156021,0.0159454,0.02491,0.014534,-9.97986,0.0160217,-0.00087738,0.0169754,0.0088501,0.0174713,-0.00404358,0.0248718,0.0120926
27,2,8.19203,0,-0.000610352,-2.42562,0.055681,-0.0744527,0.0535176,0.0551012,-0.0922309,0.145624,-0.126072,-0.0819601,0.010376,0.0263214,0.00930786,0.0189972,0.0173187,0.0170135,0.0195694,0.0104904,-9.97986,0.018158,-0.00293732,0.013504,0.00782013,0.0166321,-0.00598907,0.022316,0.0111008
27,3,7.98329,-0.000610352,0.000305176,-2.42592,0.0553758,-0.0744527,0.0538228,0.0639513,-0.0916206,0.145318,-0.126682,-0.0828756,0.0106812,0.0246048,0.00476837,0.0198746,0.015564,0.0120544,0.0236893,0.0185394,-9.97986,0.0199127,3.8147e-005,0.0130081,0.00774384,0.0193787,-0.0056839,0.0219345,0.0128174
27,4,8.20394,0.00152588,0.000152588,-2.42592,0.0553758,-0.0753682,0.054128,0.0709703,-0.0928413,0.145013,-0.124546,-0.0831808,0.0139236,0.0227737,0.0101471,0.0189972,0.0181198,0.0176239,0.0243378,0.0136948,-9.97986,0.0207901,-0.00102997,0.0135422,0.00904083,0.0178146,-0.00038147,0.0215912,0.0111389
27,5,9.89797,0,0.00183105,-2.42684,0.0547655,-0.075063,0.0553487,0.0932482,-0.0897895,0.143182,-0.124546,-0.0834859,0.0100327,0.0236893,0.013504,0.0174332,0.0155258,0.0185394,0.0260162,0.0153732,-9.97986,0.0149536,-0.00362396,0.0138474,0.0136566,0.018158,-0.000724792,0.0233459,0.00717163
27,6,10.0097,0,0.00198364,-2.42898,0.0541551,-0.0765889,0.0522969,0.0901964,-0.0937568,0.144708,-0.125766,-0.0862325,0.0138092,0.0209427,0.0151443,0.0151825,0.0195313,0.0187683,0.0235367,0.0157166,-9.97986,0.0195694,-0.00305176,0.0144577,0.00953674,0.0147629,-0.00205994,0.0204086,0.00919342
27,7,10.0097,0.000915527,-0.000305176,-2.42867,0.0538499,-0.0762837,0.0522969,0.0761583,-0.0952827,0.142877,-0.127903,-0.0868429,0.0128555,0.0194931,0.0136566,0.00934601,0.0150681,0.0181961,0.0215149,0.0159073,-9.97986,0.015831,-0.00366211,0.012207,0.00808716,0.017395,0.000267029,0.024147,0.0101471
27,8,10.0097,0.000610352,0.000305176,-2.42806,0.0535448,-0.0768941,0.0516866,0.0709703,-0.0937568,0.143487,-0.126377,-0.0859274,0.00999451,0.0197601,0.0160217,0.0134277,0.0163269,0.0201797,0.0260925,0.0181198,-9.97986,0.0142288,-0.00270844,0.0153732,0.00965118,0.0149155,-0.00301361,0.0185776,0.00717163
27,9,10.0097,0.000305176,-0.000305176,-2.43081,0.0547655,-0.0762837,0.0516866,0.0700548,-0.095893,0.143182,-0.128208,-0.0868429,0.0170135,0.0233841,0.0183868,0.0160217,0.0224304,0.021286,0.02285,0.0196457,-9.97986,0.0172424,-0.000190735,0.0195694,0.013504,0.0182343,0.00106812,0.0209808,0.0104904
28,0,10.0097,0.00366211,-0.000762939,-2.42928,0.0535448,-0.075063,0.0526021,0.0691393,-0.0949775,0.144098,-0.127903,-0.0871481,0.0117874,0.0145721,0.0142288,0.0103378,0.0160217,0.0179672,0.0199127,0.0197601,-9.97986,0.0126648,-0.00644684,0.0136948,0.0107574,0.0170517,-0.00385284,0.015564,0.00713348
28,1,10.0097,0.00152588,-0.000762939,-2.42837,0.0538499,-0.0756734,0.0532125,0.0697496,-0.0943672,0.142877,-0.127598,-0.0871481,0.011673,0.0221634,0.0188065,0.0166702,0.0234604,0.0231934,0.0270081,0.019722,-9.97986,0.0125504,-0.00621796,0.0130463,0.0134659,0.0169373,0.00087738,0.0181961,0.0104523
28,2,10.0097,0.0012207,-0.000457764,-2.42837,0.0532396,-0.075063,0.0535176,0.0697496,-0.0943672,0.145013,-0.126987,-0.0856222,0.00595093,0.0207901,0.0162506,0.0115204,0.0189209,0.0210571,0.0242996,0.0166702,-9.97986,0.0128174,-0.0025177,0.0146484,0.0104523,0.014534,0.00312805,0.0163651,0.00583649
28,3,10.0097,-0.000610352,0.000610352,-2.42745,0.0544603,-0.0738423,0.0538228,0.0691393,-0.0943672,0.144403,-0.125461,-0.0850118,0.00991821,0.0159073,0.0169754,0.0121689,0.0110626,0.0204468,0.026474,0.0172806,-9.97986,0.0169373,-0.00427246,0.0131989,0.00999451,0.0155258,-0.0038147,0.014534,0.0069046
28,4,10.0097,-0.000305176,0.000457764,-2.42684,0.0550706,-0.0747579,0.0522969,0.0724962,-0.0922309,0.144708,-0.125766,-0.0834859,0.0113297,0.0224686,0.0171661,0.00789642,0.0177383,0.0244904,0.0225067,0.0143051,-9.97986,0.0123215,-0.00320435,0.0149155,0.0148392,0.0197601,-0.00835419,0.0156021,0.00728607
28,5,10.0097,0.000915527,0.000457764,-2.42562,0.055681,-0.0738423,0.0550435,0.0706652,-0.0919257,0.145624,-0.125461,-0.0834859,0.00984192,0.0207901,0.0199509,0.00762939,0.0159454,0.0214386,0.0222778,0.0167465,-9.97986,0.0170898,-0.00465393,0.0140762,0.0133133,0.0165176,-0.0159836,0.0119781,0.00610352
28,6,10.0097,0.000610352,0.000152588,-2.42562,0.0553758,-0.0747579,0.0544332,0.0694445,-0.0910102,0.147455,-0.124241,-0.0816549,0.0110626,0.0214767,0.0192261,0.0113297,0.0167465,0.0201416,0.0209808,0.0140762,-9.97986,0.0174713,-0.00720978,0.0131607,0.0136185,0.0177002,-0.0190735,0.0109482,0.00507355
28,7,10.0097,0.0012207,0.000152588,-2.42592,0.0559862,-0.073232,0.0550435,0.0712755,-0.0922309,0.145929,-0.125156,-0.0813497,0.0120926,0.0178146,0.0206757,0.00930786,0.0203705,0.0189209,0.0215149,0.0162506,-9.97986,0.0128174,-0.00366211,0.0156403,0.0141907,0.0146484,-0.0124741,0.0131989,0.00766754
28,8,10.0097,0,-0.000305176,-2.42501,0.0553758,-0.0735371,0.0547383,0.0709703,-0.0910102,0.146539,-0.125156,-0.0804342,0.00972748,0.0247192,0.0177002,0.00701904,0.0157166,0.0191116,0.0204849,0.0117493,-9.97986,0.0180817,-0.00534058,0.0105286,0.0194931,0.0134277,-0.01194,0.0101852,0.00629425
28,9,10.0097,-0.0012207,0.0012207,-2.42592,0.0565965,-0.075063,0.0553487,0.0706652,-0.0913154,0.146539,-0.124546,-0.0810445,0.00953674,0.0221634,0.0151062,0.00827789,0.0172043,0.0253296,0.019722,0.0185394,-9.97986,0.0156021,-0.00404358,0.0128937,0.0172043,0.017128,-0.0160599,0.0116348,0.00556946
29,0,10.0097,0.000610352,-0.000610352,-2.42745,0.0562914,-0.0747579,0.0526021,0.0480822,-0.0946723,0.145624,-0.125766,-0.0825704,0.0126266,0.02491,0.0197983,0.00583649,0.0218964,0.016098,0.0218582,0.0165939,-9.97986,0.0146866,-0.00427246,0.0156403,0.0194931,0.0194168,-0.0127792,0.00858307,0.0062561
29,1,9.20888,0,-0.00152588,-2.42592,0.0559862,-0.0735371,0.054128,0.04442,-0.0937568,0.144403,-0.124851,-0.0816549,0.0126266,0.0239563,0.0148773,0.0018692,0.0178528,0.019989,0.0203323,0.0162888,-9.97986,0.0155258,-0.00732422,0.0156403,0.0129318,0.0162506,-0.0117111,0.0107574,0.00629425
29,2,8.0306,0.0012207,-0.000457764,-2.42623,0.0559862,-0.0735371,0.0535176,0.0560167,-0.0925361,0.146234,-0.126072,-0.0822652,0.0102234,0.0268936,0.0187302,0.00637054,0.018692,0.0185013,0.0162125,0.017128,-9.97986,0.0138855,-0.00392914,0.0141907,0.0124359,0.0147247,-0.00881195,0.00747681,0.00675201
29,3,7.85573,0.000305176,0.000762939,-2.42501,0.0559862,-0.0744527,0.0553487,0.0648668,-0.0922309,0.145624,-0.126987,-0.0822652,0.0117874,0.0284195,0.0134277,0.00469208,0.0174713,0.0167847,0.017662,0.016098,-9.97986,0.0165558,-0.00114441,0.0128937,0.0169754,0.0171661,-0.0167465,0.0141144,0.00457764
29,4,8.06783,-0.0012207,0.000457764,-2.42745,0.055681,-0.0747579,0.054128,0.0715807,-0.0900947,0.145929,-0.125766,-0.0834859,0.0100708,0.0267029,0.0178528,0.00476837,0.021019,0.0167084,0.0166702,0.0202179,-9.97986,0.0167465,-0.00518799,0.0120926,0.0147247,0.0178146,-0.0151443,0.0131989,0.00549316
29,5,9.78536,0.0012207,0.000610352,-2.42714,0.0541551,-0.0744527,0.0544332,0.0935533,-0.0916206,0.144403,-0.12363,-0.0840963,0.0154114,0.0250244,0.0165176,0.00648499,0.0208282,0.016861,0.019989,0.0139236,-9.97986,0.014267,-0.00270844,0.0175858,0.017662,0.0187302,-0.0146103,0.013504,0.00770569
29,6,10.0097,0.000610352,0.0012207,-2.42806,0.0547655,-0.0753682,0.0513814,0.0908068,-0.0931465,0.14013,-0.126072,-0.085317,0.014267,0.0240707,0.018158,0.00553131,0.0248337,0.0166321,0.0168991,0.0134277,-9.97986,0.0169754,-0.00614166,0.0151825,0.0145721,0.0187683,-0.00514984,0.0166702,0.00522614
29,7,10.0097,0.000915527,0.000152588,-2.42989,0.0553758,-0.0756734,0.0519917,0.0770738,-0.0971137,0.143182,-0.127292,-0.0868429,0.0122833,0.0255966,0.0151062,0.00347137,0.0219345,0.0164795,0.0172424,0.0159073,-9.97986,0.0135803,-0.0056076,0.0188065,0.0149918,0.0192261,-0.00137329,0.0117493,0.00553131
29,8,10.0097,-0.000610352,0.000305176,-2.42776,0.0544603,-0.0768941,0.0522969,0.072191,-0.0952827,0.143792,-0.126682,-0.0862325,0.0133133,0.0218582,0.0171661,0.00156403,0.0214005,0.0166702,0.0162125,0.0167465,-9.97986,0.0158691,-0.00228882,0.0159454,0.0157166,0.0165176,-0.00423431,0.0114441,0.00377655
29,9,10.0097,0.000610352,-0.000762939,-2.42898,0.0538499,-0.0759786,0.0519917,0.0682238,-0.0949775,0.146234,-0.127292,-0.0880636,0.00953674,0.0186157,0.0160599,0.00175476,0.0182724,0.0151443,0.0168228,0.0164413,-9.97986,0.0118637,-0.00217438,0.0169754,0.0135422,0.0165939,-0.000228882,0.0172043,0.00659943
30,0,10.0097,-0.000915527,-0.000610352,-2.42837,0.0526292,-0.0753682,0.0516866,0.0691393,-0.0955879,0.143487,-0.127598,-0.0868429,0.0112915,0.016861,0.020256,0.00682831,0.0223923,0.0104523,0.0248718,0.0176239,-9.97986,0.0115967,-0.00431061,0.0160599,0.0134659,0.019455,0.00652313,0.0184631,0.00518799
30,1,10.0097,0.00152588,0,-2.42837,0.0544603,-0.0747579,0.0519917,0.07036,-0.0928413,0.143487,-0.126072,-0.0868429,0.013237,0.0257492,0.0164413,0.00434875,0.0207901,0.0172043,0.0229263,0.0179291,-9.97986,0.0138474,-0.000343323,0.0173187,0.0133133,0.0167084,0.00862122,0.0151825,0.0056839
30,2,10.0097,0.00183105,0,-2.42745,0.0544603,-0.075063,0.054128,0.0697496,-0.0928413,0.140436,-0.126682,-0.0856222,0.0110626,0.0255585,0.0222778,0.0018692,0.0230408,0.0133133,0.0196075,0.0143814,-9.97986,0.0136566,-0.00366211,0.0162125,0.0119781,0.0190353,0.0120926,0.0175858,0.00648499
30,3,10.0097,0.000305176,0.000305176,-2.42776,0.0544603,-0.0741475,0.0522969,0.0694445,-0.0931465,0.144708,-0.125461,-0.0837911,0.0145721,0.0244904,0.0222778,0.00720978,0.0238037,0.0157166,0.0246048,0.0207901,-9.97986,0.0175095,-0.00617981,0.0140762,0.0125504,0.0175095,0.0109482,0.0209427,0.00785828
30,4,10.0097,-0.00183105,0,-2.42714,0.0544603,-0.0756734,0.0535176,0.0691393,-0.0931465,0.144708,-0.125766,-0.0840963,0.0141907,0.0218201,0.0170135,0.00530243,0.0238419,0.0159454,0.0234604,0.0191498,-9.97986,0.00816345,-0.0030899,0.0149918,0.0122452,0.0167465,0.00900269,0.018158,0.00778198
30,5,10.0097,0.00183105,0.000152588,-2.42592,0.0559862,-0.0729268,0.0532125,0.07036,-0.0919257,0.143792,-0.124241,-0.0816549,0.0152588,0.0219727,0.021286,0.0100327,0.0239944,0.0133133,0.02491,0.0184631,-9.97986,0.0149536,0.00465393,0.0171661,0.00762939,0.0192261,0.00846863,0.0233078,0.00545502
30,6,10.0097,-0.0012207,0.000610352,-2.42501,0.0565965,-0.0738423,0.054128,0.0706652,-0.0919257,0.146234,-0.124546,-0.0819601,0.0165558,0.0179291,0.0191498,0.00682831,0.019989,0.0120926,0.0166702,0.0239944,-9.97986,0.01297,-0.00244141,0.0171661,0.00595093,0.0160599,0.00736237,0.0188828,0.00431061
30,7,10.0097,0.000305176,-0.000305176,-2.4244,0.0562914,-0.0747579,0.0547383,0.07036,-0.0925361,0.14776,-0.124241,-0.0810445,0.0102997,0.0202179,0.0172424,0.00598907,0.0191116,0.01297,0.0220871,0.0225067,-9.97986,0.0094223,-0.00377655,0.0169754,0.00923157,0.0180054,0.0038147,0.0179672,0.00217438
30,8,10.0097,0.0012207,-0.000457764,-2.42623,0.0553758,-0.073232,0.0544332,0.0709703,-0.0931465,0.149896,-0.125156,-0.0810445,0.0108719,0.0188446,0.024147,0.00930786,0.019455,0.0117111,0.0226212,0.0167465,-9.97986,0.0126648,0.00404358,0.0175095,0.00465393,0.0171661,-0.00106812,0.0167465,0.00492096
30,9,10.0097,0.0012207,0.000610352,-2.42501,0.0565965,-0.0738423,0.055959,0.0697496,-0.0900947,0.148065,-0.123325,-0.0810445,0.0166702,0.0216675,0.0213242,0.00793457,0.020256,0.0167084,0.0207138,0.0154877,-9.97986,0.0119781,0.00148773,0.0188446,0.00862122,0.0181961,-0.00228882,0.0189209,-0.000534058
31,0,10.0097,-0.0012207,-0.000152588,-2.42653,0.0565965,-0.0744527,0.0535176,0.0499132,-0.0955879,0.145624,-0.125766,-0.0819601,0.0147629,0.0230408,0.0205994,0.0105286,0.0209427,0.0130081,0.0205612,0.0194931,-9.97986,0.0119781,-0.000190735,0.0156021,0.0069809,0.0163269,-0.00114441,0.0216293,0.00114441
31,1,9.35719,0.000915527,-0.00198364,-2.42501,0.0559862,-0.0747579,0.0544332,0.0453356,-0.0934516,0.146844,-0.126072,-0.0804342,0.013237,0.0172043,0.0185394,0.00850677,0.0194931,0.0134659,0.017128,0.0210953,-9.97986,0.0139618,0.00167847,0.00900269,0.00152588,0.0168228,-0.00659943,0.0157547,-0.00240326
31,2,8.19173,-0.000915527,-0.00137329,-2.42623,0.055681,-0.0738423,0.054128,0.0551012,-0.0922309,0.145624,-0.126377,-0.0822652,0.0134659,0.0198746,0.0196838,0.00904083,0.0206375,0.0120926,0.0204468,0.0194168,-9.97986,0.0124741,0.00328064,0.01297,0.0044632,0.0141144,-0.00175476,0.0146866,0.000228882
31,3,7.97139,0.0012207,0.000152588,-2.42592,0.0559862,-0.0738423,0.054128,0.0639513,-0.0922309,0.145624,-0.125766,-0.0822652,0.0143814,0.0172043,0.0229263,0.0056839,0.0185013,0.0132751,0.0194168,0.0240326,-9.97986,0.0153351,0.00640869,0.0131607,0.00228882,0.0181961,0.00289917,0.0144577,-0.00259399
31,4,8.18685,0,0.00106812,-2.42714,0.0547655,-0.075063,0.0547383,0.0724962,-0.0916206,0.144403,-0.125461,-0.0834859,0.0104523,0.0160599,0.021286,0.00617981,0.0163651,0.010643,0.0149918,0.0214767,-9.97986,0.0145721,0.00339508,0.0136185,0.00228882,0.0157547,0.00526428,0.0153732,-0.00419617
31,5,9.88698,0.000305176,0.00106812,-2.42623,0.0532396,-0.0756734,0.0550435,0.0938585,-0.0910102,0.145624,-0.12302,-0.0837911,0.0120926,0.0198746,0.0204849,0.00713348,0.0216293,0.013237,0.0172806,0.0224686,-9.97986,0.0132751,0.00434875,0.0174332,0.0056076,0.013237,0.00686646,0.0172043,-0.00236511
31,6,10.0097,0.00152588,0.00137329,-2.42867,0.0541551,-0.0768941,0.0535176,0.0905016,-0.0949775,0.143487,-0.126682,-0.0862325,0.0139618,0.0194931,0.0215912,0.0111389,0.0204086,0.0174332,0.019722,0.0244522,-9.97986,0.0152588,-0.00217438,0.0190353,0.00240326,0.0150299,0.00534058,0.0154495,-0.00221252
31,7,10.0097,0.000305176,0.000915527,-2.4302,0.0538499,-0.0759786,0.0516866,0.075548,-0.0952827,0.143487,-0.126682,-0.0868429,0.0117874,0.0139618,0.0196838,0.0106812,0.0162888,0.0101089,0.0179291,0.0204849,-9.97986,0.0127029,0.00473022,0.0107574,0.0038147,0.0127411,0.00160217,0.0169373,-0.00514984
31,8,10.0097,-0.000610352,0,-2.42928,0.0544603,-0.0765889,0.0519917,0.0718859,-0.0955879,0.143792,-0.127598,-0.0865377,0.00995636,0.0170135,0.0190353,0.0104904,0.0181961,0.0108719,0.0239182,0.021019,-9.97986,0.014267,0.00305176,0.0139999,0.00312805,0.0197983,0.00190735,0.0153732,-0.0038147
31,9,10.0097,0.000610352,0,-2.42928,0.0529344,-0.0771993,0.0526021,0.0694445,-0.0952827,0.143792,-0.128818,-0.0871481,0.01091,0.0170135,0.0192261,0.00988007,0.0148773,0.00808716,0.0243378,0.0212479,-9.97986,0.0170135,-0.000762939,0.0125122,0.000343323,0.0181198,7.62939e-005,0.0109482,-0.00343323
32,0,10.0097,0.00183105,-0.000762939,-2.42867,0.0529344,-0.0756734,0.0510762,0.0688341,-0.0955879,0.143487,-0.127292,-0.0868429,0.0121689,0.0181198,0.0172043,0.0118637,0.0180435,0.00743866,0.0267029,0.0256348,-9.97986,0.0141907,0.00347137,0.0131989,0.00213623,0.0147247,0.00133514,0.0166702,0.00156403
32,1,10.0097,0.00152588,-0.000305176,-2.42867,0.0535448,-0.0747579,0.0529073,0.07036,-0.0934516,0.145929,-0.128208,-0.0865377,0.00404358,0.0180054,0.0142288,0.00797272,0.0134659,0.00549316,0.0301361,0.0282288,-9.97986,0.0144958,0.00171661,0.0178909,0.00125885,0.0154877,0.0018692,0.0157547,3.8147e-005
32,2,10.0097,-0.000305176,-0.000305176,-2.42714,0.0544603,-0.0744527,0.0535176,0.0697496,-0.0943672,0.144098,-0.127292,-0.0856222,0.000228882,0.02285,0.0153732,0.0101089,0.0181198,0.0121689,0.0236511,0.032196,-9.97986,0.0120926,0.00202179,0.00984192,-0.00217438,0.0102234,-0.00236511,0.00934601,0.00274658
32,3,10.0097,0.000610352,0.000305176,-2.42684,0.0541551,-0.0747579,0.0529073,0.07036,-0.0922309,0.144098,-0.126072,-0.0844015,0.00442505,0.0178528,0.0139999,0.0110245,0.0186539,0.00904083,0.0248337,0.0301361,-9.97986,0.0156784,0.00675201,0.0149155,0.00263214,0.0128555,-0.00240326,0.0100708,0.00404358
32,4,10.0097,0.000915527,0.000152588,-2.42714,0.0550706,-0.0747579,0.0550435,0.0688341,-0.0934516,0.144708,-0.125766,-0.0840963,0.00793457,0.0240326,0.0173187,0.010376,0.0157166,0.0120163,0.0236511,0.031929,-9.97986,0.0147247,0.00549316,0.015831,-0.000572205,0.0160599,0.00198364,0.0102997,0.0030899
32,5,10.0097,0.00152588,-0.000305176,-2.42562,0.055681,-0.0744527,0.054128,0.0712755,-0.0922309,0.145929,-0.125156,-0.0831808,0.0174332,0.0240326,0.0174713,0.0117111,0.0166321,0.00370026,0.0174713,0.0329971,-9.97986,0.0148773,0.00492096,0.0114822,-0.00106812,0.013237,0.00144958,0.0114822,0.00621796
32,6,10.0097,0.000305176,0.000305176,-2.42623,0.0569017,-0.0747579,0.0544332,0.0715807,-0.0922309,0.145929,-0.124546,-0.0810445,0.0037384,0.0253677,0.0210571,0.0114441,0.015831,0.00923157,0.0186539,0.0261688,-9.97986,0.0094223,0.00038147,0.0164795,0.00465393,0.0152206,0.00576019,0.0117493,0.00724792
32,7,10.0097,0.000915527,0.000610352,-2.42562,0.0569017,-0.0741475,0.0547383,0.0715807,-0.090705,0.146539,-0.124241,-0.0810445,-0.0113297,0.0325394,0.0210953,0.0105286,0.018425,0.0113297,0.0223923,0.0273895,-9.97986,0.0149536,0.00335693,0.0160217,0.00400543,0.0175858,0.00312805,0.00995636,0.00865936
32,8,10.0097,-0.000305176,-0.000152588,-2.42562,0.0562914,-0.073232,0.0544332,0.0715807,-0.0922309,0.145624,-0.124851,-0.0810445,-0.0152206,0.0284195,0.0231552,0.0102615,0.0144577,0.00831604,0.0258255,0.0153351,-9.97986,0.0104523,0.00488281,0.0157547,0.00133514,0.0161362,0.00087738,0.0106049,0.0101089
32,9,10.0097,0.000305176,0.000457764,-2.42592,0.0562914,-0.0738423,0.0547383,0.0709703,-0.0903999,0.145624,-0.12363,-0.0807394,-0.0221252,0.030899,0.0247955,0.00976563,0.015564,0.00385284,0.0190353,0.00736237,-9.97986,0.0101089,0.00514984,0.0133514,0.00362396,0.015831,0.00492096,0.0144958,0.0104141
33,0,10.0097,-0.000305176,-0.00106812,-2.42684,0.0547655,-0.0738423,0.0529073,0.0474718,-0.0946723,0.145624,-0.125766,-0.0813497,-0.00225067,0.0296402,0.0317764,0.0130081,0.0111771,0.00267029,0.0196457,0.00328064,-9.97986,0.0128174,0.00530243,0.0115967,0.00198364,0.0176239,0.00324249,0.0126648,0.0100708
33,1,9.06178,0.00152588,-0.00152588,-2.42592,0.055681,-0.0738423,0.0550435,0.0462511,-0.0937568,0.147455,-0.126072,-0.0810445,0.00904083,0.0310516,0.0338745,0.0124741,0.01297,0.00286102,0.0231171,7.62939e-005,-9.97986,0.00679016,0.00362396,0.0169373,-0.00244141,0.0164795,0.00148773,0.0121689,0.0127411
33,2,7.91402,-0.000305176,-0.000457764,-2.42531,0.055681,-0.0741475,0.0547383,0.0541857,-0.0937568,0.145318,-0.125461,-0.0819601,0.00106812,0.0348282,0.0362396,0.0138474,0.0114822,0.00972748,0.0269318,0.00270844,-9.97986,0.0107574,0.000686646,0.0144196,0.00164032,0.0153732,-0.00541687,0.0125885,0.01297
33,3,7.69033,0.000305176,0.000305176,-2.42623,0.0550706,-0.0753682,0.0547383,0.0642565,-0.0919257,0.146844,-0.126072,-0.0828756,0.00400543,0.0288773,0.0306702,0.0122452,0.0133133,0.00522614,0.0291824,-0.000686646,-9.97986,0.001297,0.0043869,0.0165176,-0.00144958,0.0195313,-0.0157928,0.0119019,0.0174332
33,4,7.86031,0.0012207,0.000457764,-2.42623,0.0562914,-0.075063,0.0538228,0.0709703,-0.0916206,0.144403,-0.125766,-0.0831808,0.0410461,0.0329971,0.0309372,0.0143051,0.0176239,0.00549316,0.0309372,0.00854492,-9.97986,-0.00404358,0.00442505,0.0147247,-0.00293732,0.022049,-0.0148392,0.0140381,0.0144196
33,5,9.51711,-0.000305176,0.00152588,-2.42776,0.0544603,-0.0744527,0.0553487,0.0935533,-0.090705,0.144403,-0.124851,-0.0837911,0.0566483,0.0310135,0.0243759,0.0124359,0.0172806,0.00644684,0.0285339,0.00488281,-9.97986,-0.0170898,0.00278473,0.0121307,-0.000267029,0.0201035,-0.00320435,0.0156021,0.0156784
33,6,10.0097,0,0.00167847,-2.42898,0.0550706,-0.0762837,0.0529073,0.0914171,-0.0949775,0.144403,-0.125156,-0.0862325,0.0351715,0.0272369,0.0184631,0.00804901,0.0231171,0.00328064,0.0285721,0.0104523,-9.97986,-0.0161743,0.00473022,0.014534,0.00179291,0.019722,-0.00286102,0.0131989,0.01297
33,7,10.0097,-0.000915527,0.0012207,-2.42928,0.0532396,-0.0756734,0.0516866,0.075548,-0.0943672,0.142572,-0.126682,-0.0865377,0.00843048,0.0185394,0.00900269,0.0149155,0.0204086,0.00213623,0.0308228,0.0130844,-9.97986,-0.0221252,0.00812531,0.0148392,-0.000953674,0.0224686,-0.000114441,0.0183487,0.0156021
33,8,10.0097,0.000610352,0.000457764,-2.42806,0.0541551,-0.0759786,0.0513814,0.0724962,-0.0946723,0.143792,-0.126072,-0.0865377,0.00293732,0.0182724,0.00785828,0.0102615,0.0211334,0.00740051,0.0272369,0.014801,-9.97986,-0.019989,0.00312805,0.016861,-0.00125885,0.0200653,-0.00427246,0.0175476,0.0141907
33,9,10.0097,0.00152588,-0.000305176,-2.42959,0.0532396,-0.0756734,0.0519917,0.0712755,-0.0946723,0.144098,-0.127903,-0.0862325,0.0044632,0.0150299,0.00514984,0.00526428,0.0194931,0.00812531,0.0300598,0.0146484,-9.97986,-0.0102234,0.00526428,0.012207,0.00289917,0.0242996,-0.000991821,0.0164795,0.013237
34,0,10.0097,-0.000305176,-0.000762939,-2.42959,0.0538499,-0.075063,0.0522969,0.0697496,-0.0955879,0.142267,-0.127903,-0.0874532,0.0120544,0.0113678,0.00133514,0.00671387,0.0182724,0.00972748,0.0221252,0.0151825,-9.97986,0.00789642,0.00354767,0.0176239,-0.00118256,0.0206757,0.00576019,0.0167847,0.0112915
34,1,10.0097,-0.000610352,-0.000762939,-2.42806,0.0544603,-0.0753682,0.0519917,0.0697496,-0.0946723,0.142267,-0.126987,-0.0862325,0.0111771,0.00724792,-0.00038147,0.00759125,0.0247574,0.00530243,0.0269318,0.0191498,-9.97986,0.0157166,0.00183105,0.0171661,0.00183105,0.0209045,0.00774384,0.0139236,0.0112915
34,2,10.0097,0.00274658,-0.000305176,-2.42898,0.055681,-0.075063,0.0522969,0.0688341,-0.0937568,0.145318,-0.126072,-0.085317,0.0132751,0.0116348,0.00617981,0.0112152,0.0228882,0.00324249,0.0246429,0.0178146,-9.97986,0.0256348,0.00434875,0.0127411,0.00408173,0.0175858,0.00793457,0.0180435,0.0134659
34,3,10.0097,0,0.000152588,-2.42714,0.0547655,-0.0735371,0.0535176,0.07036,-0.094062,0.145318,-0.126072,-0.0850118,0.0165939,0.00572205,0.00476837,0.00743866,0.0144196,0.00461578,0.0281143,0.0139999,-9.97986,0.0338745,0.00411987,0.0178909,0.00255585,0.0188065,0.00518799,0.0183105,0.0141144
34,4,10.0097,0.000915527,0.000305176,-2.42714,0.0547655,-0.0753682,0.0544332,0.0697496,-0.094062,0.144098,-0.126377,-0.0844015,0.0101089,0.0127792,0.00267029,0.00926971,0.0208282,0.00679016,0.0214767,0.0154114,-9.97986,0.0333405,0.00202179,0.018959,0.00087738,0.0176239,-0.0012207,0.0193787,0.0134277
34,5,10.0097,0,0.000457764,-2.42562,0.055681,-0.0729268,0.054128,0.0709703,-0.0922309,0.145318,-0.125156,-0.0828756,0.0137329,0.014534,0.0108337,0.0106812,0.0161362,0.00457764,0.0239944,0.0177383,-9.97986,0.0386047,-0.00289917,0.0154877,-0.00118256,0.0151825,0,0.0191879,0.00919342
34,6,10.0097,0.000610352,0.000305176,-2.42562,0.0569017,-0.0735371,0.0547383,0.0712755,-0.0931465,0.146234,-0.124851,-0.0819601,0.017395,0.0108337,0.00583649,0.0117874,0.015831,0.00133514,0.0228882,0.0165939,-9.97986,0.0361252,0.00362396,0.0162888,-0.00171661,0.0144196,0.00652313,0.0206375,0.010643
34,7,10.0097,0.000610352,0.000305176,-2.42562,0.0562914,-0.0735371,0.0562642,0.0712755,-0.0910102,0.147455,-0.124851,-0.0804342,0.0120544,0.0164795,0.0139236,0.0114441,0.0188065,-0.000228882,0.0209427,0.0152969,-9.97986,0.028801,0.001297,0.0169754,-0.0019455,0.0143433,-0.00114441,0.0200653,0.00644684
34,8,10.0097,0.000915527,0.000457764,-2.42562,0.0569017,-0.0744527,0.0556539,0.0712755,-0.0916206,0.147149,-0.124241,-0.0816549,0.0144958,0.015564,0.00946045,0.0121307,0.0175095,0.0056839,0.022583,0.0141144,-9.97986,0.0362778,0.00335693,0.015831,0.00209808,0.0151443,-0.00354767,0.0180817,0.00808716
34,9,10.0097,-0.000305176,0,-2.42531,0.0559862,-0.073232,0.0550435,0.0715807,-0.0913154,0.145929,-0.123325,-0.0813497,0.0111771,0.0210571,0.00999451,0.00965118,0.0197983,0.00602722,0.0283432,0.0182724,-9.97986,0.0362396,0.00278473,0.0154495,-0.00240326,0.0112152,-0.000953674,0.0164413,0.00770569
35,0,10.0097,0.000610352,-0.000457764,-2.42592,0.055681,-0.0744527,0.0538228,0.0474718,-0.0949775,0.145318,-0.125461,-0.0813497,0.0146866,0.0204468,0.0117874,0.00911713,0.0185776,0.00911713,0.0273895,0.0139999,-9.97986,0.0354004,0.00385284,0.0142288,0.00450134,0.00934601,0.000114441,0.0164032,0.00797272
35,1,9.09139,0.000915527,-0.00106812,-2.42562,0.055681,-0.0738423,0.0532125,0.0465563,-0.0934516,0.146234,-0.126072,-0.0807394,0.00965118,0.0207901,0.0127411,0.0114441,0.0150299,0.00648499,0.0257111,0.0181198,-9.97986,0.0395584,0.000762939,0.0139236,0.000305176,0.0127029,-0.0012207,0.0155258,0.00823975
35,2,7.93721,0.0012207,-0.000915527,-2.42623,0.0550706,-0.073232,0.0556539,0.0541857,-0.0916206,0.147149,-0.125766,-0.0813497,0.0112915,0.0246811,0.0154877,0.012207,0.0162506,0.00579834,0.0273514,0.0197983,-9.97986,0.0365067,0.00232697,0.0144577,0.00244141,0.0159073,-0.000305176,0.0143051,0.0082016
35,3,7.72939,0.000915527,0.000152588,-2.42776,0.0550706,-0.0747579,0.0535176,0.0633409,-0.0916206,0.145318,-0.125766,-0.0834859,0.0117493,0.0221252,0.0130463,0.0102997,0.019722,0.00968933,0.0219345,0.018959,-9.97986,0.0310898,0.00434875,0.0163269,-0.000534058,0.0105286,-0.00400543,0.0131607,0.00717163
35,4,7.93599,0.000305176,0,-2.42684,0.0541551,-0.0744527,0.0535176,0.0712755,-0.0916206,0.145929,-0.124241,-0.0831808,0.0114822,0.0260162,0.0157928,0.0108337,0.021286,0.00717163,0.0301361,0.0182343,-9.97986,0.0327301,0.00236511,0.0115204,-0.00125885,0.0100327,-0.00579834,0.0117111,0.00778198
35,5,9.61843,0.000610352,0.000762939,-2.42684,0.0550706,-0.075063,0.054128,0.0950792,-0.0894843,0.145013,-0.124241,-0.0837911,0.00839233,0.0187683,0.0141525,0.0122833,0.0171661,0.00583649,0.030098,0.0149918,-9.97986,0.0317383,-0.00179291,0.0143433,0.0019455,0.0122452,-0.00293732,0.00923157,0.00541687
35,6,10.0097,-0.0012207,0.00152588,-2.42867,0.0544603,-0.0762837,0.0532125,0.0914171,-0.0931465,0.141656,-0.125461,-0.0865377,0.00614166,0.0247192,0.0162888,0.0120544,0.0195694,0.00488281,0.0259399,0.0184631,-9.97986,0.0283432,-0.00160217,0.0136948,-0.00255585,0.0112534,-0.00411987,0.0115204,0.00362396
35,7,10.0097,0.000610352,0,-2.42837,0.0538499,-0.0771993,0.0513814,0.0767687,-0.0952827,0.143182,-0.126072,-0.0871481,0.00873566,0.0208282,0.0155258,0.0112915,0.0146484,0.00278473,0.0220108,0.0177002,-9.97986,0.0276947,0.000419617,0.0153732,-0.000114441,0.00862122,-0.00591278,0.0124359,0.0063324
35,8,10.0097,-0.00152588,-0.000457764,-2.42867,0.0535448,-0.0747579,0.0526021,0.0728014,-0.094062,0.143792,-0.127598,-0.085317,0.00862122,0.0212479,0.0133514,0.0123215,0.0137329,0.00270844,0.0241852,0.0189972,-9.97986,0.0262833,-0.00392914,0.00980377,0.000343323,0.0136948,-0.00572205,0.0147247,0.00511169
35,9,10.0097,0.000610352,-0.000457764,-2.42867,0.0550706,-0.0744527,0.0526021,0.07036,-0.0961982,0.143792,-0.127292,-0.0874532,0.00961304,0.0247192,0.020256,0.0088501,0.0172806,-0.000686646,0.022049,0.0171661,-9.97986,0.0217819,-0.00156403,0.0144577,-0.000762939,0.01194,-0.00465393,0.0128174,0.00400543
36,0,10.0097,0.0012207,-0.000152588,-2.4302,0.0529344,-0.0756734,0.0529073,0.0685289,-0.0943672,0.142877,-0.127598,-0.0868429,0.0100327,0.0220871,0.0185013,0.00400543,0.0167847,0.00797272,0.0217438,0.0178528,-9.97986,0.0191498,0.000572205,0.0143433,0.00244141,0.00770569,-0.00797272,0.0168228,0.000305176
36,1,10.0097,-0.000610352,-0.000305176,-2.42867,0.0538499,-0.0756734,0.0529073,0.0694445,-0.0946723,0.144403,-0.125461,-0.0862325,0.0140762,0.02388,0.0177765,-0.000305176,0.0175476,0.00598907,0.0239944,0.0220108,-9.97986,0.019722,0.000915527,0.014534,-0.00167847,0.0103378,-0.00957489,0.0149155,0.0030899
36,2,10.0097,0.000305176,-0.000305176,-2.42867,0.0541551,-0.0756734,0.0516866,0.0682238,-0.0949775,0.144098,-0.126072,-0.0859274,0.00827789,0.022583,0.0156403,-0.00572205,0.0165558,0.00782013,0.0231934,0.0210571,-9.97986,0.0183105,0.0012207,0.0116348,0.00297546,0.0124359,-0.0012207,0.0175476,0.00385284
36,3,10.0097,0,-0.000152588,-2.42745,0.0544603,-0.0759786,0.0547383,0.07036,-0.0937568,0.145013,-0.126072,-0.0844015,0.0112915,0.0265884,0.0169373,-0.0163269,0.0153732,0.00480652,0.0200653,0.0156021,-9.97986,0.0162506,0.000724792,0.0162506,0.00465393,0.011673,-0.00484467,0.0134659,0.00320435
36,4,10.0097,0.000305176,0,-2.42653,0.055681,-0.0762837,0.0513814,0.0700548,-0.0934516,0.145624,-0.126072,-0.0844015,0.0159073,0.0276947,0.0169373,-0.0242615,0.0194931,0.00988007,0.0240707,0.0176239,-9.97986,0.0141144,-0.000267029,0.017395,0.00232697,0.0101089,-0.00907898,0.014534,0.000228882
36,5,10.0097,-0.00183105,0.000457764,-2.42653,0.0565965,-0.0744527,0.0553487,0.07036,-0.0919257,0.144708,-0.124546,-0.0819601,0.0087738,0.0261688,0.0152206,-0.0292206,0.0120544,0.00591278,0.0220108,0.0177765,-9.97986,0.0135422,-0.00133514,0.0122833,0.000190735,0.0110626,-0.00785828,0.0170517,0.000419617
36,6,10.0097,0,0.000305176,-2.42562,0.0565965,-0.0744527,0.054128,0.0700548,-0.0916206,0.146844,-0.125156,-0.0816549,0.0122833,0.0301743,0.0169754,-0.0360107,0.0180054,0.010376,0.0236511,0.0182343,-9.97986,0.0100708,-0.000724792,0.0181961,-0.00205994,0.0104523,-0.0063324,0.0180817,0.00270844
36,7,10.0097,-0.000915527,-0.000305176,-2.42409,0.0565965,-0.073232,0.0526021,0.07036,-0.0913154,0.146844,-0.125156,-0.0819601,0.00862122,0.0289154,0.0166321,-0.0312424,0.0180435,0.0088501,0.0222778,0.0135803,-9.97986,0.0150681,0.00217438,0.0167084,-0.00209808,0.0130081,-0.00392914,0.0144196,0.00328064
36,8,10.0097,0.000305176,0.000305176,-2.42562,0.0553758,-0.0744527,0.0553487,0.07036,-0.0900947,0.146844,-0.123935,-0.0810445,0.00751495,0.0312042,0.0162125,-0.0203323,0.0159836,0.0094223,0.0226593,0.0161362,-9.97986,0.00968933,0.00453949,0.0167847,-0.000228882,0.0128555,-0.00312805,0.0105286,0.00263214
36,9,10.0097,0.0012207,0.000305176,-2.42562,0.0575121,-0.0729268,0.0547383,0.0718859,-0.0919257,0.146844,-0.12363,-0.0807394,0.0102615,0.0254059,0.0196457,-0.0115204,0.0131989,0.00556946,0.0202179,0.0138092,-9.97986,0.00881195,0.00499725,0.0184631,-0.000801086,0.00934601,-0.00347137,0.00923157,0.00686646
37,0,10.0097,0.00274658,-0.00106812,-2.42623,0.0550706,-0.0744527,0.0532125,0.0453356,-0.0937568,0.146234,-0.126682,-0.0816549,0.00854492,0.024147,0.020752,-0.0192642,0.0139618,0.00743866,0.0211334,0.0172043,-9.97986,0.00846863,-0.00110626,0.0147629,-0.0018692,0.0128555,-0.00495911,0.00667572,0.00301361
37,1,9.02791,-0.000305176,-0.000915527,-2.42592,0.0559862,-0.075063,0.0535176,0.0471666,-0.0934516,0.142267,-0.126987,-0.0819601,0.0130844,0.0240326,0.0289154,-0.0377655,0.0157166,0.00392914,0.0229263,0.0159454,-9.97986,0.00968933,0.00511169,0.01194,3.8147e-005,0.0123978,-0.00213623,0.0104141,0.00423431
37,2,7.90669,-0.000915527,-0.00152588,-2.42562,0.055681,-0.075063,0.0544332,0.0560167,-0.0922309,0.145929,-0.125461,-0.0822652,0.0112152,0.024147,0.0257874,-0.0271988,0.0172043,0.00663757,0.0236893,0.016861,-9.97986,0.013237,0.00324249,0.0152588,0.00137329,0.0112915,0.000648499,0.00961304,0.00461578
37,3,7.71993,0.00152588,0,-2.42653,0.0550706,-0.0744527,0.054128,0.0642565,-0.0922309,0.146539,-0.125156,-0.0828756,0.0118256,0.0267029,0.0354385,-0.00148773,0.0143051,0.00541687,0.0217819,0.0164795,-9.97986,0.0120163,-0.00133514,0.0175858,0.000114441,0.0117111,0.00125885,0.0130081,0.00343323
37,4,7.94484,0,0.000305176,-2.42592,0.055681,-0.075063,0.0535176,0.072191,-0.0934516,0.147455,-0.12241,-0.0831808,0.0100327,0.022049,0.0447464,-0.00385284,0.0133133,0.00892639,0.022316,0.0167847,-9.97986,0.01297,0.00400543,0.0117874,0.00644684,0.0171661,-0.00415802,0.0125122,0.00640869
37,5,9.66481,0.000610352,0.0012207,-2.42623,0.0541551,-0.0756734,0.0550435,0.0950792,-0.090705,0.146234,-0.124241,-0.0834859,0.0115967,0.0269318,0.0534821,-0.00293732,0.0154495,0.00553131,0.0237656,0.0164413,-9.97986,0.00831604,0.00602722,0.0126648,0.000572205,0.0126266,-0.00553131,0.00659943,0.00587463
37,6,10.0097,0.00274658,0.00213623,-2.42928,0.0523241,-0.0765889,0.0529073,0.0914171,-0.0928413,0.143487,-0.125461,-0.0856222,0.0088501,0.021553,0.0514984,0.00370026,0.015564,0.00656128,0.0231934,0.0174332,-9.97986,0.012207,0.00862122,0.0183868,0.00484467,0.0160599,-0.00213623,0.00720978,0.00415802
37,7,10.0097,0.000915527,0.000152588,-2.42898,0.0535448,-0.0753682,0.0526021,0.0770738,-0.0955879,0.141046,-0.12241,-0.0862325,0.0135803,0.0231171,0.0574112,-0.00957489,0.0154877,0.00785828,0.0248718,0.0140381,-9.97986,0.0118256,0.00556946,0.0180817,0.00720978,0.0152206,-0.00209808,0.00858307,0.00293732
37,8,10.0097,0,0.00152588,-2.42928,0.0529344,-0.0762837,0.0519917,0.0715807,-0.0949775,0.144098,-0.127598,-0.0868429,0.0124741,0.0184631,0.0534821,-0.0294876,0.0176239,0.00831604,0.0228882,0.0146484,-9.97986,0.0125504,0.00621796,0.021019,0.00648499,0.0162506,-0.00892639,0.0108337,0.00617981
37,9,10.0097,0.000305176,0.000305176,-2.42989,0.0538499,-0.0771993,0.0532125,0.0694445,-0.0952827,0.143792,-0.127292,-0.0874532,0.0110245,0.0167847,0.0414658,0.0102234,0.0183868,0.00205994,0.024147,0.0160217,-9.97986,0.0131607,-0.00362396,0.0230789,0.0104141,0.0137329,-0.0162888,0.00770569,0.00396729
38,0,10.0097,0.00183105,-0.000305176,-2.42928,0.0532396,-0.0765889,0.0532125,0.0694445,-0.0952827,0.145624,-0.130344,-0.0859274,0.0100327,0.0187683,0.0337219,0.0662231,0.0157166,0.00732422,0.0215149,0.0170517,-9.97986,0.0115967,-0.00385284,0.0205231,0.00736237,0.0147629,-0.0189209,0.00656128,0.00736237
38,1,10.0097,0.000305176,0.0012207,-2.42776,0.0544603,-0.0747579,0.0526021,0.0691393,-0.0937568,0.143792,-0.126072,-0.0859274,0.013504,0.0211334,0.0328827,0.0991821,0.0212097,0.00720978,0.0257874,0.0160217,-9.97986,0.0108719,-0.010643,0.0139999,0.0107956,0.0144196,-0.0124741,0.00911713,0.0101089
38,2,10.0097,0.000610352,0.000305176,-2.42776,0.055681,-0.0756734,0.0519917,0.0697496,-0.0946723,0.143792,-0.126377,-0.0847066,0.00904083,0.0311279,0.0315094,0.0758362,0.0211716,0.00511169,0.0177383,0.0125504,-9.97986,0.0142288,-0.00961304,0.0181961,0.0115585,0.0116348,-0.0108337,0.00926971,0.0102234
38,3,10.0097,0.00305176,0.000305176,-2.42653,0.0550706,-0.075063,0.0538228,0.0712755,-0.0934516,0.142267,-0.12302,-0.0844015,0.014267,0.0286102,0.0333405,0.0294113,0.0205994,0.00926971,0.019989,0.0136185,-9.97986,0.0136566,-0.00408173,0.0199127,0.00850677,0.017395,-0.00808716,0.01194,0.0104904
38,4,10.0097,-0.000305176,0,-2.42776,0.0550706,-0.0747579,0.0529073,0.07036,-0.0922309,0.146234,-0.125156,-0.0834859,0.0143433,0.026474,0.0105286,0.0587463,0.0233459,0.00167847,0.0217056,0.0153732,-9.97986,0.0128174,-0.0043869,0.0203323,0.00846863,0.0136566,-0.000152588,0.0130463,0.00366211
38,5,10.0097,-0.000610352,0,-2.42745,0.0550706,-0.0756734,0.0522969,0.0691393,-0.0995551,0.112665,-0.127292,-0.0828756,0.00507355,0.0303268,0.00602722,0.111389,0.0194168,0.00404358,0.0185013,0.0144196,-9.97986,0.017128,-0.00415802,0.0179291,0.0069046,0.0111771,0.00282288,0.00766754,0.00507355
38,6,10.0097,-0.0119019,0.000152588,-2.42562,0.0565965,-0.0723164,0.0538228,0.0715807,-0.0903999,0.141961,-0.124546,-0.0816549,0.00812531,0.0357819,0.000801086,0.116386,0.0193787,0.00789642,0.022583,0.0180435,-9.97986,0.0173187,-0.0025177,0.0214767,0.0108337,0.0143433,0.00648499,0.0135803,0.00957489
38,7,10.0097,0.000305176,0.000610352,-2.42501,0.0565965,-0.0744527,0.0544332,0.0712755,-0.0913154,0.143792,-0.124241,-0.0816549,0.011673,0.0395203,-0.00495911,0.0972748,0.0186157,0.00667572,0.0186157,0.0174332,-9.97986,0.015831,-0.00400543,0.0199127,0.0116348,0.0179672,0.00614166,0.0133133,0.0062561
38,8,10.0097,-0.000305176,0.000305176,-2.4247,0.055681,-0.0707906,0.0544332,0.0709703,-0.0913154,0.144403,-0.124546,-0.0810445,0.00564575,0.0400162,-0.00823975,0.0836945,0.0214386,0.0120544,0.0214005,0.0147247,-9.97986,0.0185394,-0.00782013,0.0164032,0.00907898,0.0141525,-3.8147e-005,0.0128937,0.00736237
38,9,10.0097,-0.000610352,0.000457764,-2.4247,0.0562914,-0.0738423,0.0556539,0.0697496,-0.0913154,0.13952,-0.124241,-0.0816549,0.00911713,0.038681,-0.0108337,0.0789261,0.0179291,0.00667572,0.019989,0.0162506,-9.97986,0.0151062,-0.00709534,0.0167084,0.00972748,0.0136185,-0.00553131,0.0135803,0.00705719
39,0,10.0097,-0.000610352,-0.00213623,-2.42592,0.0562914,-0.0738423,0.0544332,0.0508287,-0.095893,0.146234,-0.126377,-0.0822652,0.00835419,0.0356674,-0.0144577,0.0691986,0.0199509,0.00461578,0.019455,0.0141907,-9.97986,0.0117493,-0.00137329,0.0148392,0.0137711,0.0152969,-0.013504,0.0134277,0.00499725
39,1,9.24001,-0.000915527,-0.000457764,-2.42623,0.0559862,-0.0714009,0.054128,0.0480822,-0.0931465,0.145624,-0.125766,-0.0825704,0.0062561,0.0366211,-0.0018692,0.0635529,0.0176239,0.00511169,0.0177765,0.0190735,-9.97986,0.0176239,-0.00228882,0.0169373,0.0115585,0.0151062,-0.00972748,0.0138855,0.00488281
39,2,8.07637,0.000305176,-0.000305176,-2.42623,0.0565965,-0.0744527,0.0547383,0.0557115,-0.0925361,0.144708,-0.126377,-0.0825704,0.00663757,0.0331879,0.00366211,0.0652695,0.0185013,0.00198364,0.0201035,0.0156403,-9.97986,0.0150681,-0.00453949,0.0143051,0.0107193,0.0117111,-0.00915527,0.0124741,0.0043869
39,3,7.91432,0.000305176,-0.000152588,-2.42714,0.0559862,-0.0747579,0.0550435,0.0642565,-0.0919257,0.146234,-0.126377,-0.0831808,0.00831604,0.032196,0.00453949,0.062294,0.0204086,0.00377655,0.0189972,0.0130081,-9.97986,0.0114441,-0.00659943,0.0161362,0.0130463,0.0149536,-0.00980377,0.015831,0.00259399
39,4,8.17677,0.000305176,0.000610352,-2.42623,0.0544603,-0.0735371,0.0538228,0.0715807,-0.0910102,0.144708,-0.125156,-0.0831808,0.00545502,0.026207,0.00484467,0.0592041,0.0177002,0.00854492,0.0166321,0.013504,-9.97986,0.0120544,-0.00907898,0.018158,0.00850677,0.0156021,-0.00926971,0.0113678,0.00732422
39,5,9.93154,0,0.00152588,-2.42714,0.0550706,-0.0759786,0.0535176,0.0962999,-0.0894843,0.149896,-0.123935,-0.0844015,0.00740051,0.0268173,0.00743866,0.0538635,0.0144196,0.00705719,0.0243378,0.00961304,-9.97986,0.0144577,-0.00514984,0.0163269,0.00675201,0.0115204,-0.00549316,0.0120544,0.0056839
39,6,10.0097,-0.00183105,0.00259399,-2.42837,0.0538499,-0.0759786,0.0522969,0.0886705,-0.094062,0.143182,-0.124851,-0.0865377,0.0121307,0.026474,0.00679016,0.0455475,0.0182343,0.00831604,0.0206375,0.0156403,-9.97986,0.0141907,0.000534058,0.0152969,0.00923157,0.0149155,0.000762939,0.0124359,0.00785828
39,7,10.0097,-0.000915527,0,-2.42867,0.0544603,-0.0714009,0.0519917,0.0767687,-0.0955879,0.142877,-0.126377,-0.0868429,0.0106049,0.0218964,0.00240326,0.0403976,0.0205612,0.00793457,0.0192261,0.0179672,-9.97986,0.014534,-0.0030899,0.0151443,0.00492096,0.0131226,0.00114441,0.00953674,0.00751495
39,8,10.0097,0.000305176,0.000305176,-2.42898,0.0538499,-0.0765889,0.0519917,0.0712755,-0.0961982,0.146844,-0.127903,-0.0862325,0.0111771,0.0258255,0.00587463,0.0341415,0.0228119,0.0128937,0.02285,0.017128,-9.97986,0.0131607,-0.000114441,0.0154495,0.00717163,0.0110245,0.00301361,0.00961304,0.00789642
39,9,10.0097,-0.000305176,0.000915527,-2.42867,0.0538499,-0.0768941,0.0513814,0.0691393,-0.0955879,0.142267,-0.127292,-0.0874532,0.0125122,0.0229645,0.00526428,0.0299835,0.0188828,0.0127029,0.019989,0.0123215,-9.97986,0.0131607,-0.00980377,0.0167465,0.00923157,0.0139999,-0.00167847,0.0110626,0.00488281
40,0,10.0097,-0.000305176,0.000305176,-2.42898,0.0544603,-0.0781148,0.0529073,0.0682238,-0.0952827,0.143487,-0.128513,-0.0871481,0.0137329,0.0215149,0.00583649,0.0244141,0.0224304,0.0128174,0.019455,0.0137329,-9.97986,0.0106812,-0.00400543,0.0104904,0.00919342,0.0136948,-0.0114059,0.0131607,0.00797272
40,1,10.0097,0,-0.000152588,-2.42745,0.0541551,-0.0775044,0.0532125,0.0694445,-0.0937568,0.145013,-0.126682,-0.0868429,0.00976563,0.0138474,0.00709534,0.0209808,0.0178528,0.0127411,0.0202179,0.0139618,-9.97986,0.0161743,-0.00572205,0.00873566,0.00408173,0.0120926,-0.0130463,0.0163651,0.0082016
40,2,10.0097,0.000610352,0.000915527,-2.42745,0.0541551,-0.0756734,0.0526021,0.0688341,-0.0931465,0.145013,-0.126682,-0.0862325,0.0121307,0.0188446,0.00968933,0.0206757,0.0230789,0.0123215,0.0193024,0.0151443,-9.97986,0.0109482,-0.0370789,0.0136948,0.00782013,0.014534,-0.0075531,0.014801,0.00564575
40,3,10.0097,-0.000915527,-0.000152588,-2.42684,0.0550706,-0.0781148,0.0522969,0.0688341,-0.0931465,0.145929,-0.126682,-0.0844015,0.00617981,0.0191116,0.0125122,0.0122833,0.0152206,0.0123596,0.017662,0.0144958,-9.97986,0.0137329,-0.0661469,0.018158,0.00785828,0.0148392,-0.00522614,0.0175858,0.00576019
40,4,10.0097,0.000305176,0.000457764,-2.42653,0.0553758,-0.0741475,0.054128,0.0694445,-0.0925361,0.144708,-0.125461,-0.0840963,0.0150299,0.0197983,0.0145721,0.0107574,0.018692,0.0102997,0.0214767,0.0174332,-9.97986,0.01194,-0.0743866,0.0139236,0.00514984,0.0153351,-0.000610352,0.0151062,0.00415802
40,5,10.0097,0.000305176,-0.00137329,-2.42562,0.0572069,-0.0747579,0.054128,0.0697496,-0.0928413,0.145624,-0.125156,-0.0828756,0.0128174,0.0205994,0.0182724,0.0117111,0.0214386,0.0136185,0.018425,0.0185394,-9.97986,0.00740051,-0.0746155,0.0141525,0.0115585,0.0170135,-0.00137329,0.0186157,0.00629425
