
Devices
1200
,,BP Load cell - Voltage,String Length - Voltage,Clutch Active - Voltage,#7 iPecs - Voltage,,,,,,,,,EMG 1-8 Left - Voltage,,,,,,,,Pylon Force - Voltage,EMG 9-16 Right - Voltage,,,,,,,,
Frame,Sub Frame,BP Load Cell,String Length,From Arduino Logic,A45,A135,A225,A315,S0,S90,S180,S270,ZSum,EMG 1 Glut Max,EMG 2 Glut Med,EMG 3 Biceps Femoris Long,EMG 4 Rectus Femoris,EMG 5 Vastus Medialis,EMG 6 Tib Ant,EMG 7 Med Gas,EMG 8 Soleus,Pylon volts,EMG 9 Glut Max,EMG 10 Glut Med,EMG 11 Biceps Femoris Long,EMG 12 Rectus Femoris,EMG 13 Vastus Medialis,EMG 14 Tib Ant,EMG 15 Med Gas,EMG 16 Soleus
,,V,V,V,V,V,V,V,V,V,V,V,V,V,V,V,V,V,V,V,V,V,V,V,V,V,V,V,V,V
1,0,10.0097,-0.000915527,0.000152588,-2.42562,0.0565965,-0.0744527,0.0550435,0.0718859,-0.0916206,0.148675,-0.124546,-0.0804342,0.0118637,0.0257111,0.0196075,0.0103378,0.014267,0.0120926,0.0270844,0.0305557,-9.97986,0.0211334,0.000534058,0.0156784,0.00946045,0.0199127,-0.00205994,0.0165558,0.00972748
1,1,10.0097,0.0012207,-0.00198364,-2.42623,0.0553758,-0.0744527,0.0535176,0.0254991,-0.0983344,0.146234,-0.127292,-0.0831808,0.00968933,0.0262833,0.0179291,0.00747681,0.0141144,0.0144196,0.0211716,0.0275803,-9.97986,0.0192642,0.00171661,0.0125885,0.00835419,0.0177383,-0.000801086,0.0143051,0.0123978
1,2,1.2737,0,-0.0050354,-2.42653,0.0569017,-0.073232,0.0532125,-0.00257703,-0.0977241,0.14776,-0.128818,-0.0819601,0.00888824,0.0227737,0.0172806,0.0094223,0.0146484,0.01194,0.0259781,0.0238037,-9.97986,0.016861,-0.00213623,0.0115585,0.00835419,0.0155258,-0.00526428,0.0157166,0.00812531
1,3,-5.57292,-0.000915527,-0.00442505,-2.42592,0.0572069,-0.0735371,0.054128,-0.0132582,-0.0955879,0.145929,-0.128818,-0.0819601,0.0139999,0.0270844,0.0207138,0.0112152,0.0195313,0.0102615,0.0239182,0.0188446,-9.97986,0.018959,-0.00507355,0.0120544,0.00862122,0.0187683,-0.000572205,0.015831,0.00923157
1,4,-9.99003,0.000610352,-0.00289917,-2.42379,0.0565965,-0.073232,0.0550435,0.0111559,-0.0928413,0.146234,-0.128513,-0.0810445,0.0101089,0.0228882,0.0178909,0.0157166,0.0161743,0.0122452,0.0219345,0.0130463,-9.97986,0.014534,-0.000228882,0.00774384,0.00881195,0.0161743,0.00160217,0.0177002,0.00839233
1,5,-9.99003,-0.00152588,-0.00152588,-2.4244,0.0562914,-0.0738423,0.055959,0.0364855,-0.0922309,0.146539,-0.128208,-0.0810445,0.0144577,0.0203705,0.0185776,0.0133514,0.0159073,0.00843048,0.0237656,0.0094223,-9.97986,0.0126266,-0.00213623,0.0142288,0.00762939,0.00606537,-0.00102997,0.0157928,0.00728607
1,6,-9.99003,-0.000610352,-0.000305176,-2.4247,0.055681,-0.0747579,0.055959,0.0554064,-0.090705,0.144403,-0.125461,-0.0825704,0.00778198,0.0243759,0.0188065,0.0117874,0.0165176,0.00926971,0.020256,0.0082016,-9.97986,0.00751495,-0.00499725,0.0126648,0.00541687,0.000801086,-0.00244141,0.014801,0.00480652
1,7,-9.99003,0.000915527,-0.000305176,-2.42531,0.0553758,-0.0741475,0.0562642,0.0737169,-0.0900947,0.145929,-0.125461,-0.0819601,0.00705719,0.0220871,0.0196838,0.0127411,0.0156021,0.0109863,0.022316,0.0114822,-9.97986,0.0104523,-0.00434875,0.0120544,0.00263214,0.00930786,-0.000839233,0.0137329,0.00492096
1,8,-9.47093,0.0012207,0.00228882,-2.42562,0.0544603,-0.0738423,0.0571797,0.125292,-0.0858222,0.145013,-0.121799,-0.0819601,0.0102997,0.0198746,0.0226212,0.01091,0.018959,0.00892639,0.0202179,0.0121689,-9.97986,0.00640869,-0.00743866,0.011673,0.00370026,0.0137329,-0.000114441,0.0175476,0.00709534
1,9,-1.10759,0.000915527,0.00320435,-2.42745,0.0541551,-0.0756734,0.0547383,0.143907,-0.0879585,0.144403,-0.121494,-0.0847066,0.0109482,0.0217438,0.0177383,0.0128174,0.0165558,0.0129318,0.0195694,0.0137329,-9.97986,0.0111008,-0.00652313,0.0140381,0.00926971,0.0177383,-0.00476837,0.0147629,0.00808716
2,0,6.72444,-0.000305176,0.00473022,-2.42837,0.0541551,-0.0756734,0.0532125,0.154283,-0.0891792,0.143487,-0.121799,-0.0850118,0.0121307,0.0240707,0.0196075,0.0141144,0.0201416,0.00816345,0.0234222,0.0132751,-9.97986,0.0128174,-0.00141144,0.0179672,0.0044632,0.0195694,-0.000152588,0.0153732,0.00396729
2,1,10.0097,-0.000915527,0.00350952,-2.42989,0.0523241,-0.0768941,0.0513814,0.126512,-0.0955879,0.141351,-0.12302,-0.0886739,0.00911713,0.0247192,0.0178528,0.0156021,0.0111771,0.00843048,0.0217438,0.0134659,-9.97986,0.0142288,-0.00461578,0.0130081,0.00499725,0.0117874,-0.00144958,0.0131607,0.00598907
2,2,10.0097,0.000610352,0.000762939,-2.42989,0.0532396,-0.0756734,0.0526021,0.0905016,-0.0980293,0.143487,-0.126377,-0.0877584,0.00846863,0.0233841,0.0185394,0.0106812,0.0190735,0.00804901,0.0265884,0.0183868,-9.97986,0.01297,-0.00743866,0.0113678,0.00423431,0.0144958,-0.00183105,0.0143814,0.00209808
2,3,10.0097,-0.000610352,0.000457764,-2.42928,0.0547655,-0.0762837,0.0513814,0.0776842,-0.0971137,0.143182,-0.126072,-0.0868429,0.00972748,0.0237656,0.0197601,0.00946045,0.0169754,0.0130844,0.0185776,0.0163651,-9.97986,0.0120163,0.00102997,0.0126266,0.00743866,0.0183105,-0.00297546,0.0157547,0.00404358
2,4,10.0097,0.000305176,-0.000305176,-2.42898,0.0535448,-0.0747579,0.0522969,0.0749376,-0.094062,0.143792,-0.126377,-0.0859274,0.0100327,0.0240707,0.0193787,0.0119019,0.0177765,0.0142288,0.0250626,0.0137711,-9.97986,0.0117111,-0.00522614,0.0157547,0.00320435,0.0164032,-0.0025177,0.0161743,0.00282288
2,5,10.0097,0.000915527,-0.000152588,-2.42745,0.0541551,-0.0753682,0.0529073,0.0724962,-0.0937568,0.144708,-0.125766,-0.085317,0.0120544,0.0264359,0.0169373,0.0120544,0.014267,0.0101089,0.0211716,0.0164795,-9.97986,0.0195313,0.00038147,0.00938416,0.00713348,0.0175858,-0.00267029,0.018158,0.00644684
2,6,10.0097,0.000305176,0.000152588,-2.42684,0.0547655,-0.075063,0.0538228,0.0709703,-0.0937568,0.145013,-0.126072,-0.0837911,0.00988007,0.022316,0.018158,0.0108719,0.0127029,0.0126648,0.0188446,0.0131226,-9.97986,0.0170517,-0.00202179,0.0150681,0.00556946,0.0151825,0.00087738,0.0143814,0.00526428
2,7,10.0097,0.0012207,0.000152588,-2.42653,0.0550706,-0.075063,0.0532125,0.0709703,-0.0928413,0.144708,-0.125461,-0.0834859,0.0123978,0.020752,0.0228119,0.0133514,0.0161362,0.0112915,0.0155258,0.0243378,-9.97986,0.0178146,-0.00400543,0.0160217,0.00511169,0.0165176,-0.000991821,0.0143433,0.00839233
2,8,10.0097,0.000610352,0,-2.42684,0.0565965,-0.0747579,0.0544332,0.0718859,-0.0922309,0.145624,-0.124851,-0.0822652,0.0108337,0.024147,0.0191498,0.018425,0.0179291,0.0103378,0.0185013,0.0246429,-9.97986,0.0203705,-0.00331879,0.0118256,0.00518799,0.0154877,-0.000762939,0.0175476,0.00606537
2,9,10.0097,0,0.000610352,-2.42318,0.0572069,-0.0729268,0.054128,0.072191,-0.090705,0.146234,-0.125156,-0.0819601,0.0128555,0.0231171,0.0161362,0.0146484,0.018959,0.00663757,0.0218582,0.0231171,-9.97986,0.0189972,-0.00606537,0.0125885,0.00713348,0.015564,0.000801086,0.0143433,0.0062561
3,0,10.0097,-0.00274658,0.000152588,-2.42531,0.0562914,-0.0741475,0.0550435,0.0712755,-0.0916206,0.14837,-0.124546,-0.0804342,0.0124359,0.0239944,0.0167084,0.0101852,0.0199127,0.00892639,0.022316,0.0267029,-9.97986,0.0198364,-0.00240326,0.0180435,0.00846863,0.021286,-3.8147e-005,0.0123978,0.00576019
3,1,10.0097,0.000610352,-0.00198364,-2.42684,0.0565965,-0.0744527,0.0519917,0.0242784,-0.0977241,0.145624,-0.128513,-0.0831808,0.00965118,0.0236511,0.0174713,0.0161362,0.0142288,0.00854492,0.0245285,0.0247192,-9.97986,0.0203323,-0.00453949,0.00858307,0.00591278,0.0194168,-0.0030899,0.0202942,0.00724792
3,2,1.22884,0,-0.00473022,-2.4247,0.0581224,-0.0738423,0.0538228,-0.00227185,-0.0971137,0.146539,-0.129123,-0.0819601,0.0107574,0.0258255,0.0170517,0.0148392,0.0130463,0.0151443,0.0219727,0.0221252,-9.97986,0.0197601,-0.00431061,0.0133514,0.0101089,0.0183105,0.00164032,0.0183487,0.00610352
3,3,-5.63609,0.00183105,-0.00427246,-2.4247,0.0562914,-0.073232,0.054128,-0.0147841,-0.0971137,0.14776,-0.129734,-0.0819601,0.0126648,0.0256729,0.0198746,0.00980377,0.0148773,0.0110626,0.02285,0.0166702,-9.97986,0.0133896,-0.0025177,0.0135422,0.00556946,0.0156784,-0.00259399,0.0156403,0.00476837
3,4,-9.99003,0,-0.00305176,-2.42592,0.0565965,-0.0738423,0.0556539,0.00932483,-0.0925361,0.144403,-0.128513,-0.0810445,0.0104523,0.030365,0.0185394,0.0123978,0.0180435,0.00831604,0.0234222,0.015831,-9.97986,0.0108719,-0.00667572,0.0112915,0.0044632,0.0149918,0.000953674,0.0181198,0.00732422
3,5,-9.99003,0.000915527,-0.00137329,-2.42562,0.0569017,-0.0738423,0.0565694,0.0377062,-0.0903999,0.145013,-0.126682,-0.0810445,0.0104523,0.0286102,0.0174332,0.00896454,0.0152969,0.00938416,0.0212479,0.0126648,-9.97986,0.00965118,-0.00370026,0.0159073,0.00843048,-0.00179291,0.00267029,0.0202942,0.00572205
3,6,-9.99003,0.000305176,-0.000305176,-2.42531,0.055681,-0.0741475,0.0562642,0.0572374,-0.0903999,0.145624,-0.125461,-0.0819601,0.00980377,0.027504,0.0192642,0.0127411,0.0175095,0.0111771,0.0244904,0.00995636,-9.97986,0.00766754,-0.00640869,0.0131226,0.00679016,-0.00225067,0.00282288,0.015564,0.0056076
3,7,-9.99003,0.00305176,0.000610352,-2.42562,0.0544603,-0.0744527,0.0553487,0.0764635,-0.0891792,0.146234,-0.126377,-0.0831808,0.00965118,0.02285,0.0159454,0.0127792,0.0170898,0.0127792,0.0231934,0.0120163,-9.97986,0.0087738,-0.00522614,0.0169754,0.00591278,0.00682831,0.00431061,0.0178528,0.00148773
3,8,-9.40623,0.0012207,0.00183105,-2.42531,0.055681,-0.0747579,0.0568746,0.127733,-0.0849067,0.145624,-0.121494,-0.0828756,0.0129318,0.0230408,0.0156403,0.0087738,0.0151825,0.0062561,0.0194931,0.00953674,-9.97986,0.0094986,0.000190735,0.0143814,0.00648499,0.0133133,-0.00270844,0.015564,0.00377655
3,9,-0.908918,-0.000610352,0.00335693,-2.42837,0.0532396,-0.0759786,0.0550435,0.142992,-0.0882636,0.143792,-0.121189,-0.0844015,0.013504,0.0203705,0.0195313,0.0150681,0.0192261,0.0088501,0.0209045,0.0151062,-9.97986,0.0104523,-0.00190735,0.0140762,0.00530243,0.0143814,-0.000724792,0.0139236,0.00484467
4,0,6.90114,0.00152588,0.00457764,-2.42837,0.0538499,-0.075063,0.0535176,0.154283,-0.0864326,0.143182,-0.121799,-0.085317,0.0131989,0.0216675,0.0173569,0.0141144,0.0143051,0.00751495,0.0205231,0.0137711,-9.97986,0.0094986,-0.00183105,0.0167465,0.0087738,0.0123978,-0.0018692,0.0169754,0.00419617
4,1,10.0097,-0.00274658,0.00427246,-2.43081,0.0529344,-0.0765889,0.050771,0.125597,-0.0952827,0.143487,-0.12363,-0.0886739,0.0107574,0.0191116,0.0194931,0.0144196,0.0191116,0.0118637,0.0202942,0.0127029,-9.97986,0.0140381,-0.00473022,0.0150299,0.00686646,0.0142288,-0.00278473,0.0157547,0.0056076
4,2,10.0097,0.0012207,0.000915527,-2.42989,0.0532396,-0.0759786,0.0510762,0.0914171,-0.0971137,0.142267,-0.126377,-0.0874532,0.0131226,0.0200272,0.0175858,0.0111008,0.0184631,0.00923157,0.018425,0.013237,-9.97986,0.0141144,-0.00385284,0.0169373,0.00522614,0.0168991,-0.0043869,0.0172043,0.00640869
4,3,10.0097,0.0012207,0,-2.42959,0.0544603,-0.0765889,0.050771,0.0789049,-0.095893,0.143487,-0.127292,-0.0880636,0.00659943,0.0240707,0.0143051,0.0120544,0.0180054,0.0108719,0.0201416,0.0163269,-9.97986,0.0153732,-0.00331879,0.0141525,0.00759125,0.0152206,-0.00396729,0.0179672,0.00484467
4,4,10.0097,0.000305176,-0.000305176,-2.42806,0.0544603,-0.0762837,0.0519917,0.0737169,-0.0949775,0.145318,-0.126377,-0.0862325,0.00953674,0.0239182,0.0191498,0.0117111,0.0170135,0.00873566,0.0172043,0.0146103,-9.97986,0.0135803,-0.00312805,0.0175858,0.00267029,0.0140762,0.00110626,0.0135422,0.00587463
4,5,10.0097,0.000305176,0,-2.42653,0.0541551,-0.0741475,0.0526021,0.0712755,-0.0937568,0.145013,-0.126072,-0.0850118,0.0139618,0.0234985,0.0161743,0.0102615,0.0172043,0.00831604,0.0233078,0.0185776,-9.97986,0.0144958,-0.0044632,0.0168228,0.00671387,0.0188065,-0.00213623,0.0192642,0.00225067
4,6,10.0097,-0.000305176,-0.000305176,-2.42837,0.0550706,-0.0747579,0.0522969,0.0715807,-0.0931465,0.145624,-0.125766,-0.0850118,0.00999451,0.022049,0.0167084,0.013504,0.0143433,0.0164032,0.0246048,0.0183105,-9.97986,0.0152206,-0.00293732,0.0156784,0.00350952,0.0180435,-0.00324249,0.0178146,0.00488281
4,7,10.0097,0.00152588,0.000457764,-2.42714,0.0559862,-0.0744527,0.054128,0.0697496,-0.0934516,0.144708,-0.125766,-0.0840963,0.0134659,0.0252533,0.0211716,0.0140381,0.0165558,0.00839233,0.0244141,0.0218964,-9.97986,0.0167084,-0.00141144,0.0126648,0.0102615,0.0162125,-0.00213623,0.0163651,0.00347137
4,8,10.0097,0.000610352,0,-2.42531,0.0562914,-0.0735371,0.0538228,0.072191,-0.0922309,0.145318,-0.124546,-0.0825704,0.0151443,0.0250244,0.0225067,0.0157166,0.0190735,0.0113678,0.021286,0.0268936,-9.97986,0.014534,-0.00541687,0.0128174,0.00312805,0.0148773,-0.00549316,0.0178909,0.00667572
4,9,10.0097,0.000305176,0.000610352,-2.42409,0.0562914,-0.0738423,0.0547383,0.0712755,-0.0919257,0.145929,-0.124851,-0.0810445,0.0120926,0.0242233,0.0197983,0.0143433,0.0165176,0.0167084,0.0239182,0.0234985,-9.97986,0.0200272,-0.00255585,0.0172806,0.00591278,0.016098,-0.000991821,0.0193787,0.00617981
5,0,10.0097,0.00152588,0,-2.42531,0.0575121,-0.0735371,0.0550435,0.0706652,-0.0916206,0.146539,-0.124546,-0.0810445,0.0127029,0.0266266,0.0177002,0.0157547,0.019455,0.00862122,0.0244904,0.0263214,-9.97986,0.0240326,-0.00434875,0.0156784,0.00797272,0.0138855,-0.00350952,0.0162506,0.00606537
5,1,10.0097,0.00213623,-0.00259399,-2.42684,0.0565965,-0.0747579,0.0522969,0.0248888,-0.0986396,0.145318,-0.127903,-0.0840963,0.00846863,0.02491,0.0178146,0.0162125,0.0142288,0.0132751,0.0228119,0.0232697,-9.97986,0.0200272,-0.0043869,0.013237,0.00724792,0.020256,-0.00347137,0.0189209,0.00919342
5,2,1.22243,0.00152588,-0.00396729,-2.42623,0.0562914,-0.0738423,0.0532125,-0.00471326,-0.0968086,0.147455,-0.128818,-0.0813497,0.0110245,0.0265884,0.021286,0.014801,0.0205231,0.0130081,0.0223541,0.0249481,-9.97986,0.0215912,-0.0037384,0.0131607,0.00873566,0.0192261,-0.00774384,0.0134659,0.0094223
5,3,-5.5833,-0.0012207,-0.00427246,-2.42562,0.0572069,-0.0741475,0.0532125,-0.0135634,-0.0974189,0.146539,-0.130039,-0.0825704,0.0101852,0.0262833,0.0185776,0.00961304,0.016861,0.00984192,0.018692,0.0217056,-9.97986,0.0175095,-0.00637054,0.0191498,0.00812531,0.018692,-0.00766754,0.0175095,0.00541687
5,4,-9.99003,-0.0012207,-0.00350952,-2.42409,0.0569017,-0.0738423,0.0553487,0.00993518,-0.0916206,0.147455,-0.128513,-0.0807394,0.00854492,0.0275421,0.0183868,0.0152588,0.0165176,0.0146484,0.0173187,0.0185394,-9.97986,0.0132751,-0.00205994,0.0110626,0.00652313,0.0175095,-0.00785828,0.0147629,0.00408173
5,5,-9.99003,0.000305176,-0.00183105,-2.42592,0.055681,-0.0738423,0.0565694,0.0386217,-0.090705,0.145624,-0.127292,-0.0822652,0.00816345,0.0238419,0.0208282,0.00934601,0.0209808,0.0129318,0.0188065,0.0113678,-9.97986,0.0133896,0.0025177,0.0124359,0.0101471,0.00282288,-0.00537872,0.020752,0.00278473
5,6,-9.99003,0.00244141,-0.000610352,-2.42562,0.055681,-0.075063,0.0544332,0.0560167,-0.0916206,0.146539,-0.126377,-0.0813497,0.00587463,0.0286865,0.0185776,0.0069809,0.0206375,0.0125504,0.0192642,0.00804901,-9.97986,0.0122452,-0.00370026,0.0147247,0.00888824,-0.0019455,-0.00686646,0.0152588,0.00518799
5,7,-9.99003,0.00213623,-0.000152588,-2.42653,0.0547655,-0.0738423,0.055959,0.0752428,-0.0894843,0.145013,-0.125461,-0.0825704,0.00793457,0.0234604,0.0206375,0.0148392,0.0187302,0.0114059,0.021286,0.00968933,-9.97986,0.00976563,0.000267029,0.0150681,0.00930786,0.0133896,-0.00255585,0.0149536,0.00656128
5,8,-9.32628,0.00152588,0.00152588,-2.42501,0.0559862,-0.0744527,0.0568746,0.126817,-0.0858222,0.145318,-0.121799,-0.0825704,0.00801086,0.0292587,0.0180054,0.0102997,0.0169373,0.0125504,0.0224686,0.0133133,-9.97986,0.00854492,-0.00213623,0.014267,0.0114441,0.0188446,-0.00656128,0.0188446,0.00312805
5,9,-0.881757,0.000610352,0.00350952,-2.42745,0.0538499,-0.0756734,0.054128,0.145128,-0.0882636,0.144708,-0.121494,-0.0834859,0.0112152,0.0223541,0.020752,0.00957489,0.0175476,0.0105286,0.0229645,0.0138855,-9.97986,0.00988007,-0.000228882,0.0145721,0.00606537,0.0177765,-0.0043869,0.0171661,0.00720978
6,0,6.9988,0.000305176,0.00442505,-2.42745,0.0538499,-0.0759786,0.0535176,0.154588,-0.088874,0.143182,-0.12241,-0.0859274,0.00888824,0.0239182,0.0177002,0.00995636,0.020752,0.0108337,0.0208664,0.0178528,-9.97986,0.0129318,0.000228882,0.0132751,0.00965118,0.017395,-0.00221252,0.017128,0.0069809
6,1,10.0097,0.00152588,0.0038147,-2.43111,0.0523241,-0.0768941,0.0495503,0.125292,-0.0952827,0.143182,-0.123935,-0.0886739,0.0108337,0.0225449,0.0175476,0.00774384,0.0144958,0.00843048,0.019722,0.0104904,-9.97986,0.0111771,0.000419617,0.0168991,0.00919342,0.0179672,-0.00358582,0.0202942,0.00453949
6,2,10.0097,0.000610352,0.000762939,-2.4302,0.0535448,-0.0771993,0.0498555,0.0895861,-0.0971137,0.143182,-0.125766,-0.0883688,0.0116348,0.0247955,0.0161743,0.0106049,0.0199127,0.00999451,0.0209045,0.0131989,-9.97986,0.0137329,-0.00118256,0.0136185,0.00816345,0.0207901,-0.00434875,0.0192642,0.00370026
6,3,10.0097,0,0.000305176,-2.42928,0.0529344,-0.0756734,0.050771,0.0776842,-0.095893,0.144098,-0.127598,-0.0874532,0.0112534,0.0246429,0.0174332,0.0138092,0.0139236,0.0123596,0.0216675,0.0156403,-9.97986,0.0102615,-0.00205994,0.0141144,0.00892639,0.0165558,-0.00278473,0.0183487,0.00659943
6,4,10.0097,0.000915527,-0.000305176,-2.42806,0.0538499,-0.0744527,0.0522969,0.0743273,-0.094062,0.144708,-0.126682,-0.0859274,0.0114441,0.0247574,0.0186157,0.0138474,0.0200272,0.0109863,0.022049,0.0138092,-9.97986,0.0160599,-0.000686646,0.0130463,0.00778198,0.0178909,-0.00183105,0.0136948,0.00728607
6,5,10.0097,0.0012207,0,-2.42653,0.0547655,-0.0756734,0.0526021,0.0728014,-0.0943672,0.144098,-0.126377,-0.0856222,0.00926971,0.0226212,0.0202942,0.0109482,0.0194931,0.0125885,0.0221252,0.0177765,-9.97986,0.0136185,0.00305176,0.0137711,0.0104904,0.0188065,-0.00148773,0.0174713,0.00957489
6,6,10.0097,0,0.000762939,-2.42806,0.055681,-0.0747579,0.0529073,0.0706652,-0.0937568,0.145013,-0.126682,-0.085317,0.00782013,0.0232697,0.0204086,0.0117874,0.0163269,0.00892639,0.0217819,0.0180054,-9.97986,0.0165939,0.00156403,0.0139999,0.00457764,0.0164795,0.00179291,0.0138855,0.00408173
6,7,10.0097,0,0,-2.42653,0.0562914,-0.0747579,0.0532125,0.0712755,-0.0934516,0.145624,-0.126987,-0.085317,0.0144577,0.0222778,0.0168228,0.0150299,0.0193405,0.0106812,0.0179672,0.0224686,-9.97986,0.0156021,0.0025177,0.0141144,0.000686646,0.0214005,-0.00301361,0.0163651,0.0088501
6,8,10.0097,0.000305176,0,-2.4247,0.055681,-0.0741475,0.054128,0.0718859,-0.0931465,0.144403,-0.124851,-0.0831808,0.0125885,0.0257111,0.0175858,0.0127792,0.0151825,0.0100708,0.0232315,0.0223541,-9.97986,0.0208282,0.00427246,0.0130463,0.000724792,0.0188828,-0.0012207,0.0174713,0.00732422
6,9,10.0097,0.00152588,0.000152588,-2.42531,0.0562914,-0.0738423,0.055959,0.0718859,-0.090705,0.147149,-0.124851,-0.0816549,0.00972748,0.0201797,0.0166702,0.0115585,0.0169373,0.0125122,0.0223541,0.0278473,-9.97986,0.0216293,0.0030899,0.0156784,0.00335693,0.0230408,-0.00328064,0.0141144,0.00923157
7,0,10.0097,-0.000305176,0.000762939,-2.42501,0.0559862,-0.0726216,0.0553487,0.07036,-0.0919257,0.145318,-0.124851,-0.0816549,0.0102615,0.0197983,0.0173569,0.0113678,0.0182343,0.0108337,0.018692,0.0292206,-9.97986,0.0214767,0.00267029,0.0131226,0.00473022,0.018692,-0.0031662,0.0166321,0.0101471
7,1,10.0097,-0.000305176,-0.00259399,-2.42745,0.0559862,-0.0753682,0.0516866,0.021837,-0.0974189,0.145929,-0.128513,-0.0834859,0.00694275,0.0204849,0.0162888,0.00808716,0.0165558,0.0101852,0.0197601,0.0253296,-9.97986,0.0208664,0.00427246,0.0152588,0.00404358,0.0189209,-0.00434875,0.0157928,0.00652313
7,2,1.07015,0.000305176,-0.00473022,-2.42409,0.0581224,-0.0729268,0.0535176,-0.00196668,-0.0961982,0.147149,-0.129123,-0.0810445,0.00896454,0.0164032,0.0209427,0.0137329,0.0163651,0.0108337,0.0207901,0.0208282,-9.97986,0.0163651,0.00461578,0.013237,0.00305176,0.0147629,-0.00183105,0.0125122,0.00644684
7,3,-5.87016,0,-0.00457764,-2.42501,0.0562914,-0.0735371,0.0547383,-0.0144789,-0.095893,0.147149,-0.130649,-0.0819601,0.0075531,0.0191879,0.0136566,0.011673,0.0219345,0.0152206,0.0231552,0.0200272,-9.97986,0.0208282,0.00835419,0.0175476,0.0082016,0.0214386,-0.00331879,0.0160599,0.00766754
7,4,-9.99003,0.000305176,-0.00320435,-2.4247,0.0565965,-0.0747579,0.0547383,0.0108507,-0.0934516,0.146539,-0.127598,-0.0798238,0.0105286,0.021553,0.0150681,0.0123596,0.0130081,0.0107956,0.0200272,0.0143433,-9.97986,0.0149155,-0.000267029,0.0122833,0.00366211,0.0170517,-0.00148773,0.0182343,0.00709534
7,5,-9.99003,0,-0.00198364,-2.42531,0.0562914,-0.073232,0.055959,0.0392321,-0.0900947,0.145624,-0.126072,-0.0804342,0.00782013,0.0227356,0.0198746,0.014267,0.0190735,0.0130081,0.0212479,0.01091,-9.97986,0.00999451,0.000801086,0.0172043,0.00766754,-3.8147e-005,-0.00320435,0.016098,0.0056839
7,6,-9.99003,0.000305176,-0.000610352,-2.42531,0.0569017,-0.0738423,0.0553487,0.054796,-0.090705,0.146234,-0.125461,-0.0816549,0.00923157,0.0210953,0.0187683,0.0129318,0.0136948,0.0101471,0.022316,0.0094986,-9.97986,0.00740051,-0.000267029,0.0147629,0.00564575,-0.00545502,0.000839233,0.0142288,0.00686646
7,7,-9.99003,0.00305176,0.000152588,-2.42623,0.0553758,-0.0744527,0.0556539,0.0758531,-0.0897895,0.146234,-0.126072,-0.0822652,0.0110626,0.0216675,0.0162506,0.013237,0.0185013,0.0110245,0.0228119,0.0146103,-9.97986,0.00640869,0.00106812,0.0126266,0.00492096,0.0120544,0.00232697,0.0143814,0.00617981
7,8,-9.46666,-0.000915527,0.00183105,-2.42531,0.0550706,-0.0753682,0.0562642,0.128038,-0.0846015,0.145013,-0.121799,-0.0819601,0.0117874,0.0218964,0.017128,0.0110245,0.0191116,0.0138092,0.0231171,0.00976563,-9.97986,0.0101471,0.000991821,0.0136948,0.00679016,0.016861,0.00144958,0.0154495,0.00305176
7,9,-1.02183,0.0012207,0.00320435,-2.42714,0.0535448,-0.0756734,0.0532125,0.143602,-0.0873481,0.144708,-0.12241,-0.0850118,0.00587463,0.0237274,0.0186539,0.0138855,0.0200653,0.0166321,0.0236511,0.00709534,-9.97986,0.01194,-0.00175476,0.0131989,0.00553131,0.0138474,-0.000419617,0.0147629,0.00270844
8,0,6.79952,0.00183105,0.00396729,-2.42745,0.0532396,-0.0738423,0.0544332,0.153368,-0.0894843,0.144098,-0.122104,-0.0856222,0.0107193,0.0257874,0.0180817,0.010376,0.0164413,0.0101089,0.0257492,0.0136566,-9.97986,0.0125885,-0.0025177,0.0180435,0.0043869,0.0146484,-0.0025177,0.0132751,0.00514984
8,1,10.0097,-0.000915527,0.00427246,-2.4305,0.0526292,-0.0765889,0.050771,0.125597,-0.0955879,0.142572,-0.125156,-0.0883688,0.012207,0.0204086,0.0189209,0.0104141,0.0131607,0.0112152,0.0230408,0.0159836,-9.97986,0.0154114,0.00106812,0.0174713,0.00350952,0.0187683,-0.00198364,0.0131226,0.00659943
8,2,10.0097,0.000305176,0.00106812,-2.4305,0.0544603,-0.0756734,0.050771,0.0911119,-0.0965034,0.143182,-0.126072,-0.0877584,0.0140381,0.0233078,0.0175476,0.0104904,0.0184631,0.00579834,0.022583,0.0160599,-9.97986,0.0169373,-0.000724792,0.0130844,0.00843048,0.0165558,-0.000991821,0.0183868,0.00679016
8,3,10.0097,0.000915527,0.000305176,-2.42959,0.0550706,-0.075063,0.0510762,0.077379,-0.0946723,0.143487,-0.126377,-0.0874532,0.00911713,0.0213623,0.0181961,0.00968933,0.0136566,0.00782013,0.018692,0.0154877,-9.97986,0.0149155,0.0012207,0.0130844,0.00556946,0.0162888,-0.00160217,0.011673,0.00556946
8,4,10.0097,0.000305176,-0.000152588,-2.42714,0.0541551,-0.075063,0.0522969,0.0752428,-0.0961982,0.144098,-0.126072,-0.0862325,0.0111771,0.0197983,0.0206757,0.0141144,0.0157166,0.0094986,0.0226593,0.0143433,-9.97986,0.0154495,-0.001297,0.0127411,0.00137329,0.0179291,-0.000991821,0.0156784,0.0043869
8,5,10.0097,-0.000610352,0.000305176,-2.42653,0.0547655,-0.0738423,0.0538228,0.0718859,-0.0943672,0.144403,-0.126682,-0.0850118,0.0115967,0.021553,0.0172806,0.0132751,0.0191498,0.0104141,0.0178146,0.016098,-9.97986,0.0152969,-0.0018692,0.0172806,0.00846863,0.0128555,-0.00198364,0.0162888,0.00499725
8,6,10.0097,0.0012207,-0.000152588,-2.42714,0.0553758,-0.0747579,0.0522969,0.07036,-0.0937568,0.145318,-0.126682,-0.0847066,0.00961304,0.0183868,0.0212097,0.0102997,0.0151062,0.00843048,0.0188828,0.0203323,-9.97986,0.0161743,-0.00408173,0.0129318,0.00831604,0.0187683,-0.00354767,0.0143814,0.00495911
8,7,10.0097,0,0.000915527,-2.42653,0.055681,-0.0744527,0.0526021,0.0694445,-0.0943672,0.144708,-0.124546,-0.0831808,0.00953674,0.021553,0.0195313,0.0128555,0.0153732,0.0126648,0.0244522,0.0166321,-9.97986,0.0167465,-0.00545502,0.00980377,0.00606537,0.0192261,-0.00484467,0.0151443,0.00640869
8,8,10.0097,0,0.000457764,-2.42653,0.055681,-0.0735371,0.0535176,0.0718859,-0.0916206,0.147149,-0.124546,-0.0813497,0.0125122,0.0227737,0.0218201,0.00873566,0.0174332,0.0114059,0.0228882,0.0216293,-9.97986,0.0218582,-0.00213623,0.0173187,0.00843048,0.0200653,-7.62939e-005,0.0157166,0.00606537
8,9,10.0097,0.000915527,0,-2.42501,0.0569017,-0.0738423,0.0556539,0.0718859,-0.0919257,0.146234,-0.12363,-0.0819601,0.0102615,0.0246429,0.020256,0.0137711,0.0185394,0.00923157,0.0234222,0.0273895,-9.97986,0.0222397,-0.0044632,0.014267,0.00408173,0.0172424,-0.00408173,0.0145721,0.00778198
9,0,10.0097,0.00274658,0,-2.42501,0.0553758,-0.0741475,0.0547383,0.0709703,-0.0913154,0.146234,-0.125461,-0.0810445,0.0104141,0.0167465,0.0197983,0.0127029,0.0148773,0.00869751,0.0238037,0.0240326,-9.97986,0.0215912,-0.00114441,0.0108719,0.00793457,0.0197601,-0.00423431,0.0159836,0.00602722
9,1,10.0097,-0.000305176,-0.00137329,-2.42684,0.0559862,-0.0753682,0.0513814,0.0224474,-0.0971137,0.146844,-0.128208,-0.0831808,0.0127029,0.0246048,0.0238037,0.00934601,0.0200272,0.0130081,0.0229263,0.0255203,-9.97986,0.0182343,-0.000343323,0.0137329,0.00762939,0.0199127,-0.000114441,0.0157547,0.00873566
9,2,1.17604,-0.000915527,-0.00534058,-2.42623,0.0569017,-0.0723164,0.0522969,-0.0016615,-0.0971137,0.147455,-0.129429,-0.0816549,0.0127029,0.0249863,0.0190353,0.0139236,0.0183868,0.0112152,0.02285,0.0232315,-9.97986,0.0188828,-0.00164032,0.0141144,0.00442505,0.017662,-0.00366211,0.0177765,0.00808716
9,3,-5.81492,-0.000305176,-0.0050354,-2.42501,0.0575121,-0.075063,0.0547383,-0.0138685,-0.0955879,0.145624,-0.130344,-0.0819601,0.00793457,0.021553,0.0179672,0.00640869,0.013237,0.00999451,0.0235748,0.0187683,-9.97986,0.0167847,-0.00556946,0.0122833,0.001297,0.0151443,-0.00453949,0.0148773,0.00450134
9,4,-9.99003,-0.000610352,-0.00350952,-2.4247,0.0559862,-0.0741475,0.0556539,0.0102404,-0.0922309,0.14837,-0.129123,-0.0813497,0.00846863,0.0211716,0.0159454,0.00900269,0.017395,0.0100327,0.0275803,0.014534,-9.97986,0.014267,-0.0012207,0.0117874,0.00740051,0.0170898,-0.000228882,0.0162125,0.00789642
9,5,-9.99003,0.000915527,-0.00183105,-2.42592,0.0553758,-0.0735371,0.0556539,0.0392321,-0.090705,0.146234,-0.128208,-0.0807394,0.00801086,0.0210953,0.0150299,0.0140762,0.0178146,0.00995636,0.0232315,0.0145721,-9.97986,0.00793457,-0.00331879,0.0151443,0.00713348,0.000495911,-0.00728607,0.0165176,0.00705719
9,6,-9.99003,0.000305176,-0.000305176,-2.42592,0.0550706,-0.073232,0.055959,0.0557115,-0.0900947,0.146234,-0.126377,-0.0816549,0.010376,0.0233078,0.0156021,0.0104523,0.0128555,0.00907898,0.0250244,0.00759125,-9.97986,0.00736237,-0.000839233,0.0122833,0.00289917,-0.00419617,-0.00530243,0.0150299,0.00301361
9,7,-9.99003,0.0012207,0.000762939,-2.42623,0.0553758,-0.0744527,0.0553487,0.0767687,-0.0891792,0.146234,-0.125156,-0.0816549,0.0114059,0.0226212,0.0169754,0.0094223,0.0126266,0.00720978,0.019722,0.00480652,-9.97986,0.00801086,0.000495911,0.0136185,0.00602722,0.0114059,-0.00492096,0.0165176,0.0050354
9,8,-9.34733,-0.000610352,0.00259399,-2.4247,0.0550706,-0.0747579,0.0556539,0.128954,-0.0861274,0.145929,-0.122104,-0.0831808,0.0114822,0.0267792,0.0205612,0.0113678,0.0175858,0.0111008,0.0205612,0.00736237,-9.97986,0.0108719,0.00087738,0.0146103,0.00743866,0.0175476,-0.00259399,0.0151443,0.00408173
9,9,-0.868635,-0.000305176,0.00289917,-2.42684,0.0532396,-0.0741475,0.055959,0.143602,-0.088874,0.144098,-0.121189,-0.085317,0.0133133,0.020752,0.0168991,0.00980377,0.0191116,0.0104523,0.0213242,0.0102997,-9.97986,0.0106049,0.000762939,0.0161362,0.00587463,0.0144196,-0.00495911,0.0143433,0.00278473
10,0,6.99452,0.000305176,0.00457764,-2.42928,0.0535448,-0.0759786,0.0538228,0.153368,-0.0894843,0.143487,-0.12241,-0.085317,0.00659943,0.0234604,0.017395,0.00831604,0.0169754,0.0101089,0.0216675,0.0167084,-9.97986,0.0131607,-0.00350952,0.0176239,0.0062561,0.0191116,-0.00396729,0.0136566,0.00431061
10,1,10.0097,0.000305176,0.00411987,-2.42989,0.0532396,-0.0762837,0.0510762,0.125292,-0.0949775,0.143182,-0.12363,-0.0883688,0.0107574,0.022583,0.0180435,0.0106812,0.0188828,0.00610352,0.0265884,0.0130081,-9.97986,0.00976563,0.000190735,0.0120926,0.00396729,0.0152969,-0.00377655,0.0122833,0.00442505
10,2,10.0097,-0.000610352,0.000762939,-2.4305,0.0535448,-0.0762837,0.0495503,0.0892809,-0.0983344,0.143487,-0.126072,-0.0889791,0.00923157,0.0233841,0.0187302,0.0101471,0.0180817,0.00537872,0.0198746,0.0143814,-9.97986,0.0133896,0.00255585,0.0146866,0.00602722,0.016098,-0.0018692,0.0149918,0.00511169
10,3,10.0097,0.000915527,-0.000610352,-2.42928,0.0535448,-0.0765889,0.0519917,0.0785997,-0.0961982,0.142877,-0.125766,-0.0874532,0.0124359,0.0225449,0.0202942,0.0104523,0.0148773,0.00663757,0.021019,0.0127411,-9.97986,0.0145721,-0.00102997,0.0149536,0.00465393,0.016861,-0.00236511,0.0140762,0.00637054
10,4,10.0097,0,0.000152588,-2.42898,0.0550706,-0.075063,0.0519917,0.0743273,-0.094062,0.144098,-0.126072,-0.0871481,0.0094223,0.0204849,0.019722,0.0120926,0.0114822,0.00938416,0.0215149,0.0183105,-9.97986,0.0148773,-0.00370026,0.0144958,0.00751495,0.0188828,-0.000419617,0.0156403,0.0056076
10,5,10.0097,0.000915527,0.000305176,-2.42745,0.0541551,-0.0747579,0.0532125,0.072191,-0.0946723,0.145624,-0.124851,-0.085317,0.0119781,0.0189972,0.0180817,0.0143433,0.0150299,0.00686646,0.0192642,0.0177765,-9.97986,0.0104523,-0.00541687,0.016861,0.00728607,0.0159454,-0.000152588,0.0181198,0.00793457
10,6,10.0097,0.0012207,0,-2.42714,0.0550706,-0.0753682,0.0529073,0.0709703,-0.0946723,0.143792,-0.125461,-0.0850118,0.00816345,0.022049,0.0180435,0.0121689,0.0213623,0.00907898,0.0201416,0.0145721,-9.97986,0.0148773,-0.00213623,0.0161362,0.010643,0.017662,0.00038147,0.0169373,0.00801086
10,7,10.0097,0.00183105,0.000457764,-2.42684,0.0541551,-0.0753682,0.0532125,0.0697496,-0.0925361,0.144708,-0.124546,-0.0834859,0.0111389,0.0252151,0.0172424,0.0117111,0.016861,0.00686646,0.02388,0.0211716,-9.97986,0.0154877,-0.00667572,0.0177002,0.0102234,0.0146484,-0.00301361,0.0161743,0.00579834
10,8,10.0097,0.000915527,0.000305176,-2.4247,0.055681,-0.0741475,0.0544332,0.0718859,-0.0925361,0.145929,-0.124546,-0.0816549,0.0117874,0.0186539,0.0197983,0.0103378,0.0173569,0.0105286,0.0213242,0.0260925,-9.97986,0.0219727,-0.00572205,0.0156403,0.00816345,0.0200653,-0.00114441,0.0178909,0.0088501
10,9,10.0097,-0.000915527,-0.000152588,-2.42409,0.0569017,-0.0738423,0.0553487,0.0718859,-0.090705,0.146234,-0.125156,-0.0813497,0.0156784,0.0186157,0.0192642,0.0138474,0.0168228,0.0117111,0.0231934,0.0253677,-9.97986,0.0225449,-0.00656128,0.0150299,0.0108337,0.0222015,-0.00213623,0.0166321,0.00793457
11,0,10.0097,0.00152588,0,-2.4244,0.0565965,-0.0738423,0.0556539,0.0715807,-0.0928413,0.147149,-0.123935,-0.0813497,0.0109863,0.0210953,0.0204468,0.0130463,0.0193787,0.00873566,0.0235367,0.0257111,-9.97986,0.0241852,-0.00354767,0.014267,0.00904083,0.0178146,-0.00343323,0.0159073,0.00598907
11,1,9.92269,0.0012207,-0.00183105,-2.42776,0.0553758,-0.0744527,0.0513814,0.0209215,-0.0986396,0.145624,-0.127903,-0.0831808,0.0131226,0.0194168,0.0218964,0.0131226,0.0163269,0.0100708,0.0237274,0.0217056,-9.97986,0.0205612,-0.00282288,0.0160599,0.00740051,0.0233459,-0.00297546,0.0165176,0.00835419
11,2,0.854998,0.00152588,-0.00442505,-2.42501,0.0559862,-0.0735371,0.0544332,-0.0028822,-0.0965034,0.14776,-0.128208,-0.0813497,0.0112534,0.0234985,0.0165939,0.0112915,0.0201416,0.00984192,0.0247574,0.0255203,-9.97986,0.0222778,-0.00431061,0.0125885,0.00507355,0.0223923,-0.00144958,0.0133133,0.00839233
11,3,-6.03038,0,-0.00488281,-2.42653,0.0569017,-0.073232,0.0544332,-0.0153944,-0.0965034,0.146234,-0.129123,-0.0813497,0.00724792,0.0187683,0.017128,0.0115204,0.0187683,0.0137329,0.0203323,0.0243378,-9.97986,0.0146866,-0.00419617,0.0134277,0.00400543,0.0159454,-0.00331879,0.018425,0.00671387
11,4,-9.99003,-0.0012207,-0.00305176,-2.42653,0.0562914,-0.075063,0.0556539,0.0108507,-0.0928413,0.147149,-0.127292,-0.0813497,0.00961304,0.0193024,0.0186539,0.00888824,0.0172806,0.011673,0.0251389,0.0183487,-9.97986,0.0121689,-0.00419617,0.0151443,0.00514984,0.0185013,-0.000572205,0.0177765,0.00827789
11,5,-9.99003,0.000610352,-0.00213623,-2.42592,0.055681,-0.0744527,0.055959,0.0383165,-0.0919257,0.145929,-0.127292,-0.0804342,0.00862122,0.0232697,0.0160217,0.0144577,0.019455,0.00850677,0.0271988,0.0144958,-9.97986,0.0105667,-0.00396729,0.0136185,0.00534058,-0.00587463,-0.00118256,0.0172043,0.00495911
11,6,-9.99003,-0.000305176,-0.00106812,-2.42562,0.055681,-0.0741475,0.0550435,0.0560167,-0.0916206,0.144098,-0.126072,-0.0825704,0.00701904,0.0196075,0.0121307,0.0131607,0.0205994,0.00915527,0.0208282,0.0114441,-9.97986,0.00457764,-0.00255585,0.0143814,0.00637054,-0.0075531,0.00106812,0.0150299,0.00492096
11,7,-9.99003,-0.000915527,0,-2.42592,0.0553758,-0.0747579,0.0562642,0.0770738,-0.0900947,0.145624,-0.125156,-0.0825704,0.00934601,0.0246429,0.0152206,0.011673,0.0190735,0.01194,0.0255203,0.0125885,-9.97986,0.0114822,-0.000610352,0.015564,0.00553131,0.00946045,-0.00175476,0.015831,0.00892639
11,8,-9.49565,0,0.00183105,-2.4244,0.0544603,-0.0747579,0.0577901,0.129564,-0.0849067,0.145929,-0.121494,-0.0822652,0.0139236,0.0228882,0.0172806,0.0127029,0.0154114,0.0120926,0.0226974,0.00617981,-9.97986,0.0128555,-0.0062561,0.0126648,0.00869751,0.0157928,-0.0037384,0.0189972,0.00537872
11,9,-1.08561,-0.000305176,0.0038147,-2.42776,0.0544603,-0.075063,0.0547383,0.143907,-0.0894843,0.144098,-0.121189,-0.0850118,0.0114822,0.0216293,0.0202942,0.0134277,0.0149155,0.00858307,0.0227737,0.0110626,-9.97986,0.0149536,-0.00377655,0.016861,0.00537872,0.0178146,-0.00404358,0.0163651,0.00598907
12,0,6.81264,0.000915527,0.0038147,-2.42898,0.0535448,-0.0756734,0.0532125,0.153368,-0.0891792,0.143182,-0.121189,-0.0850118,0.00976563,0.021286,0.0201416,0.0126266,0.0139236,0.00900269,0.024147,0.0133514,-9.97986,0.016861,-0.00740051,0.0171661,0.00774384,0.0197983,-0.00137329,0.0138855,0.00637054
12,1,10.0097,0.000915527,0.00427246,-2.43111,0.0532396,-0.0765889,0.0516866,0.126207,-0.0955879,0.143487,-0.125156,-0.0874532,0.0107193,0.0238037,0.0203323,0.0120544,0.0172043,0.00720978,0.0256729,0.0119019,-9.97986,0.0127029,-0.00411987,0.0160217,0.00686646,0.0170517,-0.000343323,0.0171661,0.00492096
12,2,10.0097,0.000915527,0.00106812,-2.4302,0.0532396,-0.0771993,0.050771,0.0914171,-0.0968086,0.143792,-0.126377,-0.0883688,0.0121307,0.0201416,0.0192261,0.0134277,0.0187683,0.00389099,0.0215149,0.0133133,-9.97986,0.00999451,-0.00465393,0.0130463,0.0050354,0.0157928,-0.00392914,0.0133896,0.00682831
12,3,10.0097,0.000610352,0,-2.42989,0.0535448,-0.0765889,0.050771,0.0785997,-0.0961982,0.144403,-0.126377,-0.0880636,0.0136185,0.0242996,0.0131989,0.0157166,0.0164795,0.00762939,0.0234604,0.0165176,-9.97986,0.017128,-0.00469208,0.0195694,0.00804901,0.0178909,-0.000228882,0.0177765,0.0056076
12,4,10.0097,0.0012207,0.000457764,-2.42867,0.0544603,-0.0759786,0.0526021,0.0743273,-0.0943672,0.143792,-0.126072,-0.0868429,0.0125504,0.0162125,0.019722,0.0124359,0.0157166,0.00785828,0.0237274,0.0159454,-9.97986,0.0137711,-0.00400543,0.0162888,0.00854492,0.0179672,-0.00152588,0.0149536,0.00679016
12,5,10.0097,-0.000305176,0.000152588,-2.42745,0.0544603,-0.0771993,0.0535176,0.0715807,-0.094062,0.145013,-0.125766,-0.085317,0.0101852,0.0204086,0.0194168,0.0131226,0.0152969,0.00770569,0.0192642,0.0165558,-9.97986,0.0170135,-0.00167847,0.0134659,0.00610352,0.0206375,-0.00331879,0.0131607,0.00526428
12,6,10.0097,-0.000610352,0.000305176,-2.42745,0.0550706,-0.0753682,0.0535176,0.0718859,-0.0943672,0.145013,-0.125461,-0.0840963,0.0110626,0.0264359,0.0174332,0.00709534,0.0174713,0.0106812,0.0225449,0.0159836,-9.97986,0.0163269,-0.000495911,0.0123596,0.0102997,0.0181961,-0.00228882,0.0166702,0.00614166
12,7,10.0097,0.00244141,0.000610352,-2.42653,0.0541551,-0.0735371,0.0526021,0.0712755,-0.0937568,0.145929,-0.125766,-0.0844015,0.0137329,0.0245667,0.021286,0.00720978,0.0205231,0.00926971,0.0211334,0.0166321,-9.97986,0.0143433,0.00453949,0.0167465,0.00347137,0.0137711,-0.00225067,0.0181198,0.0063324
12,8,10.0097,-0.000610352,-0.000152588,-2.42501,0.0559862,-0.0738423,0.0553487,0.0715807,-0.0913154,0.14776,-0.125766,-0.0825704,0.011673,0.0268555,0.0213623,0.0120544,0.0231934,0.00843048,0.0212479,0.0233841,-9.97986,0.0214767,0.00301361,0.0168228,0.00751495,0.0175476,-0.00514984,0.0183105,0.00514984
12,9,10.0097,0.00213623,0.000457764,-2.42501,0.0569017,-0.0741475,0.0547383,0.072191,-0.090705,0.146234,-0.124851,-0.0816549,0.0155258,0.0219345,0.0195313,0.0132751,0.0191116,0.00976563,0.0218582,0.0274277,-9.97986,0.0208282,0.00286102,0.0157547,0.00896454,0.0196075,-0.00297546,0.0169373,0.00843048
13,0,10.0097,-0.000610352,-0.000152588,-2.42562,0.0559862,-0.073232,0.0562642,0.0709703,-0.0922309,0.147455,-0.12363,-0.0819601,0.0139618,0.02285,0.0156784,0.0182343,0.0156021,0.00881195,0.018692,0.0314331,-9.97986,0.0222015,0.00587463,0.0152588,0.00762939,0.018425,-0.0038147,0.018425,0.0069046
13,1,10.0097,-0.000610352,-0.00259399,-2.42776,0.0562914,-0.0744527,0.0513814,0.020006,-0.0980293,0.145624,-0.128208,-0.0834859,0.0125504,0.0257492,0.0154877,0.0177765,0.0207901,0.0100327,0.0196075,0.0279617,-9.97986,0.0177002,0.00259399,0.0141525,0.00385284,0.0164032,-0.00717163,0.0154114,0.00492096
13,2,0.98836,0.000915527,-0.00442505,-2.42653,0.0569017,-0.073232,0.0544332,-0.00440808,-0.0971137,0.146539,-0.129123,-0.0813497,0.0108337,0.0196457,0.0209427,0.0124359,0.0156021,0.00606537,0.0190353,0.0191498,-9.97986,0.0217438,0.00507355,0.0137711,0.00404358,0.0170898,-0.00499725,0.0152206,0.00751495
13,3,-6.06242,0.00183105,-0.00411987,-2.42531,0.0565965,-0.0744527,0.0547383,-0.0138685,-0.0974189,0.146234,-0.129734,-0.0819601,0.0104523,0.0196457,0.0226212,0.0110245,0.0179672,0.0115204,0.0226974,0.0213242,-9.97986,0.0144196,0.00652313,0.0138092,0.00587463,0.0188828,-0.00644684,0.0152588,0.00671387
13,4,-9.99003,0.00183105,-0.00289917,-2.42409,0.055681,-0.073232,0.0562642,0.0102404,-0.0937568,0.145929,-0.129429,-0.0813497,0.0107574,0.0233841,0.0210953,0.0125504,0.0178528,0.00900269,0.0203705,0.0149155,-9.97986,0.0147247,0.000915527,0.0133514,0.00782013,0.0176239,-0.0044632,0.0147247,0.00675201
13,5,-9.99003,0.00274658,-0.00198364,-2.42501,0.055681,-0.0726216,0.0553487,0.0383165,-0.090705,0.145318,-0.127598,-0.0816549,0.00923157,0.0175095,0.0213623,0.00907898,0.0181961,0.00911713,0.0185776,0.0108719,-9.97986,0.00904083,0.00205994,0.0104904,0.00762939,-0.00087738,-0.00793457,0.0186157,0.00675201
13,6,-9.99003,-0.000305176,-0.000610352,-2.42592,0.055681,-0.0747579,0.0553487,0.054796,-0.0916206,0.146539,-0.126072,-0.0819601,0.00679016,0.0253677,0.0183487,0.0136566,0.019455,0.00747681,0.0203705,0.00904083,-9.97986,0.00724792,0.0044632,0.0121689,0.00835419,-0.00923157,-0.00556946,0.0168228,0.00583649
13,7,-9.99003,0.000610352,0.000915527,-2.42623,0.0547655,-0.0747579,0.0547383,0.0758531,-0.0894843,0.146234,-0.124241,-0.0816549,0.0123596,0.0228119,0.0168991,0.015831,0.0188065,0.00717163,0.0227737,0.0115585,-9.97986,0.00904083,0.0025177,0.0130463,0.00686646,0.0094223,-0.00545502,0.0180817,0.00572205
13,8,-9.33391,0.0012207,0.00213623,-2.42562,0.0562914,-0.0756734,0.0568746,0.129259,-0.0855171,0.145624,-0.120273,-0.0825704,0.00881195,0.020256,0.0165939,0.0117111,0.0157547,0.0113678,0.0180435,0.0111771,-9.97986,0.0127411,0.00583649,0.0136948,0.00923157,0.0159073,-0.00354767,0.0139236,0.00717163
13,9,-0.962934,-0.000610352,0.00320435,-2.42684,0.0547655,-0.0747579,0.0556539,0.145128,-0.0885688,0.146234,-0.120578,-0.0837911,0.0122452,0.0231171,0.0209427,0.0117493,0.0141525,0.0120926,0.0217056,0.0119781,-9.97986,0.00938416,0.00087738,0.00835419,0.00782013,0.0154877,-0.00247955,0.0183868,0.00648499
14,0,6.82729,0.0012207,0.00442505,-2.42745,0.0532396,-0.0759786,0.0550435,0.153368,-0.090705,0.142877,-0.122104,-0.0862325,0.0138855,0.0255966,0.0189972,0.0157928,0.0191116,0.00659943,0.0214386,0.015831,-9.97986,0.014534,0.00274658,0.0178528,0.00736237,0.014534,-0.0062561,0.0181961,0.00675201
14,1,10.0097,0.000305176,0.00427246,-2.43142,0.0541551,-0.0771993,0.0501607,0.126817,-0.0949775,0.142267,-0.123325,-0.0880636,0.00995636,0.0235367,0.0143051,0.0121689,0.0156021,0.0108719,0.0224304,0.0141144,-9.97986,0.0136185,0.0044632,0.0145721,0.0113678,0.0141907,-0.00267029,0.0143051,0.00762939
14,2,10.0097,-0.000610352,0.000762939,-2.4305,0.0535448,-0.0778096,0.0498555,0.0905016,-0.0983344,0.143182,-0.125766,-0.0877584,0.00774384,0.0235367,0.0180817,0.0131607,0.0163651,0.00968933,0.0190735,0.0148392,-9.97986,0.0136566,0.00152588,0.0113297,0.00839233,0.0156784,-0.00183105,0.0189972,0.00770569
14,3,10.0097,0.000610352,0.000152588,-2.42867,0.0541551,-0.0771993,0.0510762,0.0782946,-0.095893,0.142572,-0.126377,-0.0886739,0.010643,0.0243759,0.0212097,0.0154495,0.0135422,0.00656128,0.0229645,0.0166321,-9.97986,0.0150299,0.00350952,0.0104141,0.00694275,0.0136185,-0.00190735,0.0157547,0.00526428
14,4,10.0097,-0.000610352,0.000610352,-2.42745,0.0544603,-0.0759786,0.0519917,0.0749376,-0.0946723,0.144403,-0.126682,-0.0865377,0.0107574,0.0258636,0.0195313,0.0142288,0.0156021,0.00991821,0.0240326,0.0167084,-9.97986,0.0118256,-0.00148773,0.0128555,0.0043869,0.0191116,-0.000419617,0.0163269,0.00659943
14,5,10.0097,0.000610352,0.000762939,-2.42837,0.0550706,-0.0741475,0.0535176,0.0718859,-0.0937568,0.144098,-0.125461,-0.085317,0.0125885,0.0255203,0.0209808,0.0138092,0.0196075,0.0094223,0.0203323,0.0160599,-9.97986,0.017395,0.000915527,0.0147629,0.00675201,0.0147247,0.00225067,0.0148392,0.00835419
14,6,10.0097,0,0.000610352,-2.42745,0.0550706,-0.0756734,0.0535176,0.0709703,-0.0931465,0.144403,-0.126072,-0.0847066,0.0100708,0.0242996,0.0199127,0.0138855,0.0162888,0.0094986,0.0223541,0.014267,-9.97986,0.0173569,-0.00442505,0.0132751,0.00843048,0.0183868,0.0019455,0.0160217,0.0075531
14,7,10.0097,-0.000305176,0.000762939,-2.42776,0.0559862,-0.0744527,0.0535176,0.0709703,-0.0925361,0.145929,-0.125766,-0.0837911,0.0145721,0.0231171,0.014534,0.011673,0.0182724,0.0088501,0.019455,0.0243759,-9.97986,0.0135803,-0.000534058,0.017395,0.00606537,0.0152588,-0.00362396,0.0179672,0.00598907
14,8,10.0097,-0.000915527,0,-2.42653,0.0553758,-0.0744527,0.0547383,0.0709703,-0.0928413,0.146539,-0.123935,-0.0810445,0.0119781,0.0226974,0.0201035,0.0069046,0.0188828,0.0069809,0.022049,0.0247574,-9.97986,0.0205612,0.00167847,0.0137329,0.00415802,0.0175476,0.000991821,0.0183487,0.00728607
14,9,10.0097,0.000610352,0.000305176,-2.42562,0.0569017,-0.0738423,0.0553487,0.0709703,-0.0919257,0.147455,-0.123935,-0.0825704,0.0106812,0.0230026,0.0221252,0.0134659,0.0163651,0.00926971,0.0231934,0.0274658,-9.97986,0.0185776,-0.00144958,0.0173187,0.00881195,0.0183868,0.00198364,0.0191879,0.00774384
15,0,10.0097,0.00244141,-0.000152588,-2.4244,0.0569017,-0.0738423,0.0553487,0.0715807,-0.0928413,0.146539,-0.123935,-0.0813497,0.0133514,0.020752,0.0168228,0.0101089,0.0142288,0.00667572,0.0194168,0.026741,-9.97986,0.0244904,-0.00213623,0.0166702,0.00827789,0.0183105,-0.00240326,0.0159836,0.00751495
15,1,10.0097,-0.000610352,-0.00259399,-2.42684,0.0572069,-0.075063,0.0516866,0.0209215,-0.0989448,0.145318,-0.128818,-0.0834859,0.00965118,0.0247192,0.0172806,0.0136185,0.013504,0.0154495,0.0233078,0.0212097,-9.97986,0.0193024,-0.000915527,0.0168228,0.00873566,0.014267,0.00175476,0.0207138,0.0075531
15,2,1.00087,-0.000610352,-0.00427246,-2.42501,0.0559862,-0.0729268,0.0544332,-0.00257703,-0.0961982,0.147455,-0.128818,-0.0813497,0.0140381,0.0256348,0.0221252,0.0140762,0.0153732,0.00900269,0.0224686,0.0229263,-9.97986,0.018959,-0.000343323,0.0144196,0.00553131,0.0224686,-0.000686646,0.0172043,0.00526428
15,3,-5.99162,0.000915527,-0.00427246,-2.42501,0.0559862,-0.0744527,0.0544332,-0.0147841,-0.0971137,0.146539,-0.128513,-0.0813497,0.0137329,0.0239182,0.0203323,0.0110245,0.0162125,0.0102997,0.0232697,0.0175476,-9.97986,0.0193787,0.00484467,0.0156784,0.00587463,0.0157928,-0.000419617,0.0166321,0.0111771
15,4,-9.99003,0.000915527,-0.00335693,-2.42348,0.0572069,-0.0735371,0.0544332,0.0126818,-0.0925361,0.146234,-0.127903,-0.0807394,0.00488281,0.0252151,0.0175858,0.0117874,0.0120926,0.0118256,0.0201797,0.0156021,-9.97986,0.0115204,0.00305176,0.0119019,0.00911713,0.0178909,-0.00423431,0.0146484,0.00854492
15,5,-9.99003,0.00213623,-0.00183105,-2.4244,0.0562914,-0.0735371,0.0550435,0.0367906,-0.0903999,0.145013,-0.126377,-0.0816549,0.00999451,0.0230789,0.0171661,0.0117493,0.0150681,0.00900269,0.0180817,0.0128937,-9.97986,0.00915527,0.00312805,0.0138855,0.00724792,0.000228882,-0.00720978,0.016098,0.00202179
15,6,-9.99003,0.000305176,-0.000762939,-2.4247,0.0559862,-0.0738423,0.055959,0.0566271,-0.0913154,0.145318,-0.126377,-0.0825704,0.00888824,0.0224686,0.0196075,0.0107956,0.0164413,0.00556946,0.0197601,0.0100327,-9.97986,0.00541687,0.00392914,0.0128937,0.0112534,-0.00881195,-0.0031662,0.0177383,0.00774384
15,7,-9.99003,0.000915527,0.000152588,-2.42562,0.0565965,-0.0753682,0.0544332,0.0761583,-0.0910102,0.146234,-0.124851,-0.0822652,0.0136566,0.0215149,0.0171661,0.0100708,0.0122452,0.00816345,0.0215149,0.00812531,-9.97986,0.00862122,0.00587463,0.0159454,0.00423431,0.00679016,-0.00350952,0.0159836,0.00484467
15,8,-9.44743,0.0012207,0.00213623,-2.4247,0.0562914,-0.0747579,0.0556539,0.128954,-0.0852119,0.143792,-0.122104,-0.0819601,0.00923157,0.0247955,0.0173187,0.00907898,0.0163269,0.0114441,0.0219345,0.01091,-9.97986,0.00717163,0.00595093,0.0175858,0.00816345,0.0153351,-0.00171661,0.0196075,0.00293732
15,9,-0.983991,0.000610352,0.00320435,-2.42684,0.0547655,-0.075063,0.0547383,0.144823,-0.0867378,0.145318,-0.122104,-0.0844015,0.0094986,0.0183487,0.0170135,0.0116348,0.016098,0.00583649,0.0247955,0.0128937,-9.97986,0.0102997,0.00556946,0.0156021,0.00602722,0.0149536,-0.0030899,0.0125122,0.0044632
16,0,6.95149,0.000305176,0.00411987,-2.42837,0.0535448,-0.0759786,0.054128,0.153978,-0.0885688,0.143182,-0.120884,-0.085317,0.0109863,0.0202179,0.0165939,0.0120163,0.0131226,0.0100708,0.0199127,0.0132751,-9.97986,0.011673,0.00213623,0.0116348,0.00526428,0.0152969,-0.00640869,0.0154877,0.00606537
16,1,10.0097,0.000610352,0.00396729,-2.43081,0.0529344,-0.0768941,0.0504659,0.124681,-0.0961982,0.141351,-0.124241,-0.0877584,0.00858307,0.0255203,0.0191498,0.011673,0.0142288,0.00988007,0.0251007,0.0139999,-9.97986,0.0123978,-0.00274658,0.0192261,0.00843048,0.0152588,-0.00156403,0.0162125,0.00534058
16,2,10.0097,0.0012207,0.000915527,-2.43111,0.0535448,-0.0768941,0.0516866,0.0914171,-0.0977241,0.143182,-0.126377,-0.0883688,0.0104523,0.021553,0.0198364,0.0104141,0.0157928,0.0111008,0.0226212,0.0149536,-9.97986,0.0145721,0.000152588,0.0102615,0.0112915,0.0146866,-0.00293732,0.0177002,0.00705719
16,3,10.0097,0.000610352,-0.000305176,-2.42928,0.0538499,-0.075063,0.0513814,0.0792101,-0.095893,0.143487,-0.126377,-0.0874532,0.0105667,0.0248718,0.021553,0.00892639,0.0159454,0.0120163,0.0213242,0.0160599,-9.97986,0.00907898,0.000572205,0.0120163,0.00835419,0.0185776,-0.000686646,0.0167465,0.00587463
16,4,10.0097,0.000610352,0.000152588,-2.42806,0.0547655,-0.0756734,0.0516866,0.0743273,-0.0943672,0.144403,-0.127292,-0.0868429,0.0111771,0.0250244,0.0225449,0.0114822,0.0153351,0.0088501,0.0218582,0.0176239,-9.97986,0.0146866,0.00469208,0.014534,0.00789642,0.0131989,-0.00366211,0.0146484,0.00473022
16,5,10.0097,-0.0012207,0.000762939,-2.42653,0.0553758,-0.0753682,0.0532125,0.0715807,-0.0946723,0.145013,-0.126987,-0.0847066,0.00923157,0.0218582,0.018692,0.0101471,0.0199509,0.00823975,0.019455,0.0167084,-9.97986,0.0170135,0.00366211,0.0147629,0.00789642,0.0197983,-0.000534058,0.0144577,0.00621796
16,6,10.0097,0,0.000305176,-2.42898,0.0547655,-0.0744527,0.0538228,0.0709703,-0.0946723,0.145929,-0.126377,-0.0850118,0.0127792,0.0247955,0.0200653,0.00934601,0.016098,0.00823975,0.018158,0.0174713,-9.97986,0.0153732,0.00190735,0.0159073,0.00637054,0.0148773,0.00385284,0.0134659,0.00511169
16,7,10.0097,0.000610352,0.000152588,-2.42806,0.0550706,-0.0747579,0.054128,0.0712755,-0.0934516,0.145318,-0.126072,-0.0828756,0.0103378,0.0252533,0.0162888,0.00976563,0.0188446,0.0103378,0.0248718,0.0245667,-9.97986,0.0180435,-0.00282288,0.015564,0.00507355,0.0177765,0.00148773,0.0161743,0.00682831
16,8,10.0097,0,0.000457764,-2.42531,0.0559862,-0.0729268,0.0550435,0.0718859,-0.0922309,0.145013,-0.125156,-0.0810445,0.0141144,0.0218201,0.0209045,0.0102615,0.0181198,0.0123596,0.0247192,0.0222397,-9.97986,0.0153732,-0.000419617,0.0161362,0.0044632,0.0170135,0.00118256,0.0156403,0.00549316
16,9,10.0097,0.00152588,0.000305176,-2.42531,0.0569017,-0.0747579,0.054128,0.0731066,-0.0925361,0.145318,-0.124546,-0.0810445,0.00915527,0.0248718,0.0197983,0.0130463,0.0188065,0.00926971,0.0190735,0.0283813,-9.97986,0.0213623,-0.000686646,0.0128937,0.0018692,0.0172043,-0.000686646,0.0146484,0.0082016
17,0,10.0097,-0.000305176,-0.000152588,-2.42501,0.0565965,-0.0738423,0.0544332,0.072191,-0.0916206,0.147149,-0.125461,-0.0810445,0.0107193,0.018158,0.021019,0.0110626,0.018959,0.0115585,0.0238419,0.0262833,-9.97986,0.018425,-0.00247955,0.0167465,0.0056076,0.0173569,-0.00114441,0.0131607,0.00789642
17,1,9.88759,0.000915527,-0.00213623,-2.42745,0.0553758,-0.0747579,0.0522969,0.0178697,-0.0983344,0.145013,-0.128208,-0.0834859,0.0117493,0.0209427,0.0189972,0.00701904,0.0147247,0.0133896,0.0215912,0.0230789,-9.97986,0.0188065,-0.00545502,0.0124741,0.00518799,0.0164032,-0.00167847,0.010643,0.00923157
17,2,0.755816,-0.00183105,-0.00427246,-2.42592,0.0569017,-0.0726216,0.0538228,-0.00440808,-0.0961982,0.147149,-0.127903,-0.0819601,0.00831604,0.0242996,0.0200653,0.0123215,0.0161743,0.00827789,0.0206375,0.0221252,-9.97986,0.018425,-0.00179291,0.0108337,0.00598907,0.0165176,-0.000648499,0.01297,0.00762939
17,3,-6.31419,0.000305176,-0.00427246,-2.42653,0.0575121,-0.0726216,0.054128,-0.0166151,-0.095893,0.145929,-0.130954,-0.0816549,0.0087738,0.0255585,0.0205994,0.0152969,0.0153351,0.0136185,0.0215149,0.0160217,-9.97986,0.0206757,-0.00137329,0.0157928,0.00541687,0.0165176,-0.00259399,0.0112915,0.00915527
17,4,-9.99003,0.000915527,-0.00305176,-2.42379,0.055681,-0.0741475,0.0544332,0.0111559,-0.0934516,0.145624,-0.127903,-0.0804342,0.00968933,0.0252151,0.0196457,0.0133514,0.0190735,0.0144196,0.0211716,0.017662,-9.97986,0.0104141,-0.00133514,0.0149155,0.00770569,0.0173187,-0.00137329,0.0119781,0.00606537
17,5,-9.99003,0.000915527,-0.00137329,-2.42531,0.0559862,-0.0735371,0.0562642,0.0392321,-0.0919257,0.147455,-0.126682,-0.0810445,0.00812531,0.0244522,0.0209045,0.00938416,0.0125504,0.00915527,0.0195313,0.0120163,-9.97986,0.0101471,-0.00198364,0.014267,0.00675201,-0.00244141,-0.00118256,0.0133133,0.00709534
17,6,-9.99003,-0.000915527,0.000152588,-2.42562,0.0553758,-0.0744527,0.0550435,0.0566271,-0.0900947,0.145318,-0.125766,-0.0825704,0.00869751,0.0193787,0.0196457,0.00827789,0.0196457,0.0133514,0.0199509,0.00801086,-9.97986,0.0100708,-0.000228882,0.0134277,0.00537872,-0.0101089,-0.00087738,0.0140762,0.00389099
17,7,-9.99003,-0.00152588,0,-2.42501,0.0553758,-0.0747579,0.0556539,0.0782946,-0.0894843,0.146234,-0.125461,-0.0825704,0.0094986,0.0217438,0.0176239,0.0124359,0.0159073,0.0146103,0.021019,0.0094223,-9.97986,0.0102234,-0.00190735,0.0139236,0.00953674,0.00732422,0.0037384,0.0139999,0.00934601
17,8,-9.29606,0.00183105,0.00244141,-2.42501,0.0553758,-0.0753682,0.0565694,0.129564,-0.0849067,0.145013,-0.12241,-0.0822652,0.0104904,0.0261307,0.0191498,0.015564,0.0139999,0.0111771,0.0165558,0.00717163,-9.97986,0.0146866,0.000572205,0.0158691,0.00431061,0.0149155,-0.00144958,0.0163269,0.00610352
17,9,-1.04442,0.00183105,0.00350952,-2.42806,0.0535448,-0.075063,0.0547383,0.144213,-0.0873481,0.142877,-0.121799,-0.0840963,0.00873566,0.022049,0.0153732,0.00995636,0.0164032,0.0107193,0.0185013,0.01091,-9.97986,0.0146866,-0.00488281,0.0167084,0.00896454,0.0148773,-0.00457764,0.0165939,0.00659943
18,0,6.86086,0.000305176,0.00411987,-2.42837,0.0532396,-0.0759786,0.0550435,0.153673,-0.0903999,0.144403,-0.121799,-0.085317,0.0118637,0.0247955,0.018959,0.0123215,0.0165176,0.0111008,0.022583,0.0137329,-9.97986,0.0166321,-0.000267029,0.0169373,0.00282288,0.0171661,-0.00289917,0.0135422,0.00370026
18,1,10.0097,0.000305176,0.00411987,-2.42959,0.0526292,-0.0768941,0.0513814,0.124986,-0.094062,0.142572,-0.124241,-0.0877584,0.0117874,0.0279617,0.0156784,0.0151825,0.017128,0.00785828,0.0238419,0.0157547,-9.97986,0.0133514,-0.0044632,0.0157166,0.00583649,0.0185013,0.000114441,0.0151443,0.00972748
18,2,10.0097,-0.000915527,0.00106812,-2.43081,0.0529344,-0.0762837,0.0501607,0.0914171,-0.0977241,0.142877,-0.126377,-0.0883688,0.0123215,0.0259781,0.0191498,0.0143051,0.0141907,0.00591278,0.0245285,0.0161743,-9.97986,0.0117111,-0.00526428,0.0102234,0.00450134,0.0149918,-0.00423431,0.0139999,0.00411987
18,3,10.0097,0.00183105,0.000305176,-2.42959,0.0541551,-0.0759786,0.0513814,0.0804308,-0.0961982,0.144403,-0.126682,-0.0874532,0.0101471,0.0239182,0.0186157,0.0128174,0.0172806,0.00839233,0.0210571,0.0189972,-9.97986,0.0202179,-0.00320435,0.0178146,0.00919342,0.0170517,-0.00167847,0.0170898,0.00926971
18,4,10.0097,0.0012207,0.000152588,-2.42837,0.0553758,-0.0759786,0.0526021,0.0743273,-0.0949775,0.143792,-0.127598,-0.0865377,0.0126266,0.0240707,0.0176239,0.0136185,0.0182724,0.011673,0.0199127,0.0152969,-9.97986,0.0138092,-0.00774384,0.0162888,0.00667572,0.0196075,-0.00499725,0.0114822,0.00453949
18,5,10.0097,0.0012207,0,-2.42806,0.0547655,-0.0747579,0.0522969,0.072191,-0.0931465,0.145318,-0.126377,-0.0850118,0.0102997,0.0227356,0.0160599,0.0141144,0.0175858,0.00839233,0.0235748,0.019989,-9.97986,0.0167465,-0.00839233,0.0177765,0.00701904,0.0181961,-0.00343323,0.0170517,0.00957489
18,6,10.0097,0.00305176,0.000152588,-2.42714,0.0550706,-0.0747579,0.054128,0.0715807,-0.0937568,0.144708,-0.126072,-0.0837911,0.0120926,0.0247192,0.021019,0.0106049,0.0185394,0.0118256,0.0252533,0.0215912,-9.97986,0.0167465,-0.00389099,0.0136566,0.00854492,0.013237,-0.00278473,0.0164413,0.00873566
18,7,10.0097,0.000915527,0.000762939,-2.42684,0.0541551,-0.0741475,0.0532125,0.0715807,-0.0919257,0.145318,-0.124546,-0.0834859,0.01091,0.0221252,0.0170135,0.0146866,0.0176239,0.0111389,0.019989,0.0191498,-9.97986,0.0197601,-0.00606537,0.0157928,0.00972748,0.0194168,-0.000457764,0.0190735,0.00740051
18,8,10.0097,-0.000305176,0.000610352,-2.4247,0.0550706,-0.0735371,0.0550435,0.0712755,-0.0910102,0.147149,-0.125156,-0.0828756,0.0121307,0.0232697,0.0186157,0.0125885,0.0205994,0.010376,0.0222778,0.021286,-9.97986,0.0216675,-0.00289917,0.0141525,0.00679016,0.016861,-0.00434875,0.0155258,0.00740051
18,9,10.0097,0,0.000152588,-2.42623,0.0578172,-0.0738423,0.054128,0.0724962,-0.0913154,0.146539,-0.123325,-0.0819601,0.0110245,0.0266266,0.0217056,0.0101471,0.0205231,0.0119781,0.0233459,0.0289536,-9.97986,0.0241852,-0.00545502,0.0149536,0.00827789,0.0196838,-0.00167847,0.0186539,0.00957489
19,0,10.0097,0.000610352,0.000152588,-2.42501,0.0562914,-0.0738423,0.0553487,0.0718859,-0.0934516,0.147149,-0.12363,-0.0813497,0.0122833,0.02388,0.0214386,0.0127411,0.0191498,0.0144577,0.0255203,0.0276566,-9.97986,0.0217056,-0.00228882,0.017395,0.00495911,0.0196075,-3.8147e-005,0.0177002,0.00854492
19,1,9.84761,0.000305176,-0.00152588,-2.42684,0.0544603,-0.0753682,0.0519917,0.0169542,-0.0977241,0.145929,-0.128818,-0.0831808,0.0119781,0.0242615,0.0218964,0.00965118,0.0145721,0.00679016,0.0206375,0.0238419,-9.97986,0.0223923,-0.00431061,0.0155258,0.00392914,0.0174332,-0.00289917,0.0141144,0.00782013
19,2,0.834856,0.000610352,-0.00442505,-2.42592,0.0581224,-0.073232,0.0535176,-0.00318738,-0.0955879,0.14776,-0.129123,-0.0822652,0.0127792,0.0252533,0.0206757,0.0138092,0.0182724,0.0118637,0.0228119,0.0251389,-9.97986,0.0185013,-0.00637054,0.0125504,0.00789642,0.0200272,-0.0030899,0.0135422,0.00686646
19,3,-6.21226,0.000305176,-0.00518799,-2.42562,0.055681,-0.0747579,0.054128,-0.0153944,-0.0977241,0.146844,-0.129123,-0.0819601,0.0113678,0.0277328,0.0164795,0.0082016,0.014267,0.0094986,0.0203323,0.0170135,-9.97986,0.0154495,-0.00118256,0.0136185,0.00621796,0.0144577,-0.00263214,0.0154877,0.00682831
19,4,-9.99003,0.000610352,-0.00366211,-2.4244,0.0565965,-0.073232,0.055959,0.0117662,-0.0928413,0.145318,-0.128513,-0.0804342,0.0134277,0.0251389,0.0214005,0.0112152,0.017128,0.00965118,0.0232315,0.0175476,-9.97986,0.0151825,-0.00240326,0.0160599,0.00469208,0.0193787,-0.0019455,0.0149918,0.00743866
19,5,-9.99003,0.000915527,-0.00183105,-2.4247,0.0569017,-0.0741475,0.0553487,0.0386217,-0.0919257,0.145013,-0.126682,-0.0804342,0.0104523,0.0241852,0.0188446,0.00991821,0.0205994,0.0111389,0.0244522,0.0109863,-9.97986,0.0101471,0.00228882,0.0181198,0.00869751,-0.00339508,-0.000419617,0.0143433,0.00648499
19,6,-9.99003,-0.000305176,-0.000457764,-2.42562,0.0550706,-0.0756734,0.0556539,0.0566271,-0.090705,0.145013,-0.126987,-0.0816549,0.00976563,0.0246429,0.0202179,0.00888824,0.018425,0.0115967,0.0231171,0.0082016,-9.97986,0.00442505,-0.001297,0.0143814,0.00556946,-0.00732422,0.000610352,0.0143051,0.00587463
19,7,-9.99003,-0.000610352,0.000610352,-2.42501,0.055681,-0.0744527,0.0547383,0.0795153,-0.0891792,0.146539,-0.123935,-0.0828756,0.0121307,0.0277328,0.0211334,0.0165558,0.0200653,0.0133514,0.0218201,0.0109482,-9.97986,0.00988007,0.00160217,0.0146484,0.00858307,0.0111389,-0.000610352,0.0133133,0.00617981
19,8,-9.09923,0.000915527,0.00213623,-2.42623,0.0541551,-0.0753682,0.0571797,0.132616,-0.0849067,0.145013,-0.122104,-0.0825704,0.01091,0.021553,0.0150299,0.014801,0.0164413,0.012207,0.022583,0.0127411,-9.97986,0.0102234,0.00572205,0.0185013,0.00320435,0.016098,-0.00114441,0.0125885,0.00553131
19,9,-0.81706,0.000610352,0.0038147,-2.42684,0.0535448,-0.073232,0.054128,0.146044,-0.0873481,0.143487,-0.121189,-0.0847066,0.0128937,0.0257492,0.0213242,0.0125122,0.0204468,0.0136948,0.0213242,0.0120926,-9.97986,0.00995636,0.00484467,0.0157547,0.00812531,0.0162125,-0.00133514,0.0152588,0.00556946
20,0,7.15383,0.00183105,0.00427246,-2.42745,0.0535448,-0.0762837,0.0532125,0.151842,-0.0900947,0.143487,-0.121799,-0.0850118,0.0106049,0.0291061,0.0165558,0.0113297,0.0198746,0.0094223,0.0227356,0.0189972,-9.97986,0.0134277,0.000343323,0.0170898,0.00778198,0.0151443,-0.00488281,0.017662,0.00778198
20,1,10.0097,0,0.00396729,-2.43081,0.0535448,-0.0771993,0.050771,0.123461,-0.0952827,0.143487,-0.125461,-0.0871481,0.013237,0.0321579,0.0226593,0.00617981,0.0173569,0.0101089,0.0268936,0.0118637,-9.97986,0.0164795,-0.00232697,0.0156403,0.00801086,0.0165176,-0.00171661,0.0136185,0.00614166
20,2,10.0097,0.000915527,0.000610352,-2.4305,0.0532396,-0.0756734,0.0501607,0.0901964,-0.0961982,0.142877,-0.126072,-0.0892843,0.0141144,0.031662,0.019989,0.0131989,0.018692,0.00930786,0.0217438,0.0183487,-9.97986,0.0170517,-0.001297,0.0139236,0.00667572,0.0138092,-0.00335693,0.0155258,0.00331879
20,3,10.0097,0,-0.000305176,-2.4302,0.0529344,-0.0756734,0.0513814,0.0776842,-0.095893,0.143487,-0.126377,-0.0883688,0.0119781,0.0224304,0.0159073,0.0102997,0.0164413,0.0129318,0.0232697,0.014267,-9.97986,0.0153351,-0.00358582,0.0159454,0.00679016,0.0177383,-0.00141144,0.0130844,0.0063324
20,4,10.0097,0,0.000457764,-2.42867,0.0535448,-0.0759786,0.0535176,0.0737169,-0.0946723,0.143487,-0.127292,-0.0865377,0.0133133,0.0275803,0.0221252,0.0115967,0.0161362,0.013504,0.019989,0.0146866,-9.97986,0.0157166,-0.00396729,0.0157928,0.00774384,0.019722,-0.00362396,0.0156403,0.00579834
20,5,10.0097,0.0012207,0.000152588,-2.42745,0.0562914,-0.0747579,0.0535176,0.0731066,-0.0937568,0.144708,-0.126377,-0.0850118,0.0118256,0.0226593,0.0178146,0.0126648,0.0161743,0.0151062,0.0214005,0.0181198,-9.97986,0.0146103,-0.00358582,0.0159454,0.00762939,0.0125885,-0.00331879,0.0196838,0.00614166
20,6,10.0097,-0.000610352,-0.000305176,-2.42714,0.0553758,-0.075063,0.0526021,0.0712755,-0.0937568,0.144403,-0.126072,-0.0847066,0.00587463,0.0216293,0.0156403,0.0115585,0.0168228,0.0112915,0.022049,0.0151443,-9.97986,0.0128174,-0.0030899,0.0115967,0.0025177,0.0163651,-0.00244141,0.0152969,0.00545502
20,7,10.0097,0.000305176,0.000915527,-2.42623,0.055681,-0.0729268,0.054128,0.0697496,-0.0928413,0.145624,-0.124851,-0.0837911,0.00766754,0.0297165,0.0214386,0.00774384,0.0169754,0.0116348,0.0164413,0.0224304,-9.97986,0.018158,-0.0050354,0.0134277,0.00640869,0.017662,0,0.014267,0.00915527
20,8,10.0097,0.000915527,0.000610352,-2.42379,0.0569017,-0.0744527,0.0544332,0.0709703,-0.0925361,0.146539,-0.124546,-0.0816549,0.00850677,0.0247574,0.0195313,0.0147247,0.0175095,0.0105667,0.0212097,0.026741,-9.97986,0.019989,-0.00396729,0.0164413,0.00732422,0.0183868,0.00183105,0.0134277,0.00854492
20,9,10.0097,-0.000915527,0.000305176,-2.42653,0.0562914,-0.0747579,0.0547383,0.0706652,-0.0916206,0.146844,-0.124546,-0.0813497,0.0088501,0.0204468,0.02285,0.00827789,0.0142288,0.00839233,0.0202179,0.0224686,-9.97986,0.0221252,-0.00354767,0.0128937,0.00671387,0.0158691,-0.00480652,0.0131989,0.00679016
21,0,10.0097,0.00244141,0.000305176,-2.42501,0.0562914,-0.0735371,0.0544332,0.0709703,-0.0910102,0.146234,-0.125156,-0.0819601,0.00896454,0.029068,0.0255585,0.0138855,0.0212479,0.0121307,0.0234985,0.0267792,-9.97986,0.0251389,-0.00576019,0.0167847,0.00644684,0.0210571,-0.00362396,0.0219345,0.00911713
21,1,9.80489,0.000305176,-0.00167847,-2.42745,0.0559862,-0.0744527,0.0513814,0.0154283,-0.0989448,0.144708,-0.129123,-0.0828756,0.0102997,0.0236893,0.0197983,0.0114441,0.015564,0.0111771,0.0253677,0.0249481,-9.97986,0.0173187,-0.00534058,0.0157928,0.000724792,0.0222015,-0.00205994,0.0169754,0.00976563
21,2,0.822039,0.000305176,-0.00457764,-2.42531,0.0569017,-0.073232,0.0526021,-0.0028822,-0.0955879,0.146234,-0.129123,-0.0819601,0.00999451,0.0233459,0.0193405,0.00816345,0.0169373,0.013237,0.0212479,0.0243759,-9.97986,0.0205231,-0.00598907,0.0125504,0.00549316,0.0161362,-0.00267029,0.0162506,0.00549316
21,3,-6.27849,0.00183105,-0.00427246,-2.42562,0.0569017,-0.073232,0.0535176,-0.0132582,-0.0974189,0.146844,-0.129734,-0.0816549,0.0114441,0.0198746,0.0175858,0.00812531,0.0194931,0.0123215,0.0246811,0.0219345,-9.97986,0.0152969,-0.00270844,0.0117111,0.00530243,0.0196457,-0.00324249,0.0197601,0.00827789
21,4,-9.99003,-0.0012207,-0.00305176,-2.42623,0.0562914,-0.0747579,0.0553487,0.0120714,-0.0913154,0.147149,-0.128208,-0.0804342,0.0114441,0.0243759,0.0166321,0.00713348,0.015831,0.0103378,0.0237274,0.0173187,-9.97986,0.0139618,-0.0050354,0.0152206,-0.000228882,0.0158691,-0.00465393,0.0149155,0.00801086
21,5,-9.99003,0.000305176,-0.00152588,-2.42562,0.0553758,-0.0747579,0.0553487,0.0398424,-0.090705,0.147149,-0.126377,-0.0816549,0.00919342,0.0221634,0.0206375,0.0137329,0.018425,0.00816345,0.0181198,0.0138855,-9.97986,0.0120163,-0.000534058,0.0118256,0.00621796,-0.00480652,-0.00167847,0.014534,0.00419617
21,6,-9.99003,0.000610352,-0.000610352,-2.42562,0.0553758,-0.0759786,0.055959,0.0560167,-0.0919257,0.145013,-0.126072,-0.0813497,0.00938416,0.0233841,0.0149155,0.00904083,0.0199509,0.00629425,0.0183868,0.0118637,-9.97986,0.00904083,-0.00450134,0.0136566,0.00537872,-0.00801086,-0.0050354,0.0158691,0.00335693
21,7,-9.99003,0.00152588,0.000457764,-2.42684,0.0550706,-0.0738423,0.0550435,0.0789049,-0.0885688,0.146234,-0.125156,-0.0819601,0.00991821,0.0203323,0.0218582,0.0125122,0.0214005,0.0109482,0.0245285,0.0094223,-9.97986,0.0107956,-0.00289917,0.0181198,0.00602722,0.0139618,0.000762939,0.0172424,0.00465393
21,8,-9.16453,0.0012207,0.00244141,-2.42592,0.055681,-0.0735371,0.0553487,0.132311,-0.0849067,0.144098,-0.122715,-0.0819601,0.00602722,0.0238037,0.0200272,0.0163651,0.0170517,0.0087738,0.0255966,0.0115967,-9.97986,0.00972748,7.62939e-005,0.0183105,0.00816345,0.0172806,0.000572205,0.0166702,0.00637054
21,9,-0.828657,0,0.0038147,-2.42684,0.0541551,-0.075063,0.0553487,0.146349,-0.0876533,0.144708,-0.122104,-0.0844015,0.0111389,0.0203705,0.0218964,0.0119781,0.0138855,0.0105667,0.022316,0.0135422,-9.97986,0.0127792,-0.00556946,0.016861,0.00946045,0.0148773,-0.00320435,0.0147247,0.00537872
22,0,7.07509,0.000305176,0.00457764,-2.42776,0.0526292,-0.0762837,0.0535176,0.153063,-0.0900947,0.143792,-0.120884,-0.0865377,0.0102234,0.0219727,0.0177765,0.0142288,0.0196075,0.0111771,0.0224686,0.0146866,-9.97986,0.014801,-0.00320435,0.0148773,0.00900269,0.0167465,0.000686646,0.0154495,0.00465393
22,1,10.0097,0.000610352,0.00427246,-2.43081,0.0529344,-0.0768941,0.0498555,0.124376,-0.0952827,0.143487,-0.123935,-0.0883688,0.00904083,0.0253677,0.0188446,0.00995636,0.0186539,0.0111008,0.0200272,0.0147629,-9.97986,0.0119781,0.000610352,0.0154114,0.00793457,0.0173187,-0.00171661,0.0171661,0.00671387
22,2,10.0097,0.00274658,0.00106812,-2.4305,0.0541551,-0.0759786,0.050771,0.0905016,-0.0968086,0.142877,-0.126987,-0.0874532,0.0124741,0.019989,0.0163651,0.0150681,0.0199509,0.00553131,0.02285,0.0186539,-9.97986,0.0182724,-0.00247955,0.0164413,0.00610352,0.0164413,-0.00144958,0.0170898,0.00572205
22,3,10.0097,0.000610352,-0.000152588,-2.42959,0.0535448,-0.0762837,0.0513814,0.0789049,-0.0961982,0.143182,-0.126377,-0.0874532,0.0139618,0.0194168,0.0173187,0.0120926,0.0230026,0.0107574,0.0205612,0.0196075,-9.97986,0.0156403,-0.00152588,0.0157166,0.0101471,0.0183868,-0.00328064,0.0173569,0.00652313
22,4,10.0097,0.000305176,-0.000457764,-2.42898,0.0544603,-0.0753682,0.0522969,0.0737169,-0.0952827,0.142877,-0.126987,-0.0871481,0.0123215,0.0209045,0.0191116,0.0118637,0.018425,0.012207,0.0214767,0.0171661,-9.97986,0.0179291,-0.00473022,0.0135422,0.00518799,0.0153351,-0.00297546,0.0164795,0.00747681
22,5,10.0097,-0.000915527,-0.000457764,-2.42745,0.0550706,-0.0747579,0.0529073,0.0718859,-0.094062,0.144098,-0.127292,-0.0856222,0.0147629,0.0224304,0.0179672,0.0131607,0.0180435,0.00953674,0.0183868,0.0136566,-9.97986,0.0153732,-0.00389099,0.0162506,0.00656128,0.0176239,-0.000686646,0.0177765,0.00717163
22,6,10.0097,0.00183105,-0.000305176,-2.42745,0.0553758,-0.0744527,0.0538228,0.0712755,-0.0934516,0.144403,-0.125461,-0.0840963,0.0118637,0.021286,0.0211716,0.0157547,0.0185394,0.00957489,0.0193024,0.0207901,-9.97986,0.0165176,0.00087738,0.0152969,0.00972748,0.0178528,-0.00419617,0.0162125,0.0056076
22,7,10.0097,0,0.000305176,-2.42684,0.055681,-0.0747579,0.0526021,0.0712755,-0.0931465,0.145318,-0.125461,-0.0840963,0.0151443,0.0233841,0.0199509,0.0115204,0.0199127,0.0147247,0.0180817,0.0242233,-9.97986,0.0211716,0.001297,0.0131226,0.00232697,0.0207138,-0.0037384,0.0154114,0.00968933
22,8,10.0097,0.000915527,0.000305176,-2.42592,0.055681,-0.0741475,0.0544332,0.0709703,-0.0925361,0.146844,-0.124241,-0.0819601,0.0107956,0.0231171,0.0136566,0.0125504,0.0174713,0.0106049,0.016098,0.0218964,-9.97986,0.018959,0.000343323,0.0109863,0.00762939,0.0160599,-0.00259399,0.0166321,0.00839233
22,9,10.0097,0.000305176,-0.000305176,-2.42531,0.0562914,-0.0738423,0.0538228,0.0728014,-0.0922309,0.147149,-0.123935,-0.0804342,0.00934601,0.0257874,0.0177002,0.016861,0.0185776,0.00396729,0.0233078,0.0276184,-9.97986,0.0226974,0.00301361,0.0105667,0.00278473,0.0191116,-0.00167847,0.0146103,0.00720978
23,0,10.0097,0.000610352,-0.000152588,-2.42562,0.0562914,-0.0735371,0.0544332,0.0718859,-0.0919257,0.145624,-0.12363,-0.0810445,0.014267,0.0205612,0.0169754,0.0105667,0.0154495,0.00957489,0.0192261,0.0220108,-9.97986,0.0221634,7.62939e-005,0.0117493,0.00770569,0.0201416,-0.00476837,0.0180435,0.00770569
23,1,9.82228,0.000305176,-0.00198364,-2.42684,0.0562914,-0.0753682,0.0516866,0.0151232,-0.100165,0.146539,-0.128818,-0.0834859,0.0125504,0.0236893,0.0177765,0.00957489,0.0165939,0.0100708,0.0200272,0.0270844,-9.97986,0.0215149,-0.00282288,0.0103378,0.00835419,0.0168228,-0.00759125,0.0164413,0.00774384
23,2,0.751849,0.000610352,-0.00457764,-2.42592,0.0559862,-0.0744527,0.0538228,-0.00349256,-0.0980293,0.146844,-0.129734,-0.0825704,0.0120926,0.0197601,0.0217438,0.0130844,0.0186157,0.00656128,0.0239563,0.0213242,-9.97986,0.0156784,0.000534058,0.0104523,0.00816345,0.0143051,-0.00518799,0.0146866,0.0043869
23,3,-6.31785,-0.0012207,-0.00427246,-2.42501,0.0572069,-0.0738423,0.054128,-0.0135634,-0.0955879,0.146234,-0.128513,-0.0810445,0.0111008,0.0284195,0.0163651,0.0136566,0.0191879,0.0111771,0.024147,0.0188828,-9.97986,0.0143433,0.00190735,0.0146103,0.00511169,0.0179672,-0.00556946,0.0189972,0.00408173
23,4,-9.99003,-0.000305176,-0.00259399,-2.4247,0.0562914,-0.0744527,0.055959,0.0126818,-0.0928413,0.146844,-0.128208,-0.0810445,0.00839233,0.0209045,0.0184631,0.0120926,0.0177383,0.0103378,0.021553,0.0156784,-9.97986,0.0112915,-0.000572205,0.0121307,0.00465393,0.0184631,0.000686646,0.0189972,0.00762939
23,5,-9.99003,0.00152588,-0.00183105,-2.42653,0.0559862,-0.0741475,0.0553487,0.0404528,-0.0891792,0.145318,-0.126987,-0.0804342,0.00762939,0.0223541,0.0193405,0.00972748,0.0193787,0.0104523,0.0218582,0.0125885,-9.97986,0.00812531,-0.00179291,0.0125504,0.00759125,0.000953674,-0.00087738,0.0130463,0.0043869
23,6,-9.99003,-0.000305176,-0.000915527,-2.42531,0.0550706,-0.0741475,0.0550435,0.0563219,-0.0919257,0.145929,-0.126682,-0.0819601,0.00846863,0.0228119,0.0181198,0.0110626,0.0182724,0.0101852,0.0248718,0.0124741,-9.97986,0.00896454,0.00141144,0.0127029,0.00793457,-0.00297546,-0.00164032,0.0179672,0.00896454
23,7,-9.99003,0.000610352,0.000305176,-2.42592,0.055681,-0.0747579,0.0556539,0.0789049,-0.088874,0.145929,-0.124851,-0.0819601,0.0069046,0.025177,0.0168991,0.0117111,0.0162125,0.0111389,0.0191116,0.0100708,-9.97986,0.00728607,-0.000305176,0.0123978,0.00896454,0.0133514,-0.0030899,0.0121689,0.00518799
23,8,-8.76811,0.000610352,0.00228882,-2.42653,0.0559862,-0.0756734,0.0562642,0.132616,-0.0849067,0.145624,-0.121189,-0.0819601,0.00804901,0.0242615,0.0156021,0.0117111,0.0168991,0.0101471,0.0210953,0.0106049,-9.97986,0.0114059,-0.000991821,0.0144958,0.00839233,0.0136948,-0.00171661,0.0167847,0.00801086
23,9,-0.518903,0.000610352,0.00350952,-2.42684,0.0538499,-0.0747579,0.0538228,0.146959,-0.0885688,0.143487,-0.121799,-0.0844015,0.0118256,0.0193024,0.0161362,0.00904083,0.0159073,0.0118256,0.0207138,0.0125885,-9.97986,0.00709534,-0.0044632,0.0149155,0.00419617,0.0194168,-0.00591278,0.0176239,0.00469208
24,0,7.33693,0.00213623,0.00427246,-2.42745,0.0544603,-0.0747579,0.0538228,0.152757,-0.088874,0.143487,-0.121189,-0.0856222,0.00858307,0.0197983,0.0181961,0.0118637,0.017662,0.0101089,0.0227356,0.014801,-9.97986,0.0108337,-0.00392914,0.0131607,0.00556946,0.0163269,-0.00350952,0.0122452,0.0069809
24,1,10.0097,-0.000305176,0.00320435,-2.43233,0.0523241,-0.0771993,0.0510762,0.121935,-0.0965034,0.142267,-0.124241,-0.0880636,0.012207,0.0223923,0.0177765,0.0139618,0.0176239,0.0133133,0.0185776,0.00991821,-9.97986,0.0118256,-0.00770569,0.00968933,0.0018692,0.0139236,-0.0062561,0.0165558,0.00442505
24,2,10.0097,-0.000305176,0.000762939,-2.4305,0.0535448,-0.0775044,0.050771,0.0895861,-0.0977241,0.143182,-0.126072,-0.0883688,0.00965118,0.0177765,0.0210953,0.0139999,0.0182724,0.01194,0.025177,0.0178146,-9.97986,0.0128937,-0.00507355,0.015564,0.00396729,0.016861,-0.00328064,0.0180435,0.00602722
24,3,10.0097,-0.000610352,0.000152588,-2.4302,0.0535448,-0.0759786,0.0522969,0.0782946,-0.0977241,0.142572,-0.127292,-0.0874532,0.0117874,0.0186539,0.023613,0.00892639,0.0180435,0.01091,0.022049,0.017395,-9.97986,0.0134277,-0.00297546,0.00991821,0.00362396,0.0165176,-0.00457764,0.0148392,0.00549316
24,4,10.0097,-0.000915527,0,-2.42806,0.0541551,-0.0756734,0.0519917,0.0740221,-0.0949775,0.144098,-0.126682,-0.0862325,0.00988007,0.0209808,0.0174713,0.00747681,0.0144958,0.00923157,0.0222397,0.0172424,-9.97986,0.00907898,0.00404358,0.0129318,0.00621796,0.0135803,-0.000686646,0.017662,0.00537872
24,5,10.0097,0.000305176,0,-2.42806,0.0550706,-0.0753682,0.0529073,0.0715807,-0.0937568,0.145318,-0.125766,-0.0847066,0.00774384,0.0228882,0.0160217,0.0122833,0.0142288,0.01091,0.0178528,0.0191116,-9.97986,0.013504,-0.00274658,0.018959,0.00640869,0.014801,-0.00118256,0.0159073,0.00701904
24,6,10.0097,-0.000305176,0.000305176,-2.42806,0.0550706,-0.0762837,0.0522969,0.0706652,-0.094062,0.144403,-0.125156,-0.0834859,0.0136948,0.0229263,0.0191498,0.00919342,0.0177002,0.00904083,0.0216675,0.0199509,-9.97986,0.0138474,-0.00114441,0.0169754,0.00823975,0.0200653,-0.000152588,0.0140762,0.00751495
24,7,10.0097,-0.000305176,0.000915527,-2.42684,0.0544603,-0.0753682,0.0532125,0.0712755,-0.0928413,0.145318,-0.125461,-0.0828756,0.00865936,0.0235367,0.0214005,0.00980377,0.0185776,0.0129318,0.024147,0.020256,-9.97986,0.0141907,-0.000839233,0.0152206,0.00724792,0.0141144,-0.00408173,0.0156403,0.00904083
24,8,10.0097,0.0012207,0.000152588,-2.42562,0.0565965,-0.0735371,0.0550435,0.072191,-0.0910102,0.146234,-0.123935,-0.0816549,0.0135803,0.0207138,0.0205231,0.0118256,0.0154877,0.00915527,0.0196838,0.0238037,-9.97986,0.0175476,-0.00495911,0.0152969,0.0111008,0.017662,-0.00167847,0.0132751,0.00587463
24,9,10.0097,0.00152588,0.000457764,-2.42592,0.0559862,-0.075063,0.0532125,0.0728014,-0.0916206,0.146844,-0.12363,-0.0813497,0.00976563,0.0161743,0.0193024,0.00953674,0.0170898,0.0101089,0.0205994,0.0261307,-9.97986,0.0217819,-0.00549316,0.0156784,0.0087738,0.0163651,-0.00232697,0.0195694,0.00892639
25,0,10.0097,0.00274658,-0.000305176,-2.42623,0.0562914,-0.0744527,0.0544332,0.0706652,-0.0919257,0.146539,-0.124546,-0.0810445,0.0075531,0.0188446,0.0180054,0.00961304,0.0154114,0.0121307,0.0219727,0.0295258,-9.97986,0.0210571,-0.00526428,0.0120926,0.00556946,0.0143433,-0.00415802,0.017662,0.00766754
25,1,9.76552,0.000305176,-0.00213623,-2.42745,0.055681,-0.0738423,0.0522969,0.014818,-0.0980293,0.145013,-0.128818,-0.0828756,0.0119019,0.0196838,0.0180435,0.0094223,0.0149918,0.00869751,0.0201797,0.0273132,-9.97986,0.0216293,-0.00427246,0.0133133,0.00869751,0.0189972,-0.00312805,0.0144196,0.00961304
25,2,0.721941,0.000915527,-0.00442505,-2.42592,0.0562914,-0.0738423,0.0547383,-0.00379773,-0.0965034,0.146844,-0.128208,-0.0813497,0.0122833,0.0222015,0.0204086,0.014801,0.0173187,0.0114059,0.0262833,0.0218201,-9.97986,0.021286,-0.00179291,0.0150299,0.00816345,0.0196457,-0.00419617,0.0175095,0.00976563
25,3,-6.4268,0.0012207,-0.00442505,-2.42592,0.0575121,-0.0741475,0.0538228,-0.0156996,-0.0977241,0.147149,-0.129734,-0.0816549,0.0104141,0.0204849,0.0181961,0.00499725,0.0189972,0.00965118,0.0167847,0.0178909,-9.97986,0.0146103,-0.00236511,0.0108719,0.0038147,0.0192261,-0.00293732,0.016098,0.00846863
25,4,-9.99003,-0.0012207,-0.00305176,-2.42592,0.055681,-0.0726216,0.054128,0.0108507,-0.0928413,0.145624,-0.128818,-0.0813497,0.0148773,0.0214767,0.0221252,0.0126266,0.0204086,0.0131226,0.0205612,0.0180435,-9.97986,0.0114441,-0.00663757,0.0118637,0.00461578,0.0170517,-0.00102997,0.0132751,0.0044632
25,5,-9.99003,0.00152588,-0.00183105,-2.4244,0.0569017,-0.0744527,0.0565694,0.0398424,-0.0903999,0.145624,-0.126987,-0.0810445,0.00793457,0.0238419,0.0183105,0.00621796,0.014267,0.0130081,0.0210953,0.0112915,-9.97986,0.0119019,-0.00534058,0.0154495,0.0113678,-0.00827789,-0.00324249,0.0185394,0.00766754
25,6,-9.99003,0.000610352,-0.0012207,-2.42653,0.0550706,-0.0753682,0.0556539,0.0563219,-0.090705,0.144403,-0.125766,-0.0819601,0.0111008,0.0214005,0.0179291,0.0133896,0.0159454,0.00789642,0.0208282,0.0153732,-9.97986,0.00534058,-0.00221252,0.0114822,0.00659943,-0.00610352,-0.00183105,0.0139236,0.00335693
25,7,-9.99003,0.000305176,0.000610352,-2.42623,0.0550706,-0.0747579,0.055959,0.0795153,-0.0897895,0.146844,-0.125461,-0.0825704,0.0063324,0.020752,0.0194931,0.0128555,0.0143433,0.0131226,0.0202942,0.0094986,-9.97986,0.00522614,-0.00267029,0.013504,0.00675201,0.0110626,-0.00144958,0.0146866,0.00259399
25,8,-9.16545,0.00152588,0.00228882,-2.4247,0.0562914,-0.0741475,0.0565694,0.133226,-0.0852119,0.145318,-0.121494,-0.0822652,0.00926971,0.0220108,0.0175476,0.0107574,0.0177002,0.00934601,0.0201797,0.0136185,-9.97986,0.0120926,-0.0050354,0.0125122,0.0094223,0.0174713,-0.000839233,0.0185776,0.00576019
25,9,-0.803938,0.000915527,0.00411987,-2.42714,0.0538499,-0.0756734,0.0550435,0.145433,-0.0879585,0.143487,-0.122104,-0.0847066,0.00965118,0.0245667,0.0159454,0.0107956,0.0186539,0.00881195,0.0223923,0.0109482,-9.97986,0.0120926,-0.00305176,0.0131607,0.0063324,0.0172043,-0.00205994,0.0140762,0.00682831
26,0,7.23165,0.0012207,0.00457764,-2.42837,0.0535448,-0.0747579,0.0532125,0.151842,-0.090705,0.143792,-0.121189,-0.0865377,0.00732422,0.021019,0.0156021,0.0119019,0.0201416,0.00968933,0.0246048,0.0120926,-9.97986,0.0137329,-0.00274658,0.0162125,0.00831604,0.0151062,-0.00110626,0.0140762,0.00595093
26,1,10.0097,0.00213623,0.0038147,-2.43081,0.0529344,-0.0768941,0.0513814,0.122545,-0.0952827,0.142267,-0.124851,-0.0874532,0.0106812,0.0207138,0.0205231,0.0117111,0.0207901,0.00904083,0.0234222,0.0133896,-9.97986,0.0148773,-0.00225067,0.014801,0.00785828,0.0137329,-0.00133514,0.0145721,0.00667572
26,2,10.0097,0.00152588,0.00137329,-2.43111,0.0541551,-0.0759786,0.0510762,0.0901964,-0.0965034,0.142572,-0.126682,-0.0883688,0.0111008,0.0257492,0.0134277,0.0123978,0.0177765,0.0108337,0.025177,0.0196457,-9.97986,0.012207,-0.00511169,0.0108719,0.00602722,0.0163651,-0.00232697,0.0171661,0.00656128
26,3,10.0097,0.0012207,-0.000152588,-2.42928,0.0544603,-0.0768941,0.0513814,0.077379,-0.0971137,0.143487,-0.126987,-0.0874532,0.0140381,0.0173187,0.0186539,0.0104904,0.0188828,0.00980377,0.019722,0.0173187,-9.97986,0.014267,-0.00522614,0.0122452,0.00576019,0.0180054,-0.00419617,0.0169754,0.00263214
26,4,10.0097,0.0012207,-0.000610352,-2.42745,0.0547655,-0.075063,0.0519917,0.0734117,-0.0955879,0.144708,-0.126072,-0.0859274,0.0094986,0.0194168,0.0185013,0.0108719,0.0197983,0.00740051,0.0244904,0.0112152,-9.97986,0.0210953,-0.000228882,0.0137329,0.0114441,0.0149918,-0.00415802,0.0179291,0.0069046
26,5,10.0097,0.000915527,-0.000610352,-2.42806,0.0541551,-0.0753682,0.0532125,0.0728014,-0.0937568,0.145318,-0.126377,-0.0844015,0.00804901,0.0189972,0.0191498,0.011673,0.0188065,0.00663757,0.0208664,0.0157928,-9.97986,0.0181961,-0.000724792,0.013237,0.0102997,0.0146103,0.00205994,0.0151825,0.00526428
26,6,10.0097,0,0.000610352,-2.42776,0.0547655,-0.073232,0.0532125,0.0712755,-0.0934516,0.144098,-0.126072,-0.0844015,0.0128937,0.0213623,0.0190735,0.0149155,0.0175095,0.00972748,0.022316,0.017128,-9.97986,0.0178528,0.0018692,0.0145721,0.00679016,0.0146484,7.62939e-005,0.0182724,0.00736237
26,7,10.0097,0.00244141,0.000762939,-2.42592,0.0553758,-0.0753682,0.054128,0.0718859,-0.0928413,0.145013,-0.126987,-0.0840963,0.0111771,0.0231171,0.0167084,0.0106049,0.0180817,0.00644684,0.0222397,0.0172043,-9.97986,0.0213242,0.000839233,0.0150299,0.00846863,0.0163269,-0.00164032,0.0213242,0.00617981
26,8,10.0097,0.00244141,0.000152588,-2.42409,0.0553758,-0.0741475,0.0547383,0.072191,-0.0922309,0.146844,-0.125766,-0.0822652,0.0114441,0.022049,0.0168991,0.0136566,0.0191498,0.00926971,0.0278091,0.0241852,-9.97986,0.0222397,0.00473022,0.0126266,0.0063324,0.0211716,-0.0012207,0.0143814,0.00648499
26,9,10.0097,0.00152588,0.000457764,-2.42592,0.0559862,-0.0747579,0.0535176,0.0718859,-0.0903999,0.146234,-0.124241,-0.0813497,0.00965118,0.0226593,0.0136185,0.00835419,0.0173187,0.00965118,0.0257111,0.0257874,-9.97986,0.0250626,0.0019455,0.0175095,0.00694275,0.018158,0.00347137,0.0178146,0.00621796
27,0,10.0097,-0.0012207,0.000305176,-2.42562,0.0550706,-0.0738423,0.0547383,0.0706652,-0.0919257,0.146844,-0.124241,-0.0810445,0.0130463,0.0204468,0.0149536,0.0111771,0.0172424,0.0112152,0.0174713,0.0260162,-9.97986,0.0231934,-0.000839233,0.0123215,0.0115204,0.0171661,-0.0030899,0.0178528,0.00511169
27,1,9.72768,0.000610352,-0.00244141,-2.42745,0.0550706,-0.0744527,0.0504659,0.0132921,-0.0980293,0.145013,-0.129429,-0.0834859,0.0123596,0.0241852,0.0190735,0.0104523,0.0181961,0.0111389,0.0239563,0.0231171,-9.97986,0.0197983,0.0018692,0.0183105,0.00785828,0.0187683,-0.00404358,0.0186157,0.00679016
27,2,0.629168,-0.000610352,-0.00427246,-2.42562,0.0559862,-0.0738423,0.0553487,-0.00379773,-0.095893,0.148675,-0.129734,-0.0816549,0.0110626,0.0242615,0.0220108,0.0117493,0.018425,0.0069809,0.0191498,0.0231552,-9.97986,0.0146484,0.001297,0.0165939,0.00518799,0.018692,-0.00442505,0.0143814,0.00770569
27,3,-6.47685,0.000610352,-0.0038147,-2.42562,0.0562914,-0.0744527,0.0538228,-0.0144789,-0.095893,0.147149,-0.129123,-0.0822652,0.0119019,0.025177,0.0151443,0.0126648,0.0179672,0.0082016,0.0218582,0.0193787,-9.97986,0.0159836,0.000419617,0.01297,0.00892639,0.0174713,-0.0043869,0.0159836,0.00801086
27,4,-9.99003,-0.000610352,-0.00305176,-2.42592,0.0553758,-0.0747579,0.0547383,0.0123766,-0.0916206,0.146844,-0.127903,-0.0810445,0.00553131,0.022316,0.0199127,0.014267,0.0125504,0.0105286,0.0259399,0.0149536,-9.97986,0.0118256,0.000190735,0.0151443,0.0069046,0.0183868,-0.000572205,0.0178146,0.00823975
27,5,-9.99003,0.000915527,-0.00152588,-2.42562,0.0562914,-0.0741475,0.055959,0.0404528,-0.0919257,0.145929,-0.126987,-0.0810445,0.0101471,0.0221252,0.0185013,0.0109482,0.0148773,0.0069046,0.0228119,0.0117493,-9.97986,0.00953674,0.00293732,0.0187683,0.00843048,0.0012207,-0.0050354,0.0175858,0.00793457
27,6,-9.99003,0.000610352,-0.0012207,-2.42623,0.0562914,-0.0747579,0.0556539,0.0578478,-0.0910102,0.145318,-0.126072,-0.0816549,0.0120163,0.0219727,0.0172806,0.0141525,0.0194931,0.0130081,0.026207,0.00923157,-9.97986,0.00991821,0.00320435,0.0152588,0.00778198,-0.00461578,0.000152588,0.0174332,0.00793457
27,7,-9.99003,0.000915527,0.000305176,-2.42562,0.0559862,-0.0756734,0.0565694,0.0813463,-0.0891792,0.145624,-0.124851,-0.0825704,0.0069809,0.020256,0.0178909,0.0100708,0.0128555,0.00782013,0.0226974,0.0110245,-9.97986,0.00808716,0.00133514,0.0117111,0.00682831,0.0128937,0.00255585,0.0169373,0.00213623
27,8,-8.86516,0.000305176,0.00289917,-2.42501,0.0553758,-0.075063,0.055959,0.135362,-0.0855171,0.145624,-0.121494,-0.0822652,0.0101089,0.0223923,0.0174713,0.0162888,0.0152206,0.00785828,0.0238037,0.00961304,-9.97986,0.0112915,3.8147e-005,0.0172806,0.00816345,0.0128555,0.000534058,0.0155258,0.00488281
27,9,-0.754194,0,0.00289917,-2.42592,0.0541551,-0.075063,0.0556539,0.146349,-0.0876533,0.144708,-0.120884,-0.0844015,0.0114822,0.0224304,0.0190735,0.0134659,0.0216675,0.0119781,0.0234222,0.00900269,-9.97986,0.00774384,0.00366211,0.0144196,0.00728607,0.0151443,-0.00366211,0.0191498,0.00453949
28,0,7.22341,-0.000305176,0.0050354,-2.42898,0.0547655,-0.0765889,0.0532125,0.153673,-0.0900947,0.144708,-0.122104,-0.0847066,0.012207,0.0221252,0.0174713,0.0134277,0.0164413,0.00469208,0.0264359,0.0111389,-9.97986,0.0110245,0.00274658,0.0131607,0.00537872,0.0127029,-0.00415802,0.0166321,0.00564575
28,1,10.0097,0.000610352,0.00427246,-2.43111,0.0532396,-0.0771993,0.050771,0.12285,-0.0943672,0.142572,-0.124241,-0.0877584,0.0103378,0.0237274,0.0135422,0.00930786,0.0178528,0.0113297,0.0251007,0.0131607,-9.97986,0.0137711,0.00144958,0.0174332,0.00705719,0.0167084,-0.00144958,0.0135803,0.00865936
28,2,10.0097,-0.000610352,0.000915527,-2.43081,0.0526292,-0.0762837,0.0492452,0.0898912,-0.0977241,0.142877,-0.126377,-0.0883688,0.0104904,0.0254822,0.0174713,0.00980377,0.0149155,0.00881195,0.0201797,0.0115204,-9.97986,0.0122452,-0.00244141,0.0155258,0.00507355,0.0171661,-0.00541687,0.0152588,0.00339508
28,3,10.0097,0.000610352,-0.000305176,-2.42928,0.0535448,-0.0768941,0.0519917,0.0785997,-0.095893,0.143487,-0.126682,-0.0874532,0.0105286,0.0214005,0.0163269,0.00915527,0.0136185,0.00900269,0.0205231,0.015564,-9.97986,0.016861,-0.00255585,0.0170135,0.00629425,0.0170135,-0.00480652,0.0164032,0.00797272
28,4,10.0097,0.000610352,-0.00106812,-2.42806,0.0541551,-0.0747579,0.0519917,0.0740221,-0.0949775,0.143182,-0.127292,-0.0874532,0.0111008,0.0268173,0.0188446,0.00614166,0.0167465,0.0102997,0.0224686,0.0178909,-9.97986,0.0135422,-0.00545502,0.0115967,0.00423431,0.0152206,-0.00484467,0.0128174,0.00442505
28,5,10.0097,-0.000305176,0.000457764,-2.42806,0.0547655,-0.075063,0.0538228,0.072191,-0.0946723,0.145318,-0.126072,-0.0850118,0.0111771,0.0244522,0.0196838,0.00915527,0.014267,0.00839233,0.0258636,0.0165176,-9.97986,0.0175476,-0.000534058,0.0124741,0.0103378,0.0159454,-0.00465393,0.0200272,0.00659943
28,6,10.0097,0.0012207,0.000610352,-2.42745,0.0547655,-0.0735371,0.0538228,0.0709703,-0.0937568,0.145013,-0.125156,-0.0844015,0.0141907,0.0247955,0.0190353,0.0115204,0.0170517,0.00823975,0.0227737,0.0198364,-9.97986,0.018959,0.00114441,0.0148392,0.0063324,0.0173187,-0.00652313,0.0175476,0.00679016
28,7,10.0097,-0.0012207,0.000305176,-2.42653,0.0553758,-0.0741475,0.0532125,0.0694445,-0.0916206,0.145624,-0.125156,-0.0837911,0.0129318,0.0246811,0.0180817,0.0110245,0.0165558,0.0127411,0.021553,0.0230026,-9.97986,0.016861,0.00202179,0.0149918,0.0115204,0.0152588,-0.0043869,0.0175095,0.00835419
28,8,10.0097,0.00152588,0.000305176,-2.42501,0.0562914,-0.0744527,0.0547383,0.0712755,-0.0913154,0.146539,-0.124851,-0.0813497,0.0136948,0.0261307,0.0215912,0.0154495,0.0188446,0.0108719,0.0242233,0.0230408,-9.97986,0.0207138,-0.000534058,0.014801,0.00564575,0.0170135,-0.0101089,0.0187683,0.00595093
28,9,10.0097,0.000915527,-0.000305176,-2.42531,0.0575121,-0.073232,0.0544332,0.072191,-0.0903999,0.146234,-0.124851,-0.0813497,0.0117111,0.0226593,0.0173187,0.0122833,0.0188065,0.00946045,0.0232697,0.0278473,-9.97986,0.0233841,0.00255585,0.0162506,0.00453949,0.0191498,-0.000114441,0.0168228,0.00606537
29,0,10.0097,0.00152588,0.000152588,-2.42501,0.0559862,-0.0735371,0.0553487,0.0718859,-0.0919257,0.146539,-0.124241,-0.0816549,0.0146484,0.0248337,0.0188065,0.013237,0.0188065,0.0103378,0.026207,0.0252914,-9.97986,0.0216293,0.00205994,0.0181961,0.00759125,0.0202179,-0.00137329,0.0179291,0.00499725
29,1,9.74813,0,-0.00228882,-2.42776,0.055681,-0.0744527,0.0522969,0.0139025,-0.0980293,0.144708,-0.128818,-0.0834859,0.00965118,0.0268173,0.0220871,0.0119781,0.0206375,0.0088501,0.0230026,0.0220108,-9.97986,0.0195313,-0.000495911,0.0112915,0.00614166,0.0172424,-0.00782013,0.017395,0.0044632
29,2,0.717364,0.000915527,-0.00411987,-2.42531,0.0562914,-0.0735371,0.0519917,-0.00410291,-0.0965034,0.146234,-0.129429,-0.0816549,0.0136185,0.0268936,0.0183105,0.0113297,0.0133896,0.010376,0.0224304,0.0225449,-9.97986,0.0187302,-0.000343323,0.014801,0.00812531,0.0201797,-0.00339508,0.0171661,0.0100327
29,3,-6.41093,-0.0012207,-0.00427246,-2.4247,0.0565965,-0.0738423,0.0544332,-0.0138685,-0.0971137,0.14776,-0.130039,-0.0819601,0.0119019,0.0235748,0.0186157,0.0149918,0.0193405,0.0111389,0.0209045,0.020256,-9.97986,0.0143814,0.00148773,0.0147629,0.00904083,0.0194168,-0.00358582,0.0140381,0.00835419
29,4,-9.99003,0.000305176,-0.00274658,-2.42531,0.0562914,-0.0726216,0.0553487,0.0117662,-0.0928413,0.146844,-0.128208,-0.0804342,0.0123978,0.0221252,0.0174332,0.0126648,0.0185013,0.011673,0.0194168,0.0139236,-9.97986,0.0102997,0.000762939,0.0117874,0.00526428,0.0187683,-0.00473022,0.0190735,0.00598907
29,5,-9.99003,0.000915527,-0.00183105,-2.42501,0.0553758,-0.0738423,0.055959,0.0404528,-0.0919257,0.145929,-0.126377,-0.0813497,0.0137711,0.0234985,0.0208282,0.0157547,0.0138092,0.0102615,0.0175095,0.00869751,-9.97986,0.00946045,-0.00164032,0.018425,0.00610352,0.00156403,-0.00362396,0.0180817,0.00396729
29,6,-9.99003,-0.000305176,-0.000457764,-2.42623,0.0547655,-0.0744527,0.055959,0.0572374,-0.0919257,0.146234,-0.125461,-0.0819601,0.010643,0.0252533,0.0138092,0.0107956,0.0167465,0.00907898,0.0175858,0.00659943,-9.97986,0.010376,-0.00289917,0.0163269,0.00827789,-0.00499725,-0.00377655,0.0171661,0.00270844
29,7,-9.99003,0.0012207,0,-2.42623,0.055681,-0.0744527,0.0565694,0.0816515,-0.0891792,0.146539,-0.123935,-0.0822652,0.0130463,0.0236511,0.0172043,0.00728607,0.0181961,0.0115204,0.0197983,0.0109863,-9.97986,0.00904083,-0.000152588,0.0113678,0.00431061,0.0160217,-0.00118256,0.0175858,0.00606537
29,8,-8.53557,-0.000305176,0.00289917,-2.42562,0.0547655,-0.0741475,0.0556539,0.135362,-0.0852119,0.145624,-0.120884,-0.0825704,0.0087738,0.025444,0.0217438,0.0163269,0.0144577,0.00907898,0.0196457,0.0094223,-9.97986,0.00881195,-0.00190735,0.0151443,0.00476837,0.0172043,0.00144958,0.0141907,0.00343323
29,9,-0.303755,0.00183105,0.0038147,-2.42776,0.0535448,-0.0762837,0.0556539,0.146654,-0.0876533,0.145013,-0.122104,-0.0840963,0.00938416,0.0253677,0.0198364,0.0148392,0.0188828,0.0121307,0.0234222,0.0121689,-9.97986,0.0138474,-0.00087738,0.0140381,0.00713348,0.0154877,-0.00274658,0.0163651,0.00484467
30,0,7.60182,0.0012207,0.0038147,-2.42837,0.0532396,-0.0759786,0.0538228,0.153673,-0.0894843,0.144708,-0.122104,-0.085317,0.0131989,0.0261307,0.018959,0.00999451,0.0175858,0.0112152,0.0218582,0.0146866,-9.97986,0.0123596,0,0.0136566,0.00682831,0.0181961,-0.00137329,0.0159836,0.0037384
30,1,10.0097,0,0.0038147,-2.43142,0.0532396,-0.0765889,0.0504659,0.118273,-0.0971137,0.142267,-0.123935,-0.0889791,0.0112915,0.0256348,0.0185394,0.0118256,0.0161743,0.0111389,0.0233459,0.0136185,-9.97986,0.0138474,-0.000114441,0.0153351,0.00598907,0.0165558,-0.00324249,0.0177383,0.00396729
30,2,10.0097,0.000305176,0.0012207,-2.4302,0.0544603,-0.0756734,0.0504659,0.0880602,-0.0952827,0.142572,-0.125766,-0.0886739,0.0120926,0.0229645,0.0201035,0.013237,0.0138474,0.0136566,0.0241852,0.0134659,-9.97986,0.0106812,-0.00102997,0.0166321,0.00591278,0.0188065,-3.8147e-005,0.0185776,0.00652313
30,3,10.0097,0.000610352,0.000152588,-2.42959,0.0535448,-0.0768941,0.050771,0.0776842,-0.0965034,0.144708,-0.126987,-0.0880636,0.0164795,0.0252914,0.0199127,0.0134277,0.0207138,0.0112915,0.0223541,0.0180817,-9.97986,0.0156403,-0.0025177,0.0138092,0.0012207,0.0167847,0.0019455,0.0131989,0.00774384
30,4,10.0097,0.000915527,-0.000305176,-2.42806,0.0535448,-0.0759786,0.0529073,0.0737169,-0.0934516,0.144403,-0.127292,-0.0859274,0.00946045,0.0242233,0.0177765,0.0126266,0.0218582,0.00648499,0.0271606,0.0156021,-9.97986,0.013237,0.000572205,0.0135803,0.00419617,0.0147247,-0.00347137,0.0158691,0.00881195
30,5,10.0097,0.000610352,0,-2.42714,0.0544603,-0.0753682,0.0532125,0.0728014,-0.0934516,0.145013,-0.127292,-0.0850118,0.0112152,0.0201035,0.0185013,0.0129318,0.021019,0.00553131,0.0198364,0.0191116,-9.97986,0.0146484,-0.00263214,0.0117111,0.00209808,0.0179291,-0.0043869,0.0162506,0.00682831
30,6,10.0097,0,-0.000457764,-2.42776,0.0562914,-0.0747579,0.0538228,0.07036,-0.0943672,0.145929,-0.125156,-0.0844015,0.00900269,0.0247955,0.0185394,0.0128937,0.0128174,0.00667572,0.0214767,0.0139618,-9.97986,0.0159454,-0.00244141,0.0125504,0.00370026,0.0165558,-0.00202179,0.0166321,0.00484467
30,7,10.0097,0.0012207,0.000457764,-2.42653,0.0559862,-0.0747579,0.0538228,0.0706652,-0.094062,0.145318,-0.125461,-0.0834859,0.0131989,0.0236893,0.0221252,0.0116348,0.0157928,0.00850677,0.0214005,0.0199509,-9.97986,0.0183868,-0.0038147,0.0158691,0.00488281,0.0151062,0.00377655,0.0164795,0.00442505
30,8,10.0097,-0.000305176,0.000762939,-2.42531,0.055681,-0.0741475,0.0547383,0.0728014,-0.0922309,0.147149,-0.123325,-0.0813497,0.0149155,0.024147,0.0193405,0.0129318,0.0194168,0.00682831,0.0228882,0.0233841,-9.97986,0.0200653,-0.000305176,0.0131989,0.00595093,0.0166702,-0.00179291,0.0134277,0.0056839
30,9,10.0097,-0.000610352,0.000762939,-2.42531,0.0562914,-0.0738423,0.0553487,0.0718859,-0.0910102,0.147149,-0.124241,-0.0804342,0.0137711,0.0260162,0.0191116,0.0100327,0.0175095,0.0121307,0.022583,0.0294113,-9.97986,0.0232697,0.0037384,0.014534,0.00354767,0.0166702,-0.00102997,0.0153351,0.00514984
31,0,10.0097,-0.000915527,0,-2.42562,0.0559862,-0.0753682,0.0538228,0.0712755,-0.0928413,0.146234,-0.125156,-0.0810445,0.0148773,0.0209808,0.019989,0.0117111,0.0177002,0.0140381,0.0256348,0.0271225,-9.97986,0.022316,0.000343323,0.0129318,0.00675201,0.0168228,-0.00495911,0.0120163,0.00705719
31,1,9.88057,-0.000610352,-0.00152588,-2.42806,0.0565965,-0.0741475,0.0513814,0.0135973,-0.0983344,0.146234,-0.128513,-0.0837911,0.00995636,0.0233459,0.0175858,0.0111008,0.017395,0.00862122,0.0194931,0.0192261,-9.97986,0.019455,0.000495911,0.0139618,0.00663757,0.0225449,-0.00682831,0.0139236,0.00919342
31,2,0.83333,-0.0012207,-0.00396729,-2.4247,0.0565965,-0.0741475,0.0529073,-0.00349256,-0.0974189,0.146234,-0.128513,-0.0822652,0.013237,0.0239944,0.0201797,0.0114059,0.0174332,0.0110245,0.0186539,0.0207901,-9.97986,0.0172424,0.00255585,0.0141525,0.00457764,0.0193024,-0.00152588,0.0141144,0.00507355
31,3,-6.26079,0.000610352,-0.00442505,-2.42501,0.0562914,-0.0738423,0.054128,-0.012953,-0.0974189,0.147455,-0.129429,-0.0822652,0.0123596,0.0233841,0.0205231,0.013504,0.0155258,0.00732422,0.0205994,0.0249863,-9.97986,0.0189209,0.00244141,0.0173187,0.00675201,0.0166702,-0.00225067,0.0173187,0.00602722
31,4,-9.99003,-0.000915527,-0.00305176,-2.42501,0.0565965,-0.0735371,0.0556539,0.0123766,-0.0928413,0.146234,-0.127598,-0.0807394,0.0140762,0.0232697,0.0214386,0.0142288,0.0138474,0.00968933,0.0189972,0.0181961,-9.97986,0.0120926,-0.000305176,0.0139618,0.00495911,0.0138092,-0.0038147,0.0156403,0.00740051
31,5,-9.99003,0.000915527,-0.00137329,-2.42592,0.0550706,-0.0738423,0.055959,0.0401476,-0.0897895,0.145624,-0.126072,-0.0819601,0.00976563,0.0234985,0.0196838,0.0118256,0.0178909,0.0120544,0.0214005,0.0134277,-9.97986,0.0102234,-0.00114441,0.0127792,0.0069046,0.00370026,-0.00106812,0.0152588,0.00850677
31,6,-9.99003,0.00152588,-0.000152588,-2.42562,0.0550706,-0.0753682,0.0550435,0.0572374,-0.0910102,0.146539,-0.125461,-0.0828756,0.00350952,0.0269318,0.0182343,0.0130463,0.0162125,0.00965118,0.0214767,0.0124359,-9.97986,0.00465393,0.00125885,0.0112152,0.00705719,-7.62939e-005,0.00110626,0.014534,0.00774384
31,7,-9.99003,0.000305176,0.000305176,-2.42592,0.0562914,-0.0753682,0.0556539,0.0804308,-0.0900947,0.145318,-0.124546,-0.0810445,0.00831604,0.0223541,0.0144958,0.011673,0.0196457,0.00617981,0.017128,0.0129318,-9.97986,0.00682831,0.00411987,0.0152206,0.00629425,0.018959,-0.00232697,0.0136566,0.00518799
31,8,-8.42448,0.0012207,0.00228882,-2.42714,0.0553758,-0.0747579,0.0565694,0.134447,-0.083686,0.144708,-0.121799,-0.0822652,0.00621796,0.0233078,0.0191879,0.0159073,0.0156021,0.0118637,0.0184631,0.0114822,-9.97986,0.0101089,0.00282288,0.0119019,0.00793457,0.0184631,-0.00331879,0.0156403,0.00297546
31,9,-0.237531,0.000915527,0.00396729,-2.42745,0.0541551,-0.0738423,0.054128,0.146349,-0.088874,0.142877,-0.121799,-0.0844015,0.0122452,0.0242615,0.0218582,0.014267,0.0177765,0.0121307,0.0234985,0.011673,-9.97986,0.00869751,0.00495911,0.0141907,0.00614166,0.0154114,-0.00419617,0.0182343,0.00545502
32,0,7.58748,0.0012207,0.00396729,-2.42837,0.0538499,-0.0756734,0.0550435,0.153368,-0.0900947,0.144403,-0.122104,-0.0850118,0.00579834,0.021019,0.0185776,0.00984192,0.0159836,0.00869751,0.0230026,0.0162125,-9.97986,0.0117493,-0.00198364,0.0135422,0.00427246,0.0166702,-0.00770569,0.0156784,0.00480652
32,1,10.0097,0,0.00274658,-2.43111,0.0532396,-0.0765889,0.050771,0.120409,-0.0965034,0.142572,-0.125461,-0.0889791,0.0132751,0.0232697,0.0220871,0.010376,0.0172806,0.00801086,0.023613,0.0174332,-9.97986,0.0139618,-0.00247955,0.0112915,0.0038147,0.0159073,-0.00511169,0.0169754,0.00427246
32,2,10.0097,0.000305176,0.000610352,-2.4302,0.0544603,-0.0756734,0.0513814,0.0880602,-0.0965034,0.142877,-0.126072,-0.0886739,0.00991821,0.0246811,0.016098,0.00946045,0.019722,0.0112152,0.0225067,0.0152969,-9.97986,0.0155258,-0.0043869,0.0154495,0.00858307,0.0134277,-0.00221252,0.01297,0.00888824
32,3,10.0097,0.000915527,0,-2.42989,0.0535448,-0.0753682,0.0516866,0.0782946,-0.0965034,0.143487,-0.126987,-0.0868429,0.0117111,0.0214386,0.0193024,0.0144196,0.0142288,0.0111389,0.0217438,0.0183105,-9.97986,0.0172806,-0.00114441,0.0187683,0.00831604,0.0180054,0.00160217,0.0155258,0.00576019
32,4,10.0097,0.000305176,-0.000305176,-2.42745,0.0544603,-0.0756734,0.0532125,0.0737169,-0.0946723,0.144708,-0.126072,-0.0859274,0.00556946,0.023613,0.0217056,0.0109863,0.0141907,0.0122833,0.0169373,0.0148392,-9.97986,0.0153732,-0.00183105,0.0122452,0.00587463,0.0131989,0.000190735,0.0193787,0.0038147
32,5,10.0097,0.000610352,-0.000305176,-2.42714,0.0544603,-0.075063,0.0526021,0.072191,-0.0931465,0.144708,-0.125766,-0.085317,0.0123978,0.0199509,0.0188065,0.0127792,0.0131607,0.00999451,0.0276566,0.0180435,-9.97986,0.0165558,-0.0043869,0.0153351,0.00656128,0.0169754,-0.00514984,0.0162506,0.00644684
32,6,10.0097,0.000610352,0.000305176,-2.42714,0.0547655,-0.0759786,0.0529073,0.0715807,-0.0946723,0.145013,-0.125766,-0.0850118,0.0105286,0.0224686,0.0190735,0.0135803,0.0167084,0.0094223,0.0204468,0.017395,-9.97986,0.0172806,-0.00419617,0.0146866,0.00179291,0.0170898,-0.00156403,0.0156021,0.00675201
32,7,10.0097,0.000610352,0.000457764,-2.42653,0.055681,-0.0747579,0.054128,0.0709703,-0.0931465,0.145318,-0.124546,-0.0834859,0.00801086,0.0214386,0.0206375,0.0131989,0.0164795,0.00766754,0.0178528,0.0221634,-9.97986,0.0175858,-0.00301361,0.0149155,0.00682831,0.0193787,-0.00331879,0.0157166,0.00507355
32,8,10.0097,0.000915527,0.000152588,-2.42501,0.0565965,-0.0735371,0.055959,0.0712755,-0.090705,0.146539,-0.12363,-0.0825704,0.0115204,0.0238419,0.0221634,0.0122452,0.0166321,0.0126266,0.0231171,0.0254059,-9.97986,0.02388,-0.00411987,0.0152588,0.00385284,0.0199127,0.00152588,0.0151825,0.0050354
32,9,10.0097,0.000610352,0.000610352,-2.42562,0.0572069,-0.0735371,0.054128,0.072191,-0.0910102,0.147455,-0.124851,-0.0813497,0.0137329,0.0247192,0.0181961,0.0138092,0.0165176,0.0112152,0.0260925,0.0287247,-9.97986,0.0222015,0.000495911,0.0094223,0.0019455,0.0188446,-0.000801086,0.0157166,0.0108719
33,0,10.0097,-0.00183105,0.000152588,-2.42592,0.055681,-0.0741475,0.0544332,0.07036,-0.0913154,0.145318,-0.123935,-0.0819601,0.0106812,0.020256,0.0177765,0.00946045,0.0157928,0.00930786,0.0227356,0.0300598,-9.97986,0.021553,-0.0038147,0.015831,0.00343323,0.0197601,-0.0019455,0.0133514,0.00747681
33,1,9.62941,0.00152588,-0.00183105,-2.42776,0.055681,-0.075063,0.0513814,0.0117662,-0.0995551,0.145624,-0.128513,-0.0837911,0.00991821,0.0226593,0.021286,0.0105286,0.0139618,0.0104141,0.0214005,0.0234222,-9.97986,0.0179291,-0.00465393,0.0160217,0.00408173,0.0172043,-0.00717163,0.0181961,0.00717163
33,2,0.590105,-0.000915527,-0.00396729,-2.42684,0.0562914,-0.0729268,0.0526021,-0.00471326,-0.0971137,0.14776,-0.130344,-0.0819601,0.0112152,0.0233841,0.0200272,0.0156403,0.0203323,0.0152206,0.0186157,0.0218964,-9.97986,0.0172424,-0.0038147,0.0195313,0.00656128,0.0176239,-0.00888824,0.0172043,0.00514984
33,3,-6.67735,0.000610352,-0.00457764,-2.42592,0.0550706,-0.0720113,0.0535176,-0.0160048,-0.0955879,0.146234,-0.130039,-0.0813497,0.00701904,0.0249481,0.0178909,0.00938416,0.017662,0.0138855,0.0201416,0.0227737,-9.97986,0.0154495,-0.00335693,0.0140381,0.00614166,0.0154114,-0.00087738,0.0186539,0.00770569
33,4,-9.99003,0.000305176,-0.00305176,-2.42592,0.0562914,-0.0741475,0.0562642,0.0142076,-0.094062,0.146539,-0.128208,-0.0813497,0.00831604,0.0246048,0.0189972,0.0105286,0.0210953,0.0126648,0.0212479,0.0186157,-9.97986,0.0142288,-0.00419617,0.0149918,0.0069046,0.0170517,-0.00244141,0.0151825,0.0037384
33,5,-9.99003,0,-0.00167847,-2.42531,0.0553758,-0.0747579,0.0556539,0.0407579,-0.0903999,0.145929,-0.126377,-0.080129,0.0112915,0.0236893,0.018425,0.00919342,0.0166702,0.00865936,0.0208664,0.0120544,-9.97986,0.0104523,-0.00648499,0.0141144,0.00499725,-0.00297546,-0.00328064,0.0138092,0.00648499
33,6,-9.99003,0.000305176,-0.00106812,-2.4244,0.0553758,-0.0738423,0.0553487,0.058153,-0.090705,0.145013,-0.126377,-0.0810445,0.00759125,0.0209808,0.0197983,0.0094223,0.0169754,0.00812531,0.0217438,0.0105667,-9.97986,0.00644684,-0.00347137,0.0150299,0.00858307,-0.00679016,-0.00198364,0.015831,0.00431061
33,7,-9.99003,-0.000915527,0.000152588,-2.42684,0.0550706,-0.0753682,0.0562642,0.082567,-0.0879585,0.145318,-0.125461,-0.0825704,0.0108719,0.0229645,0.0213623,0.0128174,0.0119781,0.0149536,0.0209045,0.00827789,-9.97986,0.00789642,-0.00400543,0.0144196,0.00377655,0.0127792,-0.00293732,0.0201416,0.00583649
33,8,-8.65245,0.00183105,0.00244141,-2.42501,0.0550706,-0.075063,0.0580953,0.135668,-0.0846015,0.145929,-0.120884,-0.0816549,0.0102615,0.0257111,0.0188446,0.0101089,0.0161362,0.0107193,0.0183868,0.0105286,-9.97986,0.00797272,-0.00217438,0.015831,0.00988007,0.0195694,-0.000610352,0.0183868,0.00740051
33,9,-0.592756,0.00305176,0.00350952,-2.42837,0.0541551,-0.0759786,0.0532125,0.148485,-0.088874,0.143792,-0.121799,-0.0847066,0.00946045,0.0247574,0.0194931,0.0123215,0.0198746,0.00770569,0.0226212,0.0111389,-9.97986,0.0128555,-0.00137329,0.0151825,0.00576019,0.0137329,-0.00541687,0.0166321,0.00530243
34,0,7.31496,0.000915527,0.00473022,-2.42745,0.0535448,-0.0756734,0.0544332,0.152757,-0.088874,0.144098,-0.121799,-0.0856222,0.0120926,0.022583,0.018158,0.013504,0.020752,0.0109863,0.0215149,0.0140381,-9.97986,0.00801086,-0.00232697,0.0120544,0.00385284,0.0150681,-0.0044632,0.015831,0.00804901
34,1,10.0097,-0.00183105,0.00442505,-2.4305,0.0529344,-0.0765889,0.0510762,0.12224,-0.0971137,0.141656,-0.123935,-0.0883688,0.0104523,0.0232315,0.0174713,0.0133133,0.018959,0.0104904,0.0206757,0.0166702,-9.97986,0.0142288,-0.00232697,0.0180435,0.00736237,0.0154114,-0.00244141,0.0125504,0.00530243
34,2,10.0097,0.000915527,0.000610352,-2.43172,0.0532396,-0.0756734,0.0495503,0.0901964,-0.0974189,0.143792,-0.126377,-0.0880636,0.0123596,0.0217438,0.0201797,0.0125504,0.0212479,0.0107956,0.0203705,0.0152206,-9.97986,0.015564,-0.00808716,0.0140381,0.00694275,0.0164032,-0.00396729,0.0167847,0.00923157
34,3,10.0097,-0.000610352,0,-2.42959,0.0532396,-0.0762837,0.0498555,0.0776842,-0.0961982,0.142877,-0.126072,-0.0874532,0.0056076,0.0250626,0.0186539,0.0124741,0.0204849,0.00980377,0.0216293,0.0167847,-9.97986,0.0131989,-0.00377655,0.0143814,0.00400543,0.016861,-0.00411987,0.014534,0.00389099
34,4,10.0097,0.000610352,0,-2.42898,0.0541551,-0.0756734,0.0529073,0.0734117,-0.095893,0.143792,-0.126072,-0.0871481,0.0130081,0.0269318,0.0203323,0.0110626,0.0158691,0.0152588,0.0257492,0.0154877,-9.97986,0.0132751,-0.00469208,0.0147629,0.00453949,0.0172424,3.8147e-005,0.0170898,0.00862122
34,5,10.0097,0,0.000152588,-2.42745,0.0547655,-0.0762837,0.054128,0.0731066,-0.094062,0.144403,-0.125156,-0.0850118,0.00827789,0.0237656,0.0190353,0.0117111,0.0188446,0.011673,0.0229263,0.0172424,-9.97986,0.0162506,-0.00675201,0.0168228,0.00797272,0.0183868,-0.00244141,0.0163651,0.00526428
34,6,10.0097,0.00183105,0,-2.42745,0.055681,-0.0753682,0.0522969,0.072191,-0.0928413,0.144403,-0.125766,-0.0844015,0.0114822,0.0170517,0.0218582,0.00804901,0.0152969,0.0127029,0.0234604,0.0234222,-9.97986,0.0152588,-0.00465393,0.0183487,0.00743866,0.0170135,3.8147e-005,0.0130844,0.00621796
34,7,10.0097,0.000915527,-0.000152588,-2.42623,0.0550706,-0.0744527,0.0538228,0.0712755,-0.0925361,0.146844,-0.125461,-0.0837911,0.0144196,0.0231171,0.0201035,0.011673,0.0169373,0.00705719,0.0218201,0.0209045,-9.97986,0.0159454,-0.00465393,0.0186157,0.00610352,0.0172043,0.0012207,0.019989,0.00835419
34,8,10.0097,0.00183105,0.000610352,-2.42501,0.055681,-0.0735371,0.054128,0.0718859,-0.090705,0.145624,-0.125156,-0.0825704,0.0120926,0.021019,0.0205994,0.014267,0.0163269,0.0111008,0.0187683,0.0246811,-9.97986,0.0191116,-0.00602722,0.0120544,0.0056839,0.0182343,0.000343323,0.0162125,0.00617981
34,9,10.0097,0.00213623,0,-2.4244,0.0565965,-0.0735371,0.0550435,0.0718859,-0.090705,0.146844,-0.124851,-0.0816549,0.0111389,0.0210571,0.017662,0.0125885,0.0173187,0.0108719,0.0206375,0.028801,-9.97986,0.0216293,-0.0031662,0.0123596,0.0075531,0.0191498,-0.00114441,0.0168991,0.00743866
35,0,10.0097,0.000610352,0.000457764,-2.42592,0.0562914,-0.0735371,0.0553487,0.0691393,-0.0928413,0.146234,-0.124546,-0.0810445,0.0167847,0.0254822,0.0193405,0.0118256,0.0129318,0.0147247,0.0222397,0.0235748,-9.97986,0.0209045,-0.00782013,0.014267,0.00843048,0.0199127,-0.000534058,0.017395,0.0122452
35,1,9.50276,0,-0.00244141,-2.42623,0.0547655,-0.0747579,0.0516866,0.00932483,-0.0989448,0.144403,-0.130039,-0.0844015,0.00984192,0.0222778,0.0172806,0.00999451,0.0163269,0.0130463,0.0241852,0.0263596,-9.97986,0.0207138,-0.00476837,0.0183868,0.00953674,0.0169754,-0.00198364,0.0146103,0.00976563
35,2,0.476275,0.000610352,-0.00457764,-2.42684,0.0562914,-0.0741475,0.0544332,-0.00684949,-0.0968086,0.145624,-0.129734,-0.0816549,0.00862122,0.0206375,0.016098,0.0101852,0.0171661,0.0114441,0.0221634,0.0253677,-9.97986,0.0173187,-0.00389099,0.0146484,0.00751495,0.016861,-0.0069809,0.0171661,0.00808716
35,3,-6.74937,-0.000305176,-0.00396729,-2.42562,0.0569017,-0.073232,0.054128,-0.0153944,-0.0971137,0.147149,-0.130039,-0.0822652,0.0104523,0.021553,0.0141525,0.0118637,0.0165558,0.0151825,0.0233841,0.0257874,-9.97986,0.015564,-0.00175476,0.0180435,0.00480652,0.0208282,-0.000572205,0.0154114,0.0056839
35,4,-9.99003,-0.00152588,-0.00259399,-2.4244,0.0562914,-0.0744527,0.0556539,0.0135973,-0.0934516,0.145624,-0.128513,-0.0807394,0.00900269,0.0186157,0.0172043,0.0112152,0.0159073,0.0125885,0.0224304,0.0179291,-9.97986,0.0112915,-0.00106812,0.0167847,0.0056839,0.0161743,-0.00423431,0.0161743,0.00637054
35,5,-9.99003,0.000305176,-0.00167847,-2.42501,0.0559862,-0.0738423,0.0553487,0.0410631,-0.0913154,0.146234,-0.127292,-0.0813497,0.00984192,0.0226212,0.021286,0.00854492,0.0163269,0.00938416,0.0241852,0.0117111,-9.97986,0.0101471,0.00198364,0.0156021,0.0056839,-0.00144958,0.000152588,0.0165176,0.00621796
35,6,-9.99003,-0.000610352,0.000305176,-2.42592,0.0550706,-0.0729268,0.0556539,0.0575426,-0.0903999,0.14776,-0.126377,-0.0828756,0.0104523,0.0229645,0.0159073,0.0122833,0.019455,0.0100708,0.020752,0.00926971,-9.97986,0.00888824,-0.00164032,0.0136185,0.00385284,-0.00991821,-0.0025177,0.0151443,0.00522614
35,7,-9.99003,-0.0012207,0,-2.42501,0.0550706,-0.075063,0.0556539,0.0819567,-0.0879585,0.145318,-0.125156,-0.0816549,0.0094986,0.0230789,0.0152206,0.00743866,0.0177383,0.0115204,0.0221252,0.0100327,-9.97986,0.0109482,7.62939e-005,0.015564,0.00640869,0.0141144,0.0018692,0.0170898,0.00640869
35,8,-8.57646,0.000915527,0.00335693,-2.42623,0.055681,-0.0762837,0.0565694,0.135668,-0.0846015,0.145624,-0.122104,-0.0825704,0.011673,0.0230408,0.0171661,0.0110626,0.0181198,0.013504,0.0236511,0.0119019,-9.97986,0.0094223,-0.00114441,0.0136566,0.00679016,0.016098,-0.00392914,0.0175095,0.00614166
35,9,-0.53935,0.00274658,0.0038147,-2.42714,0.0538499,-0.075063,0.054128,0.149095,-0.0885688,0.144708,-0.121189,-0.0844015,0.0134277,0.0236893,0.0160599,0.010376,0.0174713,0.00904083,0.0207138,0.00907898,-9.97986,0.0107193,0.00228882,0.0142288,0.00686646,0.0164032,-0.00209808,0.0150299,0.00644684
36,0,7.44405,0.000610352,0.00411987,-2.42714,0.0535448,-0.0759786,0.0532125,0.152452,-0.0900947,0.143487,-0.12241,-0.0850118,0.0133514,0.0234604,0.017395,0.0131607,0.0172806,0.0117874,0.0248337,0.0175858,-9.97986,0.0102997,0.00377655,0.0152588,0.00751495,0.0133133,0.000534058,0.0137329,0.0063324
36,1,10.0097,-0.000610352,0.00350952,-2.4302,0.0526292,-0.0775044,0.050771,0.121019,-0.0955879,0.141961,-0.124851,-0.0886739,0.0102234,0.025444,0.0189972,0.0141907,0.0185776,0.0138092,0.0211334,0.0157547,-9.97986,0.0114441,0.00038147,0.00980377,0.00247955,0.0133133,-0.000801086,0.0170517,0.00514984
36,2,10.0097,-0.000915527,0.000610352,-2.4305,0.0532396,-0.0765889,0.0510762,0.0892809,-0.0974189,0.142572,-0.125156,-0.0883688,0.00934601,0.0197983,0.0167084,0.0114059,0.0152588,0.0118256,0.0205612,0.0172043,-9.97986,0.0135422,0.00232697,0.0144958,0.00431061,0.0166321,0.000648499,0.0163651,0.00495911
36,3,10.0097,0,-0.000457764,-2.4302,0.0532396,-0.0768941,0.0519917,0.0782946,-0.0955879,0.143487,-0.126987,-0.0880636,0.0120163,0.0186157,0.0180817,0.0120163,0.0162125,0.00827789,0.0225449,0.0152588,-9.97986,0.0126266,-0.000457764,0.0133896,0.00118256,0.0137711,0.00213623,0.0137711,0.00667572
36,4,10.0097,0,0.000152588,-2.42928,0.0544603,-0.0756734,0.0529073,0.0746324,-0.0943672,0.144403,-0.126377,-0.0865377,0.00671387,0.020256,0.018425,0.0115204,0.0178146,0.0100708,0.0214767,0.0128937,-9.97986,0.0159836,0.00175476,0.0142288,0.00774384,0.0160599,0.000267029,0.0170517,0.00530243
36,5,10.0097,0,0.000152588,-2.42745,0.0553758,-0.075063,0.0535176,0.072191,-0.0955879,0.143487,-0.126377,-0.085317,0.00816345,0.0225449,0.018158,0.013504,0.0169754,0.0138092,0.0239563,0.018959,-9.97986,0.0113297,0.00358582,0.0113297,0.00679016,0.013237,-0.000915527,0.0180817,0.00789642
36,6,10.0097,-0.000915527,0.000610352,-2.42806,0.0553758,-0.0753682,0.0535176,0.0712755,-0.0931465,0.146234,-0.126072,-0.0850118,0.0102615,0.0239944,0.0204468,0.0164032,0.0149918,0.0106049,0.0257111,0.0188065,-9.97986,0.0177002,0.00480652,0.0179672,0.00469208,0.0161743,-0.000839233,0.0190735,0.00713348
36,7,10.0097,0.000305176,-0.000305176,-2.42592,0.0553758,-0.0741475,0.054128,0.0712755,-0.0931465,0.145929,-0.125461,-0.0834859,0.0108719,0.0212479,0.0191498,0.0151825,0.0199127,0.0128174,0.0237656,0.0206757,-9.97986,0.0174713,0.00709534,0.0124359,0.00629425,0.0157928,-0.000991821,0.015831,0.00701904
36,8,10.0097,0.000305176,0.000305176,-2.42623,0.0553758,-0.073232,0.0553487,0.0709703,-0.0919257,0.14776,-0.124241,-0.0810445,0.0104523,0.0246429,0.0204086,0.0149536,0.0184631,0.0136185,0.0217819,0.0237274,-9.97986,0.0191116,0.00934601,0.0152588,0.00423431,0.0197601,0.000457764,0.0143433,0.00667572
36,9,10.0097,0,0.000305176,-2.42501,0.0581224,-0.073232,0.054128,0.0728014,-0.0922309,0.146234,-0.123325,-0.0813497,0.0122833,0.0254059,0.0155258,0.0149536,0.0193024,0.0114059,0.0234604,0.0311661,-9.97986,0.0260544,0.00415802,0.0117874,0.00671387,0.0166702,-0.00175476,0.0170898,0.00785828
37,0,10.0097,0.0012207,0.000152588,-2.4244,0.0559862,-0.0747579,0.054128,0.07036,-0.0913154,0.146844,-0.124851,-0.0810445,0.00907898,0.0216675,0.0191116,0.0113297,0.0203323,0.0130463,0.0242615,0.0250244,-9.97986,0.0233078,0.00419617,0.0106049,0.00740051,0.0178909,-0.00320435,0.0164413,0.00606537
37,1,9.67854,0.000915527,-0.00228882,-2.42837,0.0569017,-0.0747579,0.0504659,0.0105455,-0.0980293,0.145318,-0.129123,-0.0840963,0.00732422,0.0241089,0.0204849,0.0146484,0.0188065,0.0107193,0.024147,0.0243378,-9.97986,0.0196075,-0.000190735,0.0170517,0.00953674,0.0165176,-0.00442505,0.0156784,0.00888824
37,2,0.547991,0.000305176,-0.00366211,-2.42623,0.0562914,-0.0738423,0.0532125,-0.00410291,-0.0971137,0.146844,-0.128513,-0.0825704,0.00377655,0.0225067,0.0153732,0.0159836,0.0171661,0.013504,0.0190353,0.0231171,-9.97986,0.019989,0.00087738,0.0159454,0.00953674,0.0185013,-0.00144958,0.0168228,0.00953674
37,3,-6.62364,0.000610352,-0.00442505,-2.42562,0.0569017,-0.073232,0.0535176,-0.0160048,-0.0968086,0.14837,-0.129734,-0.0816549,0.00782013,0.021553,0.0156784,0.0150299,0.0174713,0.0102997,0.024147,0.0194168,-9.97986,0.0138092,-0.00102997,0.0171661,0.00553131,0.0141907,-0.00267029,0.018158,0.0103378
37,4,-9.99003,0.00244141,-0.00244141,-2.42409,0.0565965,-0.0738423,0.0556539,0.0145128,-0.0931465,0.146844,-0.127598,-0.080129,0.0102997,0.0175858,0.0189972,0.0135803,0.0142288,0.0088501,0.02285,0.0161743,-9.97986,0.0126648,0.00240326,0.01297,0.00656128,0.0154114,-0.00587463,0.0154114,0.00526428
37,5,-9.99003,0,-0.00213623,-2.42501,0.055681,-0.0738423,0.0550435,0.0419786,-0.0910102,0.145318,-0.126987,-0.0813497,0.00938416,0.0210571,0.016861,0.00862122,0.0153732,0.0112152,0.020752,0.0103378,-9.97986,0.0111771,-0.000190735,0.0151062,0.00835419,-0.00518799,-0.00270844,0.0141907,0.00564575
37,6,-9.99003,0.00152588,-0.000152588,-2.42501,0.0547655,-0.0741475,0.0565694,0.0569322,-0.0903999,0.145318,-0.125461,-0.0819601,0.00995636,0.0179291,0.0220108,0.0136185,0.0163269,0.0128937,0.0259399,0.0102234,-9.97986,0.0159454,0.00709534,0.0192642,0.0128937,-0.00564575,0.00171661,0.0192261,0.0154495
37,7,-9.99003,0,0.000305176,-2.42562,0.055681,-0.0738423,0.0553487,0.0831774,-0.0894843,0.145013,-0.124546,-0.0828756,0.00888824,0.0163651,0.0149155,0.00991821,0.0158691,0.00797272,0.0144196,0.00572205,-9.97986,0.00606537,0.000114441,0.0107193,0.00465393,0.00827789,-0.00545502,0.00995636,0.00320435
37,8,-8.38756,0.00152588,0.00289917,-2.42623,0.0544603,-0.0738423,0.0577901,0.137499,-0.0852119,0.145624,-0.121799,-0.0825704,0.0135422,0.0233841,0.0218582,0.0120926,0.016098,0.0153351,0.0255203,0.0141144,-9.97986,0.00991821,-0.000152588,0.0172806,0.0121307,0.0180817,0.00152588,0.0182343,0.00774384
37,9,-0.398054,0.00213623,0.00320435,-2.42684,0.0553758,-0.0738423,0.0562642,0.146654,-0.0876533,0.142877,-0.121189,-0.0850118,0.0101089,0.0228882,0.0180817,0.013504,0.017662,0.011673,0.0208282,0.0112534,-9.97986,0.0121689,-0.00320435,0.0149155,0.00465393,0.0172806,-0.00259399,0.0179672,0.00728607
38,0,7.56124,-0.000610352,0.00473022,-2.42928,0.0538499,-0.0756734,0.0538228,0.153063,-0.088874,0.143792,-0.120578,-0.0856222,0.0114822,0.0191116,0.016861,0.0135803,0.0187683,0.0111008,0.0186539,0.0114441,-9.97986,0.0111771,0.0012207,0.0154495,0.00843048,0.0146484,-0.00148773,0.0161743,0.00408173
38,1,10.0097,0.0012207,0.00366211,-2.4305,0.0532396,-0.0768941,0.0510762,0.119188,-0.0961982,0.143182,-0.124851,-0.0883688,0.0127029,0.0226974,0.0127411,0.0128937,0.0165176,0.0126648,0.02285,0.0163651,-9.97986,0.0139999,-0.00137329,0.0151062,0.00679016,0.0152206,-0.00164032,0.0159073,0.00640869
38,2,10.0097,-0.000610352,0.000610352,-2.4305,0.0535448,-0.0759786,0.0498555,0.0880602,-0.0971137,0.142877,-0.125766,-0.0886739,0.00728607,0.0232697,0.0192261,0.0147247,0.0218582,0.0117493,0.0226974,0.0149536,-9.97986,0.0136185,0.00125885,0.01194,0.00492096,0.0141907,-0.00160217,0.0163269,0.0037384
38,3,10.0097,0,0.000305176,-2.43081,0.0526292,-0.075063,0.0516866,0.0782946,-0.095893,0.142877,-0.126682,-0.0877584,0.0141525,0.0267029,0.0177002,0.0109482,0.0156784,0.00926971,0.0197983,0.0146866,-9.97986,0.0143051,0.000839233,0.0168228,0.00648499,0.0155258,-0.0012207,0.0161743,0.00736237
38,4,10.0097,0.000610352,0,-2.42745,0.0550706,-0.0756734,0.0516866,0.0731066,-0.0952827,0.145013,-0.126072,-0.0868429,0.0115204,0.0245285,0.0194168,0.0156784,0.0177383,0.0109482,0.0194931,0.0190353,-9.97986,0.0162888,0.00232697,0.0152969,0.00747681,0.0169373,-0.00175476,0.0146103,0.00427246
38,5,10.0097,0.000610352,-0.0012207,-2.42776,0.0550706,-0.075063,0.0538228,0.0712755,-0.0943672,0.143792,-0.125766,-0.0847066,0.0117493,0.0239944,0.0181961,0.0141525,0.0175858,0.0118637,0.0212479,0.020752,-9.97986,0.017395,-0.00244141,0.0136566,0.0105286,0.0165558,-0.000724792,0.0170517,0.00576019
38,6,10.0097,0.00152588,0.000152588,-2.42684,0.055681,-0.0747579,0.0532125,0.0709703,-0.0943672,0.144708,-0.126072,-0.0844015,0.0108719,0.0250244,0.0180817,0.0125504,0.0164795,0.00995636,0.0252914,0.0136948,-9.97986,0.0165558,-0.00267029,0.0154114,0.0105286,0.0209427,0,0.0157928,0.00495911
38,7,10.0097,0.00244141,0.000305176,-2.42592,0.0565965,-0.0738423,0.054128,0.0715807,-0.0931465,0.144403,-0.124851,-0.0837911,0.00911713,0.0243378,0.0202942,0.0138474,0.0157928,0.0147629,0.0200653,0.0261307,-9.97986,0.0181198,-0.00167847,0.016861,0.00911713,0.0212479,-0.0030899,0.0159073,0.00679016
38,8,10.0097,0,0.000457764,-2.42562,0.0562914,-0.0726216,0.0550435,0.072191,-0.0922309,0.146539,-0.124241,-0.0813497,0.0106812,0.0227737,0.0152206,0.0157547,0.0185394,0.00297546,0.0153732,0.0245667,-9.97986,0.0200272,-0.00549316,0.0127029,0.0075531,0.0162506,-0.000305176,0.0170517,0.00659943
38,9,10.0097,0.000915527,0.000915527,-2.42562,0.055681,-0.073232,0.0547383,0.072191,-0.0910102,0.145013,-0.123935,-0.0804342,0.0125885,0.0259399,0.0210571,0.0151443,0.0214386,0.0124741,0.0221252,0.0308609,-9.97986,0.0226593,-0.00183105,0.0136185,0.00968933,0.0217438,0.0012207,0.0188065,0.00778198
39,0,10.0097,0.00183105,-0.000457764,-2.42592,0.0550706,-0.0744527,0.0538228,0.0688341,-0.0928413,0.145929,-0.124546,-0.0813497,0.00865936,0.020256,0.0163269,0.0113297,0.0163651,0.00968933,0.0188828,0.0261307,-9.97986,0.0267029,-0.00431061,0.00999451,0.00789642,0.0188828,-0.00476837,0.014801,0.0069046
39,1,9.64162,0.000305176,-0.00213623,-2.42745,0.0562914,-0.0753682,0.050771,0.0111559,-0.09925,0.145929,-0.129123,-0.0837911,0.0112534,0.0255585,0.0214005,0.0126648,0.0177002,0.0104141,0.021286,0.0231171,-9.97986,0.0140762,-0.0056076,0.0152588,0.00675201,0.0199127,-0.00453949,0.0141144,0.00675201
39,2,0.58095,0.000305176,-0.00396729,-2.42562,0.0565965,-0.073232,0.054128,-0.00532361,-0.0974189,0.147149,-0.129123,-0.0825704,0.00797272,0.0225067,0.0156784,0.0129318,0.016098,0.0111771,0.0253296,0.0224304,-9.97986,0.0175476,-0.00160217,0.0142288,0.00778198,0.019722,-0.00289917,0.0174713,0.0082016
39,3,-6.67949,-0.0012207,-0.00427246,-2.42592,0.0553758,-0.0726216,0.0544332,-0.0141737,-0.0961982,0.147149,-0.129734,-0.0822652,0.0102997,0.0214005,0.020256,0.00892639,0.0157928,0.0114822,0.0243378,0.0189972,-9.97986,0.0158691,-0.00312805,0.0179291,0.0101089,0.0200653,-0.00415802,0.0198746,0.00610352
39,4,-9.99003,0.000915527,-0.00274658,-2.42501,0.0572069,-0.0738423,0.0553487,0.0142076,-0.0922309,0.146234,-0.128513,-0.0807394,0.00793457,0.0245285,0.0148773,0.010643,0.0136948,0.00965118,0.0201416,0.0148773,-9.97986,0.0144196,-0.00167847,0.0141525,0.00823975,0.0188446,0.000305176,0.0152206,0.0075531
39,5,-9.99003,0,-0.00183105,-2.42531,0.0547655,-0.0738423,0.0565694,0.0410631,-0.0903999,0.145929,-0.127292,-0.0813497,0.0130081,0.0244904,0.0180435,0.0119781,0.0179291,0.0104523,0.0196457,0.0121689,-9.97986,0.0119781,3.8147e-005,0.0124741,0.00656128,-0.00286102,-0.00602722,0.0167465,0.00671387
39,6,-9.99003,0,-0.00106812,-2.42562,0.055681,-0.0747579,0.0553487,0.0584581,-0.0910102,0.145013,-0.126072,-0.0819601,0.00980377,0.0229645,0.0165939,0.0105667,0.0183868,0.0143051,0.0212479,0.00782013,-9.97986,0.00614166,-0.00244141,0.0119781,0.00572205,-0.00488281,-0.00247955,0.017128,0.00526428
39,7,-9.99003,-0.000305176,0.000915527,-2.42501,0.0553758,-0.0735371,0.055959,0.0828722,-0.0882636,0.146844,-0.124851,-0.0828756,0.01091,0.0260544,0.0178909,0.0133896,0.0199509,0.00732422,0.0227737,0.013504,-9.97986,0.0111008,0.000915527,0.0156021,0.00930786,0.0173569,-0.00328064,0.018692,0.00225067
39,8,-8.15074,0.00183105,0.00274658,-2.42531,0.0538499,-0.0738423,0.0568746,0.137804,-0.0830757,0.145624,-0.121494,-0.0822652,0.00904083,0.0217438,0.0159073,0.00999451,0.0160599,0.0106049,0.0212479,0.011673,-9.97986,0.0139236,0.000648499,0.0105667,0.00900269,0.0199127,-0.00213623,0.0177765,0.00385284
39,9,-0.112409,-0.0012207,0.00396729,-2.42776,0.0541551,-0.0753682,0.0547383,0.149706,-0.0879585,0.143487,-0.121799,-0.0850118,0.0109482,0.0267029,0.0202179,0.0107574,0.0186539,0.00965118,0.0193787,0.0148392,-9.97986,0.00961304,0.00167847,0.0167084,0.00751495,0.0183868,-0.0069809,0.0159454,0.00679016
40,0,7.9009,0.000915527,0.0050354,-2.42837,0.0529344,-0.0762837,0.0538228,0.153673,-0.0903999,0.143792,-0.120884,-0.085317,0.014267,0.0198364,0.0154877,0.0141144,0.0142288,0.0128937,0.0186157,0.0162125,-9.97986,0.0109863,-0.0056076,0.0105667,0.00972748,0.018692,-0.00652313,0.0160217,0.00312805
40,1,10.0097,0.000610352,0.00305176,-2.43172,0.0532396,-0.0762837,0.0504659,0.117662,-0.0955879,0.142572,-0.124851,-0.0883688,0.0127029,0.0208282,0.0180817,0.00637054,0.0178146,0.0106812,0.02388,0.0146484,-9.97986,0.0162125,-0.00144958,0.0163651,0.0103378,0.0228882,-0.00579834,0.0198746,0.00572205
40,2,10.0097,0.0012207,0.000762939,-2.42959,0.0535448,-0.0771993,0.0498555,0.087755,-0.0965034,0.144403,-0.126682,-0.0880636,0.0124741,0.0211334,0.0172424,0.0121307,0.0180054,0.00801086,0.0216293,0.0133896,-9.97986,0.0170898,-0.00614166,0.0163269,0.00610352,0.0152206,-0.00537872,0.0135803,0.00686646
40,3,10.0097,-0.000305176,0,-2.42959,0.0535448,-0.0756734,0.0513814,0.0764635,-0.0965034,0.144098,-0.126682,-0.0880636,0.0133514,0.0247955,0.02285,0.00923157,0.0193405,0.00915527,0.0188446,0.0192642,-9.97986,0.0164032,-0.00263214,0.0204849,0.00911713,0.0206757,-0.000762939,0.0166321,0.00389099
40,4,10.0097,-0.000305176,0.000305176,-2.42898,0.0544603,-0.0756734,0.0516866,0.0728014,-0.0949775,0.143487,-0.127292,-0.0865377,0.0143051,0.0232315,0.0177383,0.0104523,0.0168991,0.00801086,0.0186539,0.0156021,-9.97986,0.0180817,-0.00530243,0.0156403,0.00408173,0.0204849,-0.00476837,0.0167084,0.00415802
40,5,10.0097,0,-0.000305176,-2.42653,0.0550706,-0.0756734,0.0535176,0.0712755,-0.0934516,0.144098,-0.126987,-0.085317,0.0126648,0.0197601,0.0151825,0.0123596,0.0138092,0.00919342,0.0233841,0.0156021,-9.97986,0.0131989,-0.00236511,0.0185776,0.00953674,0.0213623,-0.00392914,0.0171661,0.00663757
