
Devices
1200
,,BP Load cell - Voltage,String Length - Voltage,Clutch Active - Voltage,#7 iPecs - Voltage,,,,,,,,,EMG 1-8 Left - Voltage,,,,,,,,Pylon Force - Voltage,EMG 9-16 Right - Voltage,,,,,,,,
Frame,Sub Frame,BP Load Cell,String Length,From Arduino Logic,A45,A135,A225,A315,S0,S90,S180,S270,ZSum,EMG 1 Glut Max,EMG 2 Glut Med,EMG 3 Biceps Femoris Long,EMG 4 Rectus Femoris,EMG 5 Vastus Medialis,EMG 6 Tib Ant,EMG 7 Med Gas,EMG 8 Soleus,Pylon volts,EMG 9 Glut Max,EMG 10 Glut Med,EMG 11 Biceps Femoris Long,EMG 12 Rectus Femoris,EMG 13 Vastus Medialis,EMG 14 Tib Ant,EMG 15 Med Gas,EMG 16 Soleus
,,V,V,V,V,V,V,V,V,V,V,V,V,V,V,V,V,V,V,V,V,V,V,V,V,V,V,V,V,V
1,0,10.0097,0.000305176,0.000152588,-2.42837,0.0535448,-0.0756734,0.0522969,0.0724962,-0.0955879,0.143487,-0.125156,-0.0862325,0.0142288,0.035553,0.0543976,-0.00137329,-0.00984192,0.0119781,-0.0202179,0.0234985,-9.97986,-0.0325775,0.01194,0.051384,-0.0629807,0.080452,0.00957489,0.0305939,0.0144958
1,1,10.0097,0.00152588,0.000610352,-2.42684,0.0553758,-0.075063,0.0535176,0.0743273,-0.0943672,0.145013,-0.126682,-0.0850118,0.0133133,0.0338745,0.0521088,0.00282288,-0.00522614,0.0167465,-0.00423431,0.012207,-9.97986,-0.0213242,0.0153732,0.078125,-0.0574112,0.0754547,0.0120926,0.0377274,0.0105286
1,2,10.0097,-0.0012207,-0.000305176,-2.42653,0.0575121,-0.0756734,0.0532125,0.072191,-0.0943672,0.146234,-0.126682,-0.0850118,0.0154114,0.0416946,0.0452423,0.00408173,0.00205994,0.016098,0.00331879,0.00465393,-9.97986,-0.0190353,0.0157928,0.0963211,-0.0602722,0.0669098,0.00671387,0.0421524,0.00404358
1,3,10.0097,0.0012207,-0.000457764,-2.42623,0.0547655,-0.0747579,0.0544332,0.0715807,-0.0937568,0.143792,-0.125766,-0.0847066,0.0124359,0.0442505,0.0385284,0.00514984,0.0112915,0.0200272,0.00602722,0.0149155,-9.97986,0.000801086,0.0177765,0.103607,-0.0709152,0.0593567,0.00087738,0.0401306,0.0127029
1,4,10.0097,-0.000915527,-0.000915527,-2.42592,0.0553758,-0.0744527,0.054128,0.0724962,-0.0925361,0.146844,-0.124851,-0.0813497,0.025177,0.0540924,0.0285339,0.00408173,0.0146484,0.0181198,0.0191116,0.0154495,-9.97986,0.0345612,0.0154495,0.104179,-0.090332,0.045433,-0.0104523,0.0388336,0.0133133
1,5,10.0097,0.000610352,-0.0012207,-2.42745,0.0559862,-0.075063,0.0547383,0.0728014,-0.0925361,0.14837,-0.124241,-0.0819601,0.030098,0.0914764,0.0109482,0.00164032,0.0194931,0.0160217,0.0469208,0.0141907,-9.97986,0.0656509,0.00358582,0.102692,-0.105209,0.0247574,-0.00846863,0.0426483,0.0162888
1,6,10.0097,-0.000610352,-0.000762939,-2.42623,0.0550706,-0.0744527,0.0547383,0.0718859,-0.0931465,0.145624,-0.12302,-0.0819601,0.0188065,0.0786591,-0.00839233,0.00293732,0.0227737,0.0144577,0.0627518,0.0134277,-9.97986,0.0817871,0.00350952,0.101089,-0.116196,0.00350952,-0.00812531,0.0422287,0.00938416
1,7,9.46095,0.00152588,-0.00305176,-2.42806,0.0553758,-0.0747579,0.0522969,0.0224474,-0.0983344,0.143792,-0.127598,-0.0831808,0.0114441,0.00221252,-0.0273132,0.00846863,0.0325012,0.0230408,0.0703049,0.0231171,-9.97986,0.0942993,0.00679016,0.103226,-0.120468,-0.00209808,-0.00652313,0.0461197,0.0134659
1,8,0.378313,-0.000305176,-0.00579834,-2.4244,0.0578172,-0.0729268,0.0544332,-0.00684949,-0.09925,0.145624,-0.127903,-0.0822652,-0.0112534,-0.049324,-0.0522995,0.0044632,0.0354385,0.0144196,0.058136,0.0246048,-9.97986,0.0860977,0.000305176,0.099678,-0.137749,-0.0106049,-0.0179291,0.0391006,0.00629425
1,9,-6.77806,0.00152588,-0.00427246,-2.42531,0.0559862,-0.0738423,0.0544332,-0.0172255,-0.0968086,0.148675,-0.129123,-0.0816549,-0.0233459,-0.0442505,-0.0710678,0.0134277,0.038414,0.0174332,0.0488663,0.0370789,-9.97986,0.101433,0.0115204,0.119934,-0.127831,-0.00232697,-0.0179672,0.0415421,0.0119781
2,0,-9.99003,0.000610352,-0.00320435,-2.42562,0.0565965,-0.0741475,0.0556539,0.00688342,-0.0931465,0.146234,-0.128208,-0.0819601,-0.018425,-0.0387192,-0.0649261,0.00953674,0.0373459,0.0173569,0.0350571,0.035553,-9.97986,0.100441,0.0103378,0.123177,-0.11795,-0.0218582,-0.0345993,0.0337982,0.00484467
2,1,-9.99003,0.0012207,-0.0012207,-2.42196,0.0559862,-0.0738423,0.0574849,0.04442,-0.0900947,0.145624,-0.126987,-0.0816549,-0.00408173,-0.0378418,-0.0479507,0.0112534,0.0462341,0.0244522,0.0325394,0.0478363,-9.97986,0.102844,0.0115204,0.132675,-0.111122,-0.0389481,-0.0439835,0.0367737,0.00541687
2,2,-9.99003,0.00213623,0.000152588,-2.4247,0.055681,-0.075063,0.0562642,0.0578478,-0.0903999,0.145318,-0.126072,-0.0822652,-0.00793457,-0.0242233,-0.0356674,0.0101471,0.0345993,0.0304413,0.0318146,0.0511932,-9.97986,0.0776291,0.00431061,0.141029,-0.109749,-0.0463486,-0.0463867,0.0317764,-0.00106812
2,3,-9.99003,-0.000610352,-0.000457764,-2.42684,0.0550706,-0.0738423,0.0565694,0.0642565,-0.0913154,0.145318,-0.126072,-0.0828756,-0.0012207,-0.00854492,-0.0125885,0.00988007,0.0385284,0.0204849,0.043335,0.0513458,-9.97986,0.0564957,0.00766754,0.173111,-0.113678,-0.0555801,-0.039444,0.0359344,-0.00160217
2,4,-9.99003,0.000610352,0.00106812,-2.42409,0.0547655,-0.0741475,0.0574849,0.120714,-0.0855171,0.144708,-0.121799,-0.0825704,-0.00499725,-0.000457764,0.00278473,0.0123215,0.0344849,0.0136185,0.0550842,0.0428772,-9.97986,0.0381088,0.00850677,0.216179,-0.128784,-0.0316238,-0.0315475,0.0377655,-0.00637054
2,5,-2.56053,0.000610352,0.00213623,-2.42684,0.0541551,-0.0753682,0.0547383,0.142687,-0.0879585,0.145624,-0.122715,-0.0844015,-0.0146103,0.0102997,0.0154114,0.00751495,0.0319672,0.00736237,0.0690079,0.0350189,-9.97986,0.0234985,0.00564575,0.251999,-0.141335,-0.035553,-0.0223541,0.0351334,-0.00572205
2,6,5.41585,0.000915527,0.00335693,-2.42928,0.0544603,-0.0762837,0.0547383,0.154894,-0.0903999,0.144403,-0.121494,-0.0859274,-0.021019,0.0118256,0.0212097,0.0122833,0.0363922,0.0075531,0.0731277,0.0304794,-9.97986,0.0189972,0.00694275,0.276604,-0.1437,-0.0428391,-0.020752,0.0322723,-0.0063324
2,7,10.0097,-0.000305176,0.00411987,-2.4305,0.0529344,-0.0762837,0.0522969,0.141161,-0.0925361,0.142572,-0.123935,-0.0874532,-0.014267,0.0062561,0.0234222,0.00957489,0.0343323,0.00434875,0.0795364,0.0220871,-9.97986,0.00938416,0.00682831,0.268822,-0.145912,-0.0518799,-0.0169373,0.0310135,-0.00576019
2,8,10.0097,0.000610352,0.00137329,-2.4305,0.0535448,-0.0756734,0.050771,0.0944689,-0.0971137,0.145013,-0.126377,-0.0886739,0.0245667,0.00629425,0.0299835,0.00862122,0.0374603,0.0062561,0.0814438,0.019722,-9.97986,0.00751495,0.0127792,0.253181,-0.143623,-0.0600052,-0.0269318,0.0244904,-0.00659943
2,9,10.0097,-0.000305176,0.0012207,-2.42959,0.0535448,-0.0756734,0.0510762,0.0798204,-0.0965034,0.142877,-0.125766,-0.0883688,0.027504,0.0149918,0.0350952,0.00961304,0.0342941,0.00671387,0.0806427,0.0125122,-9.97986,0.00797272,0.0137711,0.244026,-0.133095,-0.0616455,-0.0292587,0.0194168,-0.0119019
3,0,10.0097,0.000305176,0.000152588,-2.42806,0.0538499,-0.0765889,0.0504659,0.0743273,-0.0946723,0.144403,-0.127292,-0.0862325,0.0254059,0.0307465,0.0341797,0.00102997,0.0379944,0.00793457,0.0819397,0.00297546,-9.97986,0.0115204,0.012207,0.220566,-0.136528,-0.0622559,-0.0305939,0.011673,-0.00518799
3,1,10.0097,0.000305176,0.000762939,-2.42837,0.0553758,-0.0744527,0.0532125,0.0724962,-0.094062,0.145318,-0.126072,-0.0859274,0.0446701,0.0478745,0.0287247,0.00190735,0.0388336,0.00110626,0.0763321,0.00289917,-9.97986,0.0100327,0.0154877,0.211906,-0.135994,-0.0524902,-0.0248718,0.00564575,-0.00408173
3,2,10.0097,-0.000610352,0,-2.42898,0.0550706,-0.0744527,0.0532125,0.0709703,-0.0931465,0.144708,-0.126072,-0.0850118,0.0383377,0.0468826,0.0231171,-0.00305176,0.0394058,-0.001297,0.0850296,0.0166321,-9.97986,0.0196075,0.013504,0.212364,-0.139389,-0.0377655,-0.017395,-0.00617981,-0.0019455
3,3,10.0097,0,0.000457764,-2.42684,0.0553758,-0.0735371,0.0532125,0.0700548,-0.0931465,0.145929,-0.126072,-0.0844015,0.0217438,0.0375366,0.017128,-0.00450134,0.0385666,0.000572205,0.0852203,0.0235748,-9.97986,0.0214767,0.0062561,0.214691,-0.141907,-0.0244141,-0.00991821,-0.0121689,-0.00106812
3,4,10.0097,0.00152588,0.000915527,-2.42623,0.0575121,-0.0741475,0.0553487,0.0715807,-0.0928413,0.144098,-0.123325,-0.0816549,0.0192642,0.0284576,0.017662,0.00110626,0.0401306,0.00579834,0.0846481,0.0298691,-9.97986,0.0120163,0.00209808,0.21595,-0.134125,-0.0124359,-0.00366211,-0.0191498,-0.00514984
3,5,10.0097,0.00244141,0.00152588,-2.42684,0.0575121,-0.0738423,0.0550435,0.0706652,-0.090705,0.144708,-0.12302,-0.0816549,0.00709534,-0.00167847,0.0130844,0.00228882,0.0371552,-0.00144958,0.0917816,0.0315475,-9.97986,-0.00907898,-0.000839233,0.222855,-0.110359,-0.0167084,-0.000801086,-0.0260162,-0.0108337
3,6,10.0097,0.000610352,0.00228882,-2.4247,0.0562914,-0.0744527,0.0550435,0.0700548,-0.0922309,0.145929,-0.124546,-0.080129,0.00671387,-0.0132751,0.0189972,0.0111771,0.0410843,0.00667572,0.094223,0.0362396,-9.97986,-0.0237274,0.00106812,0.224342,-0.0932312,-0.0396729,-0.000267029,-0.0360107,-0.00839233
3,7,9.47438,0.000305176,-0.000610352,-2.42684,0.0562914,-0.0744527,0.0519917,0.0224474,-0.0983344,0.147149,-0.127903,-0.0828756,0.00671387,-0.00667572,0.0266266,0.0272369,0.0455856,0.00225067,0.0933456,0.0291061,-9.97986,-0.0265503,0.000915527,0.231133,-0.0838089,-0.0619888,0.00240326,-0.0483704,-3.8147e-005
3,8,0.286455,-0.000305176,-0.00411987,-2.42653,0.0572069,-0.0744527,0.0532125,-0.00623914,-0.0965034,0.147149,-0.129123,-0.0813497,0.0082016,0.00263214,0.0309372,0.0323868,0.042572,0.000495911,0.0872803,0.0302124,-9.97986,-0.0311661,0.00366211,0.234032,-0.0764465,-0.0814438,-0.00244141,-0.057869,0.00484467
3,9,-6.79545,0.000305176,-0.00442505,-2.42531,0.0569017,-0.0726216,0.0556539,-0.0187513,-0.0977241,0.146234,-0.130039,-0.0816549,0.0050354,0.0120926,0.0221252,0.0331879,0.0424576,-0.00110626,0.0770187,0.0327301,-9.97986,-0.0281525,0.00453949,0.235138,-0.0657654,-0.0941849,-0.00183105,-0.0582504,0.00457764
4,0,-9.99003,-0.000305176,-0.00305176,-2.4247,0.0547655,-0.0747579,0.0562642,0.00688342,-0.0943672,0.146539,-0.128818,-0.0804342,0.000228882,0.0208282,0.0319672,0.028038,0.0421906,-0.00564575,0.0714111,0.0413132,-9.97986,-0.023613,0.00324249,0.252342,-0.0551224,-0.105743,-0.00110626,-0.0618744,0.00743866
4,1,-9.99003,-0.000305176,-0.000305176,-2.42592,0.0562914,-0.0744527,0.0562642,0.04442,-0.090705,0.145929,-0.126987,-0.0798238,-0.00267029,0.0292969,0.0418091,0.0305557,0.041275,-0.00888824,0.0729752,0.0391769,-9.97986,-0.0142288,0.00801086,0.263863,-0.0475311,-0.130119,-0.0038147,-0.0564957,0.00873566
4,2,-9.99003,0,0.000457764,-2.42623,0.055681,-0.0735371,0.0553487,0.058153,-0.0900947,0.145929,-0.126987,-0.0822652,0.00087738,0.0385666,0.0534058,0.0324631,0.0440216,-0.01194,0.0645447,0.0371933,-9.97986,-0.00659943,0.00465393,0.276489,-0.0474167,-0.137939,-0.00240326,-0.0615311,0.00671387
4,3,-9.99003,-0.000610352,0,-2.42623,0.0544603,-0.075063,0.0550435,0.0648668,-0.0931465,0.145624,-0.127292,-0.0834859,0.0012207,0.0355148,0.0521851,0.0229645,0.0452042,-0.0123978,0.0646973,0.0322723,-9.97986,-0.00118256,-0.00526428,0.277138,-0.0469589,-0.147095,-0.00450134,-0.0656509,0.00976563
4,4,-9.99003,0.000915527,0.00274658,-2.42501,0.0559862,-0.0744527,0.0565694,0.12163,-0.0855171,0.145624,-0.121189,-0.0825704,0.00656128,0.0327682,0.0548935,0.0181198,0.0491333,-0.00789642,0.0712204,0.0313568,-9.97986,0.0130081,-0.00682831,0.272942,-0.0426865,-0.137596,-0.00518799,-0.0617599,0.0112152
4,5,-2.72624,0.000305176,0.00396729,-2.42684,0.0544603,-0.0744527,0.0538228,0.143602,-0.0876533,0.143487,-0.122104,-0.0847066,0.00427246,0.0342941,0.0611115,0.0102997,0.0455475,-0.00804901,0.0756073,0.0140762,-9.97986,0.019455,-0.0088501,0.248795,-0.0379562,-0.150452,-0.00968933,-0.0598526,0.014801
4,6,5.2361,0.000610352,0.00518799,-2.42837,0.0529344,-0.0762837,0.0532125,0.156114,-0.0897895,0.144403,-0.120273,-0.0850118,0.00171661,0.0737,0.0511932,0.0117874,0.051651,-0.00450134,0.0821686,0.00419617,-9.97986,0.0225449,-0.00564575,0.226402,-0.0248337,-0.15255,-0.00270844,-0.0561905,0.0237656
4,7,10.0097,-0.0012207,0.00671387,-2.42928,0.0529344,-0.0768941,0.0516866,0.142381,-0.0922309,0.143487,-0.122104,-0.0865377,0.0044632,0.120125,0.044136,0.0114441,0.0473404,-0.0120163,0.102501,-0.00232697,-9.97986,0.0244522,-0.00350952,0.210876,-0.0115585,-0.143547,-0.00400543,-0.0524521,0.0315094
4,8,10.0097,0,0.00152588,-2.43111,0.0529344,-0.0753682,0.0501607,0.0959947,-0.0968086,0.142877,-0.125766,-0.0892843,0.00350952,0.090332,0.0437927,0.00556946,0.0522232,-0.00556946,0.0962067,-0.00419617,-9.97986,0.0299454,-0.00839233,0.200996,-0.00236511,-0.134811,-0.0115585,-0.0494003,0.0408554
4,9,10.0097,-0.0012207,0.0012207,-2.42989,0.0541551,-0.0759786,0.0510762,0.0795153,-0.0983344,0.140436,-0.125766,-0.0877584,0.00148773,0.00968933,0.0365067,0.00598907,0.0468445,-0.00980377,0.0930405,-0.0111008,-9.97986,0.024147,-0.00125885,0.187988,0.000648499,-0.12516,-0.0162125,-0.0440979,0.0402451
5,0,10.0097,-0.0012207,0.00183105,-2.42989,0.0535448,-0.0759786,0.0513814,0.0740221,-0.0952827,0.141656,-0.127598,-0.0868429,-0.000686646,-0.0422287,0.0119019,0.00190735,0.0439072,-0.0112915,0.0863266,-0.0120544,-9.97986,0.0233078,-0.00423431,0.170212,0.014801,-0.117874,-0.0104904,-0.0367355,0.0450134
5,1,10.0097,-0.000610352,0,-2.42806,0.0550706,-0.075063,0.0516866,0.0724962,-0.0949775,0.144708,-0.125766,-0.0844015,0.00205994,-0.0570679,-0.0248337,-0.00114441,0.0387955,-0.0133133,0.0787354,-0.00549316,-9.97986,0.0201035,0.000839233,0.162201,0.02285,-0.109406,-0.00850677,-0.0325775,0.0532913
5,2,10.0097,0.000610352,0.00152588,-2.42745,0.0547655,-0.0759786,0.0522969,0.0712755,-0.0934516,0.144708,-0.126377,-0.0847066,0.00282288,-0.0516129,-0.0443268,-0.00598907,0.0376511,-0.00965118,0.0794983,0.00190735,-9.97986,0.0218582,-0.00118256,0.158501,0.0366211,-0.102234,0.00156403,-0.0252914,0.0590134
5,3,10.0097,0.000305176,0.000915527,-2.42714,0.0553758,-0.075063,0.0538228,0.0728014,-0.0916206,0.145013,-0.126377,-0.0840963,7.62939e-005,-0.0510788,-0.0390625,-0.0144196,0.0395203,-0.00782013,0.0675201,0.00640869,-9.97986,0.0148773,0.00595093,0.153236,0.0526047,-0.0954437,0.00850677,-0.0157928,0.0598907
5,4,10.0097,0.0012207,0.00198364,-2.42501,0.0562914,-0.073232,0.0538228,0.0712755,-0.0910102,0.146539,-0.124546,-0.0810445,-0.00328064,-0.0456238,-0.014534,-0.0138474,0.0408173,-0.0110626,0.0703049,0.00869751,-9.97986,0.0125122,0.00400543,0.147285,0.0709534,-0.0906372,0.0172424,-0.00801086,0.0630951
5,5,10.0097,-0.000305176,0.00228882,-2.42562,0.0562914,-0.073232,0.0547383,0.0715807,-0.0910102,0.152337,-0.123935,-0.080129,-0.00259399,-0.0257874,0.00495911,-0.0177002,0.0458908,-0.0129318,0.0703049,0.0103378,-9.97986,0.0146866,-0.00453949,0.141754,0.0917435,-0.0870895,0.0102615,-0.0037384,0.0665283
5,6,10.0097,0.000610352,0.00137329,-2.42531,0.0559862,-0.0735371,0.0544332,0.0734117,-0.0913154,0.149286,-0.124546,-0.080129,-0.00038147,0.000801086,0.0164795,-0.0231934,0.0481033,-0.0154114,0.0690079,0.0126266,-9.97986,0.00900269,-0.00740051,0.134506,0.113335,-0.0793076,-0.00530243,0.00396729,0.0718307
5,7,9.44875,0.0012207,0.000305176,-2.42776,0.0553758,-0.0735371,0.0526021,0.0221422,-0.0971137,0.146539,-0.128208,-0.0831808,0.00244141,0.0149536,0.0243759,-0.00888824,0.0515747,-0.0118637,0.0630951,0.0101852,-9.97986,0.0114822,-0.0107574,0.121689,0.12928,-0.0751495,-0.0105286,0.00919342,0.0715256
5,8,0.34566,0.000610352,-0.00320435,-2.42592,0.0562914,-0.0729268,0.0544332,-0.00593396,-0.095893,0.150812,-0.127903,-0.0816549,0.00110626,0.0127411,0.0311279,-0.0143051,0.0509262,-0.0111008,0.0566483,0.00164032,-9.97986,0.0115967,-0.00976563,0.118599,0.144691,-0.0704193,-0.0105286,0.0137329,0.0775909
5,9,-6.74113,-0.000305176,-0.00274658,-2.42531,0.0569017,-0.075063,0.0535176,-0.0160048,-0.0974189,0.147455,-0.130344,-0.0810445,0.00511169,0.0157928,0.0355911,-0.0253677,0.0564575,-0.00835419,0.0535583,0.0030899,-9.97986,0.00640869,-0.000648499,0.115547,0.161324,-0.0614929,-0.00667572,0.0173187,0.0847626
6,0,-9.99003,0.000305176,-0.00213623,-2.42409,0.0562914,-0.0735371,0.0547383,0.0071886,-0.0931465,0.147455,-0.128818,-0.0810445,0.00343323,0.0191116,0.0404358,-0.0242615,0.0578308,-0.0150299,0.0454712,0.0149155,-9.97986,-0.00312805,-0.00968933,0.099411,0.171204,-0.0627899,-0.001297,0.0248337,0.0860596
6,1,-9.99003,0.0012207,-0.000305176,-2.4247,0.0562914,-0.0744527,0.0562642,0.0447252,-0.0916206,0.150812,-0.126987,-0.080129,0.00343323,0.0184631,0.0402451,-0.0104523,0.0489807,-0.0159454,0.0428391,0.0158691,-9.97986,-0.00801086,-0.00686646,0.0798416,0.188293,-0.0775909,0.000915527,0.0302887,0.0926971
6,2,-9.99003,-0.000305176,0.00167847,-2.42348,0.0559862,-0.0744527,0.0550435,0.0584581,-0.0919257,0.144708,-0.126072,-0.0810445,0.0037384,0.025177,0.0348282,0.000991821,0.0479507,-0.00236511,0.0414276,0.0269699,-9.97986,-0.00652313,0.000915527,0.0663376,0.20607,-0.0819397,0.00480652,0.0363159,0.0957489
6,3,-9.99003,0.0012207,0.00213623,-2.42684,0.0550706,-0.0735371,0.0532125,0.0645616,-0.0925361,0.145013,-0.125766,-0.0825704,0.00358582,0.0263977,0.0328445,-0.00526428,0.0436783,-0.000534058,0.0435257,0.0240326,-9.97986,-0.00804901,0.00736237,0.0431824,0.225372,-0.0878906,-0.000534058,0.0421524,0.0979996
6,4,-9.99003,0.000305176,0.00335693,-2.42531,0.055681,-0.0735371,0.0553487,0.124071,-0.0861274,0.146539,-0.121799,-0.0819601,0.00370026,0.0331497,0.0315475,-0.00919342,0.0392914,0.00411987,0.037117,0.0238419,-9.97986,-0.0119781,0.00411987,0.0207901,0.230026,-0.0785065,-0.00865936,0.0453568,0.100212
6,5,-2.56816,0.000915527,0.0038147,-2.42714,0.0541551,-0.0759786,0.0532125,0.142687,-0.0876533,0.144708,-0.121799,-0.0850118,0.00175476,0.0372696,0.0320816,0.0111008,0.0289154,0.0132751,0.0320816,0.0258255,-9.97986,-0.00915527,0.00312805,-0.00217438,0.231094,-0.0890732,-0.00469208,0.0528336,0.10498
6,6,5.36336,0.000305176,0.00457764,-2.42806,0.0538499,-0.0741475,0.0535176,0.154588,-0.088874,0.143792,-0.120578,-0.0859274,0.00450134,0.0443268,0.0355911,0.0452805,0.0282669,0.0115204,0.0320053,0.0269699,-9.97986,-0.00530243,-0.00278473,-0.0186157,0.227547,-0.0899124,-0.000648499,0.0595474,0.108833
6,7,10.0097,0.000610352,0.00595093,-2.42928,0.0532396,-0.0775044,0.0519917,0.141771,-0.0934516,0.142877,-0.123325,-0.0865377,-0.000305176,0.0482178,0.0363159,0.0748444,0.0339127,0.0159836,0.0285721,0.0207901,-9.97986,-0.00431061,-0.0120163,-0.038681,0.231514,-0.0994492,-0.00179291,0.071373,0.109825
6,8,10.0097,0.0012207,0.00259399,-2.4302,0.0532396,-0.0762837,0.0501607,0.0953844,-0.0971137,0.143792,-0.125156,-0.0883688,0.00465393,0.0639343,0.0321579,0.0800323,0.0360489,0.0173187,0.0255203,0.0148773,-9.97986,0.0018692,-0.0135803,-0.0547028,0.25116,-0.0944138,0.00236511,0.0737762,0.114174
6,9,10.0097,0,0.000915527,-2.42989,0.0535448,-0.0759786,0.0492452,0.0804308,-0.0961982,0.143182,-0.125461,-0.0877584,0.00137329,0.0760269,0.0284958,0.0760269,0.0315475,0.0253677,0.0246048,0.0180054,-9.97986,0.000343323,-0.00629425,-0.0618362,0.260735,-0.085144,0.00114441,0.0798798,0.114098
7,0,10.0097,-0.0012207,-0.000915527,-2.42898,0.0544603,-0.0762837,0.0526021,0.0752428,-0.0955879,0.142877,-0.127598,-0.0871481,0.00419617,0.0816727,0.0252533,0.0867081,0.0262833,0.0322342,0.0175095,0.0218582,-9.97986,0.000991821,-0.00087738,-0.0775528,0.240555,-0.0833893,-0.000495911,0.0840759,0.11055
7,1,10.0097,0.000915527,-0.00152588,-2.42776,0.0538499,-0.0762837,0.0522969,0.0737169,-0.094062,0.145013,-0.125766,-0.0850118,0.00583649,0.0672531,0.0178528,0.0866699,0.0265121,0.0360107,0.0198746,0.0248718,-9.97986,0.0094223,0.000762939,-0.0926971,0.225754,-0.0830841,0.00087738,0.0920868,0.109024
7,2,10.0097,0.000915527,-0.000457764,-2.42714,0.0547655,-0.0738423,0.0532125,0.0715807,-0.0943672,0.144098,-0.125461,-0.0837911,0.00160217,0.0339508,0.0126266,0.060463,0.0165176,0.0356293,0.0204468,0.0193787,-9.97986,0.00789642,0.00198364,-0.103378,0.232506,-0.0874329,-0.000610352,0.0942993,0.103645
7,3,10.0097,0.00183105,0.0012207,-2.42745,0.0541551,-0.075063,0.0529073,0.0697496,-0.094062,0.144708,-0.125461,-0.0837911,0.00148773,-0.00152588,0.0194168,0.0577164,0.0117493,0.0471878,0.0173569,0.0111771,-9.97986,0.0135803,0.0043869,-0.110435,0.239906,-0.0942612,-0.00137329,0.101471,0.105133
7,4,10.0097,0.000915527,0.000152588,-2.42531,0.0559862,-0.0735371,0.0544332,0.0715807,-0.0934516,0.145318,-0.124851,-0.0819601,0.00213623,-0.00556946,0.0245667,0.0453949,0.00553131,0.0608826,0.0154877,0.00591278,-9.97986,0.0103378,0.00328064,-0.118217,0.240517,-0.102615,-0.00175476,0.107498,0.103912
7,5,10.0097,0.000610352,0,-2.42501,0.0565965,-0.0741475,0.0535176,0.0724962,-0.0900947,0.146539,-0.124241,-0.0807394,0.0056076,0.000534058,0.0259781,0.0174713,0.00240326,0.064621,0.0149918,-0.00522614,-9.97986,0.00724792,-0.000991821,-0.137596,0.245628,-0.103836,-0.00713348,0.106773,0.100746
7,6,10.0097,0.00274658,0.000305176,-2.42501,0.0569017,-0.0738423,0.0547383,0.0706652,-0.0919257,0.146234,-0.12363,-0.0810445,0.00656128,-0.00785828,0.02491,0.0128937,-0.00701904,0.0718307,0.00732422,-0.0101471,-9.97986,0.00930786,-0.00328064,-0.152664,0.247231,-0.103455,-0.00919342,0.111198,0.100174
7,7,9.51711,0.0012207,-0.00244141,-2.42684,0.0572069,-0.075063,0.0522969,0.021837,-0.0977241,0.145929,-0.126987,-0.0822652,0.00320435,-0.0198364,0.0291443,0.0186539,-0.0150681,0.0704956,0.0166702,-0.00106812,-9.97986,0.00873566,-0.000610352,-0.165558,0.236931,-0.0998688,-0.0107956,0.120544,0.0928497
7,8,0.388079,0.000610352,-0.00534058,-2.4247,0.0569017,-0.073232,0.0532125,-0.00654431,-0.0961982,0.146234,-0.128818,-0.0822652,0.00595093,-0.0120544,0.0385284,0.0250244,-0.0157166,0.0739288,0.0257492,-0.000495911,-9.97986,0.00774384,-0.00415802,-0.172462,0.226822,-0.09758,-0.0138474,0.114403,0.0904465
7,9,-6.77104,-0.000915527,-0.00564575,-2.42562,0.0559862,-0.0744527,0.0550435,-0.0178358,-0.0974189,0.148675,-0.130039,-0.0819601,0.00537872,0.0222015,0.0337601,0.0276947,-0.0120544,0.079155,0.025177,-0.00137329,-9.97986,0.00663757,-0.00854492,-0.183678,0.225372,-0.08255,-0.00579834,0.110283,0.0844955
8,0,-9.99003,-0.00152588,-0.00335693,-2.42531,0.0572069,-0.0744527,0.0562642,0.00749377,-0.0931465,0.146234,-0.128818,-0.080129,0.00160217,0.0489807,0.0214386,0.0104141,-0.0151443,0.0777054,0.0187683,0.00652313,-9.97986,0.0107193,-0.00450134,-0.184326,0.224037,-0.0745392,-0.0106812,0.105896,0.0760651
8,1,-9.99003,-0.000610352,-0.00183105,-2.42531,0.0562914,-0.0710957,0.055959,0.0431993,-0.0900947,0.145624,-0.126682,-0.0819601,0.00610352,0.031395,0.0119019,-0.00118256,-0.0163651,0.0789642,0.00659943,0.00900269,-9.97986,0.0110245,-0.0056839,-0.191002,0.224342,-0.0853348,-0.00804901,0.110054,0.0733185
8,2,-9.99003,0,-0.00106812,-2.42501,0.055681,-0.0756734,0.055959,0.0584581,-0.0919257,0.145013,-0.125766,-0.0828756,0.00442505,0.0125885,0.0144196,-0.0145721,-0.0169754,0.0823975,0.00362396,0.0140381,-9.97986,0.011673,-0.00801086,-0.194588,0.213699,-0.0670624,-0.0082016,0.120583,0.062561
8,3,-9.99003,0.000610352,-0.000152588,-2.42623,0.0559862,-0.0756734,0.0553487,0.0648668,-0.0913154,0.145013,-0.126072,-0.0834859,0.00865936,0.0313568,0.0180817,-0.0258255,-0.0218964,0.0826645,-0.00492096,0.0224686,-9.97986,0.0120544,-0.0102997,-0.20092,0.210381,-0.0557327,-0.00453949,0.118027,0.0619125
8,4,-9.99003,0.000610352,0.00167847,-2.42653,0.0541551,-0.0744527,0.0571797,0.12285,-0.0858222,0.145929,-0.121799,-0.0813497,0.0104141,0.0553513,0.0233841,-0.040741,-0.0176239,0.0790024,-0.00102997,0.0373459,-9.97986,0.013504,-0.00480652,-0.197983,0.208511,-0.0167084,-0.00591278,0.12352,0.0557327
8,5,-2.36278,0.00152588,0.00335693,-2.42653,0.0547655,-0.0759786,0.0550435,0.143907,-0.0858222,0.144403,-0.122104,-0.0850118,0.00751495,0.0455093,0.0313568,-0.045433,-0.016861,0.073204,0.0037384,0.0402832,-9.97986,0.0148392,-0.00835419,-0.197716,0.201073,-0.00720978,-0.00640869,0.122871,0.044632
8,6,5.64656,0.00152588,0.00427246,-2.42745,0.0535448,-0.0756734,0.0544332,0.155809,-0.0879585,0.144098,-0.120884,-0.0850118,0.00770569,0.0325394,0.0341034,-0.0488663,-0.0242233,0.0773621,0.0025177,0.0214386,-9.97986,0.0152588,-0.00999451,-0.196953,0.20134,-0.00236511,-0.0157547,0.123749,0.0354004
8,7,10.0097,0.0012207,0.00396729,-2.4302,0.0541551,-0.0768941,0.0519917,0.138109,-0.094062,0.144098,-0.123325,-0.0874532,0.00995636,0.0349808,0.0379181,-0.0405121,-0.0255203,0.079689,0.00324249,0.0110245,-9.97986,0.0149536,-0.0179291,-0.191154,0.188713,0.00431061,-0.0177002,0.123749,0.0303268
8,8,10.0097,0.000305176,0.00152588,-2.43111,0.0529344,-0.0771993,0.0504659,0.0944689,-0.0995551,0.142267,-0.125156,-0.0883688,0.0087738,0.030632,0.0408936,-0.018692,-0.0265884,0.0757217,0.000495911,0.0151443,-9.97986,0.00846863,-0.0212097,-0.175934,0.190735,0.0146103,-0.0229263,0.113373,0.0261688
8,9,10.0097,0.00152588,0.000610352,-2.42928,0.0541551,-0.0762837,0.0522969,0.0792101,-0.0968086,0.141961,-0.126682,-0.0877584,0.01194,0.0259018,0.0330734,-0.00228882,-0.0273514,0.0704575,-0.00667572,0.0163269,-9.97986,0.0069046,-0.0141525,-0.168266,0.199814,0.0228119,-0.0159073,0.106506,0.0218582
9,0,10.0097,-0.000305176,-0.00137329,-2.42898,0.0547655,-0.0747579,0.0522969,0.0740221,-0.0946723,0.143182,-0.126377,-0.0871481,0.0109482,0.000839233,0.0182343,0.0188828,-0.0274277,0.0674438,-0.0112534,0.0169754,-9.97986,0.00431061,-0.0125885,-0.166512,0.183334,0.0318909,-0.010643,0.103874,0.0150299
9,1,10.0097,0,-0.00106812,-2.42776,0.0559862,-0.0756734,0.0532125,0.0718859,-0.0949775,0.144098,-0.125461,-0.0859274,0.0143814,-0.0215149,0.0163651,0.00495911,-0.0208664,0.0683212,-0.0104523,0.020256,-9.97986,0.0087738,0.00232697,-0.165863,0.183296,0.0404358,-0.00301361,0.0990677,0.0117874
9,2,10.0097,0.00152588,0.000152588,-2.42714,0.0559862,-0.0744527,0.0538228,0.0712755,-0.0943672,0.144403,-0.126377,-0.0834859,0.00247955,-0.0172806,0.0370789,-0.0328445,-0.0218964,0.0652695,-0.0102997,0.0276184,-9.97986,0.00747681,-0.0031662,-0.156555,0.178108,0.0471115,0.0037384,0.0941849,0.00213623
9,3,10.0097,0.000305176,0.000152588,-2.42684,0.055681,-0.0747579,0.0544332,0.0694445,-0.0931465,0.144708,-0.125461,-0.0828756,0.00915527,-0.00495911,0.055809,-0.0588226,-0.0240326,0.064621,-0.00572205,0.032196,-9.97986,0.00965118,0.0100327,-0.153427,0.176392,0.0566101,0.0106812,0.08564,0.000801086
9,4,10.0097,-0.00152588,-0.000610352,-2.4247,0.055681,-0.0744527,0.0556539,0.0718859,-0.0925361,0.146844,-0.124241,-0.0822652,0.0140381,0.00236511,0.0683594,-0.0750351,-0.0205612,0.0654602,0.00282288,0.030899,-9.97986,0.00751495,0.0184631,-0.147133,0.167885,0.0601578,0.0122833,0.0830078,-0.00167847
9,5,10.0097,-0.0012207,-0.0012207,-2.4247,0.0562914,-0.0741475,0.0544332,0.072191,-0.0916206,0.147149,-0.124851,-0.0813497,0.0128937,0.00499725,0.0669479,-0.066452,-0.0163651,0.0611115,0.00553131,0.0222397,-9.97986,0.00534058,0.0075531,-0.142555,0.148354,0.0655365,0.0103378,0.0738907,-0.00968933
9,6,10.0097,-0.00152588,-0.000915527,-2.42531,0.0593431,-0.0729268,0.054128,0.0715807,-0.0922309,0.146539,-0.124546,-0.0825704,0.0179291,0.0266266,0.0543976,0.0214005,-0.0214767,0.0635147,-0.00255585,0.0162888,-9.97986,0.00911713,-0.00354767,-0.13092,0.131493,0.0692749,0.0082016,0.0664139,-0.0172806
9,7,9.45882,-0.000915527,-0.00396729,-2.42623,0.0565965,-0.0747579,0.0529073,0.0239733,-0.0971137,0.146234,-0.128208,-0.0837911,0.0130844,0.0614548,0.045433,0.0971603,-0.0176239,0.0595093,-0.012207,0.0127411,-9.97986,0.00892639,-0.00774384,-0.129013,0.113449,0.0731659,0.0104141,0.0651932,-0.0222397
9,8,0.334063,0.00183105,-0.0062561,-2.42623,0.0569017,-0.0738423,0.0538228,-0.00715467,-0.095893,0.146234,-0.128513,-0.0822652,0.0112915,0.0811386,0.0309753,0.094986,-0.0225067,0.0575256,-0.012207,0.0150299,-9.97986,0.0114059,0.00209808,-0.123787,0.0908279,0.0780869,0.00183105,0.0509262,-0.0230789
9,9,-6.82872,-0.000610352,-0.00717163,-2.42653,0.0559862,-0.073232,0.054128,-0.0172255,-0.0974189,0.145624,-0.128818,-0.0822652,0.0117874,0.0580215,0.0154495,0.0502777,-0.0260544,0.0494385,-0.0125885,0.0135422,-9.97986,0.0174332,-0.00732422,-0.119743,0.0694656,0.0789261,-0.000648499,0.0397491,-0.0301361
10,0,-9.99003,-0.000305176,-0.00427246,-2.4244,0.0559862,-0.0738423,0.0550435,0.00688342,-0.0931465,0.143487,-0.127903,-0.0810445,0.00961304,-0.00537872,-0.00118256,0.0269318,-0.0211334,0.0463104,-0.00621796,0.0163269,-9.97986,0.0228119,-0.0173187,-0.123291,0.0624084,0.075264,0.000190735,0.0339127,-0.0328827
10,1,-9.99003,0,-0.00198364,-2.42531,0.0562914,-0.0744527,0.0562642,0.0441149,-0.0903999,0.145318,-0.125766,-0.0807394,0.00530243,-0.0561523,-0.0231171,0.0223541,-0.0185394,0.0374222,-0.0187302,0.0131607,-9.97986,0.0236893,-0.0124741,-0.120163,0.0688171,0.054245,0.000953674,0.0221252,-0.038681
10,2,-9.99003,-0.000305176,-0.000457764,-2.42623,0.0553758,-0.0753682,0.0550435,0.0587633,-0.0922309,0.144098,-0.126072,-0.0819601,0.00465393,-0.0605011,-0.0393677,0.0104141,-0.0111771,0.0401688,-0.0244904,0.0160599,-9.97986,0.0316238,-0.00549316,-0.115318,0.0746918,0.0593567,0.00400543,0.0106812,-0.0382614
10,3,-9.99003,-0.000305176,-0.000305176,-2.42623,0.0547655,-0.075063,0.0550435,0.0648668,-0.0919257,0.140436,-0.126072,-0.0831808,0.00419617,-0.0396729,-0.0321198,-0.00228882,-0.0136185,0.0352097,-0.033226,0.0133896,-9.97986,0.0319672,-0.00667572,-0.117111,0.071907,0.0561523,0.0012207,0.00370026,-0.044899
10,4,-9.99003,0.000915527,0.000610352,-2.42562,0.0538499,-0.075063,0.0562642,0.123155,-0.0852119,0.147455,-0.121494,-0.0822652,0.00553131,-0.0153351,-0.0106812,0.0244904,-0.0153732,0.0325012,-0.0359344,0.0044632,-9.97986,0.032959,0.00240326,-0.12207,0.0539017,0.0828552,0.0018692,-0.00526428,-0.0466919
10,5,-2.59074,0.000610352,0.00244141,-2.42776,0.0541551,-0.0756734,0.0550435,0.143297,-0.0879585,0.145318,-0.121189,-0.0837911,0.00957489,0.00686646,0.00141144,0.0447464,-0.0105667,0.0292969,-0.0392914,0.00301361,-9.97986,0.0264359,0.00473022,-0.119896,0.0450516,0.0836563,0.0044632,-0.0114059,-0.0525665
10,6,5.39449,0.00152588,0.00411987,-2.42837,0.0532396,-0.0756734,0.0538228,0.154894,-0.0894843,0.143487,-0.121494,-0.0859274,0.00556946,0.017128,0.00347137,0.0477982,-0.0100327,0.0279999,-0.0413895,-0.000534058,-9.97986,0.0198364,0.00244141,-0.111427,0.0376511,0.0919342,0.0037384,-0.0237274,-0.0564575
10,7,10.0097,-0.00152588,0.00396729,-2.42898,0.0535448,-0.0768941,0.0519917,0.142076,-0.0922309,0.144403,-0.122715,-0.0865377,0.0107193,0.0219727,0.00247955,0.0656891,-0.00770569,0.0280762,-0.0362778,-0.00400543,-9.97986,0.0262451,0.00225067,-0.109177,0.0301743,0.0917053,0.00591278,-0.0325394,-0.0611496
10,8,10.0097,-0.000610352,0.0012207,-2.43142,0.0538499,-0.0771993,0.0510762,0.0956896,-0.0971137,0.143487,-0.125766,-0.0886739,0.00717163,0.029335,0.000915527,0.060463,-0.00164032,0.0284576,-0.0354004,-0.00881195,-9.97986,0.0210953,0.0128937,-0.103607,0.0217438,0.0916672,0.0102615,-0.0388336,-0.0595856
10,9,10.0097,0,-0.000457764,-2.42867,0.0550706,-0.0759786,0.0513814,0.0801256,-0.0961982,0.142572,-0.127292,-0.0883688,0.00518799,0.0230408,0.00110626,0.0498962,0.00442505,0.026207,-0.0442886,-0.0056076,-9.97986,0.0213242,0.0183105,-0.0986862,0.0167084,0.0904083,0.01297,-0.0439453,-0.0632858
11,0,10.0097,0.000305176,-0.000152588,-2.42928,0.0547655,-0.0762837,0.0522969,0.0740221,-0.0952827,0.143792,-0.127292,-0.0862325,0.00160217,0.00617981,0.000228882,0.0401688,0.00656128,0.0204086,-0.039978,0.00087738,-9.97986,0.0177002,0.0119781,-0.0968933,0.0197601,0.0881195,0.0113297,-0.0490952,-0.0689697
11,1,10.0097,0.00305176,-0.000457764,-2.42745,0.0544603,-0.075063,0.0522969,0.072191,-0.0931465,0.145013,-0.125766,-0.085317,0.00343323,0.00297546,0.00228882,0.0276947,0.0138474,0.0231171,-0.0417709,0.00465393,-9.97986,0.018692,0.00476837,-0.0918961,0.0101471,0.0896072,0.00801086,-0.0557709,-0.0723648
11,2,10.0097,0.000915527,-0.00137329,-2.42653,0.0541551,-0.075063,0.0522969,0.0697496,-0.0937568,0.145624,-0.125766,-0.085317,0.0019455,0.0178528,0.00778198,0.029335,0.0117493,0.0158691,-0.039711,0.00679016,-9.97986,0.0218201,0.00370026,-0.0953293,-0.0100327,0.0914383,0.00736237,-0.0601196,-0.0679016
11,3,10.0097,0.0012207,-0.00106812,-2.42592,0.0565965,-0.0747579,0.0522969,0.072191,-0.0937568,0.145929,-0.125766,-0.0844015,0.00667572,0.0312042,0.00202179,0.0113678,0.0196838,0.01194,-0.0330734,0.0196457,-9.97986,0.0173187,0.00549316,-0.0886536,-0.0274658,0.0936508,0.00354767,-0.0643539,-0.0700378
11,4,10.0097,0.000305176,-0.00228882,-2.42531,0.0562914,-0.0747579,0.0544332,0.0709703,-0.0919257,0.147149,-0.124546,-0.0825704,0.00995636,0.0362778,0.00522614,-0.0307465,0.018692,0.014534,-0.0358582,0.0370789,-9.97986,0.0160599,0.00980377,-0.0880051,-0.0458527,0.0979614,-0.00190735,-0.0680923,-0.0690079
11,5,10.0097,0.00152588,-0.00152588,-2.42623,0.055681,-0.0726216,0.0547383,0.0718859,-0.0910102,0.146234,-0.124546,-0.0822652,0.00644684,0.0218201,-0.00209808,-0.0531769,0.0200653,0.0113297,-0.0318146,0.0524139,-9.97986,0.0135803,0.0082016,-0.083847,-0.0534058,0.097847,-0.00606537,-0.0736618,-0.0701141
11,6,10.0097,-0.000915527,-0.000915527,-2.42562,0.0569017,-0.075063,0.054128,0.0715807,-0.0916206,0.146234,-0.124546,-0.0816549,0.0119781,0.016861,-0.00923157,-0.00862122,0.0279999,0.0129318,-0.032959,0.0634003,-9.97986,0.0138855,0.00896454,-0.0951385,-0.0616837,0.096817,-0.00507355,-0.0738907,-0.0685501
11,7,9.381,-0.0012207,-0.00335693,-2.42684,0.0565965,-0.0747579,0.0522969,0.021837,-0.0974189,0.145013,-0.127903,-0.0834859,0.00862122,0.013504,-0.00465393,0.0569534,0.0262451,0.00350952,-0.0302124,0.0546265,-9.97986,0.00553131,0.00789642,-0.093956,-0.0648499,0.100937,0.000267029,-0.0748062,-0.0707245
11,8,0.201617,0.000305176,-0.0038147,-2.42592,0.0572069,-0.073232,0.0519917,-0.00654431,-0.0961982,0.146539,-0.130039,-0.0819601,0.0126648,0.0212479,0.00320435,0.0384521,0.0285339,-0.00171661,-0.0312424,0.0403595,-9.97986,0.00499725,0.00873566,-0.0962067,-0.0570679,0.102921,0.00610352,-0.0756454,-0.0756073
11,9,-7.00725,-0.000915527,-0.00411987,-2.42562,0.055681,-0.0735371,0.0535176,-0.0184462,-0.0961982,0.147455,-0.130039,-0.0816549,0.00770569,0.0243378,0.0141525,-0.0056076,0.0287628,-0.000457764,-0.027504,0.0303268,-9.97986,0.00671387,0.00274658,-0.105972,-0.0507736,0.103416,0.00804901,-0.0757599,-0.0759506
12,0,-9.99003,-0.0012207,-0.00305176,-2.4247,0.0562914,-0.0735371,0.0550435,0.00779895,-0.0928413,0.145624,-0.128818,-0.0816549,0.00850677,0.0194168,0.0141144,-0.0152206,0.0279999,-0.000190735,-0.0338745,0.0127792,-9.97986,0.00114441,0.000915527,-0.103149,-0.0521469,0.0988007,0.0177765,-0.0797653,-0.0803375
12,1,-9.99003,0.00152588,-0.0012207,-2.4244,0.055681,-0.0744527,0.055959,0.04442,-0.090705,0.147149,-0.126072,-0.0804342,0.00923157,0.00499725,0.0284195,-0.018959,0.0326157,-0.00667572,-0.0304031,0.0149918,-9.97986,0.000686646,0.00137329,-0.0984573,-0.0501633,0.0861359,0.015564,-0.0771332,-0.0799942
12,2,-9.99003,0.0012207,0.000152588,-2.42562,0.0562914,-0.0756734,0.0556539,0.0593737,-0.0916206,0.145929,-0.126377,-0.0816549,0.00827789,0.0157166,0.0321579,-0.0385666,0.0328064,-0.0117111,-0.0285721,0.0271225,-9.97986,0.0030899,-0.000152588,-0.100594,-0.0406265,0.094223,0.0123215,-0.0813293,-0.0812149
12,3,-9.99003,0.00152588,0.000915527,-2.42592,0.0547655,-0.075063,0.0538228,0.0639513,-0.0919257,0.145318,-0.125766,-0.0834859,0.0101089,0.0331879,0.0367355,-0.0625992,0.0362778,-0.0100708,-0.0287628,0.0466919,-9.97986,-0.000762939,0.00156403,-0.0914764,-0.0347137,0.099411,0.00968933,-0.0789642,-0.0799561
12,4,-9.99003,0.000915527,0.00183105,-2.42531,0.0550706,-0.0741475,0.0568746,0.121935,-0.0846015,0.145013,-0.122715,-0.0816549,0.0145721,0.0275803,0.0352478,-0.0954819,0.0354767,-0.00682831,-0.0242996,0.0610733,-9.97986,0.000572205,-0.000839233,-0.086937,-0.0366974,0.127335,0.000534058,-0.0797272,-0.0813293
12,5,-2.5706,-0.000915527,0.00305176,-2.42745,0.0541551,-0.075063,0.0553487,0.144213,-0.0882636,0.144708,-0.121494,-0.085317,0.0185013,0.021019,0.0386429,-0.138245,0.0347137,-0.00652313,-0.0223923,0.0606155,-9.97986,0.000152588,-0.00114441,-0.0785446,-0.0396729,0.130844,-0.00587463,-0.076828,-0.0851822
12,6,5.4189,0,0.00457764,-2.42776,0.0532396,-0.0762837,0.054128,0.155504,-0.0897895,0.145013,-0.121799,-0.0850118,0.0180435,0.0350571,0.0434494,-0.122986,0.0350571,-0.0132751,-0.0222397,0.0288391,-9.97986,-0.00343323,-0.00038147,-0.0675201,-0.0361252,0.133514,-0.00720978,-0.0757217,-0.0845718
12,7,10.0097,0.00183105,0.00488281,-2.42898,0.0535448,-0.0765889,0.0516866,0.13994,-0.0910102,0.142267,-0.122715,-0.0868429,0.0212097,0.0663376,0.0556564,0.0330734,0.0381088,-0.0106812,-0.0158691,-0.00461578,-9.97986,-0.00240326,0.00137329,-0.0556183,-0.0180817,0.139656,-0.000610352,-0.0725174,-0.0801468
12,8,10.0097,-0.000610352,0.00183105,-2.43081,0.0535448,-0.0762837,0.0504659,0.0953844,-0.0974189,0.144098,-0.126682,-0.0886739,0.0227737,0.0749969,0.0552368,0.181427,0.0302887,-0.0156403,-0.0167465,-0.0131226,-9.97986,-0.00926971,-0.00411987,-0.04879,-0.0164032,0.147705,0.00247955,-0.0703049,-0.0846481
12,9,10.0097,0.00152588,0.00167847,-2.42989,0.0526292,-0.0762837,0.0510762,0.0789049,-0.095893,0.143792,-0.127598,-0.0886739,0.0193024,0.0828171,0.05867,0.185013,0.037117,-0.0125122,-0.00179291,-0.00240326,-9.97986,0.0025177,-0.000572205,-0.0337219,-0.00545502,0.151253,0.00282288,-0.0665283,-0.0807953
13,0,10.0097,-0.000305176,0.000762939,-2.42898,0.0544603,-0.0765889,0.0529073,0.0752428,-0.0952827,0.142267,-0.126682,-0.0874532,0.0201797,0.0729752,0.0518417,0.113564,0.0375748,-0.0182343,-0.00274658,0.0101471,-9.97986,0.0038147,-0.00225067,-0.0235367,-0.00148773,0.146561,-0.00408173,-0.0638199,-0.082016
13,1,10.0097,0.00152588,0.000152588,-2.42623,0.0553758,-0.0753682,0.054128,0.0724962,-0.0952827,0.142877,-0.127598,-0.0862325,0.0117874,0.0498581,0.039978,0.0988007,0.0361633,-0.0140381,-0.00610352,0.0216293,-9.97986,0.0111389,-0.00457764,-0.0126266,0.00389099,0.150299,0.000228882,-0.0598145,-0.0810242
13,2,10.0097,0.000610352,0.00167847,-2.42684,0.0547655,-0.0775044,0.0535176,0.0715807,-0.0934516,0.145318,-0.126072,-0.0837911,0.00907898,0.0334549,0.0538635,0.106544,0.0382233,-0.0143051,-0.00682831,0.0161743,-9.97986,0.020256,-0.00923157,-0.000457764,0.0275421,0.153008,-0.000915527,-0.0540924,-0.0817108
13,3,10.0097,-0.0012207,0.00183105,-2.42776,0.0550706,-0.0759786,0.0538228,0.0715807,-0.094062,0.145013,-0.126072,-0.0837911,0.00484467,0.0195313,0.0572968,0.100861,0.0334549,-0.0197601,-0.0178909,0.00457764,-9.97986,0.0207901,-0.0031662,0.0151443,0.0385666,0.153999,-0.00183105,-0.0522232,-0.0804138
13,4,10.0097,0,0.00167847,-2.42592,0.0565965,-0.0741475,0.0550435,0.0715807,-0.0919257,0.147455,-0.124546,-0.0813497,0.00968933,0.0147629,0.0514603,0.071373,0.0295639,-0.0246429,-0.0263977,-0.0114059,-9.97986,0.0152206,-0.00331879,0.0242996,0.0460434,0.155678,-0.00434875,-0.045166,-0.0785446
13,5,10.0097,0.000610352,0.000915527,-2.42531,0.0569017,-0.0741475,0.0544332,0.0718859,-0.0913154,0.145624,-0.124851,-0.0810445,0.0125885,0.0153351,0.0403595,0.0397491,0.03582,-0.0204468,-0.0308228,-0.0187683,-9.97986,0.0216293,-0.00240326,0.0340271,0.0502777,0.150299,-0.00587463,-0.0408173,-0.074501
13,6,10.0097,0.0012207,0.000915527,-2.42501,0.0562914,-0.0741475,0.0556539,0.0724962,-0.0913154,0.145929,-0.125766,-0.0810445,0.0164795,0.0193787,0.0309753,0.0220108,0.0335693,-0.0266647,-0.00343323,-0.0133514,-9.97986,0.0224304,-0.00255585,0.0411224,0.0623703,0.153503,-0.0043869,-0.0338745,-0.0757599
13,7,9.47072,0.000305176,-0.000457764,-2.42653,0.055681,-0.0747579,0.0535176,0.0215319,-0.0977241,0.145013,-0.128513,-0.0831808,0.0178909,0.0443268,0.0269318,0.00404358,0.0317764,-0.0354767,0.0238419,-0.00663757,-9.97986,0.017395,-0.0118256,0.0558853,0.0859833,0.152397,-0.00900269,-0.031662,-0.0720215
13,8,0.291338,0.00152588,-0.00411987,-2.42562,0.0565965,-0.0720113,0.0529073,-0.00562879,-0.0965034,0.147149,-0.127598,-0.0819601,0.0161362,0.0485611,-0.00335693,-0.00915527,0.0338364,-0.0391006,0.0411987,-0.00213623,-9.97986,0.0175858,-0.00740051,0.0630569,0.0946426,0.154648,-0.0115204,-0.0300217,-0.0659943
13,9,-6.86168,0.000305176,-0.00289917,-2.42592,0.0575121,-0.0723164,0.0547383,-0.0172255,-0.0965034,0.146844,-0.129123,-0.0810445,0.0168991,0.0481033,-0.014801,-0.00766754,0.0354004,-0.0395203,0.0452042,-0.00484467,-9.97986,0.0161743,-0.00637054,0.0717926,0.110474,0.155373,-0.0123978,-0.0254059,-0.0674057
14,0,-9.99003,-0.00152588,-0.00228882,-2.42562,0.0562914,-0.073232,0.0562642,0.0071886,-0.0931465,0.145624,-0.128208,-0.0813497,0.0194168,0.0468445,-0.0335693,-0.0209808,0.0319672,-0.0401306,0.0395966,-0.00637054,-9.97986,0.0169373,-0.0120544,0.0779724,0.119286,0.140991,-0.0200272,-0.0242233,-0.0643921
14,1,-9.99003,-0.000915527,-0.000152588,-2.42562,0.0565965,-0.0741475,0.0565694,0.0435045,-0.090705,0.146234,-0.125766,-0.0810445,0.0261307,0.0215912,-0.0419998,-0.0381851,0.0368881,-0.0297928,0.0227737,0.00209808,-9.97986,0.0232315,-0.01297,0.08358,0.128632,0.122604,-0.0234604,-0.0234222,-0.0622559
14,2,-9.99003,0,0.00137329,-2.42592,0.0553758,-0.075063,0.0565694,0.0578478,-0.0910102,0.145318,-0.125461,-0.0828756,0.0197983,-0.0338364,-0.0413513,-0.0672531,0.0390625,-0.0374603,0.0031662,0.00442505,-9.97986,0.0227737,-0.0112534,0.0905228,0.141525,0.120049,-0.0185013,-0.0138474,-0.0585556
14,3,-9.99003,0,0.00106812,-2.42714,0.0547655,-0.0738423,0.0550435,0.0645616,-0.0919257,0.143792,-0.125766,-0.0831808,0.0247574,-0.0506592,-0.0207138,-0.0655746,0.0399017,-0.0390625,-0.00106812,0.0157166,-9.97986,0.0226593,-0.00377655,0.0904465,0.158615,0.110207,-0.0108337,-0.012207,-0.055275
14,4,-9.99003,-0.000915527,0.00259399,-2.42592,0.055681,-0.0747579,0.0553487,0.121324,-0.0855171,0.146234,-0.12241,-0.0813497,0.0177765,-0.0378418,0.00106812,-0.0588608,0.0399017,-0.0424576,-0.0120544,0.018425,-9.97986,0.0214767,-0.00213623,0.0911713,0.172005,0.12394,-0.00247955,-0.0115204,-0.0491333
14,5,-2.52788,0.000610352,0.00473022,-2.42776,0.0547655,-0.075063,0.0553487,0.144213,-0.0873481,0.145013,-0.125766,-0.0837911,0.0137329,0.00545502,0.0210571,-0.0297546,0.0461578,-0.0415802,-0.00709534,0.0225449,-9.97986,0.0189972,0.00198364,0.100212,0.18692,0.119553,0.00259399,-0.0114059,-0.0458527
14,6,5.4543,-0.000915527,0.00610352,-2.42867,0.0532396,-0.0753682,0.0529073,0.155199,-0.0894843,0.145929,-0.121189,-0.0847066,0.0127792,0.0273132,0.0173569,0.0312424,0.0486374,-0.0506592,-0.000801086,0.0205994,-9.97986,0.0136566,0.001297,0.102463,0.206909,0.112724,-0.00305176,-0.00865936,-0.0459671
14,7,10.0097,-0.000915527,0.00610352,-2.42989,0.0523241,-0.0771993,0.0519917,0.14055,-0.0928413,0.143182,-0.12302,-0.0865377,0.0176239,0.0112534,0.00946045,0.0751877,0.0470734,-0.0456238,0.00831604,0.0188446,-9.97986,0.0177383,-0.00198364,0.10849,0.228691,0.101662,-0.00247955,-0.00556946,-0.0514221
14,8,10.0097,0,0.00335693,-2.43111,0.0535448,-0.0762837,0.0498555,0.0959947,-0.0971137,0.141046,-0.124851,-0.0880636,0.0157166,-0.0134659,0.00423431,0.0547409,0.0509262,-0.0521088,0.0037384,0.017128,-9.97986,0.0130081,0.000801086,0.109138,0.249214,0.0928497,-0.00431061,-0.000724792,-0.0550079
14,9,10.0097,0,0.000915527,-2.43142,0.0532396,-0.0765889,0.0516866,0.0801256,-0.0974189,0.143487,-0.127292,-0.0877584,0.0112534,-0.0165558,0.00331879,0.032692,0.0559616,-0.0536728,-0.00564575,0.0124359,-9.97986,0.0125885,-0.001297,0.107651,0.264473,0.0844193,-0.00640869,-0.000495911,-0.0531769
15,0,10.0097,0.000915527,0.000152588,-2.42806,0.0529344,-0.0747579,0.0532125,0.0737169,-0.0961982,0.144708,-0.126682,-0.0865377,0.019989,-0.00892639,0.0105286,0.0439072,0.0551605,-0.055542,-0.015831,0.0157547,-9.97986,0.0130844,-0.00328064,0.103722,0.265961,0.0773621,-0.00427246,0.00427246,-0.0468063
15,1,10.0097,0.00152588,-0.000305176,-2.42806,0.0544603,-0.0753682,0.0526021,0.0718859,-0.0946723,0.145318,-0.126377,-0.0859274,0.0179672,0.0102615,0.0252914,0.0233078,0.0653839,-0.055809,-0.0306702,0.0252914,-9.97986,0.0135422,-0.00553131,0.10231,0.263901,0.071907,-0.00541687,0.00110626,-0.0336456
15,2,10.0097,-0.000305176,0.000762939,-2.42684,0.0541551,-0.0756734,0.0529073,0.0712755,-0.0937568,0.144403,-0.127292,-0.0847066,0.0196075,0.0169373,0.040741,0.0187302,0.0709534,-0.0598526,-0.0311661,0.0345993,-9.97986,0.0127029,-0.00274658,0.0970459,0.267143,0.0632858,-0.0124741,0.00461578,-0.021553
15,3,10.0097,0.00244141,0.000305176,-2.42623,0.0547655,-0.0756734,0.0538228,0.0715807,-0.0931465,0.145013,-0.125156,-0.0840963,0.0185394,-0.00102997,0.0524902,0.0482941,0.0718307,-0.0684738,-0.0296783,0.0315475,-9.97986,0.0135803,-0.00228882,0.0998688,0.266609,0.0563812,-0.0193787,0.0087738,-0.00667572
15,4,10.0097,0.000610352,-0.000915527,-2.42531,0.0562914,-0.0741475,0.0538228,0.0712755,-0.0919257,0.147149,-0.125766,-0.0810445,0.0167084,-0.0140381,0.0595093,0.0317764,0.0688171,-0.0788116,-0.0243759,0.0311279,-9.97986,0.0177002,-0.0031662,0.0961304,0.262146,0.0500488,-0.0309372,0.00419617,0.0152588
15,5,10.0097,-0.0012207,0.000457764,-2.42501,0.0565965,-0.0744527,0.0538228,0.0706652,-0.0913154,0.145318,-0.124851,-0.0804342,0.0162888,-0.0127792,0.080986,0.00125885,0.0693893,-0.0785065,-0.0174713,0.0271225,-9.97986,0.0137711,-0.00904083,0.0892258,0.262146,0.0459671,-0.0273895,0.00888824,0.0271225
15,6,10.0097,0.000305176,0.000610352,-2.42562,0.0569017,-0.0726216,0.0544332,0.07036,-0.0916206,0.147149,-0.123935,-0.0816549,0.0144958,0.0134659,0.0853729,0.0125885,0.0685501,-0.083847,-0.0230408,0.0247574,-9.97986,0.0201035,-0.00534058,0.0901031,0.263367,0.0386047,-0.015564,0.00968933,0.0376511
15,7,9.31417,0,-0.00320435,-2.42684,0.0565965,-0.0747579,0.0519917,0.0221422,-0.0977241,0.146844,-0.125461,-0.0844015,0.0121307,0.0396729,0.0808716,0.0220108,0.0631332,-0.0855637,-0.0241089,0.0201416,-9.97986,0.0161743,0.00526428,0.0822449,0.243874,0.0292969,-0.0140762,0.00541687,0.0353622
15,8,0.099993,0.000610352,-0.00595093,-2.42501,0.0559862,-0.0735371,0.0529073,-0.00532361,-0.0968086,0.146539,-0.128513,-0.0816549,0.0165939,0.0473785,0.0710678,-0.0012207,0.0643539,-0.0867081,-0.0276566,0.0258636,-9.97986,0.00934601,0.00751495,0.0788879,0.233994,0.0296783,-0.00263214,0.00789642,0.0341415
15,9,-7.01152,0.00152588,-0.00457764,-2.42531,0.0562914,-0.0729268,0.0571797,-0.0205824,-0.0968086,0.145624,-0.130344,-0.0816549,0.0120926,0.0313187,0.0417328,-0.0289154,0.0595474,-0.079155,-0.0320816,0.0449371,-9.97986,0.0105667,-0.00537872,0.0656509,0.239868,0.0247955,-0.00350952,0.0135422,0.0276566
16,0,-9.99003,0,-0.00213623,-2.42531,0.0569017,-0.0735371,0.0571797,0.00779895,-0.094062,0.145624,-0.128513,-0.0810445,0.00728607,0.0254822,0.0247192,-0.0670242,0.0531006,-0.0782776,-0.032196,0.0661087,-9.97986,0.00873566,-0.00984192,0.057373,0.262489,0.00553131,-0.00183105,0.0111008,0.0194168
16,1,-9.99003,0.00183105,-0.000915527,-2.42501,0.055681,-0.073232,0.0547383,0.0438097,-0.0903999,0.145624,-0.125766,-0.0804342,0.00995636,0.0286102,0.0296021,-0.102768,0.0462341,-0.0870895,-0.0389862,0.07164,-9.97986,0.00835419,-0.00705719,0.0504303,0.273285,-0.0134659,-0.0056839,0.0125504,0.00904083
16,2,-9.99003,0.00183105,-0.000457764,-2.42623,0.055681,-0.0744527,0.055959,0.0590685,-0.0916206,0.145318,-0.126987,-0.0816549,0.0103378,0.0427628,0.0441742,-0.0953293,0.0445175,-0.0866318,-0.0416183,0.0670242,-9.97986,0.00385284,-0.00267029,0.0549698,0.270576,-0.0143051,-0.0114822,0.0206757,0.00396729
16,3,-9.99003,0.0012207,0.000915527,-2.42684,0.0550706,-0.075063,0.0556539,0.0642565,-0.0922309,0.146234,-0.126072,-0.0828756,0.0120926,0.066452,0.065918,-0.0806046,0.0403976,-0.0941467,-0.0426102,0.0583649,-9.97986,0.00213623,0.0056076,0.0485229,0.273857,-0.0193787,-0.0249481,0.0274277,-0.00255585
16,4,-9.99003,0.000610352,0.00213623,-2.42409,0.0547655,-0.0753682,0.055959,0.12285,-0.0858222,0.146844,-0.121494,-0.0828756,0.0134277,0.105896,0.0866699,-0.021553,0.0437164,-0.099144,-0.0448608,0.0523758,-9.97986,0.00469208,0.0104523,0.0414658,0.272484,0.00282288,-0.0323105,0.0326538,-0.00587463
16,5,-2.60966,0.000305176,0.00183105,-2.42745,0.0538499,-0.0744527,0.0553487,0.142687,-0.0873481,0.145318,-0.121799,-0.0850118,0.0162888,0.149574,0.106659,0.0170517,0.0463486,-0.100327,-0.0460434,0.0559616,-9.97986,-0.0018692,0.00488281,0.0510406,0.247498,0.00038147,-0.0361252,0.0259018,-0.00156403
16,6,5.38228,-0.000610352,0.00427246,-2.42745,0.0529344,-0.0762837,0.0538228,0.153673,-0.090705,0.143792,-0.121799,-0.085317,0.0108719,0.162811,0.105972,0.023613,0.0474167,-0.102692,-0.0491714,0.0455093,-9.97986,0.0062561,-0.0019455,0.0747681,0.246162,-0.00671387,-0.0328445,0.0203705,0.00167847
16,7,10.0097,-0.00152588,0.00411987,-2.42867,0.0532396,-0.0753682,0.0519917,0.142381,-0.0925361,0.142877,-0.123325,-0.0880636,0.00621796,0.14534,0.0962067,0.0642395,0.0472641,-0.112991,-0.0559235,0.0390244,-9.97986,0.0043869,-0.00988007,0.085907,0.243988,-0.00396729,-0.0307465,0.0158691,0.00865936
16,8,10.0097,-0.000610352,-0.000305176,-2.4305,0.0538499,-0.0778096,0.0498555,0.0962999,-0.0983344,0.142572,-0.126072,-0.0892843,0.00526428,0.118942,0.0934219,0.0907516,0.0427246,-0.107079,-0.0582504,0.0325012,-9.97986,0.001297,-0.0178909,0.0669861,0.219307,-0.00976563,-0.0202942,0.0175858,0.0191116
16,9,10.0097,-0.000305176,-0.00213623,-2.4302,0.0532396,-0.0759786,0.0513814,0.0810411,-0.0961982,0.144708,-0.128208,-0.0880636,0.00900269,0.118675,0.0990295,0.0965118,0.0429535,-0.104866,-0.0565338,0.00232697,-9.97986,0.00797272,-0.0211716,0.0647736,0.189896,-0.014267,-0.00301361,0.0159454,0.0224304
17,0,10.0097,0,-0.00259399,-2.42806,0.0538499,-0.0756734,0.0526021,0.0740221,-0.0949775,0.144098,-0.126377,-0.0868429,0.0129318,0.123978,0.0919342,0.055275,0.0415421,-0.105171,-0.0611496,-0.0287247,-9.97986,0.0132751,-0.035553,0.0712585,0.160408,-0.0118637,0.0184631,0.0146866,0.02388
17,1,10.0097,0,-0.00335693,-2.42684,0.0553758,-0.0729268,0.0526021,0.072191,-0.0955879,0.145318,-0.125766,-0.0868429,0.0133896,0.126762,0.071907,0.0291061,0.0449371,-0.0955582,-0.0630188,-0.0447845,-9.97986,0.0100708,-0.0330734,0.0632477,0.124359,-0.0130463,0.025177,0.0182724,0.0244141
17,2,10.0097,-0.000915527,-0.00228882,-2.42745,0.0553758,-0.075063,0.0519917,0.0718859,-0.094062,0.143792,-0.127292,-0.0850118,0.0152588,0.117989,0.0671768,0.0839233,0.0415802,-0.0908661,-0.067482,-0.0564194,-9.97986,0.0102234,-0.0190353,0.0532913,0.0974274,-0.0152206,0.0229645,0.0166702,0.0300217
17,3,10.0097,-0.00183105,-0.00289917,-2.42653,0.0550706,-0.0741475,0.0538228,0.0724962,-0.0934516,0.144403,-0.126377,-0.0840963,0.0150299,0.0880432,0.0251007,0.0845337,0.0431061,-0.0924301,-0.0692749,-0.0593185,-9.97986,0.0154114,-0.000228882,0.0495911,0.0761795,-0.0227737,0.00965118,0.0211716,0.0312805
17,4,10.0097,-0.00152588,-0.00244141,-2.4247,0.055681,-0.0756734,0.054128,0.0718859,-0.0937568,0.145624,-0.125766,-0.0834859,0.0104141,0.063591,-0.0488281,0.0473404,0.0432968,-0.0899124,-0.0765991,-0.0363922,-9.97986,0.0200653,0.00354767,0.0527573,0.0444794,-0.0212479,-0.00137329,0.0203323,0.0348663
17,5,10.0097,-0.0012207,-0.00305176,-2.42592,0.0572069,-0.0744527,0.054128,0.0724962,-0.0925361,0.142267,-0.125766,-0.0822652,0.0139999,0.0706482,-0.0920486,0.055809,0.0416946,-0.082016,-0.0799942,-0.0124741,-9.97986,0.026207,0.00541687,0.0612259,0.0201035,-0.0228882,0.000152588,0.0251007,0.0392914
17,6,10.0097,-0.000915527,-0.00366211,-2.42379,0.0562914,-0.0741475,0.0544332,0.0718859,-0.0916206,0.145013,-0.12302,-0.0825704,0.0140381,-0.00408173,-0.138168,0.0675201,0.0435257,-0.0819778,-0.0789642,-0.000114441,-9.97986,0.0323486,0.00583649,0.0657654,-0.0181198,-0.0266647,-0.00526428,0.0242996,0.0431061
17,7,9.58425,0,-0.00579834,-2.42684,0.0562914,-0.0747579,0.0516866,0.0230577,-0.0971137,0.144403,-0.128208,-0.0834859,0.00892639,-0.119514,-0.160027,0.0601578,0.0420761,-0.079155,-0.0728989,0.00965118,-9.97986,0.0366592,-0.00675201,0.0679398,-0.050087,-0.0295639,-0.00457764,0.0252151,0.0437546
17,8,0.443621,0.00152588,-0.00823975,-2.42562,0.0565965,-0.073232,0.0538228,-0.00593396,-0.0968086,0.145929,-0.128513,-0.0831808,0.00789642,-0.1511,-0.149384,0.0474548,0.0378799,-0.0720215,-0.0600815,0.0160217,-9.97986,0.0429153,-0.0154877,0.0745392,-0.0841522,-0.0297546,-0.00331879,0.0305939,0.0441742
17,9,-6.7039,0.00305176,-0.00717163,-2.4244,0.0575121,-0.0741475,0.0538228,-0.0175306,-0.0968086,0.147149,-0.130039,-0.0825704,0.0111389,-0.124359,-0.128098,0.044899,0.0376892,-0.069046,-0.0385284,0.0151825,-9.97986,0.0365067,-0.0138092,0.0767517,-0.119438,-0.0347519,-0.000495911,0.0307083,0.0501251
18,0,-9.99003,-0.000305176,-0.00671387,-2.4244,0.055681,-0.0747579,0.0568746,0.00779895,-0.0931465,0.146234,-0.128818,-0.0816549,0.0094223,-0.130234,-0.119781,0.0368881,0.0365067,-0.0669479,-0.0224304,0.022583,-9.97986,0.0418854,-0.0050354,0.0791931,-0.147247,-0.0423813,0.00293732,0.0251389,0.0505829
18,1,-9.99003,0.000305176,-0.00411987,-2.4247,0.0553758,-0.075063,0.055959,0.042589,-0.090705,0.146844,-0.126072,-0.0816549,0.00995636,-0.127258,-0.11322,0.0214386,0.03685,-0.0614548,-0.00175476,0.0313568,-9.97986,0.0442505,-0.00423431,0.086937,-0.169601,-0.0678253,0.00335693,0.0215912,0.0529861
18,2,-9.99003,0.000915527,-0.00228882,-2.42714,0.055681,-0.073232,0.0556539,0.0578478,-0.0903999,0.145929,-0.126682,-0.0822652,0.014801,-0.103798,-0.102081,0.0337982,0.0363541,-0.0522614,0.0156021,0.0307083,-9.97986,0.0365448,-0.00205994,0.0883484,-0.190506,-0.0691223,0.0012207,0.022583,0.0529861
18,3,-9.99003,0.000915527,-0.00152588,-2.42623,0.0553758,-0.075063,0.0553487,0.0657823,-0.0916206,0.145624,-0.125461,-0.0834859,0.0148392,-0.0956726,-0.0868225,0.034256,0.0335693,-0.0453568,0.0358963,0.0306702,-9.97986,0.0352097,-0.00579834,0.0914383,-0.195351,-0.0724411,-0.00572205,0.0278473,0.0538635
18,4,-9.99003,0.000305176,0.00198364,-2.42592,0.0553758,-0.0738423,0.0565694,0.124681,-0.0842964,0.146234,-0.122104,-0.0822652,0.0113678,-0.0710297,-0.0653458,-0.00259399,0.0292587,-0.0356293,0.062294,0.0313568,-9.97986,0.0359344,-0.0082016,0.0994492,-0.192947,-0.0488281,-0.0031662,0.0268555,0.0605774
18,5,-2.20439,0.0012207,0.0038147,-2.42745,0.0544603,-0.0756734,0.0553487,0.143907,-0.0882636,0.145318,-0.122104,-0.0837911,0.0165939,-0.0482178,-0.0460434,-0.0416565,0.0260544,-0.0328445,0.0970459,0.038414,-9.97986,0.0281906,-0.000839233,0.104141,-0.176506,-0.0483322,-0.000495911,0.0299835,0.0562668
18,6,5.81288,0.0012207,0.00518799,-2.42898,0.0544603,-0.0753682,0.0538228,0.154894,-0.0894843,0.145929,-0.121494,-0.0847066,0.014534,-0.0138474,-0.0349045,-0.0570679,0.0205231,-0.0302887,0.131836,0.0324249,-9.97986,0.02285,-0.00320435,0.0979996,-0.167198,-0.0537491,-0.00396729,0.0254059,0.0551605
18,7,10.0097,0.00152588,0.00595093,-2.4305,0.0529344,-0.0762837,0.0513814,0.135973,-0.0934516,0.142572,-0.121799,-0.0868429,0.0102615,0.00675201,-0.0181961,-0.0372314,0.0230789,-0.022049,0.145073,0.0292587,-9.97986,0.0247192,-0.00514984,0.10643,-0.132828,-0.0541687,0.00152588,0.0269699,0.0555801
18,8,10.0097,-0.00183105,0.00335693,-2.42989,0.0523241,-0.0765889,0.0513814,0.0938585,-0.0971137,0.141961,-0.126072,-0.0880636,0.0137711,0.00831604,-0.0139999,-0.0252533,0.0199127,-0.0215912,0.149422,0.0266266,-9.97986,0.0157166,-0.00667572,0.104523,-0.104675,-0.0570297,0.000343323,0.0268173,0.0572968
18,9,10.0097,-0.000305176,0.00320435,-2.42989,0.0532396,-0.0771993,0.0464986,0.0801256,-0.0983344,0.143487,-0.127292,-0.0874532,0.00785828,0.0069046,-0.00938416,-0.030365,0.020256,-0.0145721,0.144234,0.0182343,-9.97986,0.0202179,-0.00473022,0.111961,-0.0698471,-0.0569534,0.000495911,0.0297928,0.0585556
19,0,10.0097,0.00152588,0.00320435,-2.42959,0.0544603,-0.075063,0.0519917,0.0743273,-0.0949775,0.144098,-0.130039,-0.0865377,0.0138092,0.0159073,0.00179291,-0.0413895,0.0189972,-0.0063324,0.149918,0.0166321,-9.97986,0.0206757,0.00392914,0.112991,-0.0358963,-0.0547791,-0.00846863,0.030365,0.0585938
19,1,10.0097,0.0012207,0.00289917,-2.42837,0.0541551,-0.0753682,0.0535176,0.0718859,-0.0934516,0.143792,-0.127292,-0.0847066,0.0124741,0.00934601,0.00549316,-0.0510406,0.0167465,-0.00408173,0.161362,0.0276184,-9.97986,0.0180817,0.0018692,0.119095,-0.0111771,-0.0559998,-0.0231552,0.0350189,0.0611496
19,2,10.0097,0.000610352,0.00213623,-2.42653,0.0550706,-0.075063,0.0532125,0.07036,-0.0937568,0.143182,-0.126072,-0.0840963,0.0138855,-0.0102997,0.00484467,-0.0616837,0.0139999,-0.00110626,0.172653,0.0281525,-9.97986,0.0156021,0.000534058,0.124969,0.0159454,-0.0522232,-0.02285,0.0373077,0.0608826
19,3,10.0097,0.000915527,0.00366211,-2.42714,0.0547655,-0.0747579,0.0535176,0.0724962,-0.0931465,0.145318,-0.127292,-0.0822652,0.0137329,-0.019989,-0.000762939,-0.0283432,0.00999451,0.00450134,0.175018,0.020256,-9.97986,0.0188828,0.000228882,0.123787,0.0492477,-0.0495911,-0.0234985,0.0401306,0.063591
19,4,10.0097,0.000915527,0.00274658,-2.42562,0.0572069,-0.0741475,0.0547383,0.0718859,-0.0928413,0.145929,-0.12363,-0.0813497,0.016861,-0.00610352,0.017395,-0.0196838,0.0137711,0.0189972,0.184021,0.0200272,-9.97986,0.0126648,-0.00209808,0.129166,0.0677109,-0.0564957,-0.0113678,0.0371933,0.0603867
19,5,10.0097,0.000610352,0.00198364,-2.42348,0.0569017,-0.0735371,0.0556539,0.072191,-0.0916206,0.145929,-0.12363,-0.0813497,0.0176239,0.00217438,0.03479,-0.0213242,0.0127411,0.0147629,0.191498,0.0256348,-9.97986,0.0126648,-0.00164032,0.126305,0.0867844,-0.0559998,-0.00835419,0.0374222,0.0592422
19,6,10.0097,0.00305176,0.00106812,-2.42501,0.0569017,-0.0738423,0.0550435,0.0706652,-0.0910102,0.148065,-0.124241,-0.0804342,0.0185394,0.011673,0.0559998,-0.00038147,0.0133514,0.022583,0.188751,0.0256729,-9.97986,0.0136566,-0.000152588,0.132713,0.0973892,-0.0547791,0.000839233,0.0423813,0.0617218
19,7,9.54396,0.0012207,-0.0012207,-2.42745,0.0550706,-0.0747579,0.0519917,0.0215319,-0.0983344,0.146539,-0.127598,-0.0819601,0.0149918,0.0146866,0.0772476,-0.0106049,0.00972748,0.0256729,0.193405,0.0386429,-9.97986,0.0140381,0.00354767,0.134964,0.108528,-0.0522614,0.00209808,0.0416183,0.0617981
19,8,0.374651,0.000610352,-0.00442505,-2.42501,0.0572069,-0.0738423,0.0529073,-0.00501844,-0.0971137,0.147149,-0.128208,-0.0816549,0.0108719,0.0211334,0.092392,-0.0191498,0.0149155,0.0286865,0.192947,0.051384,-9.97986,0.0122452,0.000610352,0.132828,0.108452,-0.0495911,0.00301361,0.0440598,0.0598526
19,9,-6.78843,-0.000915527,-0.00457764,-2.42531,0.0572069,-0.073232,0.0544332,-0.0184462,-0.0971137,0.146844,-0.130039,-0.0825704,0.0133514,0.0214386,0.0952148,-0.0339127,0.00965118,0.0315857,0.191612,0.0516129,-9.97986,0.0145721,0.000610352,0.134888,0.0986099,-0.0471878,0.000648499,0.0458527,0.0608063
20,0,-9.99003,0.00274658,-0.00442505,-2.42501,0.055681,-0.0747579,0.0547383,0.0071886,-0.0928413,0.145318,-0.129123,-0.0810445,0.0102997,0.0202179,0.0887299,-0.0637054,0.0149918,0.0390625,0.196114,0.0443649,-9.97986,0.0149536,0.0018692,0.136185,0.0801086,-0.0561523,-0.00572205,0.0454712,0.0592804
20,1,-9.99003,0,-0.00320435,-2.4247,0.0569017,-0.0744527,0.054128,0.0416735,-0.0897895,0.147149,-0.127598,-0.0816549,0.0056076,0.0254059,0.0814438,-0.0350571,0.0147247,0.0428772,0.197372,0.0473785,-9.97986,0.0102234,-0.0030899,0.134125,0.0523376,-0.0712204,-0.00495911,0.0389481,0.0608826
20,2,-9.99003,0.00183105,-0.00335693,-2.42592,0.0541551,-0.0747579,0.0550435,0.0563219,-0.0913154,0.145318,-0.124241,-0.0828756,0.00556946,0.0268555,0.062294,0.00507355,0.0110626,0.0456238,0.201988,0.071373,-9.97986,0.0105286,-0.00411987,0.136032,0.0139618,-0.0654221,-0.00617981,0.0434113,0.0588608
20,3,-9.99003,0.000305176,-0.00427246,-2.42653,0.0550706,-0.0756734,0.0538228,0.0642565,-0.0919257,0.145929,-0.126682,-0.0844015,0.00118256,0.0362778,0.0519562,0.026474,0.0120163,0.0518799,0.202522,0.0930786,-9.97986,0.00671387,-0.00705719,0.139542,-0.0349045,-0.0691986,-0.00980377,0.0440598,0.059433
20,4,-9.99003,0.0012207,-0.00183105,-2.42501,0.0547655,-0.0747579,0.0599263,0.12163,-0.0855171,0.145624,-0.12241,-0.0828756,0.00675201,0.0512314,0.0300598,0.0502777,0.0128555,0.0572586,0.202789,0.116653,-9.97986,0.00564575,-0.00484467,0.13195,-0.0747681,-0.0403214,-0.00904083,0.042305,0.0603867
20,5,-2.17875,0,0,-2.42684,0.0541551,-0.0753682,0.0538228,0.144823,-0.0882636,0.143792,-0.121799,-0.0856222,0.00911713,0.0782013,0.0175095,0.0492859,0.0102615,0.0581741,0.217094,0.122871,-9.97986,-0.00087738,-0.0117111,0.13546,-0.115318,-0.0386047,-0.0107956,0.0417328,0.0579071
20,6,5.90383,0.000305176,0.000762939,-2.42806,0.0544603,-0.0762837,0.0538228,0.155504,-0.0891792,0.144403,-0.120273,-0.0865377,0.00514984,0.0815964,0.00778198,0.0307083,0.00988007,0.0572968,0.227509,0.132332,-9.97986,-0.000190735,-0.00553131,0.133247,-0.156059,-0.0322723,-0.0102615,0.0434494,0.0563812
20,7,10.0097,0.000915527,0.000762939,-2.43081,0.0538499,-0.0765889,0.0510762,0.135973,-0.0934516,0.142877,-0.122715,-0.0877584,0.00385284,0.0883484,-0.000762939,0.0275421,0.00988007,0.0592041,0.235672,0.140572,-9.97986,-0.00087738,-0.00087738,0.12867,-0.192451,-0.0305176,-0.00808716,0.0466156,0.0552368
20,8,10.0097,0.000610352,-0.00289917,-2.43081,0.0535448,-0.0759786,0.050771,0.0944689,-0.0965034,0.143487,-0.126987,-0.0892843,0.00816345,0.0928879,0.00301361,0.0324249,0.0116348,0.0664902,0.242157,0.142403,-9.97986,0.00167847,0.00804901,0.126534,-0.235519,-0.0271606,-0.00839233,0.0481796,0.0528717
20,9,10.0097,0.000610352,-0.00366211,-2.43081,0.0547655,-0.0765889,0.0504659,0.0776842,-0.0974189,0.144098,-0.127598,-0.0889791,0.00907898,0.0726318,0.0069046,0.00125885,0.00888824,0.0699234,0.24437,0.120697,-9.97986,0.00675201,0.00534058,0.124321,-0.270729,-0.0259018,-0.00904083,0.0440598,0.0511551
21,0,10.0097,0.000610352,-0.00411987,-2.42837,0.0538499,-0.0759786,0.0474141,0.0746324,-0.0961982,0.143182,-0.126682,-0.0871481,0.0151062,0.0403214,0.0227356,-0.0180435,0.00957489,0.0674057,0.251312,0.113335,-9.97986,0.0122452,0.00110626,0.124512,-0.31498,-0.0283432,-0.0112915,0.0437164,0.0513458
21,1,10.0097,-0.000305176,-0.00350952,-2.42837,0.0550706,-0.0747579,0.0529073,0.0715807,-0.0934516,0.145318,-0.127292,-0.0871481,0.0118256,0.041275,0.0287628,0.00938416,0.00736237,0.0732803,0.253143,0.0730515,-9.97986,0.00728607,0.00221252,0.118523,-0.345879,-0.0284958,-0.0150681,0.0416565,0.04673
21,2,10.0097,0,-0.00274658,-2.42989,0.0547655,-0.075063,0.0522969,0.0712755,-0.0934516,0.145624,-0.126072,-0.0850118,0.00686646,0.0689316,0.031929,0.0695038,0.00671387,0.0722504,0.260811,0.0133896,-9.97986,0.00289917,-0.00278473,0.111885,-0.374489,-0.0233459,-0.0146866,0.0380707,0.0458145
21,3,10.0097,-0.000915527,-0.00259399,-2.42684,0.0538499,-0.0747579,0.0535176,0.0718859,-0.0943672,0.145318,-0.125766,-0.0847066,0.000305176,0.0928497,0.0447845,0.0833511,0.00701904,0.0773621,0.26516,-0.0354767,-9.97986,-0.00297546,-0.00770569,0.113106,-0.395241,-0.0207901,-0.00995636,0.0411224,0.0479507
21,4,10.0097,0,-0.00213623,-2.42501,0.0562914,-0.0735371,0.054128,0.0715807,-0.0913154,0.145318,-0.124546,-0.0825704,-0.00530243,0.0987244,0.0597,0.032959,0.00667572,0.0740814,0.274582,-0.0715256,-9.97986,-0.00701904,-0.00595093,0.10994,-0.421638,-0.0191879,-0.0147629,0.0391388,0.047493
21,5,10.0097,-0.00183105,-0.00305176,-2.42379,0.055681,-0.0735371,0.0538228,0.0715807,-0.0931465,0.145318,-0.123935,-0.0819601,-0.0018692,0.0660706,0.0516891,0.0300217,0.00617981,0.0767517,0.287628,-0.131874,-9.97986,-0.00804901,-0.0119019,0.10437,-0.451317,-0.0219727,-0.0183487,0.0317383,0.0402069
21,6,10.0097,-0.000915527,-0.00213623,-2.42501,0.0575121,-0.0747579,0.055959,0.07036,-0.0922309,0.144708,-0.12363,-0.0810445,0.00675201,0.0282669,0.0343323,0.0478363,0.0038147,0.0789261,0.296364,-0.144348,-9.97986,-0.0114441,-0.0127411,0.100899,-0.474052,-0.0240326,-0.0133896,0.0338364,0.0380707
21,7,9.58241,0.00152588,-0.00427246,-2.42714,0.0562914,-0.0741475,0.0526021,0.0215319,-0.0980293,0.145318,-0.127903,-0.0828756,0.0165939,0.017662,0.0217438,0.0315094,0.00682831,0.0785065,0.290565,-0.127296,-9.97986,-0.00530243,-0.00705719,0.0946808,-0.49324,-0.0206757,-0.0156784,0.0346375,0.0396347
21,8,0.402117,0.000915527,-0.00686646,-2.42531,0.0562914,-0.0741475,0.0532125,-0.00440808,-0.0977241,0.14776,-0.128513,-0.0816549,0.0296021,0.0292969,0.032692,0.030365,0.0056839,0.0862122,0.287933,-0.112801,-9.97986,0.00530243,0.00587463,0.0894165,-0.50602,-0.0153351,-0.0182343,0.0313187,0.0363159
21,9,-6.72313,0.00244141,-0.00595093,-2.42531,0.0572069,-0.073232,0.0535176,-0.0184462,-0.095893,0.147455,-0.130344,-0.0819601,0.0229645,0.0333023,0.036087,0.018692,0.00244141,0.0917435,0.286484,-0.118141,-9.97986,0.0143814,0.0115585,0.0849152,-0.523491,-0.0176239,-0.0178528,0.0268173,0.0328445
22,0,-9.99003,0.0012207,-0.00427246,-2.42501,0.0553758,-0.0738423,0.055959,0.00749377,-0.0925361,0.145929,-0.128513,-0.0822652,0.0188446,0.0469971,0.0305176,0.0119781,0.00385284,0.0973892,0.27607,-0.114937,-9.97986,0.0218964,0.0128174,0.0776291,-0.527077,-0.0245285,-0.014801,0.0263596,0.0357437
22,1,-9.99003,-0.000305176,-0.00213623,-2.42348,0.0559862,-0.0738423,0.0556539,0.0441149,-0.0897895,0.146844,-0.126377,-0.0813497,0.0193405,0.0643158,0.00907898,0.00488281,0.00530243,0.098114,0.268517,-0.105858,-9.97986,0.022049,0.00888824,0.0729752,-0.525742,-0.0391769,-0.00930786,0.0291824,0.0362015
22,2,-9.99003,-0.000305176,-0.000610352,-2.42531,0.0553758,-0.0738423,0.0544332,0.0578478,-0.0903999,0.144708,-0.125766,-0.0819601,0.0170898,0.0230408,-0.0168991,-0.00862122,-0.00198364,0.104103,0.259056,-0.080986,-9.97986,0.0333786,0.00907898,0.0693512,-0.527153,-0.0395584,-0.00907898,0.0321198,0.0268173
22,3,-9.99003,-0.0012207,-0.000152588,-2.42623,0.0544603,-0.075063,0.0550435,0.0666979,-0.0913154,0.142877,-0.126072,-0.0834859,0.0113678,-0.0360107,-0.0283051,-0.019722,0,0.108948,0.25383,-0.0569916,-9.97986,0.0454712,0.00667572,0.0634384,-0.515404,-0.0350952,-0.00747681,0.0357056,0.030098
22,4,-9.99003,-0.0012207,0.00305176,-2.4247,0.0547655,-0.0747579,0.0565694,0.124681,-0.0852119,0.145318,-0.12241,-0.0816549,0.0138092,-0.0661087,-0.0372314,-0.0358963,-0.00110626,0.10704,0.243912,-0.0389862,-9.97986,0.0474167,0.00358582,0.0585175,-0.490036,-0.00995636,0.00228882,0.0416183,0.0307846
22,5,-2.08751,0.00183105,0.00488281,-2.42776,0.0535448,-0.075063,0.0544332,0.143602,-0.0870429,0.143487,-0.122715,-0.0840963,0.0135803,-0.0701141,-0.0429916,-0.0474548,0.00141144,0.109787,0.244865,-0.0177383,-9.97986,0.0457382,0.00217438,0.0504303,-0.47245,-0.0147629,0.00114441,0.0428009,0.028801
22,6,5.97554,0.000610352,0.00671387,-2.42837,0.0535448,-0.0756734,0.0538228,0.15642,-0.0900947,0.144098,-0.119053,-0.0844015,0.0152969,-0.0527954,-0.0294495,-0.0720215,0.000915527,0.10437,0.236244,-0.00389099,-9.97986,0.0520325,0.00762939,0.0502396,-0.44014,-0.00915527,-0.00350952,0.044899,0.0230408
22,7,10.0097,-0.000305176,0.00701904,-2.43111,0.0529344,-0.07842,0.0513814,0.134447,-0.0934516,0.143792,-0.123935,-0.0871481,0.0155258,-0.0274277,-0.00583649,-0.0877762,-0.00179291,0.108986,0.219116,0.0115585,-9.97986,0.0431061,0.00858307,0.0401306,-0.419655,-0.0110626,-0.00350952,0.0387192,0.0215912
22,8,10.0097,0,0.00289917,-2.43203,0.0535448,-0.0753682,0.0498555,0.0932482,-0.0983344,0.143792,-0.125766,-0.0883688,0.015831,-0.0218582,-0.00198364,-0.0804901,-0.00350952,0.109863,0.20443,0.0143814,-9.97986,0.0443268,0.00991821,0.0380325,-0.398331,-0.0104141,-0.00759125,0.0384521,0.0240707
22,9,10.0097,0.000915527,0.00350952,-2.42959,0.0532396,-0.0768941,0.0495503,0.0785997,-0.0965034,0.144403,-0.126377,-0.0874532,0.0120926,-0.0252151,0.00499725,-0.0724792,-0.00125885,0.107498,0.180397,0.0183487,-9.97986,0.0379181,0.00541687,0.031662,-0.361328,-0.00740051,-0.00335693,0.0378418,0.0193787
23,0,10.0097,0.00152588,0.00366211,-2.42837,0.0541551,-0.075063,0.0526021,0.0740221,-0.094062,0.144098,-0.126682,-0.0856222,0.0167847,-0.0170135,0.0126266,-0.0540924,-0.00457764,0.105782,0.158882,0.0229263,-9.97986,0.0296021,0.00396729,0.0318146,-0.315704,-0.00679016,-0.0031662,0.0395584,0.0190353
23,1,10.0097,0.00152588,0.00320435,-2.42745,0.0547655,-0.0741475,0.0519917,0.072191,-0.094062,0.145318,-0.126377,-0.0840963,0.0164413,-0.0104141,0.021286,-0.0148392,-0.00923157,0.107613,0.143471,0.0260925,-9.97986,0.0299072,0.00305176,0.0235748,-0.274353,-0.00499725,-0.00465393,0.0363541,0.0192261
23,2,10.0097,0.000305176,0.00335693,-2.42684,0.0559862,-0.0756734,0.0526021,0.0709703,-0.0934516,0.145318,-0.126682,-0.0834859,0.0163269,0.00183105,0.0385666,0.0443268,-0.00183105,0.104027,0.129585,0.0194931,-9.97986,0.0242233,0.0012207,0.0177765,-0.244217,-0.00148773,-0.00183105,0.041275,0.016098
23,3,10.0097,0.000610352,0.0038147,-2.42776,0.0550706,-0.0741475,0.054128,0.0718859,-0.094062,0.144403,-0.125766,-0.0831808,0.0163269,0.0038147,0.0476837,0.0709534,-0.00865936,0.101128,0.119133,0.00484467,-9.97986,0.0196075,0.00289917,0.00793457,-0.208931,-0.00244141,-0.00236511,0.0384521,0.0125504
23,4,10.0097,-0.000305176,0.00335693,-2.42623,0.0559862,-0.0741475,0.054128,0.0694445,-0.0922309,0.146234,-0.124241,-0.0804342,0.0123596,0.0019455,0.0566101,0.0428391,-0.00938416,0.100327,0.115509,0.00125885,-9.97986,0.020256,-0.010376,0.0110245,-0.161972,0.00270844,-0.00358582,0.0411987,0.0101852
23,5,10.0097,0.000305176,0.00350952,-2.4247,0.0569017,-0.0735371,0.0553487,0.0712755,-0.0910102,0.146234,-0.123935,-0.0813497,0.0151443,0.00423431,0.0590515,-0.000839233,-0.0133896,0.0999069,0.100327,0.00293732,-9.97986,0.0160599,-0.00476837,0.00564575,-0.136909,0.00564575,3.8147e-005,0.0435257,0.0149536
23,6,10.0097,0.000915527,0.00244141,-2.42531,0.0565965,-0.0741475,0.0556539,0.072191,-0.0925361,0.145318,-0.125156,-0.0804342,0.0123596,0.0129318,0.0600815,-0.0392151,-0.00808716,0.101357,0.0956726,-0.00793457,-9.97986,0.0199127,-0.00286102,-0.00289917,-0.117607,0.0109863,0.000267029,0.0486374,0.0140762
23,7,9.53908,-0.000305176,-0.000152588,-2.42776,0.0569017,-0.0741475,0.0526021,0.0215319,-0.0980293,0.145929,-0.128208,-0.0813497,0.0105667,0.00965118,0.0484848,-0.0411987,-0.0114059,0.0947571,0.0798035,-0.0104904,-9.97986,0.0201797,-0.00537872,-0.000419617,-0.0948715,0.0136566,-0.00659943,0.0463104,0.0110245
23,8,0.347491,0.00213623,-0.00213623,-2.42623,0.0572069,-0.0735371,0.0522969,-0.00562879,-0.0971137,0.146234,-0.128513,-0.0813497,0.0105286,0.0117111,0.0475693,-0.016098,-0.00999451,0.0941086,0.0680542,-0.00461578,-9.97986,0.0228119,0,-0.0108719,-0.0731277,0.0156021,-0.00518799,0.0487137,0.00904083
23,9,-6.84459,0.0012207,-0.00244141,-2.42592,0.0578172,-0.0744527,0.0547383,-0.0175306,-0.095893,0.148065,-0.130649,-0.0813497,0.00724792,0.0222015,0.051918,-0.0159073,-0.0121689,0.0907516,0.0495148,-0.00400543,-9.97986,0.0202942,-0.0019455,-0.0087738,-0.0568008,0.0177002,-0.0019455,0.0563812,0.0112915
24,0,-9.99003,0.00183105,-0.00152588,-2.42531,0.0562914,-0.0729268,0.0562642,0.00474719,-0.0931465,0.147455,-0.128818,-0.0804342,0.00904083,0.0309372,0.0680542,-0.000915527,-0.0121307,0.0906372,0.0380325,0.00175476,-9.97986,0.0247955,0.00495911,-0.0138855,-0.0328827,0.0109482,-0.00427246,0.0528336,0.00652313
24,1,-9.99003,0.000610352,0.00106812,-2.42531,0.0553758,-0.0741475,0.0562642,0.04442,-0.0897895,0.146234,-0.127598,-0.0804342,0.0130844,0.038414,0.0864029,0.0163651,-0.0116348,0.0878906,0.0270081,0.00225067,-9.97986,0.0215912,0.00457764,-0.0165176,0.0056839,-0.00164032,-0.00133514,0.0585175,0.00934601
24,2,-9.99003,0.000610352,0.00244141,-2.42257,0.0553758,-0.0744527,0.0553487,0.0578478,-0.0910102,0.146234,-0.126987,-0.0816549,0.0113678,0.0510025,0.101662,0.0211716,-0.0150681,0.0847244,0.0172043,0.00717163,-9.97986,0.0237656,0.00743866,-0.019722,0.0370789,0.000419617,-0.00148773,0.0585175,0.00602722
24,3,-9.99003,0.00152588,0.00213623,-2.42714,0.0559862,-0.075063,0.054128,0.0654772,-0.0916206,0.145624,-0.125766,-0.0822652,0.00934601,0.0584412,0.110283,0.0276947,-0.0112915,0.0806427,0.00801086,0.0176239,-9.97986,0.0196457,0.00679016,-0.0187683,0.0591278,0.00286102,0.00118256,0.0619125,0.00663757
24,4,-9.99003,0,0.00427246,-2.42501,0.0547655,-0.075063,0.055959,0.124681,-0.0855171,0.146539,-0.121189,-0.0813497,0.00511169,0.0527191,0.0966644,0.0338364,-0.0130844,0.0794983,-0.000114441,0.0226212,-9.97986,0.0215912,-0.00106812,-0.0238037,0.0857162,0.0284576,-0.00461578,0.0608444,0.00244141
24,5,-2.2227,0.000610352,0.00579834,-2.42592,0.0535448,-0.075063,0.0550435,0.143602,-0.0870429,0.141656,-0.122715,-0.0837911,0.00469208,0.0513077,0.0755692,0.0181198,-0.00835419,0.0809097,-0.00923157,0.0369644,-9.97986,0.0248718,-0.00255585,-0.022583,0.105095,0.0302124,-0.00282288,0.0608063,0.0019455
24,6,5.75795,-0.000915527,0.00610352,-2.42837,0.0529344,-0.0756734,0.0529073,0.155809,-0.0873481,0.143792,-0.120884,-0.0859274,0.00225067,0.042572,0.0521088,-0.00354767,-0.00965118,0.0750351,-0.014801,0.0400925,-9.97986,0.0222778,-0.00442505,-0.030098,0.122032,0.0342941,-0.00473022,0.062294,0.00564575
24,7,10.0097,-0.000610352,0.00640869,-2.43081,0.0526292,-0.0759786,0.0513814,0.136278,-0.0934516,0.143182,-0.124851,-0.0865377,0.00667572,0.0492859,0.0247574,0.0112534,-0.00915527,0.0738144,-0.0220871,0.0333023,-9.97986,0.019722,-0.00175476,-0.0304031,0.139275,0.0375748,-0.000648499,0.059166,-0.000915527
24,8,10.0097,0.000915527,0.00427246,-2.43142,0.0532396,-0.0762837,0.04894,0.0935533,-0.0977241,0.142267,-0.125156,-0.0883688,0.00629425,0.0582504,-0.00450134,0.0608063,-0.00968933,0.0704956,-0.0238419,0.0373077,-9.97986,0.0218201,-7.62939e-005,-0.0336838,0.163765,0.0407028,0.000572205,0.059967,-0.00087738
24,9,10.0097,-0.000915527,0.00320435,-2.4305,0.0541551,-0.0759786,0.0486348,0.0804308,-0.0971137,0.143792,-0.126987,-0.0877584,0.00720978,0.0536728,-0.025444,0.0821304,-0.00312805,0.0683212,-0.0318909,0.0331116,-9.97986,0.0217819,0.00087738,-0.0356293,0.194092,0.0376892,0.000953674,0.0597763,-0.00221252
25,0,10.0097,0.000915527,0.00152588,-2.42837,0.0538499,-0.0747579,0.0522969,0.0740221,-0.094062,0.144708,-0.127598,-0.0865377,0.00247955,0.0513077,-0.0299072,0.0771713,-0.000839233,0.072937,-0.0431061,0.0302124,-9.97986,0.0206757,0.00740051,-0.034523,0.219193,0.0422287,0.000495911,0.0603104,-0.00175476
25,1,10.0097,0.000610352,0.00274658,-2.42837,0.0541551,-0.075063,0.0522969,0.0718859,-0.0946723,0.145318,-0.125766,-0.0847066,0.00362396,0.0508118,-0.0337982,0.100441,-0.00453949,0.0667953,-0.0483322,0.0347519,-9.97986,0.0169373,0.00339508,-0.0435638,0.243797,0.0432205,0.00293732,0.0567245,-0.00423431
25,2,10.0097,0.000305176,0.00350952,-2.42684,0.0553758,-0.0744527,0.0538228,0.07036,-0.0943672,0.144403,-0.126377,-0.0840963,0.00782013,0.0551224,-0.0373459,0.129089,-0.000114441,0.0592422,-0.0580215,0.0354767,-9.97986,0.017662,0.0119781,-0.0421524,0.279274,0.0432968,-0.00343323,0.0555801,-0.00358582
25,3,10.0097,-0.000610352,0.00167847,-2.42653,0.0544603,-0.0735371,0.054128,0.07036,-0.0928413,0.144403,-0.126072,-0.0834859,0.00530243,0.0498962,-0.039711,0.105324,0.00263214,0.0614929,-0.0678635,0.0417328,-9.97986,0.0161362,0.00961304,-0.0399399,0.277214,0.0508499,-0.00530243,0.0524902,-0.00480652
25,4,10.0097,0.000305176,0,-2.4247,0.0559862,-0.0738423,0.0553487,0.072191,-0.0919257,0.146844,-0.125461,-0.0813497,0.0069046,0.0492477,-0.0331116,0.0688553,0.0012207,0.0592041,-0.0736618,0.0460815,-9.97986,0.0188828,0.0143051,-0.0426865,0.271149,0.0501251,-0.00343323,0.0495148,-0.00782013
25,5,10.0097,0.00244141,-0.000152588,-2.42562,0.0565965,-0.0735371,0.0577901,0.0718859,-0.0913154,0.146844,-0.125156,-0.0816549,0.0120544,0.0432968,-0.0267792,0.067482,0.00499725,0.0564575,-0.0879669,0.0428009,-9.97986,0.0170135,0.0149155,-0.0450134,0.261917,0.0490189,-0.00038147,0.046196,-0.00839233
25,6,10.0097,-0.00183105,-0.000457764,-2.42684,0.0553758,-0.0747579,0.054128,0.072191,-0.0925361,0.145929,-0.12363,-0.0822652,0.00705719,0.036087,-0.0152206,0.0599289,0.00545502,0.0555801,-0.0974274,0.0469971,-9.97986,0.0185776,0.0043869,-0.0502396,0.254974,0.0494003,-0.00118256,0.0428391,-0.00492096
25,7,9.48842,0.00274658,-0.00335693,-2.42714,0.0562914,-0.0744527,0.0532125,0.0212267,-0.0983344,0.146234,-0.129734,-0.0831808,0.00850677,0.0380325,-0.00144958,0.0481415,0.00286102,0.0544739,-0.107994,0.0537872,-9.97986,0.0146103,0.010643,-0.0479889,0.23304,0.0515366,0.0044632,0.0420761,-0.00926971
25,8,0.289202,0.00183105,-0.00640869,-2.42592,0.0569017,-0.073232,0.0510762,-0.00745984,-0.0968086,0.146539,-0.129429,-0.0816549,0.0127029,0.0379944,0.00366211,0.0445938,0.00869751,0.0522232,-0.116081,0.0662231,-9.97986,0.0143814,0.0131226,-0.0484848,0.223732,0.0497437,0.0104904,0.0360489,-0.0131226
25,9,-6.93522,-0.000915527,-0.00640869,-2.42592,0.0569017,-0.0729268,0.054128,-0.0178358,-0.0980293,0.146539,-0.132786,-0.0825704,0.0131226,0.0366211,0.00282288,0.033493,0.0031662,0.0465775,-0.125656,0.0732422,-9.97986,0.0150299,0.00679016,-0.051918,0.206566,0.0510406,0.00770569,0.0371933,-0.00823975
26,0,-9.99003,-0.000305176,-0.00564575,-2.42501,0.0569017,-0.0738423,0.0556539,0.00779895,-0.0931465,0.146234,-0.129429,-0.0813497,0.0125504,0.0348282,-7.62939e-005,0.0267029,0.00499725,0.0475311,-0.134659,0.0867844,-9.97986,0.0094223,0.00366211,-0.0481415,0.178413,0.0467682,0.0104523,0.0356674,-0.0109863
26,1,-9.99003,0.000610352,-0.0038147,-2.4244,0.055681,-0.075063,0.054128,0.0435045,-0.0903999,0.145929,-0.126377,-0.0816549,0.0128555,0.0342941,0.000724792,0.0203705,0.00595093,0.0363541,-0.140266,0.0907898,-9.97986,0.0142288,-0.00267029,-0.0522614,0.154839,0.0300217,0.0031662,0.035553,-0.0123978
26,2,-9.99003,0,-0.00289917,-2.42501,0.0559862,-0.0744527,0.0550435,0.0584581,-0.0900947,0.144403,-0.127292,-0.0834859,0.0143814,0.033989,0.00320435,-0.00038147,0.00778198,0.0405502,-0.147362,0.0932693,-9.97986,0.0104141,-0.00289917,-0.0530243,0.132027,0.027504,0.00617981,0.0373459,-0.0133514
26,3,-9.99003,-0.000915527,-0.00213623,-2.42714,0.0544603,-0.0747579,0.0547383,0.065172,-0.0919257,0.145013,-0.126377,-0.0840963,0.0150299,0.0361633,0.00679016,-0.0549316,0.00614166,0.0390244,-0.150719,0.0909805,-9.97986,0.0104141,-0.00637054,-0.0545502,0.107803,0.0258255,0.00778198,0.0303268,-0.0126266
26,4,-9.99003,-0.0012207,-0.000305176,-2.42531,0.0553758,-0.0735371,0.0538228,0.125902,-0.0849067,0.145318,-0.122104,-0.0834859,0.0133896,0.0323486,0.0109482,-0.0445938,0.00671387,0.0387573,-0.153847,0.0680542,-9.97986,0.0056839,-0.00675201,-0.0541687,0.0796127,0.0509644,0.00808716,0.0292206,-0.0123978
26,5,-2.32493,0.000305176,0.000457764,-2.42714,0.0538499,-0.0747579,0.0553487,0.144213,-0.0876533,0.143487,-0.121494,-0.0844015,0.00900269,0.0193787,0.0149155,0.0360107,0.00991821,0.0334549,-0.15831,0.0673676,-9.97986,0.0031662,-0.0101852,-0.0502396,0.0490952,0.0492477,0.00881195,0.0242233,-0.0156784
26,6,5.69539,0.000610352,0.00198364,-2.42837,0.0532396,-0.0747579,0.0529073,0.154283,-0.0882636,0.144403,-0.120884,-0.0856222,0.00911713,0.0183487,0.0136566,0.0680542,0.0127411,0.0325394,-0.159225,0.0447845,-9.97986,0.00518799,-0.00648499,-0.0522614,0.0233841,0.0479126,0.0131989,0.0236511,-0.0151062
26,7,10.0097,-0.000915527,0.00228882,-2.42898,0.0529344,-0.0768941,0.0519917,0.137499,-0.0937568,0.142877,-0.122715,-0.0880636,0.0104141,0.0231171,0.0152588,0.0519943,0.00659943,0.0301361,-0.155411,0.0349808,-9.97986,0.0075531,-0.00450134,-0.0558853,0.0134659,0.0443268,0.0144958,0.0200272,-0.016098
26,8,10.0097,-0.000305176,-0.000152588,-2.42959,0.0529344,-0.0765889,0.0495503,0.094774,-0.0974189,0.143487,-0.126377,-0.0892843,0.0122452,0.022049,0.0196075,0.0367355,0.00354767,0.0265503,-0.153961,0.0448227,-9.97986,0.00644684,-0.00629425,-0.0539017,-0.00385284,0.0449371,0.0157547,0.0209045,-0.0163269
26,9,10.0097,0.000305176,-0.00320435,-2.42959,0.0535448,-0.0771993,0.050771,0.0798204,-0.0977241,0.142572,-0.126682,-0.0889791,0.00541687,0.0223923,0.0175095,0.0154114,0.00453949,0.02388,-0.152702,0.0270844,-9.97986,0.0133896,-0.00980377,-0.0521088,-0.0469971,0.0413895,0.0133514,0.0142288,-0.0191879
27,0,10.0097,0.000305176,-0.00244141,-2.42867,0.0553758,-0.0753682,0.0513814,0.0734117,-0.0961982,0.142877,-0.126377,-0.0880636,0.00225067,0.0241852,0.0233841,0.0188446,0.0115204,0.0297928,-0.144539,0.0265503,-9.97986,0.00804901,-0.00480652,-0.0544739,-0.0682831,0.0458908,0.00976563,0.015831,-0.0196457
27,1,10.0097,0.00274658,-0.00518799,-2.42806,0.0544603,-0.0753682,0.0532125,0.0724962,-0.0943672,0.144403,-0.126072,-0.0865377,0.000495911,0.022316,0.0203705,0.0130844,0.00816345,0.0238419,-0.149117,0.0169373,-9.97986,0.00911713,-0.00724792,-0.0493622,-0.132332,0.0418091,0.0113678,0.0165176,-0.0174713
27,2,10.0097,-0.000610352,-0.00793457,-2.42714,0.0523241,-0.0747579,0.0535176,0.0718859,-0.0946723,0.143487,-0.127292,-0.0871481,0.00133514,0.0163651,0.0187302,-0.00476837,0.00938416,0.023613,-0.137634,-0.0127792,-9.97986,0.00514984,-0.00640869,-0.0513077,-0.236549,0.0403595,0.0138092,0.0123978,-0.0228882
27,3,10.0097,0.000610352,-0.00869751,-2.42653,0.0547655,-0.075063,0.054128,0.0682238,-0.0931465,0.144708,-0.125156,-0.0865377,0.00350952,0.021286,0.0242233,-0.0265503,0.01297,0.0268555,-0.136261,-0.0263596,-9.97986,0.00766754,-0.00900269,-0.0479889,-0.341873,0.0429916,0.0179672,0.0129318,-0.0151825
27,4,10.0097,0.000915527,-0.012207,-2.42592,0.0550706,-0.0741475,0.0538228,0.0706652,-0.0919257,0.145624,-0.124851,-0.0859274,0.00988007,0.0141907,0.0203323,-0.0357819,0.00965118,0.02285,-0.135193,-0.0345993,-9.97986,0.0101089,-0.0063324,-0.0492096,-0.48317,0.0393677,0.0171661,0.0107574,-0.0205231
27,5,10.0097,0.00152588,-0.00335693,-2.42562,0.0569017,-0.0735371,0.0556539,0.0718859,-0.090705,0.14837,-0.12363,-0.0807394,0.0213242,0.014534,0.017395,-0.0145721,0.0130844,0.0230789,-0.133858,-0.0229645,-9.97986,0.00694275,-0.0075531,-0.0479889,-0.449409,0.0389481,0.015831,0.00785828,-0.0206375
27,6,10.0097,0.00152588,0.00335693,-2.42531,0.0562914,-0.073232,0.0544332,0.07036,-0.0876533,0.145318,-0.124851,-0.0810445,0.0133514,0.0167084,0.0170135,-0.0192642,0.0150681,0.0215149,-0.131264,-0.0134277,-9.97986,3.8147e-005,-0.00850677,-0.0485611,-0.376434,0.0357437,0.0121307,0.00865936,-0.0201797
27,7,9.49361,0.000610352,-0.00656128,-2.42745,0.0559862,-0.0747579,0.0519917,0.0209215,-0.0980293,0.145624,-0.127903,-0.085317,0.00740051,0.0170135,0.0291824,-0.0440216,0.0153732,0.0276566,-0.131531,0.0113678,-9.97986,0.000991821,-0.00728607,-0.0463867,-0.480957,0.0402451,0.0117111,0.0082016,-0.0201797
27,8,0.285235,0.00244141,-0.0120544,-2.4247,0.0602586,-0.073232,0.0538228,-0.00562879,-0.0968086,0.146539,-0.129429,-0.0840963,0.0063324,0.0323868,0.0390625,-0.0271988,0.0115967,0.0252533,-0.128937,0.0572586,-9.97986,0.00312805,-0.0119019,-0.0421524,-0.56385,0.0432205,0.0044632,0.0094223,-0.0216675
27,9,-6.88273,0.00305176,-0.00915527,-2.42562,0.0565965,-0.0735371,0.0544332,-0.0175306,-0.0971137,0.146844,-0.130344,-0.0834859,0.00507355,0.0468826,0.0482941,0.0372314,0.015564,0.0219727,-0.126915,0.102577,-9.97986,0.00198364,-0.00911713,-0.0415039,-0.600014,0.0399399,0.00347137,0.00495911,-0.0203705
28,0,-9.99003,0.0012207,-0.00473022,-2.42501,0.0569017,-0.0744527,0.0553487,0.00779895,-0.0934516,0.145929,-0.127903,-0.0804342,0.0101471,0.0291443,0.0510406,0.0757599,0.0175858,0.0162125,-0.122871,0.126648,-9.97986,0.00114441,-0.00911713,-0.0458908,-0.58342,0.0298309,0.00144958,0.00423431,-0.0179291
28,1,-9.99003,0.000305176,0.000610352,-2.42531,0.0550706,-0.0741475,0.0568746,0.0428942,-0.0894843,0.145929,-0.127598,-0.0816549,0.0122452,0.0253296,0.0492859,0.0469971,0.0159454,0.0165176,-0.125923,0.119896,-9.97986,0.000991821,-0.0114059,-0.0430679,-0.546227,0.00991821,0.00175476,0.00232697,-0.0183868
28,2,-9.99003,0.0012207,-0.00198364,-2.42501,0.0553758,-0.075063,0.0553487,0.0596788,-0.0922309,0.146539,-0.125156,-0.0834859,0.0111008,0.021286,0.053215,0.00850677,0.0179672,0.0177765,-0.120277,0.127907,-9.97986,0.00732422,-0.0107574,-0.0390625,-0.586586,0.0141525,0.000839233,0.00312805,-0.018959
28,3,-9.99003,0.00366211,-0.00244141,-2.42653,0.0547655,-0.0747579,0.0544332,0.065172,-0.0922309,0.145013,-0.125766,-0.0834859,0.0112152,0.0280762,0.0543213,-0.00785828,0.0215149,0.0154495,-0.118561,0.165825,-9.97986,0.00682831,-0.00720978,-0.038681,-0.611801,0.011673,0.000648499,0.00247955,-0.0173569
28,4,-9.99003,-0.000915527,0.000610352,-2.42531,0.0553758,-0.073232,0.0571797,0.125902,-0.0839912,0.146234,-0.122104,-0.0822652,0.0152969,0.0270844,0.056572,-0.0169754,0.0163651,0.0105286,-0.120773,0.163307,-9.97986,0.014801,-0.00854492,-0.0382614,-0.62088,0.042572,-0.00419617,-0.000305176,-0.0193787
28,5,-2.29991,0.0012207,0.00183105,-2.42806,0.0529344,-0.0744527,0.0547383,0.145128,-0.0873481,0.145318,-0.121189,-0.0844015,0.0278854,0.03582,0.058403,-0.0172424,0.0183868,0.00881195,-0.114136,0.135956,-9.97986,0.00656128,-0.0119781,-0.0428009,-0.636978,0.0454712,-0.00904083,0.00175476,-0.0166702
28,6,5.80434,0.000610352,0.00595093,-2.42776,0.0538499,-0.0756734,0.0544332,0.156114,-0.0900947,0.144403,-0.121189,-0.0834859,0.0224304,0.0533295,0.0702286,-0.0222778,0.0190353,0.00350952,-0.109558,0.0962067,-9.97986,0.00953674,-0.00507355,-0.0377274,-0.606232,0.0453186,-0.00774384,-0.00205994,-0.0141144
28,7,10.0097,-0.000610352,0.00671387,-2.43081,0.0526292,-0.0762837,0.0510762,0.137804,-0.0928413,0.144098,-0.12302,-0.0877584,0.0219345,0.0787354,0.0758743,-0.0346375,0.0279236,0.00465393,-0.107803,0.0378799,-9.97986,0.0102234,-0.00965118,-0.0372696,-0.568085,0.045433,0.000190735,-0.00610352,-0.0134659
28,8,10.0097,0.000610352,0.00198364,-2.4305,0.0544603,-0.0762837,0.050771,0.0938585,-0.0974189,0.143487,-0.127292,-0.0883688,0.0211334,0.0686264,0.08564,-0.0491333,0.0228119,-0.00301361,-0.0959778,-0.0487137,-9.97986,0.0110626,-0.0111771,-0.038681,-0.567856,0.0506592,-0.00362396,-0.00324249,-0.0136948
28,9,10.0097,0,0.0012207,-2.42959,0.0535448,-0.0762837,0.0516866,0.0795153,-0.0952827,0.143182,-0.127292,-0.0868429,0.0171661,0.0366974,0.082016,-0.0527954,0.0270462,0.000724792,-0.0904465,-0.127525,-9.97986,0.0161362,-0.00396729,-0.0340271,-0.551872,0.0536346,0.000991821,-0.00240326,-0.013237
29,0,10.0097,0.00152588,0.00305176,-2.42867,0.0538499,-0.0756734,0.0526021,0.0737169,-0.0965034,0.143487,-0.126987,-0.0865377,0.00923157,0.0344849,0.0675964,-0.0151443,0.0305939,-0.00213623,-0.0785828,-0.120926,-9.97986,0.0136185,0.00350952,-0.0350952,-0.510406,0.0522614,0.000495911,-0.00408173,-0.0139999
29,1,10.0097,0.000915527,0.0038147,-2.42776,0.0547655,-0.075063,0.0535176,0.0718859,-0.0943672,0.145318,-0.126987,-0.0844015,0.00797272,0.0385284,0.0418472,0.0371552,0.0270844,-0.00190735,-0.0750732,-0.0319672,-9.97986,0.00762939,0.000839233,-0.0309372,-0.469093,0.0556946,0.00621796,-0.00167847,-0.0123215
29,2,10.0097,0.000915527,0.00320435,-2.42837,0.0535448,-0.0747579,0.0519917,0.0709703,-0.0931465,0.145624,-0.126377,-0.0840963,0.00896454,0.0391769,0.0221252,0.0750351,0.0295258,-0.00301361,-0.0686646,0.0261307,-9.97986,0.00114441,0.00598907,-0.0296021,-0.435257,0.0601959,0.0082016,-0.00602722,-0.0121307
29,3,10.0097,-0.0012207,0.00350952,-2.42714,0.0562914,-0.0756734,0.0544332,0.07036,-0.0937568,0.146234,-0.125766,-0.0831808,0.001297,0.04776,0.000801086,0.0850296,0.0255966,-0.00869751,-0.0689316,0.0386429,-9.97986,-0.00328064,0.00846863,-0.0206757,-0.391045,0.0619888,0.00831604,-0.00400543,-0.00972748
29,4,10.0097,-0.000305176,0.00549316,-2.42562,0.0559862,-0.0753682,0.054128,0.0706652,-0.0897895,0.146234,-0.124546,-0.0804342,-0.0104141,0.0477982,-0.0151062,0.0229645,0.0276566,-0.0128555,-0.0656128,0.0157928,-9.97986,-0.00747681,0.00671387,-0.0213623,-0.333328,0.0605774,0.00236511,-0.00339508,-0.00938416
29,5,10.0097,-0.000305176,0.00564575,-2.4244,0.0559862,-0.0738423,0.0547383,0.07036,-0.0925361,0.148065,-0.125156,-0.0807394,-0.0062561,0.0579453,-0.00572205,-0.00831604,0.034523,-0.0115204,-0.0572205,-0.0425339,-9.97986,-0.0109863,0.00637054,-0.022316,-0.272369,0.0639725,0.00366211,-0.00473022,-0.010376
29,6,10.0097,-0.000305176,0.00534058,-2.42501,0.0569017,-0.0744527,0.0553487,0.0709703,-0.0916206,0.145929,-0.124241,-0.0798238,-0.0161362,0.0459671,-0.00183105,0.0172043,0.0325775,-0.0123596,-0.0538635,-0.0732422,-9.97986,-0.0140762,0.00431061,-0.0178146,-0.215912,0.0643158,0.000724792,-0.00671387,-0.00808716
29,7,9.46401,-0.000305176,0.00427246,-2.42653,0.0553758,-0.0747579,0.0526021,0.0212267,-0.0965034,0.145929,-0.127903,-0.0816549,-0.0128555,0.0450134,0.00423431,0.029068,0.0313568,-0.0148773,-0.0498962,-0.0892258,-9.97986,-0.00152588,0.00526428,-0.0147629,-0.144997,0.0615311,-0.000991821,-0.00694275,-0.00968933
29,8,0.26906,0.000305176,0.00305176,-2.42592,0.0578172,-0.0744527,0.0556539,-0.00562879,-0.0980293,0.14776,-0.128818,-0.0807394,-0.00701904,0.045433,0.012207,0.018959,0.0337219,-0.0142288,-0.0408936,-0.121765,-9.97986,0.0043869,0.00541687,-0.014267,-0.055809,0.0546646,0.00377655,-0.00423431,-0.00823975
29,9,-6.92729,0.000610352,0.00213623,-2.4247,0.0565965,-0.0729268,0.0532125,-0.0166151,-0.0968086,0.14776,-0.130649,-0.0792135,0.00846863,0.04776,0.0102615,0.0179291,0.0352097,-0.0105286,-0.0344849,-0.153427,-9.97986,0.0246811,0.00652313,-0.0115585,0.0137329,0.056572,0.00953674,-0.000572205,-0.00938416
30,0,-9.99003,0.00152588,0.00518799,-2.42409,0.0559862,-0.073232,0.0556539,0.00810412,-0.0931465,0.146539,-0.128818,-0.078298,0.0217438,0.0644302,0.0056839,0.0182343,0.037384,-0.0167847,-0.0300217,-0.149384,-9.97986,0.0354767,0.00946045,-0.0113297,0.10334,0.0484085,0.0122833,-0.000839233,-0.00858307
30,1,-9.99003,0.000915527,0.00961304,-2.42562,0.0562914,-0.0744527,0.0568746,0.0441149,-0.0894843,0.143792,-0.126072,-0.078298,0.0176239,0.0289536,-0.0082016,0.00804901,0.0337982,-0.0206757,-0.0237274,-0.113907,-9.97986,0.0430298,0.00202179,-0.00572205,0.228195,0.0226974,0.0152969,0.00286102,-0.00614166
30,2,-9.99003,0.000305176,0.010376,-2.42653,0.0559862,-0.0744527,0.0556539,0.0596788,-0.0900947,0.143487,-0.126377,-0.0786031,0.0138474,-0.0398254,-0.0241089,0.00282288,0.0393295,-0.0240326,-0.0121307,-0.0801849,-9.97986,0.0566483,0.00541687,-0.00774384,0.349236,0.0169754,0.017128,0.00499725,-0.00465393
30,3,-9.99003,0.000915527,0.0126648,-2.42684,0.0550706,-0.0744527,0.054128,0.0654772,-0.0913154,0.144403,-0.125461,-0.0795187,0.0069809,-0.0674438,-0.0373459,-0.000572205,0.0382996,-0.0242996,-0.00686646,-0.0534821,-9.97986,0.0580597,0.00728607,-0.00919342,0.490074,0.0138855,0.0157166,0.00778198,-0.00915527
30,4,-9.99003,0.00305176,0.0152588,-2.42592,0.0544603,-0.0753682,0.0565694,0.125597,-0.0852119,0.145929,-0.121799,-0.0776876,0.00926971,-0.0661469,-0.0437546,0.0143814,0.0416183,-0.0293732,-0.0030899,-0.0268173,-9.97986,0.0612259,0.00545502,-0.00732422,0.63858,0.0340271,0.0125885,0.0044632,-0.00171661
30,5,-2.26756,0.00183105,0.0167847,-2.42714,0.0544603,-0.0765889,0.0544332,0.145738,-0.088874,0.145624,-0.121189,-0.0810445,0.018959,-0.0615311,-0.0361252,0.0206375,0.0399399,-0.0297165,-0.0019455,-0.0130844,-9.97986,0.0632095,0.00488281,-0.00347137,0.771294,0.02491,0.00930786,0.00671387,-0.00556946
30,6,5.7546,0,0.0178528,-2.42837,0.0535448,-0.0756734,0.0538228,0.154588,-0.0882636,0.144403,-0.120578,-0.0813497,0.0167847,-0.0379562,-0.0236511,0.0255585,0.0418472,-0.026207,0.00236511,-0.00663757,-9.97986,0.0577927,0.0050354,-0.00389099,0.921669,0.0235748,0.0087738,0.00144958,-0.0056839
30,7,10.0097,-0.000305176,0.0164795,-2.4305,0.0532396,-0.0771993,0.0519917,0.137193,-0.0922309,0.144403,-0.122715,-0.0840963,0.0166702,0.0101471,-0.0154495,0.00984192,0.0452423,-0.0326538,0.00839233,-0.00610352,-9.97986,0.0517654,0.00816345,-0.00564575,1.02528,0.0180435,0.00907898,0.000991821,-0.00366211
30,8,10.0097,0.000610352,0.0115967,-2.42989,0.0541551,-0.0768941,0.0498555,0.0944689,-0.0974189,0.144098,-0.126072,-0.0856222,0.0161362,0.0326157,-0.00160217,0.00553131,0.0414658,-0.0286484,0.0148773,-0.00782013,-9.97986,0.0483704,0.0120163,0.000610352,1.11759,0.016861,0.00686646,0.000228882,-0.00320435
30,9,10.0097,0.000610352,0.0106812,-2.43081,0.0538499,-0.0768941,0.0504659,0.0782946,-0.0965034,0.142877,-0.126682,-0.0856222,0.0114441,0.0235748,-0.00343323,0.00267029,0.0453949,-0.0263596,0.00934601,-0.00823975,-9.97986,0.0435257,0.00278473,-0.00198364,1.2225,0.0160217,0.0056839,-0.000305176,-0.000801086
31,0,10.0097,0.000610352,0.00839233,-2.42776,0.0544603,-0.0753682,0.0516866,0.0743273,-0.094062,0.143792,-0.126377,-0.0840963,0.0166321,0.00545502,0.00312805,-0.00553131,0.0444412,-0.0260162,0.0121307,-0.0117111,-9.97986,0.0388336,0.00247955,-0.00144958,1.24996,0.00495911,0.0128937,0.00202179,-0.00408173
31,1,10.0097,0.0012207,0.00610352,-2.42684,0.0562914,-0.0747579,0.0522969,0.072191,-0.0946723,0.146539,-0.126682,-0.0834859,0.00980377,-0.00270844,0.0113678,-0.0161743,0.0447464,-0.0275421,0.000991821,-0.0193405,-9.97986,0.0315857,0.00587463,-0.00297546,1.24996,0.0025177,0.0146866,0.00156403,-0.00198364
31,2,10.0097,0.00152588,0.0050354,-2.42776,0.0559862,-0.0747579,0.0529073,0.0706652,-0.0928413,0.145318,-0.126987,-0.0834859,0.0136948,0.00694275,0.0143051,-0.0322723,0.0410843,-0.0253296,0.00312805,-0.00907898,-9.97986,0.0365448,0.00469208,-0.00778198,1.24996,0.000495911,0.0101471,-0.00423431,-0.00419617
31,3,10.0097,0.00152588,0.00274658,-2.42623,0.0547655,-0.075063,0.0538228,0.0706652,-0.0928413,0.145929,-0.125156,-0.0844015,0.0140762,0.0154877,0.00602722,-0.0524521,0.0452805,-0.0252533,0.00244141,-0.00362396,-9.97986,0.030365,0.00907898,0.00125885,1.24996,-0.0094986,0.0168228,-0.00541687,-0.00209808
31,4,10.0097,0.00152588,0.00106812,-2.42531,0.0572069,-0.0738423,0.0544332,0.0709703,-0.0928413,0.145013,-0.125461,-0.0825704,0.012207,0.0127029,-0.0127792,-0.0678253,0.0442505,-0.0252914,0.0019455,0.0139999,-9.97986,0.0270844,0.0110626,0.00572205,1.24996,-0.00923157,0.0094223,-0.00164032,0.00465393
31,5,10.0097,0.000610352,0.000915527,-2.42379,0.0553758,-0.073232,0.0550435,0.0724962,-0.0910102,0.145929,-0.12363,-0.0828756,0.0134277,0.00335693,-0.0284576,-0.082016,0.0444412,-0.0252151,-0.00038147,0.0254822,-9.97986,0.0300217,0.00972748,0.00591278,1.24996,-0.0154877,0.0100327,-0.000305176,-0.000114441
31,6,10.0097,0,-0.000610352,-2.42714,0.0572069,-0.0741475,0.0544332,0.0706652,-0.0919257,0.146234,-0.125461,-0.0825704,0.0138855,-0.0069809,-0.0168991,-0.0792313,0.0457001,-0.0251389,0.00419617,0.027504,-9.97986,0.0261688,0.00770569,0.00087738,1.24996,-0.0170135,0.0107574,0.000228882,-0.000305176
31,7,9.47347,-0.000305176,-0.00534058,-2.42684,0.0572069,-0.0741475,0.0519917,0.0190905,-0.0974189,0.145929,-0.127598,-0.0844015,0.0115204,0.00270844,0.00209808,-0.0880432,0.044136,-0.0211334,0.00427246,0.0255203,-9.97986,0.0279236,0.00335693,0.00354767,1.24996,-0.0204086,0.00846863,-0.000267029,0.00198364
31,8,0.241289,-0.000915527,-0.0100708,-2.42318,0.0584276,-0.0729268,0.0538228,-0.00715467,-0.0961982,0.146844,-0.129429,-0.0840963,0.0155258,0.014534,0.0160599,-0.0814056,0.048027,-0.0133896,0.00682831,0.0286484,-9.97986,0.0215149,0.00198364,0.00614166,1.21113,-0.0231171,0.00740051,0.0012207,-0.000801086
31,9,-6.95933,0,-0.0117493,-2.42623,0.0559862,-0.0741475,0.0535176,-0.0190565,-0.0961982,0.145624,-0.129429,-0.0828756,0.0142288,0.0244522,0.0201416,-0.0998688,0.0440598,-0.0178909,0.00854492,0.0283051,-9.97986,0.0087738,0.00461578,0.00476837,1.13087,-0.0271606,0.00614166,-0.00202179,-0.00106812
32,0,-9.99003,0.000915527,-0.0106812,-2.4244,0.0559862,-0.0741475,0.0562642,0.00901965,-0.0931465,0.147149,-0.127903,-0.0825704,0.0134277,0.0127792,0.0246429,-0.126495,0.0469208,-0.0136948,0.0112915,0.0366592,-9.97986,0.00801086,0.00644684,0.00530243,1.03455,-0.0315094,0.0127029,-0.00175476,0.00144958
32,1,-9.99003,0.000915527,-0.0100708,-2.42531,0.0562914,-0.0738423,0.0562642,0.0438097,-0.0903999,0.144403,-0.125461,-0.0834859,0.00831604,-0.00892639,0.0266266,-0.102654,0.0431061,-0.0143433,0.0155258,0.0430679,-9.97986,0.0101471,-0.00179291,0.00671387,0.939674,-0.0551224,0.0124359,-0.00305176,-0.00118256
32,2,-9.99003,0.00183105,-0.00961304,-2.42562,0.055681,-0.0735371,0.055959,0.0587633,-0.0897895,0.145013,-0.126987,-0.0844015,0.0136185,0.00263214,0.0271606,-0.00396729,0.0444031,-0.0142288,0.0219727,0.0549316,-9.97986,0.0127029,0.000686646,0.00667572,0.839958,-0.0598145,0.0136948,-0.00274658,0.00205994
32,3,-9.99003,0.000915527,-0.00946045,-2.42684,0.0559862,-0.075063,0.0535176,0.0645616,-0.0913154,0.145318,-0.126072,-0.0859274,0.0123596,0.0050354,0.0258255,0.125961,0.0507355,-0.0186539,0.0271606,0.0582504,-9.97986,0.0126648,0.000915527,0.0030899,0.743866,-0.0602341,0.0149536,-0.00171661,0.00175476
32,4,-9.99003,0.00213623,-0.00701904,-2.42501,0.0544603,-0.0744527,0.0574849,0.121935,-0.0855171,0.146539,-0.123325,-0.0847066,0.0130463,0.01297,0.0210953,0.169601,0.0469589,-0.0188828,0.0289917,0.0492477,-9.97986,0.0136185,-0.00350952,0.0082016,0.651512,-0.0430298,0.0115204,0.00148773,0.000457764
32,5,-2.2932,-0.000610352,-0.00488281,-2.42837,0.0535448,-0.0768941,0.0544332,0.144213,-0.088874,0.144403,-0.121494,-0.0871481,0.0123978,0.0168228,0.022049,0.157509,0.052681,-0.0189209,0.0277328,0.0318527,-9.97986,0.0144577,-0.00236511,0.00572205,0.562057,-0.0431442,0.0141907,0.00179291,0.00385284
32,6,5.72682,0.00183105,-0.0038147,-2.42837,0.0511034,-0.0753682,0.0532125,0.154894,-0.0894843,0.143487,-0.120273,-0.0877584,0.0117874,0.0284195,0.0259018,0.151367,0.0505066,-0.018692,0.0320435,0.00938416,-9.97986,0.0140762,-0.00572205,0.00637054,0.481682,-0.0437927,0.0128555,-0.000419617,0.00209808
32,7,10.0097,-0.000610352,-0.00411987,-2.42928,0.0526292,-0.0768941,0.0526021,0.138414,-0.0934516,0.142572,-0.123935,-0.0892843,0.0120163,0.0344086,0.013237,0.12001,0.0490189,-0.0219727,0.0379944,-0.0025177,-9.97986,0.0193787,-0.00591278,0.0127029,0.398178,-0.0469208,0.00839233,3.8147e-005,0.00232697
32,8,10.0097,0.0012207,-0.00686646,-2.42989,0.0535448,-0.0775044,0.050771,0.094774,-0.0971137,0.142267,-0.125461,-0.0911153,0.0130081,0.0445557,0.0108719,0.112877,0.0489426,-0.0211716,0.03685,-0.00183105,-9.97986,0.0194931,-0.00392914,0.0112915,0.319519,-0.0507736,0.00526428,0.00087738,0.00354767
32,9,10.0097,0.00244141,-0.00701904,-2.42928,0.0547655,-0.0756734,0.0501607,0.0792101,-0.0971137,0.142572,-0.127292,-0.0901998,0.0101089,0.0529861,0.0258636,0.112267,0.0458908,-0.0221634,0.0440598,-0.0043869,-9.97986,0.0200653,-0.00350952,0.00797272,0.24437,-0.0559616,0.00762939,7.62939e-005,0.00396729
33,0,10.0097,0.0012207,-0.00671387,-2.42898,0.0538499,-0.0756734,0.0532125,0.0740221,-0.0955879,0.144098,-0.126377,-0.0880636,0.0069046,0.0302887,0.0310135,0.100594,0.0508499,-0.019989,0.0447845,0.00175476,-9.97986,0.0235748,0.00717163,0.010376,0.175705,-0.0499344,0.00480652,0.00244141,0.00411987
33,1,10.0097,0,-0.0062561,-2.42714,0.0553758,-0.0744527,0.0538228,0.0728014,-0.0943672,0.144708,-0.125461,-0.0871481,0.0128174,0.0135803,0.0365448,0.0862503,0.0466919,-0.0237274,0.0458527,0.0279617,-9.97986,0.0231552,0.00946045,0.0117111,0.126343,-0.0503922,0.00572205,0.00427246,0.0050354
33,2,10.0097,0.00244141,-0.00549316,-2.42684,0.0578172,-0.0744527,0.0538228,0.0718859,-0.094062,0.143182,-0.126072,-0.0868429,0.014534,0.0259781,0.0373459,0.0693512,0.050087,-0.0230408,0.0508118,0.072403,-9.97986,0.0217819,0.00629425,0.0109863,0.0669861,-0.0486374,-3.8147e-005,0.00209808,0.00244141
33,3,10.0097,0.000915527,-0.0050354,-2.42653,0.0559862,-0.075063,0.054128,0.0706652,-0.095893,0.144708,-0.125766,-0.085317,0.0143433,0.0198364,0.0206375,0.0624466,0.0480652,-0.0275421,0.0558472,0.113487,-9.97986,0.0204468,0.000762939,0.0141525,0.0170135,-0.0504303,0.00278473,0.00579834,0.00278473
33,4,10.0097,-0.000305176,-0.00488281,-2.42592,0.0565965,-0.073232,0.054128,0.0718859,-0.0928413,0.146234,-0.124851,-0.0834859,0.0166702,0.0244522,0.00904083,0.0512314,0.047226,-0.026474,0.0606155,0.13298,-9.97986,0.0191879,-0.00141144,0.00919342,-0.0285339,-0.0526047,0.00480652,0.00377655,0.00576019
33,5,10.0097,0.000305176,-0.0038147,-2.4244,0.0523241,-0.0735371,0.054128,0.0718859,-0.0910102,0.146844,-0.12363,-0.0825704,0.0166702,0.0354004,0.0140381,0.0422287,0.0466919,-0.0259781,0.0614166,0.142174,-9.97986,0.0155258,0.000915527,0.0111008,-0.0685501,-0.0511932,0.00526428,0.00453949,0.00354767
33,6,10.0097,-0.000305176,-0.00350952,-2.42592,0.0562914,-0.0738423,0.0544332,0.0691393,-0.0931465,0.148675,-0.12363,-0.0828756,0.016098,0.0379562,0.0101852,0.0333405,0.0446701,-0.0267792,0.0682831,0.12207,-9.97986,0.0178909,-0.0025177,0.0159454,-0.096817,-0.0475311,0.00366211,0.00324249,0.00141144
33,7,9.33278,0.000610352,-0.00473022,-2.42776,0.0550706,-0.0747579,0.0513814,0.0203112,-0.0980293,0.145318,-0.128818,-0.0837911,0.0169754,0.0464249,0.0160217,0.0231171,0.0488281,-0.0300598,0.0669861,0.09758,-9.97986,0.0111771,-0.00297546,0.0138092,-0.124321,-0.0468826,0.000305176,0.00396729,0.00392914
33,8,0.0679496,0.000915527,-0.00671387,-2.42714,0.0562914,-0.073232,0.0535176,-0.00623914,-0.0971137,0.145624,-0.129734,-0.0837911,0.0107956,0.047226,0.0180054,0.0224686,0.0457382,-0.032196,0.0708771,0.0637436,-9.97986,0.000610352,-0.00652313,0.0119781,-0.138168,-0.0395203,-0.00236511,0.00347137,0.00499725
33,9,-7.0695,-0.000610352,-0.00640869,-2.42531,0.0562914,-0.0741475,0.0529073,-0.0187513,-0.0952827,0.146539,-0.130344,-0.0816549,0.0151825,0.0439072,0.015831,0.0185013,0.0434113,-0.0351715,0.0769043,0.0348663,-9.97986,0.00286102,0.000953674,0.0128555,-0.147324,-0.0433731,-0.0019455,0.00305176,0.0030899
34,0,-9.99003,0.000915527,-0.00366211,-2.42531,0.0562914,-0.0741475,0.0553487,0.00871447,-0.0937568,0.146539,-0.128513,-0.0819601,0.0088501,0.0439453,0.0288773,0.0154877,0.0452423,-0.0351715,0.0871658,0.0301743,-9.97986,0.00324249,0.00217438,0.01297,-0.138969,-0.047226,-0.00213623,0.00385284,0.00152588
34,1,-9.99003,-0.000305176,-0.00183105,-2.42562,0.0514085,-0.0747579,0.0550435,0.04442,-0.0897895,0.145624,-0.126682,-0.0816549,-0.00282288,0.0430298,0.0349426,0.0113678,0.0421524,-0.0274658,0.0823212,0.0107574,-9.97986,-0.0018692,0.00198364,0.0166321,-0.125084,-0.0624084,-0.0037384,0.00312805,0.00411987
34,2,-9.99003,0.000610352,0.00106812,-2.42592,0.055681,-0.0762837,0.055959,0.0624254,-0.0894843,0.146234,-0.125156,-0.0816549,-0.00881195,0.0448608,0.0425339,0.0119019,0.0439835,-0.0294113,0.0851059,-0.00724792,-9.97986,-0.00667572,0.000190735,0.0126648,-0.109749,-0.0583267,-0.00320435,0.00370026,0.0056076
34,3,-9.99003,-0.000305176,0.00183105,-2.42653,0.0544603,-0.0744527,0.0544332,0.0654772,-0.0925361,0.144708,-0.126377,-0.0825704,-0.00751495,0.0465393,0.0418091,0.0104904,0.0399017,-0.0317764,0.0816727,0.00808716,-9.97986,-0.00328064,-0.00591278,0.0179291,-0.0886917,-0.0612259,-0.0069046,0.00144958,0.00495911
34,4,-9.99003,-0.000305176,0.0038147,-2.4247,0.055681,-0.0741475,0.0565694,0.125597,-0.0861274,0.144708,-0.12241,-0.0822652,-0.000991821,0.0386047,0.0417328,0.0104523,0.0365829,-0.028038,0.0820923,-0.00930786,-9.97986,-0.00423431,-3.8147e-005,0.0152206,-0.0632095,-0.0379181,-0.00213623,0.00492096,0.00152588
34,5,-2.38994,-0.000915527,0.00518799,-2.42714,0.0541551,-0.0768941,0.0553487,0.144518,-0.0852119,0.142877,-0.121189,-0.0837911,0.001297,0.0243759,0.0304413,0.00305176,0.0334167,-0.0327682,0.0792313,0.00255585,-9.97986,0.00385284,0.00328064,0.0131607,-0.0470734,-0.0311279,-0.00377655,0.00621796,0.00553131
34,6,5.63252,0.000305176,0.00579834,-2.42684,0.0529344,-0.0756734,0.054128,0.154588,-0.0897895,0.143182,-0.121494,-0.085317,0.0106049,0.00762939,0.0229263,0.00434875,0.0345993,-0.0232697,0.0735092,0.014267,-9.97986,0.011673,0.00629425,0.0146866,-0.0380325,-0.0356674,-0.00221252,0.00343323,0.00118256
34,7,10.0097,0.00183105,0.0050354,-2.42989,0.0526292,-0.0765889,0.0501607,0.13933,-0.0937568,0.141961,-0.12302,-0.0862325,0.0133514,-0.00389099,0.0198364,0.00343323,0.0379944,-0.0237274,0.0819778,0.0087738,-9.97986,0.0115204,0.00198364,0.00968933,-0.0289536,-0.0313187,-0.00335693,0.0056839,0.00507355
34,8,10.0097,0,0.00198364,-2.43081,0.0535448,-0.0762837,0.0510762,0.0959947,-0.095893,0.142267,-0.126072,-0.0880636,0.0196075,0.00259399,0.0194931,-0.0012207,0.0322723,-0.027504,0.0786591,0.0226974,-9.97986,0.00907898,0.000419617,0.0130844,-0.0298309,-0.0353622,-0.00869751,0.00530243,0.00312805
34,9,10.0097,0,0.000762939,-2.4302,0.0535448,-0.0744527,0.0504659,0.0795153,-0.0961982,0.143182,-0.127292,-0.0880636,0.0191879,-0.000305176,0.0222397,0,0.0317001,-0.0244522,0.0821686,0.0277328,-9.97986,0.00701904,-0.0025177,0.0188065,-0.0279617,-0.0357819,-0.00545502,0.00598907,0.00419617
35,0,10.0097,0.000610352,0.000152588,-2.42898,0.0535448,-0.0756734,0.0526021,0.0737169,-0.0943672,0.143792,-0.127598,-0.0865377,0.00923157,0.0175476,0.0225449,-0.00431061,0.0300217,-0.0242233,0.0740814,0.0217819,-9.97986,0.0128174,-7.62939e-005,0.0163269,-0.0331879,-0.0244141,-0.0031662,0.00972748,0.00656128
35,1,10.0097,-0.000610352,-0.00198364,-2.42837,0.0538499,-0.0753682,0.0538228,0.0740221,-0.094062,0.145624,-0.126682,-0.085317,0.00995636,0.0324631,0.0222015,3.8147e-005,0.0285721,-0.0218582,0.0695801,0.00686646,-9.97986,0.00988007,0.00263214,0.0114059,-0.0538635,-0.0212479,-0.00938416,0.00888824,0.00358582
35,2,10.0097,0.00152588,-0.00167847,-2.42714,0.0547655,-0.0741475,0.0519917,0.0728014,-0.0928413,0.144403,-0.126072,-0.085317,0.00793457,0.0356293,0.0352097,0.00102997,0.0294876,-0.0144196,0.0679398,-0.0104523,-9.97986,0.010643,-0.00339508,0.0130081,-0.0683212,-0.0200272,-0.00892639,0.0109863,0.00656128
35,3,10.0097,0.00152588,-0.000915527,-2.42623,0.0565965,-0.0747579,0.0538228,0.0709703,-0.0922309,0.146234,-0.125766,-0.0844015,0.00766754,0.0346375,0.0350952,-0.01091,0.026741,-0.0159836,0.0631714,0.0183105,-9.97986,0.00377655,-0.00339508,0.015564,-0.0758743,-0.0137711,-0.0112152,0.00801086,0.00537872
35,4,10.0097,0.0012207,-0.000610352,-2.42592,0.0559862,-0.0744527,0.0535176,0.0715807,-0.0919257,0.146234,-0.125156,-0.0816549,0.00862122,0.0237656,0.0353622,-0.0112152,0.0270844,-0.0138092,0.060997,0.0550842,-9.97986,0.00171661,7.62939e-005,0.0165176,-0.0844955,-0.0122452,-0.0144958,0.00686646,0.00473022
35,5,10.0097,0.00183105,-0.000610352,-2.42531,0.0562914,-0.0756734,0.0538228,0.0718859,-0.0931465,0.147149,-0.124851,-0.0816549,0.00259399,0.0198746,0.0328064,-0.0178528,0.0265884,-0.00652313,0.0566483,0.0628281,-9.97986,-0.00156403,-0.00255585,0.0113297,-0.0947571,-0.00617981,-0.0114822,0.00968933,0.00389099
35,6,10.0097,-0.000915527,-0.00106812,-2.4247,0.0559862,-0.0717061,0.054128,0.0709703,-0.0903999,0.146234,-0.124851,-0.0813497,0.00965118,0.0136185,0.00854492,-0.00831604,0.0266266,-0.00839233,0.0600433,0.0671005,-9.97986,0.00175476,-0.00141144,0.0134277,-0.112495,-0.00427246,-0.0141525,0.01297,0.0069809
35,7,9.42067,0,-0.00289917,-2.42776,0.055681,-0.0747579,0.0519917,0.0206163,-0.0980293,0.151422,-0.128513,-0.0828756,0.00621796,0.0411987,0.00179291,0.00366211,0.0231552,-0.0088501,0.0597382,0.0486755,-9.97986,0.00377655,-0.0105286,0.0123978,-0.126457,-0.00411987,-0.0131226,0.012207,0.00774384
35,8,0.105486,0.00152588,-0.00549316,-2.42501,0.0572069,-0.0735371,0.054128,-0.00593396,-0.0971137,0.14776,-0.129123,-0.0828756,0.018425,0.0941086,0.000305176,0.00728607,0.02388,-0.00114441,0.0525284,0.0436783,-9.97986,0.00980377,-0.0130081,0.014267,-0.147705,0.0044632,-0.0143051,0.0128174,0.00553131
35,9,-7.04753,-0.000305176,-0.00656128,-2.42592,0.0565965,-0.0729268,0.0532125,-0.0169203,-0.0961982,0.145929,-0.130344,-0.0825704,0.0162125,0.0828934,-0.00804901,0.0178528,0.0181198,-0.00232697,0.052948,0.0192642,-9.97986,0.01091,-0.0146866,0.0146484,-0.159874,0.00499725,-0.0124359,0.00934601,0.00759125
36,0,-9.99003,0.000915527,-0.00457764,-2.4247,0.0565965,-0.0738423,0.0556539,0.00932483,-0.0919257,0.144403,-0.128818,-0.0810445,0.021019,0.0282669,-0.00797272,-0.00587463,0.0186539,-0.00247955,0.0450897,-0.00896454,-9.97986,0.0174332,-0.0162506,0.0157166,-0.179138,-0.00190735,-0.0137329,0.00888824,0.00934601
36,1,-9.99003,0.000610352,-0.00305176,-2.4247,0.0565965,-0.0741475,0.0553487,0.0441149,-0.0897895,0.145013,-0.127292,-0.0816549,0.0196457,0.00915527,0.00396729,-0.0350952,0.0212097,0.00125885,0.0481415,-0.00461578,-9.97986,0.0210953,-0.0104141,0.0150299,-0.209198,-0.0185013,-0.0131989,0.0149536,0.00766754
36,2,-9.99003,-0.000305176,-0.00411987,-2.42653,0.0553758,-0.0735371,0.0550435,0.0590685,-0.0925361,0.145318,-0.126987,-0.0834859,0.00896454,-0.00038147,0.00324249,-0.016098,0.0140381,-0.0031662,0.0469589,0.00782013,-9.97986,0.0224304,-0.00526428,0.0138474,-0.245514,-0.0143051,-0.0109863,0.0122452,0.00923157
36,3,-9.99003,0.0012207,-0.00411987,-2.42684,0.0553758,-0.075063,0.0538228,0.0636461,-0.0916206,0.144098,-0.126072,-0.0847066,0.0160217,-0.0248718,0.00221252,-0.00881195,0.014534,0.00614166,0.0535583,0.00236511,-9.97986,0.0341034,0.000457764,0.0139999,-0.293922,-0.0106049,-0.0125885,0.0163269,0.00846863
36,4,-9.99003,0.0012207,-0.00274658,-2.42684,0.055681,-0.0738423,0.0562642,0.125902,-0.0852119,0.144708,-0.122104,-0.0840963,0.0128937,-0.030632,0.00591278,-0.0160217,0.0108719,0.00537872,0.0510406,-0.0249863,-9.97986,0.0270844,-0.00865936,0.0137329,-0.3479,0.0158691,-0.0120544,0.0159836,0.00492096
36,5,-2.29472,0,-0.000915527,-2.42653,0.0538499,-0.0735371,0.0553487,0.145128,-0.0876533,0.146234,-0.122104,-0.0856222,0.00461578,-0.0126648,0.00762939,-0.0094223,0.0173187,0.00610352,0.0566483,-0.0532913,-9.97986,0.0213623,-0.00347137,0.016861,-0.398026,0.0212479,-0.0188446,0.0157166,0.00919342
36,6,5.77962,0.000915527,-0.000610352,-2.42898,0.0535448,-0.0759786,0.0529073,0.156114,-0.088874,0.142572,-0.121189,-0.0862325,0.0037384,0.0025177,0.0156021,-0.00682831,0.00747681,0.00896454,0.0586319,-0.0679779,-9.97986,0.0151062,-0.00278473,0.0128937,-0.446854,0.0251007,-0.014534,0.0167465,0.00831604
36,7,10.0097,0.00244141,-0.000305176,-2.43111,0.0526292,-0.0756734,0.0504659,0.137499,-0.0934516,0.144098,-0.122715,-0.0886739,0.00358582,0.0148392,0.0208282,-0.0112915,0.0121307,0.00759125,0.0616837,-0.0504684,-9.97986,0.0124741,-0.000762939,0.0130081,-0.491943,0.0291824,-0.0107574,0.0159454,0.0111008
36,8,10.0097,0,-0.00289917,-2.4302,0.0535448,-0.0756734,0.0501607,0.0938585,-0.0968086,0.143182,-0.125766,-0.0895895,0.00572205,0.0137711,0.014534,-0.0172424,0.0100327,0.00385284,0.0556564,-0.0216293,-9.97986,0.0128555,0.00362396,0.014267,-0.534973,0.02388,-0.0157166,0.0148392,0.00637054
36,9,10.0097,0.000915527,-0.0038147,-2.42989,0.0529344,-0.0768941,0.0513814,0.0792101,-0.0961982,0.143792,-0.126682,-0.0886739,0.0130463,0.0143433,0.00778198,-0.0224686,0.00408173,0.00598907,0.0526047,-0.00347137,-9.97986,0.00797272,0.00587463,0.0143051,-0.569839,0.0291443,-0.0109482,0.0192642,0.0113678
37,0,10.0097,0,-0.00427246,-2.42928,0.0541551,-0.0759786,0.0516866,0.0743273,-0.0943672,0.145013,-0.126987,-0.0874532,0.01091,0.0110626,0.00431061,-0.0088501,-0.00183105,0.00812531,0.0471878,0.00328064,-9.97986,0.00534058,0.00740051,0.0118256,-0.599709,0.0245285,-0.0130463,0.0156021,0.00846863
37,1,10.0097,0.000610352,-0.00259399,-2.42837,0.0541551,-0.0753682,0.0519917,0.0715807,-0.0946723,0.145013,-0.126682,-0.0859274,0.00736237,0.0169754,0.00637054,0.0255203,-0.00469208,0.0100708,0.0436783,0.0288773,-9.97986,0.00526428,0.00984192,0.0154114,-0.620613,0.0325775,-0.00850677,0.0191116,0.0082016
37,2,10.0097,0.00152588,-0.00183105,-2.42684,0.0544603,-0.0756734,0.0538228,0.072191,-0.094062,0.145318,-0.124241,-0.0840963,0.00232697,0.0264359,0.00915527,0.0424576,-0.00640869,0.00171661,0.0364685,0.0601959,-9.97986,0.00514984,0.0075531,0.0163269,-0.636139,0.0313187,-0.00732422,0.020256,0.00881195
37,3,10.0097,0.000915527,-0.00167847,-2.42501,0.0565965,-0.0747579,0.0535176,0.0709703,-0.0922309,0.145929,-0.125461,-0.0847066,0.00759125,0.0302124,0.016861,0.0426865,-0.0120544,0.00461578,0.0266647,0.0701904,-9.97986,0.00453949,0.00583649,0.0146484,-0.649796,0.0335693,-0.00705719,0.0186539,0.00751495
37,4,10.0097,0.000610352,-0.000610352,-2.4247,0.0553758,-0.0738423,0.0535176,0.0706652,-0.0919257,0.146539,-0.125766,-0.0828756,0.0185776,0.0331116,0.0235748,0.0159454,-0.0143433,-0.000267029,0.026207,0.0566483,-9.97986,0.01091,0.00141144,0.0161362,-0.651779,0.0351334,-0.00686646,0.0171661,0.00896454
37,5,10.0097,0,-0.000762939,-2.42501,0.0559862,-0.0744527,0.0532125,0.0724962,-0.0913154,0.146234,-0.124241,-0.0822652,0.0235748,0.0339508,0.022316,0.0118637,-0.0127029,-0.000801086,0.0276184,0.03582,-9.97986,0.0141907,-0.000762939,0.0100708,-0.652084,0.031929,-0.00289917,0.0221252,0.0109482
37,6,10.0097,0,0.000152588,-2.42531,0.0572069,-0.0738423,0.0547383,0.0709703,-0.0916206,0.146234,-0.123935,-0.0810445,0.0204086,0.02388,0.0197601,0.00835419,-0.014534,0.00038147,0.0290298,0.0395966,-9.97986,0.0243378,-0.000343323,0.0141525,-0.653839,0.0377274,-0.00492096,0.0185394,0.0120544
37,7,9.41731,-0.000610352,-0.00198364,-2.42837,0.0550706,-0.0744527,0.0519917,0.0181749,-0.0977241,0.145624,-0.126377,-0.0819601,0.00934601,0.0350952,0.0310516,0.00244141,-0.014534,-0.00141144,0.0248718,0.046463,-9.97986,0.026741,-0.00907898,0.0125885,-0.64579,0.030632,-0.00480652,0.0180435,0.00854492
37,8,0.140887,-0.000305176,-0.00442505,-2.42592,0.0572069,-0.0726216,0.0532125,-0.00501844,-0.0977241,0.14837,-0.127903,-0.0819601,0.00736237,0.0349808,0.0292587,0.00263214,-0.0161743,0.00232697,0.0186157,0.0527954,-9.97986,0.0182724,-0.00736237,0.0113678,-0.646896,0.034256,-0.00663757,0.0207138,0.00606537
37,9,-7.0103,-0.000915527,-0.00457764,-2.4244,0.0553758,-0.073232,0.0535176,-0.0175306,-0.095893,0.146234,-0.129734,-0.080129,0.00854492,0.0371552,0.0309372,-0.000305176,-0.0196075,-0.00152588,0.0179672,0.045433,-9.97986,0.0144196,-0.00522614,0.0130081,-0.63942,0.0331879,-0.0120544,0.0196457,0.0113678
38,0,-9.99003,-0.0012207,-0.00305176,-2.4244,0.0575121,-0.0741475,0.0556539,0.00932483,-0.0934516,0.146234,-0.128513,-0.0804342,0.0116348,0.032959,0.0218201,-0.010643,-0.021286,-0.00209808,0.0148392,-0.000801086,-9.97986,0.0121307,-0.010643,0.0134659,-0.627365,0.0257874,-0.0075531,0.0216293,0.0127792
38,1,-9.99003,0.00274658,-0.000457764,-2.42653,0.0562914,-0.073232,0.0574849,0.0441149,-0.0900947,0.145929,-0.126377,-0.080129,0.00202179,0.026474,0.0152206,-0.00988007,-0.0249863,-0.00118256,0.0124741,-0.0325394,-9.97986,0.0069809,-0.00648499,0.0120544,-0.598488,0.00766754,-0.010643,0.0215912,0.0117111
38,2,-9.99003,0.00274658,0.00228882,-2.42531,0.055681,-0.0738423,0.0538228,0.0590685,-0.0913154,0.145318,-0.125461,-0.0819601,0.00534058,0.0212097,0.0075531,-0.0141144,-0.0220108,-0.00442505,0.00747681,-0.00415802,-9.97986,-0.000991821,-0.0120544,0.0163651,-0.568733,0.00652313,-0.0111389,0.0206757,0.00961304
38,3,-9.99003,0.00183105,0.00198364,-2.42684,0.0550706,-0.0747579,0.055959,0.0654772,-0.0919257,0.145318,-0.125766,-0.0825704,0.00995636,0.00827789,0.00858307,-0.0210953,-0.0206375,-0.00530243,0.0127792,0.0164795,-9.97986,-0.00221252,-0.0182724,0.0120926,-0.534897,0.00476837,-0.00892639,0.0209427,0.00762939
38,4,-9.99003,0.000915527,0.00518799,-2.42531,0.055681,-0.075063,0.0568746,0.126207,-0.0852119,0.144708,-0.121189,-0.0816549,0.0165176,0.00892639,0.0126648,-0.0222778,-0.0216675,-0.00488281,0.00896454,0.0121689,-9.97986,-0.000114441,-0.0124359,0.0141907,-0.504456,0.033493,-0.0102615,0.0205231,0.00946045
38,5,-2.17418,0,0.00701904,-2.42714,0.0535448,-0.0756734,0.0526021,0.144518,-0.0876533,0.141961,-0.122104,-0.0831808,0.0196838,0.00484467,0.0175858,-0.0421906,-0.0201416,-0.00339508,0.000419617,0.0037384,-9.97986,0.0154877,-0.00629425,0.0118637,-0.474777,0.033989,-0.00675201,0.0195694,0.0114441
38,6,5.87331,0,0.00793457,-2.42776,0.0547655,-0.0765889,0.0529073,0.155809,-0.0900947,0.143182,-0.121189,-0.0837911,0.0244904,0.00759125,0.022316,-0.021286,-0.0199509,-0.00545502,0.00205994,0.00137329,-9.97986,0.0297546,0.0030899,0.00614166,-0.434494,0.0308609,-0.00396729,0.0200272,0.00968933
38,7,10.0097,0.00274658,0.00762939,-2.43081,0.0520189,-0.0762837,0.0513814,0.136888,-0.0937568,0.143487,-0.12241,-0.0865377,0.0219727,0.00629425,0.021553,0.0168991,-0.0201416,-0.00152588,0.00259399,0.00339508,-9.97986,0.0436783,-0.00144958,0.0116348,-0.396957,0.0309753,0.00087738,0.0221252,0.0130463
38,8,10.0097,0,0.00427246,-2.4305,0.0544603,-0.0775044,0.0501607,0.0938585,-0.0977241,0.142877,-0.125766,-0.0883688,0.0115967,0.00404358,0.029068,0.0228882,-0.0165558,-0.00705719,0.00358582,0.00732422,-9.97986,0.0362778,-0.00488281,0.0102997,-0.367813,0.0230026,-0.000839233,0.0157928,0.00686646
38,9,10.0097,0,0.00396729,-2.42959,0.0550706,-0.0768941,0.0519917,0.080736,-0.0965034,0.143182,-0.128818,-0.0865377,0.0107574,0.0109863,0.0289536,0.0153351,-0.0178909,-0.0043869,0.00507355,0.0215912,-9.97986,0.0366974,-0.00385284,0.00747681,-0.331612,0.0271606,0.00179291,0.0201035,0.0133896
39,0,10.0097,0.000610352,0.00274658,-2.42867,0.0535448,-0.0744527,0.0526021,0.075548,-0.0974189,0.143487,-0.126377,-0.085317,0.00923157,0.0151443,0.0322342,0.0256348,-0.0167465,-0.00457764,-0.00175476,0.0144958,-9.97986,0.0329971,-0.00686646,0.00766754,-0.298462,0.0261307,-0.000190735,0.0162506,0.00774384
39,1,10.0097,0.000915527,0.00274658,-2.42806,0.0553758,-0.0756734,0.0526021,0.072191,-0.0937568,0.145624,-0.126987,-0.0837911,0.00854492,0.00965118,0.0324631,0.0556183,-0.0177002,-0.00331879,-0.00255585,0.00442505,-9.97986,0.0287628,0.00087738,0.0094986,-0.270271,0.0271988,0.00465393,0.0200272,0.00934601
39,2,10.0097,-0.000305176,0.00289917,-2.42745,0.0547655,-0.0781148,0.0538228,0.0712755,-0.0928413,0.145013,-0.126072,-0.0840963,0.0141525,0.0238419,0.0317764,0.055809,-0.0151825,0.00038147,-0.000953674,-0.00324249,-9.97986,0.0231934,-0.00320435,0.0101852,-0.244141,0.0240707,0.00156403,0.0181198,0.0128174
39,3,10.0097,-0.000305176,0.00289917,-2.42684,0.0553758,-0.0744527,0.0532125,0.0697496,-0.0928413,0.144098,-0.124851,-0.0840963,0.0158691,0.036087,0.039978,0.0330353,-0.0127411,-0.00232697,0.00144958,-0.013504,-9.97986,0.0226593,0.000648499,0.0151443,-0.220985,0.0231934,-0.00404358,0.0194168,0.0111771
39,4,10.0097,-0.000610352,0.00289917,-2.42501,0.0559862,-0.0738423,0.0547383,0.0712755,-0.0919257,0.147455,-0.125461,-0.0807394,0.0139618,0.0387192,0.0361252,0.0505066,-0.0105667,-0.0043869,-0.00305176,-0.0174332,-9.97986,0.0174713,0.00179291,0.0114822,-0.194664,0.02285,-0.00732422,0.0188828,0.013504
39,5,10.0097,0.00213623,0.00198364,-2.4244,0.0553758,-0.0744527,0.054128,0.0706652,-0.0922309,0.147455,-0.124241,-0.0810445,0.0102997,0.067749,0.0366592,0.0651169,-0.015831,-0.00320435,-0.00602722,-0.0138855,-9.97986,0.0117493,-0.00232697,0.0115585,-0.173225,0.0178909,-0.0107574,0.0114441,0.0136185
39,6,10.0097,0.000915527,0.00183105,-2.42623,0.0565965,-0.0738423,0.0535176,0.0676134,-0.0925361,0.145624,-0.124851,-0.0804342,0.0116348,0.0817108,0.0410461,0.0542831,-0.0138855,-0.000915527,-0.00522614,-0.00141144,-9.97986,0.0153732,0.00125885,0.0139999,-0.147133,0.0208282,-0.00556946,0.0169754,0.0141525
39,7,9.28639,0.000305176,-0.000305176,-2.42745,0.0559862,-0.075063,0.0519917,0.0172594,-0.0986396,0.145929,-0.127903,-0.0819601,0.0130463,0.0602722,0.0454712,0.0289154,-0.0178146,0.000801086,-0.00423431,0.0102997,-9.97986,0.0149536,0.0056839,0.013237,-0.115891,0.0224686,-0.00911713,0.0172043,0.0128937
39,8,0.0020316,0.000610352,-0.00244141,-2.4247,0.0572069,-0.0735371,0.0544332,-0.00440808,-0.095893,0.145013,-0.128513,-0.0807394,0.01297,0.0377655,0.0336838,0.0239182,-0.0101471,-0.00427246,-0.00198364,0.0148773,-9.97986,0.0144577,0.00125885,0.00762939,-0.0939941,0.0223923,-0.0126648,0.014801,0.0110626
39,9,-7.15159,-0.000305176,-0.00350952,-2.42684,0.0569017,-0.0741475,0.0535176,-0.018141,-0.0974189,0.145929,-0.130344,-0.0804342,0.0104523,0.00892639,0.00797272,0.0273895,-0.0143433,-0.00247955,-0.000572205,0.0178528,-9.97986,0.0149536,0.00038147,0.00991821,-0.0770187,0.0250626,-0.0134277,0.0117111,0.0131607
40,0,-9.99003,0.000305176,-0.0012207,-2.42531,0.055681,-0.0735371,0.055959,0.00901965,-0.0919257,0.146844,-0.128513,-0.0816549,0.0113297,-0.00713348,-0.000305176,0.0253296,-0.0114059,0.000572205,-0.00534058,0.0327682,-9.97986,0.0149536,-0.00328064,0.014534,-0.0595474,0.0164795,-0.00724792,0.01091,0.0135422
40,1,-9.99003,0.000610352,0.000305176,-2.42409,0.0553758,-0.0741475,0.0556539,0.0453356,-0.0900947,0.145929,-0.126072,-0.080129,0.0134277,-0.00854492,0.00484467,0.0281525,-0.0133514,0.00297546,-0.00926971,0.0419998,-9.97986,0.013237,-0.00411987,0.0117111,-0.043869,0.00213623,-0.00835419,0.0153351,0.00835419
40,2,-9.99003,0.000305176,0.00137329,-2.42592,0.0550706,-0.0744527,0.0553487,0.058153,-0.090705,0.145013,-0.126987,-0.0813497,0.011673,-0.00213623,-3.8147e-005,0.0143051,-0.0159836,-0.00038147,-0.0119781,0.0465775,-9.97986,0.0141144,-0.00846863,0.00766754,-0.0252533,0.00572205,-0.00724792,0.014801,0.0101852
40,3,-9.99003,0.0012207,0.00213623,-2.42714,0.0544603,-0.0747579,0.0544332,0.0657823,-0.0919257,0.145318,-0.127292,-0.0831808,0.00926971,0.00183105,-0.00148773,0.00953674,-0.0130844,-0.00038147,-0.00743866,0.0914764,-9.97986,0.0137711,-0.00587463,0.00843048,-0.00141144,0.00953674,-0.00881195,0.0136948,0.0131607
