
Devices
1200
,,BP Load cell - Voltage,String Length - Voltage,Clutch Active - Voltage,#7 iPecs - Voltage,,,,,,,,,EMG 1-8 Left - Voltage,,,,,,,,Pylon Force - Voltage,EMG 9-16 Right - Voltage,,,,,,,,
Frame,Sub Frame,BP Load Cell,String Length,From Arduino Logic,A45,A135,A225,A315,S0,S90,S180,S270,ZSum,EMG 1 Glut Max,EMG 2 Glut Med,EMG 3 Biceps Femoris Long,EMG 4 Rectus Femoris,EMG 5 Vastus Medialis,EMG 6 Tib Ant,EMG 7 Med Gas,EMG 8 Soleus,Pylon volts,EMG 9 Glut Max,EMG 10 Glut Med,EMG 11 Biceps Femoris Long,EMG 12 Rectus Femoris,EMG 13 Vastus Medialis,EMG 14 Tib Ant,EMG 15 Med Gas,EMG 16 Soleus
,,V,V,V,V,V,V,V,V,V,V,V,V,V,V,V,V,V,V,V,V,V,V,V,V,V,V,V,V,V
1,0,-9.99003,0.000915527,-0.000457764,-2.42653,0.055681,-0.0735371,0.054128,0.0605944,-0.0913154,0.145624,-0.126072,-0.0822652,0.014267,0.0233078,0.019722,0.0164795,0.0204086,0.01091,0.0260544,0.00522614,-9.97986,0.00984192,0.000686646,0.0151062,0.00892639,-0.00312805,-0.0063324,0.0175476,0.00507355
1,1,-9.99003,0.0012207,-0.000152588,-2.42562,0.0544603,-0.0735371,0.0556539,0.0737169,-0.0894843,0.144708,-0.125766,-0.0828756,0.0131607,0.0222778,0.0182724,0.0120926,0.0147247,0.0129318,0.0242996,0.00858307,-9.97986,0.0181961,0.00392914,0.0130844,0.00671387,-0.00324249,-0.00770569,0.0159836,0.00762939
1,2,-9.60979,0.00274658,0.00259399,-2.42531,0.0544603,-0.0741475,0.0571797,0.130785,-0.0849067,0.145624,-0.121494,-0.0825704,0.0102234,0.0248718,0.0185013,0.0104523,0.0205994,0.0117493,0.0228119,0.0183868,-9.97986,0.0165939,0.00679016,0.0166321,0.00553131,0.0183868,-0.00656128,0.0165558,0.00717163
1,3,-1.72252,0.00213623,0.00366211,-2.42745,0.0547655,-0.075063,0.0553487,0.146044,-0.0861274,0.143182,-0.121494,-0.0840963,0.0120544,0.0250244,0.02285,0.0127792,0.0148773,0.0125122,0.021553,0.0223923,-9.97986,0.0154877,0.00331879,0.0127411,0.00606537,0.0165176,-0.00774384,0.0159836,0.00385284
1,4,6.386,0,0.00427246,-2.42837,0.0535448,-0.075063,0.0532125,0.152757,-0.0891792,0.143487,-0.121189,-0.0859274,0.0143433,0.0289536,0.0220108,0.0155258,0.0177002,0.011673,0.0218582,0.0175858,-9.97986,0.017128,0.00663757,0.0177765,0.0056076,0.0241089,-0.00385284,0.0153732,0.00793457
1,5,10.0097,0.0012207,0.0038147,-2.42928,0.0529344,-0.0765889,0.0513814,0.131395,-0.0952827,0.142877,-0.124241,-0.0874532,0.0101852,0.0178146,0.0218964,0.013237,0.0147247,0.0125885,0.0220871,0.0130463,-9.97986,0.0178528,0.00453949,0.0158691,0.00205994,0.0216675,-0.00087738,0.0190735,0.00766754
1,6,10.0097,-0.000305176,0.0012207,-2.42989,0.0538499,-0.0768941,0.0501607,0.0911119,-0.0971137,0.143182,-0.125461,-0.0880636,0.0109863,0.0236893,0.0146103,0.0128174,0.0194168,0.0117111,0.0191498,0.0171661,-9.97986,0.0146103,-0.00419617,0.0113678,0.00087738,0.0174713,-0.00427246,0.0123596,0.00133514
1,7,10.0097,0.000915527,0,-2.4305,0.0544603,-0.0756734,0.0510762,0.0798204,-0.095893,0.143792,-0.126377,-0.0880636,0.00976563,0.0242615,0.017395,0.0120163,0.018158,0.00946045,0.0228119,0.0118256,-9.97986,0.0193024,-0.00148773,0.0179672,0.00450134,0.025177,0.00530243,0.0183868,0.00957489
1,8,10.0097,-0.0012207,-0.000152588,-2.42837,0.0544603,-0.0759786,0.0516866,0.0740221,-0.0946723,0.144098,-0.126987,-0.0850118,0.0136948,0.0191116,0.0193024,0.0128937,0.0136566,0.00915527,0.0224686,0.0162506,-9.97986,0.0162506,-0.00289917,0.0130463,0.0025177,0.0197983,-0.0031662,0.0165939,0.00667572
1,9,10.0097,0.000305176,-0.000457764,-2.42653,0.0541551,-0.0753682,0.0526021,0.0715807,-0.0946723,0.144403,-0.126377,-0.0850118,0.0114059,0.0319672,0.0234985,0.0119781,0.0174713,0.0141144,0.020256,0.0218201,-9.97986,0.0170898,-0.00221252,0.0186157,0.00255585,0.0192642,-0.00701904,0.0142288,0.00801086
2,0,10.0097,0.00274658,0,-2.42592,0.0547655,-0.0762837,0.0532125,0.0715807,-0.0946723,0.145624,-0.126072,-0.0837911,0.0112915,0.0374603,0.0230408,0.0110626,0.0190735,0.0101089,0.0242615,0.0170517,-9.97986,0.0168228,-0.000839233,0.0130844,0.00202179,0.0180817,-0.00846863,0.0156403,0.00774384
2,1,10.0097,-0.000915527,0.000305176,-2.42592,0.0550706,-0.0747579,0.0538228,0.0706652,-0.0925361,0.146234,-0.125766,-0.0844015,0.00888824,0.0231934,0.0211334,0.0123978,0.0190353,0.0112152,0.0200272,0.0206757,-9.97986,0.013504,0.00347137,0.0167465,0.00156403,0.0209808,-0.00675201,0.0167847,0.00644684
2,2,10.0097,0.000610352,0.000305176,-2.42592,0.055681,-0.0735371,0.0550435,0.0724962,-0.0928413,0.146234,-0.124851,-0.0825704,0.0119019,0.0162506,0.019722,0.0120163,0.0174713,0.00953674,0.0204849,0.0183105,-9.97986,0.0141144,0.00347137,0.0149155,0.00205994,0.0240326,-0.0050354,0.0146484,0.00640869
2,3,10.0097,0.00183105,0.000457764,-2.42562,0.0578172,-0.073232,0.054128,0.0712755,-0.0916206,0.146539,-0.124241,-0.0819601,0.0138474,0.0115585,0.017128,0.0116348,0.0178528,0.0106049,0.0239944,0.021553,-9.97986,0.0152206,0.00362396,0.0162125,0.00549316,0.017395,-0.00492096,0.0181961,0.0104523
2,4,10.0097,-0.000305176,0.000457764,-2.42684,0.055681,-0.0735371,0.0535176,0.0535753,-0.0949775,0.145624,-0.124546,-0.0819601,0.00938416,0.00900269,0.0178909,0.0133133,0.0226974,0.00743866,0.0205612,0.0186539,-9.97986,0.0165558,-0.00480652,0.018959,0.000114441,0.0220871,-0.00419617,0.011673,0.00648499
2,5,8.3318,0.000610352,-0.00228882,-2.42776,0.055681,-0.0744527,0.0513814,0.00749377,-0.0995551,0.145929,-0.129734,-0.0822652,0.00801086,0.0165176,0.0179672,0.0128174,0.0193024,0.0144958,0.0189209,0.0221252,-9.97986,0.0175476,-0.00362396,0.016861,-0.00087738,0.0195694,-0.00808716,0.0117493,0.00640869
2,6,-0.891218,0.00152588,-0.00457764,-2.42531,0.0565965,-0.0738423,0.0535176,-0.00532361,-0.0965034,0.147455,-0.129123,-0.0822652,0.0109863,0.0159836,0.0171661,0.012207,0.019722,0.0115585,0.02388,0.0228882,-9.97986,0.0144577,-0.000686646,0.0162125,-0.00133514,0.0197601,-0.00579834,0.00839233,0.00637054
2,7,-7.82237,0.0012207,-0.00457764,-2.42623,0.055681,-0.0735371,0.0532125,-0.0175306,-0.0968086,0.146539,-0.130039,-0.0813497,0.00282288,0.0140762,0.0120926,0.0120163,0.0183487,0.00888824,0.021286,0.0207901,-9.97986,0.0173569,-0.00366211,0.01091,-0.000495911,0.02285,-0.0141525,0.0172806,0.00862122
2,8,-9.99003,-0.000305176,-0.0038147,-2.42592,0.0572069,-0.0738423,0.055959,0.0135973,-0.0925361,0.147149,-0.128208,-0.0813497,0.00946045,0.0148773,0.0087738,0.0104523,0.0192642,0.0104141,0.0238419,0.0264359,-9.97986,0.0157928,-0.00644684,0.0148392,-0.00144958,0.00778198,-0.0210953,0.0159836,0.00545502
2,9,-9.99003,0.000915527,-0.000762939,-2.42501,0.0559862,-0.0735371,0.0565694,0.0471666,-0.0897895,0.144708,-0.127292,-0.0810445,0.0130844,0.0225449,0.0157547,0.0109482,0.0172043,0.012207,0.0255203,0.0286484,-9.97986,0.0152588,-0.0087738,0.0170135,0.00164032,-0.00480652,-0.0149536,0.0152206,0.00808716
3,0,-9.99003,-0.000305176,-0.000457764,-2.42531,0.0544603,-0.0753682,0.054128,0.0605944,-0.0913154,0.145318,-0.126072,-0.0825704,0.0087738,0.0172043,0.0171661,0.0159454,0.0166702,0.00743866,0.0270462,0.0219727,-9.97986,0.0175476,-0.0063324,0.0176239,0.00225067,-0.00267029,-0.00816345,0.0169754,0.00881195
3,1,-9.99003,-0.000305176,0.000305176,-2.42562,0.0562914,-0.0747579,0.0550435,0.0737169,-0.0897895,0.145318,-0.125461,-0.0825704,0.00835419,0.0170517,0.0179672,0.0111389,0.0162888,0.0112915,0.0274277,0.0131989,-9.97986,0.0175858,-0.00450134,0.0163651,0.00331879,-0.00495911,-0.00232697,0.0153732,0.00751495
3,2,-9.48955,0.00152588,0.00274658,-2.4247,0.0553758,-0.0756734,0.0574849,0.1317,-0.0855171,0.145318,-0.121494,-0.0822652,0.0113678,0.0236893,0.019989,0.0125885,0.0154877,0.0101471,0.0209427,0.0127029,-9.97986,0.0134659,0.00457764,0.0164032,0.000991821,0.0170135,-0.000267029,0.0176239,0.00778198
3,3,-1.63493,0,0.00335693,-2.42684,0.0541551,-0.0753682,0.0550435,0.147875,-0.0882636,0.145013,-0.12241,-0.0834859,0.0152588,0.0230789,0.0208664,0.00881195,0.0164032,0.0100708,0.0214767,0.0130081,-9.97986,0.0143433,0.00759125,0.0144958,0.000648499,0.0188446,0.00656128,0.0151443,0.00366211
3,4,6.39577,0.000610352,0.00457764,-2.42837,0.0541551,-0.0765889,0.0544332,0.153063,-0.0894843,0.143792,-0.120578,-0.0847066,0.01297,0.0242996,0.0180054,0.0115204,0.0165939,0.00911713,0.0254059,0.0180817,-9.97986,0.0140381,0.00644684,0.0151825,-0.000762939,0.0226212,0.00400543,0.0133133,0.00667572
3,5,10.0097,0,0.00411987,-2.4305,0.0529344,-0.0756734,0.050771,0.129869,-0.0949775,0.142572,-0.123935,-0.0883688,0.0132751,0.0212479,0.0209045,0.00995636,0.0141907,0.00720978,0.0196457,0.014267,-9.97986,0.0140381,0.00152588,0.0146484,-0.00217438,0.0194931,-0.00270844,0.0157547,0.00453949
3,6,10.0097,0.000305176,0.0012207,-2.42928,0.0532396,-0.0771993,0.050771,0.0920275,-0.0971137,0.143182,-0.126682,-0.0877584,0.0135803,0.0213242,0.0209045,0.0108719,0.0156403,0.00934601,0.0205994,0.0141144,-9.97986,0.0162888,0.00656128,0.0148392,-0.0018692,0.0226212,0.0031662,0.0139618,0.00514984
3,7,10.0097,0.000305176,0.000152588,-2.42928,0.0532396,-0.0759786,0.050771,0.0789049,-0.0961982,0.141961,-0.126682,-0.0874532,0.00751495,0.0206757,0.0175095,0.00793457,0.0135422,0.0101852,0.0242233,0.013504,-9.97986,0.0154114,0.00530243,0.0155258,-0.000152588,0.0211334,0.00778198,0.0190353,0.00682831
3,8,10.0097,0.00152588,0.000152588,-2.42806,0.0550706,-0.0762837,0.0526021,0.0752428,-0.0952827,0.143792,-0.127598,-0.0859274,0.00865936,0.019455,0.018158,0.00896454,0.0174332,0.00629425,0.0212097,0.01297,-9.97986,0.0165939,-0.00362396,0.0100708,-0.00324249,0.0215149,0.00846863,0.0193024,0.0063324
3,9,10.0097,-0.000305176,0.000762939,-2.42837,0.0535448,-0.0744527,0.0535176,0.0712755,-0.0943672,0.145318,-0.125766,-0.0850118,0.014267,0.0226212,0.0244522,0.0107193,0.0141907,0.010376,0.0197983,0.0201797,-9.97986,0.0137711,-0.000534058,0.0162888,-0.000343323,0.0215149,0.00789642,0.0156403,0.00656128
4,0,10.0097,0.00213623,0.000305176,-2.42714,0.0559862,-0.0747579,0.0522969,0.0712755,-0.0931465,0.144708,-0.126072,-0.0840963,0.0101852,0.0299072,0.0211334,0.00900269,0.0173187,0.010376,0.0231552,0.021019,-9.97986,0.0114441,0.00114441,0.0119019,0.00205994,0.0174332,0.00835419,0.0139618,0.00530243
4,1,10.0097,0.00152588,0.000915527,-2.42684,0.0535448,-0.0747579,0.054128,0.0709703,-0.094062,0.145624,-0.125156,-0.0840963,0.00911713,0.0269318,0.0214767,0.0088501,0.0168991,0.00854492,0.0249481,0.0172043,-9.97986,0.013504,-0.0044632,0.0143051,0.00293732,0.0204849,0.00736237,0.0138474,0.00789642
4,2,10.0097,-0.000915527,0.000152588,-2.42501,0.0559862,-0.073232,0.0538228,0.0709703,-0.0903999,0.145929,-0.124851,-0.0816549,0.0114441,0.0335693,0.0199509,0.00553131,0.0167847,0.0125122,0.0233841,0.0234604,-9.97986,0.0159836,-0.00312805,0.0170517,0.001297,0.022583,-0.00476837,0.0156403,0.00709534
4,3,10.0097,0.0012207,-0.000152588,-2.42562,0.055681,-0.0735371,0.0550435,0.072191,-0.0922309,0.145929,-0.125156,-0.0810445,0.0135422,0.0291824,0.0227737,0.00976563,0.0177002,0.00896454,0.0214005,0.0207901,-9.97986,0.015564,-0.00106812,0.0164413,-0.00205994,0.0198746,-0.00335693,0.0149918,0.00659943
4,4,10.0097,-0.00213623,0.000762939,-2.42684,0.0559862,-0.075063,0.0535176,0.0541857,-0.094062,0.145318,-0.125156,-0.0822652,0.00968933,0.0321198,0.0212479,0.0117493,0.0164032,0.0110245,0.0253677,0.0210571,-9.97986,0.0133514,0.00263214,0.0131989,-0.0031662,0.0228119,-0.00232697,0.0124359,0.00564575
4,5,8.36141,-0.00183105,-0.00213623,-2.42653,0.0562914,-0.0738423,0.0522969,0.00749377,-0.0989448,0.145624,-0.129123,-0.0837911,0.0103378,0.0270081,0.0183487,0.00709534,0.0134659,0.00831604,0.0214005,0.0162125,-9.97986,0.0157166,0.00984192,0.0118637,-0.00038147,0.0186539,-0.000152588,0.0141525,0.0044632
4,6,-0.91258,0.000610352,-0.00518799,-2.42501,0.0565965,-0.073232,0.0535176,-0.00562879,-0.0965034,0.14776,-0.129734,-0.0813497,0.0140381,0.0336075,0.0206375,0.00938416,0.0185776,0.0125122,0.0204849,0.0190353,-9.97986,0.0143051,0.00919342,0.0137711,-0.00415802,0.020256,0.0025177,0.0143051,0.00762939
4,7,-7.85899,0.000915527,-0.00457764,-2.4247,0.0562914,-0.0735371,0.054128,-0.0187513,-0.0968086,0.147149,-0.130039,-0.0819601,0.00747681,0.0326538,0.0230789,0.00705719,0.0169373,0.0111771,0.0225449,0.0162888,-9.97986,0.0120163,0.00682831,0.0150681,-0.0019455,0.0167084,-0.00270844,0.0176239,0.00862122
4,8,-9.99003,0.000915527,-0.00335693,-2.42409,0.0572069,-0.0738423,0.0556539,0.0139025,-0.0925361,0.146234,-0.126987,-0.0807394,0.0126648,0.0325775,0.0136185,0.00465393,0.0157547,0.00957489,0.0257111,0.0273895,-9.97986,0.0141907,-0.000686646,0.013237,0.000114441,0.00247955,-0.00583649,0.0162125,0.00892639
4,9,-9.99003,0.000915527,-0.00106812,-2.42501,0.0559862,-0.0726216,0.0565694,0.0462511,-0.0903999,0.146539,-0.126987,-0.0810445,0.00900269,0.032959,0.0136566,0.010643,0.0196838,0.013237,0.0247955,0.0243378,-9.97986,0.0144958,-0.00106812,0.0160599,0.00175476,-0.00488281,-0.0062561,0.0156403,0.0069809
5,0,-9.99003,0,0.000152588,-2.42623,0.0541551,-0.0747579,0.0553487,0.0584581,-0.0900947,0.145624,-0.126072,-0.0810445,0.00751495,0.0330734,0.0183105,0.0115967,0.0185776,0.0148392,0.0252914,0.0175858,-9.97986,0.0127411,-0.00968933,0.0125122,0.00434875,-0.00549316,-0.0111389,0.0151443,0.00583649
5,1,-9.99003,0.000610352,0.000152588,-2.42684,0.055681,-0.0747579,0.0544332,0.0761583,-0.0903999,0.145624,-0.125766,-0.0828756,0.00957489,0.0387192,0.0153351,0.00980377,0.0164795,0.0130844,0.0237274,0.0135422,-9.97986,0.00953674,-0.0175095,0.0134277,0.00461578,-0.00171661,-0.0153732,0.0151825,0.00900269
5,2,-9.44804,0.000610352,0.00289917,-2.42684,0.0541551,-0.0753682,0.0565694,0.13048,-0.0861274,0.145624,-0.121494,-0.0822652,0.0127029,0.031929,0.0150681,0.0123596,0.017662,0.0112152,0.0250244,0.0180817,-9.97986,0.0138855,-0.0152969,0.0140381,0.00473022,0.0204468,-0.011673,0.0135422,0.00823975
5,3,-1.56596,0.000305176,0.00335693,-2.42653,0.0541551,-0.0753682,0.0547383,0.146959,-0.0873481,0.144403,-0.119663,-0.0834859,0.0132751,0.0249481,0.014801,0.0150681,0.0162506,0.00808716,0.0246048,0.0141525,-9.97986,0.0165176,-0.0180435,0.0138474,0.00350952,0.0172043,-0.00476837,0.0134277,0.00614166
5,4,6.45375,0,0.00488281,-2.42806,0.0532396,-0.0768941,0.0532125,0.153063,-0.0903999,0.143487,-0.121799,-0.0847066,0.0140381,0.0169754,0.00862122,0.0117111,0.0169754,0.01194,0.024147,0.0121689,-9.97986,0.0120926,-0.00507355,0.0130081,0.00347137,0.0226212,0.00888824,0.0178146,0.00282288
5,5,10.0097,0.000610352,0.00411987,-2.42959,0.0523241,-0.0759786,0.0513814,0.128954,-0.0946723,0.142572,-0.123325,-0.0877584,0.0111389,0.0138855,0.0175858,0.00919342,0.0185013,0.0105667,0.0230789,0.0156403,-9.97986,0.0130081,0.00549316,0.0169754,0.00679016,0.0196075,0.0227737,0.0151062,0.00640869
5,6,10.0097,0.000610352,0.0012207,-2.4305,0.0544603,-0.075063,0.0513814,0.0911119,-0.0974189,0.142572,-0.126377,-0.0883688,0.0136185,0.0107574,0.0143051,0.0143051,0.0123215,0.0115585,0.0238419,0.0165558,-9.97986,0.0201416,0.0175095,0.0162506,0.00610352,0.0224304,0.0253677,0.0157166,0.00843048
5,7,10.0097,0.0012207,0,-2.42959,0.0535448,-0.0775044,0.050771,0.0779894,-0.0971137,0.143487,-0.125766,-0.0877584,0.0101852,0.0123215,0.0163269,0.0119781,0.018692,0.0101089,0.0240326,0.0165176,-9.97986,0.0159454,0.0136948,0.00991821,-0.000839233,0.0202179,0.0244904,0.015564,0.00602722
5,8,10.0097,0.00305176,-0.000152588,-2.42837,0.0550706,-0.075063,0.0516866,0.0737169,-0.0946723,0.143487,-0.126072,-0.0862325,0.0131607,0.0215149,0.0183487,0.0117874,0.0180054,0.0120926,0.021553,0.0166321,-9.97986,0.0163269,0.00347137,0.0164413,-0.00358582,0.0159454,0.0202179,0.0165939,0.0063324
5,9,10.0097,0.00183105,0.000457764,-2.42684,0.0559862,-0.0753682,0.0532125,0.0718859,-0.0934516,0.145318,-0.126377,-0.0859274,0.00896454,0.0240707,0.0148392,0.00961304,0.0157547,0.00923157,0.0233841,0.0153732,-9.97986,0.014534,-0.00865936,0.0173187,0.0037384,0.0199127,0.0114441,0.0173569,0.00545502
6,0,10.0097,0.000305176,0.000915527,-2.42714,0.0541551,-0.0741475,0.054128,0.0712755,-0.0928413,0.145013,-0.126072,-0.0844015,0.0145721,0.0281143,0.0168228,0.0111008,0.0162888,0.00919342,0.0241852,0.0152969,-9.97986,0.0156403,-0.0117874,0.0139999,0.00247955,0.0196075,0.00408173,0.0160217,0.00499725
6,1,10.0097,0.000610352,-0.000152588,-2.42623,0.055681,-0.0747579,0.0535176,0.0715807,-0.0922309,0.145624,-0.125461,-0.0834859,0.0143051,0.0301743,0.0183487,0.0117493,0.0160217,0.00831604,0.0225067,0.0213623,-9.97986,0.0157166,-0.00473022,0.0151825,0.00278473,0.0194168,-0.00621796,0.014801,0.00614166
6,2,10.0097,0.00152588,0.000152588,-2.42562,0.0562914,-0.0735371,0.0547383,0.0724962,-0.0913154,0.146539,-0.124546,-0.0819601,0.0119781,0.0330353,0.022049,0.00926971,0.0197983,0.0125885,0.0231934,0.0177383,-9.97986,0.011673,-0.000419617,0.0130844,0.0056839,0.0143051,-0.00492096,0.015564,0.00926971
6,3,10.0097,0,-0.000152588,-2.42379,0.0569017,-0.0744527,0.0562642,0.0715807,-0.0913154,0.146539,-0.124241,-0.0807394,0.0117111,0.0211716,0.0156403,0.0120926,0.0155258,0.00846863,0.0220108,0.0179291,-9.97986,0.0151062,-0.00495911,0.0153351,0.00652313,0.0163269,-0.00743866,0.0150299,0.00972748
6,4,10.0097,-0.00213623,0.000152588,-2.42837,0.0553758,-0.0747579,0.0526021,0.0517443,-0.0955879,0.146234,-0.125766,-0.0825704,0.00808716,0.0155258,0.0175476,0.0117874,0.0169754,0.0128174,0.0204849,0.0223923,-9.97986,0.0160599,-0.00392914,0.0128555,0.00415802,0.0154495,-0.0168228,0.015564,0.00602722
6,5,8.10933,0.000305176,-0.00228882,-2.42653,0.0565965,-0.0744527,0.0519917,0.00749377,-0.0980293,0.145013,-0.128818,-0.0831808,0.0125504,0.0140381,0.0163269,0.0112534,0.017395,0.0117111,0.02285,0.0200272,-9.97986,0.0183487,-0.00957489,0.0147247,0.00431061,0.0173187,-0.0164413,0.0168228,0.00450134
6,6,-1.11583,0.000610352,-0.00457764,-2.42623,0.0559862,-0.0738423,0.0526021,-0.00562879,-0.0965034,0.147455,-0.129429,-0.0816549,0.0128174,0.0211334,0.0252914,0.0125122,0.0139999,0.0155258,0.0229645,0.0218582,-9.97986,0.0141907,-0.00778198,0.0125504,0.00518799,0.0169754,-0.0137711,0.0187302,0.00843048
6,7,-8.06712,0.0012207,-0.00411987,-2.42501,0.0565965,-0.0738423,0.054128,-0.0169203,-0.0968086,0.146539,-0.129734,-0.0825704,0.00740051,0.0202179,0.018692,0.00904083,0.0147247,0.0120163,0.0218201,0.022049,-9.97986,0.0143814,-0.010643,0.0153351,0.00236511,0.0165558,-0.0220108,0.018158,0.00621796
6,8,-9.99003,0.000610352,-0.00274658,-2.42531,0.0562914,-0.0729268,0.0556539,0.0139025,-0.0925361,0.146539,-0.127903,-0.0816549,0.00919342,0.0202179,0.0167084,0.0128937,0.0166321,0.00991821,0.0267029,0.0230789,-9.97986,0.0144196,-0.00331879,0.0150681,0.00797272,-0.00335693,-0.0139236,0.015564,0.00823975
6,9,-9.99003,0.000305176,-0.000915527,-2.42653,0.0553758,-0.0744527,0.0556539,0.0483873,-0.0897895,0.146844,-0.125766,-0.0816549,0.0143814,0.0169373,0.0182724,0.0125122,0.014801,0.0115204,0.0233459,0.0197601,-9.97986,0.0139999,-0.00202179,0.0145721,0.00621796,-0.00930786,-0.00938416,0.0143433,0.00476837
7,0,-9.99003,0.00213623,-0.000152588,-2.42684,0.0547655,-0.0744527,0.0553487,0.0612047,-0.090705,0.145318,-0.126072,-0.0816549,0.0119781,0.0166321,0.0205612,0.0069046,0.0151443,0.00980377,0.0235748,0.0191116,-9.97986,0.0125122,0.00114441,0.0170898,0.00598907,-0.0112915,-0.0056076,0.0150299,0.00682831
7,1,-9.99003,-0.000610352,0.000152588,-2.42531,0.0547655,-0.0744527,0.0547383,0.0718859,-0.0913154,0.145318,-0.126377,-0.0831808,0.00930786,0.0194168,0.0199127,0.0136948,0.0149918,0.0120163,0.0218582,0.0160217,-9.97986,0.0148773,0.00404358,0.0131607,0.00999451,-0.00743866,-0.00865936,0.0146866,0.00682831
7,2,-9.7819,0.000610352,0.00274658,-2.42562,0.055681,-0.0735371,0.0571797,0.13109,-0.0855171,0.145624,-0.121189,-0.0822652,0.00656128,0.025177,0.0246048,0.0114441,0.013504,0.0111771,0.0219345,0.0164032,-9.97986,0.0178146,0.00644684,0.0125885,0.00812531,0.0166702,-0.00720978,0.0213623,0.00751495
7,3,-1.92576,0.000305176,0.00350952,-2.42684,0.0541551,-0.0762837,0.055959,0.145433,-0.0879585,0.144403,-0.121799,-0.0847066,0.0087738,0.0267029,0.0183868,0.00522614,0.0162506,0.0115967,0.021286,0.0113297,-9.97986,0.0155258,0.00137329,0.0177002,0.0063324,0.0114059,-0.00450134,0.0177765,0.00579834
7,4,6.17543,0,0.00457764,-2.42684,0.0535448,-0.0756734,0.0538228,0.152757,-0.0900947,0.143182,-0.121799,-0.085317,0.0120544,0.0310898,0.0205231,0.011673,0.0189209,0.0102997,0.0203705,0.00999451,-9.97986,0.0135803,-0.00453949,0.0160217,0.00976563,0.0115585,-0.0056076,0.0178528,0.0044632
7,5,10.0097,0,0.00473022,-2.43081,0.0523241,-0.0765889,0.0513814,0.132311,-0.0952827,0.144403,-0.123325,-0.0877584,0.0120163,0.031662,0.0183487,0.0110245,0.0156403,0.0125885,0.0222015,0.0117493,-9.97986,0.0147629,0.000534058,0.0139999,0.00965118,0.0168991,-0.00793457,0.0189209,0.00644684
7,6,10.0097,0.00213623,0.000915527,-2.43111,0.0550706,-0.0765889,0.0495503,0.0935533,-0.0961982,0.143182,-0.125461,-0.0886739,0.0120544,0.033226,0.0212097,0.0104141,0.0131607,0.0135422,0.0249481,0.021553,-9.97986,0.0170517,-0.00350952,0.0107193,0.0130463,0.0144196,-0.00801086,0.0203705,0.0069046
7,7,10.0097,-0.000610352,0.000152588,-2.4302,0.0541551,-0.0753682,0.050771,0.0795153,-0.0971137,0.142572,-0.126987,-0.0877584,0.0133514,0.0342941,0.021019,0.00900269,0.0177002,0.0110245,0.0243378,0.0211334,-9.97986,0.012207,-0.00988007,0.0146866,0.00602722,0.0139999,-0.00732422,0.0186157,0.00404358
7,8,10.0097,0.000305176,-0.000305176,-2.42806,0.0535448,-0.0747579,0.0529073,0.0743273,-0.0949775,0.144098,-0.126072,-0.0862325,0.0107193,0.0328445,0.0243759,0.010643,0.0180817,0.0124359,0.022049,0.0243759,-9.97986,0.0121689,-0.00881195,0.0163269,0.0110626,0.0164413,-0.00648499,0.0146103,0.00591278
7,9,10.0097,-0.000610352,0.000610352,-2.42806,0.0544603,-0.075063,0.0516866,0.0718859,-0.0949775,0.144708,-0.126377,-0.085317,0.0104141,0.0390244,0.0230408,0.0110626,0.0204468,0.0134277,0.022316,0.0260925,-9.97986,0.0153732,-0.000610352,0.0127029,0.0117111,0.0159073,-0.00190735,0.0167847,0.0037384
8,0,10.0097,0.00183105,0.000915527,-2.42714,0.0550706,-0.0741475,0.0535176,0.072191,-0.0937568,0.145929,-0.126682,-0.0844015,0.0117111,0.0355148,0.0218964,0.0094223,0.0146866,0.0103378,0.0253296,0.0214386,-9.97986,0.0107956,0.00389099,0.0117111,0.0127029,0.0166702,-0.00484467,0.0169754,0.00587463
8,1,10.0097,-0.000305176,0.000457764,-2.42714,0.0550706,-0.075063,0.0547383,0.072191,-0.0919257,0.145624,-0.126682,-0.0847066,0.0103378,0.0380325,0.0214005,0.011673,0.0131989,0.0131989,0.02491,0.0185394,-9.97986,0.0100327,0.0101089,0.0151443,0.00839233,0.0195694,-0.00274658,0.0197601,0.00530243
8,2,10.0097,0.00152588,0,-2.42592,0.0553758,-0.0738423,0.0550435,0.0709703,-0.0928413,0.146539,-0.123935,-0.0816549,0.0102997,0.0351334,0.0197601,0.00972748,0.0178146,0.00923157,0.0234222,0.0139618,-9.97986,0.0069046,0.00782013,0.0149155,0.00679016,0.0128555,0.00289917,0.0152588,0.00617981
8,3,10.0097,-0.000305176,0,-2.4244,0.0553758,-0.0744527,0.054128,0.072191,-0.0919257,0.145318,-0.123935,-0.0810445,0.0106049,0.0228119,0.0126266,0.013237,0.0137329,0.0109863,0.0236893,0.0171661,-9.97986,0.013504,0.00183105,0.0175858,0.00423431,0.0162125,0.00389099,0.0175858,0.0082016
8,4,10.0097,0.000915527,-0.000457764,-2.42653,0.055681,-0.075063,0.0519917,0.0523546,-0.0937568,0.146539,-0.126072,-0.0825704,0.01091,0.00671387,0.00549316,0.0107956,0.0164032,0.0128937,0.0248718,0.0102234,-9.97986,0.0140381,-0.000190735,0.0144577,0.0102615,0.0143433,-0.00244141,0.0174332,0.00518799
8,5,8.17159,-0.000305176,-0.00198364,-2.42776,0.0562914,-0.073232,0.0522969,0.0071886,-0.09925,0.145929,-0.130039,-0.0834859,0.0113678,0.00873566,0.00995636,0.0128937,0.021019,0.00904083,0.0250244,0.0143814,-9.97986,0.0172043,-0.000457764,0.0121307,0.0087738,0.0145721,-0.000267029,0.0167465,0.00576019
8,6,-1.14421,-0.000305176,-0.00427246,-2.42592,0.0559862,-0.0726216,0.0535176,-0.00654431,-0.095893,0.146539,-0.128513,-0.0810445,0.0112152,0.0075531,0.0111771,0.0133133,0.0149155,0.0144577,0.025177,0.0137329,-9.97986,0.0192642,0.00110626,0.0144577,0.00659943,0.0193405,0.00278473,0.0180054,0.00411987
8,7,-8.08024,0.0012207,-0.00457764,-2.42592,0.0562914,-0.0735371,0.0535176,-0.0178358,-0.095893,0.147455,-0.130649,-0.0816549,0.0130463,-0.001297,0.011673,0.0139999,0.0200653,0.0125885,0.0216675,0.0118256,-9.97986,0.0172806,-0.0018692,0.0113297,0.00938416,0.0164032,-0.00087738,0.0165558,0.00793457
8,8,-9.99003,0.0012207,-0.00366211,-2.42531,0.0562914,-0.0735371,0.0562642,0.0142076,-0.0937568,0.147455,-0.127598,-0.0804342,0.00450134,0.00175476,0.0138092,0.0127792,0.0158691,0.00782013,0.022049,0.0117493,-9.97986,0.0151443,0.000724792,0.0150681,0.00991821,-0.00549316,-0.00476837,0.0159836,0.0082016
8,9,-9.99003,-0.000305176,-0.000915527,-2.42531,0.0559862,-0.073232,0.0556539,0.0493029,-0.0900947,0.144708,-0.126072,-0.0810445,0.0114441,0.014267,0.0164795,0.0128174,0.0179291,0.0123215,0.0247192,0.0184631,-9.97986,0.0171661,-0.000991821,0.0152206,0.00495911,-0.00732422,-0.00545502,0.0196838,0.00652313
9,0,-9.99003,0,-0.000152588,-2.42684,0.0550706,-0.0747579,0.0550435,0.0605944,-0.0916206,0.145013,-0.125461,-0.0825704,0.0152969,0.0141144,0.0188446,0.0142288,0.0143433,0.0117111,0.02285,0.0141144,-9.97986,0.0138092,0.00686646,0.0133133,0.00995636,-0.00629425,-0.00522614,0.0143814,0.00526428
9,1,-9.99003,0.000915527,0,-2.42653,0.0547655,-0.0744527,0.0550435,0.0700548,-0.0910102,0.145929,-0.125766,-0.0825704,0.0102234,0.0213242,0.0152206,0.0142288,0.0174332,0.0118637,0.0223541,0.0135803,-9.97986,0.0128555,0.00537872,0.016098,0.00671387,-0.0134659,-0.00457764,0.0162125,0.00534058
9,2,-9.75169,0.000915527,0.00259399,-2.4247,0.055681,-0.075063,0.0574849,0.1317,-0.0861274,0.146844,-0.121799,-0.0828756,0.0107193,0.0222397,0.017128,0.0171661,0.0200653,0.00831604,0.022049,0.0114822,-9.97986,0.0130463,0.00087738,0.0151825,0.0110245,0.0175858,-0.00717163,0.018425,0.00656128
9,3,-1.85893,-0.000305176,0.00320435,-2.42776,0.0541551,-0.0747579,0.0544332,0.144823,-0.0876533,0.144098,-0.120578,-0.0837911,0.0114441,0.0209427,0.0163269,0.016861,0.0110245,0.00843048,0.0241089,0.0182724,-9.97986,0.0150299,-7.62939e-005,0.0167465,0.00911713,0.0141907,-0.00751495,0.0157547,0.00720978
9,4,6.03688,0.000610352,0.00411987,-2.42745,0.0532396,-0.0778096,0.0526021,0.151537,-0.0894843,0.143792,-0.121494,-0.0850118,0.0117874,0.0247192,0.018425,0.0151825,0.0170135,0.0112915,0.0228119,0.0224686,-9.97986,0.0129318,-0.00461578,0.0147247,0.00907898,0.0132751,-0.00717163,0.0163269,0.00236511
9,5,10.0097,0.00152588,0.00350952,-2.43081,0.0532396,-0.0765889,0.0519917,0.135057,-0.0952827,0.142877,-0.123325,-0.0874532,0.0114822,0.0336838,0.0202942,0.0166702,0.016861,0.00961304,0.0209808,0.0172806,-9.97986,0.0117493,-0.00328064,0.0154877,0.00774384,0.0167847,-0.000267029,0.0172806,0.00556946
9,6,10.0097,0.0012207,0.0012207,-2.42989,0.0535448,-0.0768941,0.0501607,0.0938585,-0.0965034,0.143487,-0.126072,-0.0880636,0.0115585,0.0302124,0.0182724,0.0201035,0.0198364,0.0131607,0.0245667,0.0223923,-9.97986,0.0147247,-0.00545502,0.0172043,0.00968933,0.0132751,-0.00125885,0.0175858,0.00591278
9,7,10.0097,-0.000305176,0.000152588,-2.43081,0.0532396,-0.0762837,0.0513814,0.0804308,-0.0974189,0.142572,-0.126682,-0.0886739,0.012207,0.000839233,0.0172424,0.0116348,0.0167847,0.0114059,0.0238037,0.0192261,-9.97986,0.0124359,0.00038147,0.0131607,0.00717163,0.0182724,-0.00183105,0.017395,0.00724792
9,8,10.0097,0.0012207,-0.000152588,-2.42867,0.0541551,-0.0756734,0.0519917,0.0740221,-0.0952827,0.145318,-0.126072,-0.0868429,0.0125504,-0.0190735,0.00926971,0.0121689,0.0153732,0.00980377,0.0250244,0.0175858,-9.97986,0.0102997,0.001297,0.0156021,0.00564575,0.0156021,-0.00183105,0.0194168,0.00747681
9,9,10.0097,0.000610352,-0.000305176,-2.42745,0.0553758,-0.0756734,0.0526021,0.0724962,-0.094062,0.144098,-0.125461,-0.0850118,0.00774384,-0.0125122,0.0177383,0.00766754,0.0160217,0.00965118,0.0222015,0.0177383,-9.97986,0.0131607,0.001297,0.0141907,0.0082016,0.01297,-0.000419617,0.0179672,0.0075531
10,0,10.0097,0.0012207,0,-2.42653,0.0550706,-0.0747579,0.0532125,0.0712755,-0.0934516,0.145318,-0.126377,-0.0850118,0.00888824,-0.0038147,0.0206757,0.00530243,0.016098,0.00728607,0.0210571,0.0160217,-9.97986,0.0115967,-0.00293732,0.0154877,0.00751495,0.0148392,0.000190735,0.0175858,0.0050354
10,1,10.0097,-0.00335693,-0.000305176,-2.42501,0.055681,-0.0747579,0.0544332,0.0715807,-0.0928413,0.145013,-0.125766,-0.0847066,0.0113678,0.0115967,0.0193787,0.0107956,0.0177383,0.0127029,0.0238037,0.0119781,-9.97986,0.0179291,-0.00301361,0.0158691,0.00720978,0.0152969,-0.0062561,0.018692,0.00675201
10,2,10.0097,0.00183105,-0.000152588,-2.42531,0.0569017,-0.0747579,0.0532125,0.072191,-0.0919257,0.146539,-0.12363,-0.0825704,0.0141525,0.0267792,0.019722,0.0122833,0.0145721,0.00946045,0.0223923,0.00705719,-9.97986,0.016098,-0.00617981,0.0156403,0.00930786,0.0170135,-0.00869751,0.0191498,0.00679016
10,3,10.0097,0.00152588,0.000152588,-2.42501,0.0562914,-0.073232,0.0562642,0.0718859,-0.0919257,0.147149,-0.125156,-0.0807394,0.0123596,0.0343323,0.0205612,0.013504,0.0173187,0.0146103,0.0239944,0.0138855,-9.97986,0.0154114,-0.0146866,0.0161362,0.00919342,0.0116348,-0.00946045,0.0165939,0.00495911
10,4,10.0097,-0.000305176,-0.000610352,-2.42501,0.0562914,-0.0747579,0.054128,0.0541857,-0.0946723,0.145318,-0.126377,-0.0828756,0.00583649,0.0268555,0.024147,0.0102615,0.0193787,0.0101471,0.0242615,0.014801,-9.97986,0.0144958,-0.0147247,0.0130463,0.00896454,0.0146866,-0.0121307,0.0136566,0.00572205
10,5,8.2491,0.000915527,-0.00213623,-2.42684,0.0559862,-0.0738423,0.0522969,0.00688342,-0.0983344,0.147149,-0.128818,-0.0837911,0.0142288,0.019722,0.0271988,0.0119781,0.0168228,0.00980377,0.020256,0.0146866,-9.97986,0.0163269,-0.0128937,0.0141525,0.0128937,0.00972748,-0.00549316,0.0175095,0.00881195
10,6,-0.930891,0.000305176,-0.00427246,-2.42623,0.0559862,-0.0738423,0.0538228,-0.00623914,-0.0961982,0.146234,-0.129123,-0.0816549,0.0119019,0.0211716,0.0299835,0.0149918,0.0172806,0.0104904,0.02285,0.0226974,-9.97986,0.0156403,-0.00873566,0.0146103,0.0107193,0.0130844,-0.00236511,0.0127029,0.00537872
10,7,-7.91972,-0.000610352,-0.00442505,-2.42562,0.0569017,-0.0741475,0.0544332,-0.0169203,-0.0955879,0.146234,-0.129429,-0.0813497,0.0112915,0.0236893,0.0267792,0.0110626,0.0178146,0.0125885,0.0230789,0.0232315,-9.97986,0.0131989,-0.0056076,0.0159454,0.0111771,0.0130081,0.00102997,0.0165558,0.00782013
10,8,-9.99003,0.000610352,-0.00320435,-2.42531,0.0559862,-0.0741475,0.055959,0.0132921,-0.0922309,0.14776,-0.128513,-0.0810445,0.0148773,0.0353241,0.0260544,0.0175858,0.0165558,0.00930786,0.0253296,0.0201797,-9.97986,0.0114822,0.00450134,0.014267,0.00797272,-0.00118256,-0.00038147,0.0139618,0.00518799
10,9,-9.99003,0,-0.00152588,-2.42501,0.0565965,-0.0744527,0.0553487,0.0474718,-0.0897895,0.146234,-0.126682,-0.0810445,0.00953674,0.0424194,0.026207,0.0123215,0.0197601,0.00999451,0.0183105,0.0244904,-9.97986,0.0108337,0.00892639,0.0156784,0.00976563,-0.00869751,-0.00125885,0.0157928,0.00507355
11,0,-9.99003,0.000610352,0.000305176,-2.42653,0.0547655,-0.0747579,0.0538228,0.0593737,-0.0910102,0.146844,-0.125766,-0.0828756,0.0127029,0.0447083,0.0321579,0.014267,0.0206375,0.00801086,0.0218582,0.0247192,-9.97986,0.0143814,0.0118256,0.0177002,0.0139999,-0.00854492,0.00305176,0.0190353,0.00694275
11,1,-9.99003,0,0.000305176,-2.42684,0.0547655,-0.0747579,0.0550435,0.0728014,-0.0894843,0.144708,-0.124241,-0.0825704,0.0120163,0.0439453,0.0260544,0.0110626,0.0165939,0.00656128,0.0255203,0.0191498,-9.97986,0.0125885,0.0043869,0.0139999,0.00869751,-0.00770569,0.000686646,0.0157928,0.00732422
11,2,-9.56737,0.0012207,0.00259399,-2.42531,0.0550706,-0.0738423,0.055959,0.132311,-0.0842964,0.146234,-0.121189,-0.0828756,0.0102234,0.0428772,0.0172806,0.0126648,0.0198746,0.00804901,0.0228119,0.00621796,-9.97986,0.0150681,-0.00366211,0.0114059,0.0147247,0.0122833,-0.000267029,0.0107574,0.00530243
11,3,-1.80705,0.00213623,0.00274658,-2.42745,0.0541551,-0.0753682,0.0556539,0.14818,-0.090705,0.145318,-0.121189,-0.0840963,0.0123596,0.0450134,0.0157928,0.0139236,0.0180435,0.0109482,0.0238419,0.0159454,-9.97986,0.0170135,-0.00259399,0.0138092,0.014534,0.0178146,0.00709534,0.0174332,0.00724792
11,4,6.39882,0.00152588,0.00427246,-2.42837,0.0532396,-0.0762837,0.054128,0.154283,-0.0894843,0.144403,-0.122104,-0.0856222,0.00511169,0.0372314,0.0180435,0.0104523,0.0132751,0.00869751,0.0221634,0.0225449,-9.97986,0.0137329,-0.00907898,0.0112534,0.0108337,0.0143814,0.0130081,0.0164795,0.0056076
11,5,10.0097,0.000610352,0.00442505,-2.43081,0.0541551,-0.0765889,0.0501607,0.130785,-0.0946723,0.143182,-0.124241,-0.0886739,0.00961304,0.0381851,0.018692,0.0120544,0.0175476,0.0121307,0.0247192,0.0185776,-9.97986,0.0141907,0.00167847,0.013504,0.0130844,0.0143433,0.013504,0.0138855,0.00507355
11,6,10.0097,-0.000610352,0.00198364,-2.42959,0.0529344,-0.0759786,0.050771,0.0911119,-0.095893,0.143182,-0.125766,-0.0889791,0.0102997,0.0351334,0.0208664,0.0122833,0.0175095,0.0109482,0.0227356,0.0122452,-9.97986,0.0144577,0.0019455,0.0100327,0.0154114,0.0125504,0.0169754,0.0193024,0.00572205
11,7,10.0097,0.000915527,0.000305176,-2.42989,0.0535448,-0.0753682,0.0501607,0.0779894,-0.0971137,0.143182,-0.127598,-0.0874532,0.00843048,0.0330353,0.0233078,0.0111008,0.0201416,0.0118256,0.0199127,0.0154877,-9.97986,0.0181961,0.000228882,0.0128174,0.0146866,0.0152588,0.0121307,0.0149536,0.00576019
11,8,10.0097,0.000305176,0,-2.42867,0.0544603,-0.0756734,0.050771,0.0734117,-0.0946723,0.143792,-0.126987,-0.0862325,0.00816345,0.0245667,0.0172424,0.0101089,0.0175095,0.00900269,0.02388,0.0122833,-9.97986,0.016098,-0.00114441,0.013237,0.0134659,0.015564,0.00984192,0.0162888,0.0069046
11,9,10.0097,0.000610352,0.000305176,-2.42776,0.0544603,-0.0753682,0.0535176,0.0718859,-0.0946723,0.144708,-0.125766,-0.0844015,0.0138855,0.0249481,0.0230408,0.0115967,0.0207901,0.0119781,0.0223541,0.0168991,-9.97986,0.0130081,-0.00484467,0.0131226,0.0139618,0.0156403,0.00656128,0.0178528,0.00843048
12,0,10.0097,0.0012207,0.000610352,-2.42684,0.0550706,-0.0744527,0.0529073,0.0706652,-0.0931465,0.145624,-0.126987,-0.0844015,0.0145721,0.0230408,0.016861,0.0132751,0.0167465,0.0107956,0.0236893,0.0185394,-9.97986,0.018425,-0.00671387,0.0128174,0.0100327,0.0185394,0.00263214,0.0139236,0.00865936
12,1,10.0097,0.0012207,-0.000305176,-2.42623,0.0553758,-0.0744527,0.0532125,0.0712755,-0.0934516,0.144708,-0.125766,-0.0834859,0.0123215,0.0172424,0.0149536,0.0131226,0.0180817,0.010643,0.0204468,0.0217819,-9.97986,0.0213242,-0.00427246,0.0149536,0.0114441,0.0119019,-0.00328064,0.0137711,0.00530243
12,2,10.0097,0.00274658,0.000610352,-2.42501,0.055681,-0.0729268,0.0544332,0.072191,-0.0910102,0.146234,-0.124546,-0.0819601,0.0122833,0.0122452,0.020752,0.0115204,0.0196457,0.0125122,0.0225449,0.0253296,-9.97986,0.0187683,0.000419617,0.0113678,0.0133514,0.0131989,-0.00629425,0.0117493,0.00705719
12,3,10.0097,0.000915527,-0.000305176,-2.42501,0.0562914,-0.0729268,0.054128,0.0715807,-0.0913154,0.148065,-0.125461,-0.0810445,0.0094223,0.0146484,0.0193405,0.00904083,0.0183105,0.0115585,0.0244141,0.0251389,-9.97986,0.0147247,-0.000534058,0.0152588,0.00930786,0.011673,-0.00270844,0.0157547,0.00514984
12,4,10.0097,-0.000305176,-0.000152588,-2.42714,0.0559862,-0.0744527,0.0532125,0.052965,-0.0949775,0.145013,-0.126682,-0.0828756,0.00831604,0.0177383,0.0154495,0.00831604,0.0162125,0.0115967,0.0226212,0.025444,-9.97986,0.0151825,0.00434875,0.0127792,0.0119781,0.0138092,-0.000762939,0.0153732,0.00663757
12,5,8.01351,-0.000610352,-0.00274658,-2.42684,0.0553758,-0.0744527,0.0519917,0.00505237,-0.0995551,0.145013,-0.130039,-0.0837911,0.0117111,0.0239182,0.014267,0.00782013,0.0162888,0.00804901,0.0222778,0.0204849,-9.97986,0.0170898,0.0115967,0.016098,0.0130844,0.0123215,-0.00148773,0.0154495,0.00499725
12,6,-1.27391,0,-0.00457764,-2.42623,0.0572069,-0.0738423,0.0532125,-0.00776502,-0.0965034,0.14776,-0.128513,-0.0819601,0.00873566,0.0261307,0.0106049,0.00907898,0.0164413,0.00965118,0.0240326,0.0199127,-9.97986,0.0147247,0.00804901,0.0183105,0.0165558,0.015564,-0.011673,0.015831,0.00408173
12,7,-8.28624,0.000610352,-0.00473022,-2.42501,0.0562914,-0.0735371,0.0532125,-0.0172255,-0.0965034,0.144098,-0.130954,-0.0813497,0.0107956,0.0244904,0.00778198,0.00816345,0.0141907,0.00812531,0.0178528,0.019455,-9.97986,0.0163651,0.000648499,0.0157547,0.0115967,0.0157928,-0.0218964,0.0143433,0.00484467
12,8,-9.99003,0,-0.00289917,-2.42501,0.0559862,-0.0735371,0.0556539,0.0172594,-0.0913154,0.145624,-0.127903,-0.0807394,0.0101471,0.0396347,0.0109482,0.0102997,0.0189209,0.00961304,0.0201416,0.0170517,-9.97986,0.0178909,-0.000419617,0.0156784,0.013237,-0.00644684,-0.0189972,0.0149918,0.00659943
12,9,-9.99003,0.0012207,-0.000762939,-2.42501,0.055681,-0.0744527,0.0547383,0.0480822,-0.0900947,0.147455,-0.126682,-0.0813497,0.0104523,0.0312424,0.0116348,0.0100327,0.0156784,0.00946045,0.0231934,0.00244141,-9.97986,0.0155258,-0.00579834,0.0157166,0.0127411,-0.00797272,-0.00652313,0.0164795,0.00850677
13,0,-9.99003,0.00183105,0,-2.42684,0.0550706,-0.0747579,0.0550435,0.0608995,-0.0913154,0.145624,-0.127292,-0.0828756,0.0125122,0.0283051,0.0147247,0.0162888,0.0178146,0.0130081,0.0209427,-0.00236511,-9.97986,0.0173569,0.000267029,0.0168228,0.0163269,-0.00938416,-0.0019455,0.016861,0.00679016
13,1,-9.99003,0.000305176,-0.000305176,-2.42623,0.0550706,-0.0747579,0.0544332,0.0676134,-0.0925361,0.144098,-0.126377,-0.0831808,0.00770569,0.0290298,0.0157166,0.0114822,0.0159454,0.00747681,0.0188446,0.00450134,-9.97986,0.0138092,0.00114441,0.0138092,0.0134659,-0.0100708,-0.00453949,0.0192261,0.00629425
13,2,-9.89329,0.00183105,0.00228882,-2.4247,0.0550706,-0.0744527,0.0562642,0.13048,-0.0846015,0.144098,-0.12241,-0.0828756,0.0135803,0.0224304,0.0138092,0.0115585,0.0145721,0.00553131,0.017128,0.0111008,-9.97986,0.018959,0.00740051,0.0139236,0.0101089,0.0151825,-0.00408173,0.0146484,0.00583649
13,3,-2.00633,0.000305176,0.00320435,-2.42562,0.0538499,-0.0771993,0.0547383,0.142992,-0.088874,0.144403,-0.121799,-0.0850118,0.00988007,0.0254059,0.0173569,0.0105667,0.0228119,0.00839233,0.0213623,0.0152588,-9.97986,0.0146103,0.00679016,0.0143814,0.0112534,0.014534,-0.00770569,0.0193787,0.00526428
13,4,5.86843,-0.0012207,0.00473022,-2.42837,0.0526292,-0.0756734,0.0538228,0.151842,-0.088874,0.143487,-0.121799,-0.0859274,0.0122452,0.0267029,0.0169754,0.0147247,0.0196457,0.00904083,0.0214767,0.0164413,-9.97986,0.0136948,0.000839233,0.0153351,0.0108719,0.0153351,-0.00392914,0.0207138,0.00717163
13,5,10.0097,-0.000305176,0.00335693,-2.4305,0.0535448,-0.0759786,0.0516866,0.136278,-0.0937568,0.142572,-0.12363,-0.0871481,0.00556946,0.0197601,0.0143051,0.00888824,0.0156021,0.00461578,0.02285,0.0150299,-9.97986,0.0120926,-0.0123978,0.0108719,0.00705719,0.0110626,0.00190735,0.0136948,0.00179291
13,6,10.0097,0.0012207,0.00152588,-2.43172,0.0532396,-0.075063,0.0501607,0.0938585,-0.0971137,0.143792,-0.126377,-0.0883688,0.0120163,0.0246048,0.0193024,0.0128937,0.018158,0.0108337,0.0233459,0.0168228,-9.97986,0.0130463,-0.00720978,0.0153351,0.0115967,0.0164795,0.00419617,0.0201797,0.00717163
13,7,10.0097,0.00244141,-0.000152588,-2.42928,0.0547655,-0.0762837,0.0504659,0.0782946,-0.095893,0.143487,-0.126987,-0.0877584,0.0113678,0.0220108,0.0205994,0.00663757,0.012207,0.0050354,0.0210953,0.0143814,-9.97986,0.0171661,-0.00816345,0.0141144,0.00831604,0.0126266,0.00652313,0.0168991,0.0037384
13,8,10.0097,-0.000305176,0.000305176,-2.42928,0.0544603,-0.0756734,0.0519917,0.0743273,-0.0952827,0.143182,-0.126987,-0.0871481,0.0156403,0.0295639,0.0252151,0.0167465,0.0236893,0.0154495,0.0262833,0.0186157,-9.97986,0.0153732,-0.00595093,0.0133514,0.00961304,0.0147247,0.00190735,0.018425,0.00736237
13,9,10.0097,0.000610352,0,-2.42837,0.0550706,-0.0744527,0.0526021,0.0731066,-0.0937568,0.145013,-0.126682,-0.0859274,0.00720978,0.0233841,0.015564,0.0114059,0.0146484,0.00705719,0.0235367,0.0144196,-9.97986,0.0138474,-0.00572205,0.0131989,0.0069809,0.0115967,-0.0122833,0.0193787,0.0037384
14,0,10.0097,-0.00305176,-0.000152588,-2.42684,0.0559862,-0.0756734,0.0535176,0.0712755,-0.0943672,0.145318,-0.125461,-0.0847066,0.0124741,0.0255203,0.0209045,0.00972748,0.0172424,0.0111008,0.0257874,0.0191116,-9.97986,0.0153732,-0.00225067,0.0131607,0.00564575,0.0117111,-0.0234985,0.0158691,0.00694275
14,1,10.0097,-0.000915527,0.000305176,-2.42653,0.0569017,-0.075063,0.0532125,0.0712755,-0.0913154,0.145318,-0.125156,-0.0837911,0.012207,0.0269699,0.0193787,0.0128937,0.0146103,0.01091,0.0220871,0.0205994,-9.97986,0.0176239,-0.00732422,0.011673,0.00957489,0.0121307,-0.0197983,0.0160599,0.00659943
14,2,10.0097,0.0012207,0.000152588,-2.42501,0.0559862,-0.0738423,0.0547383,0.0715807,-0.0919257,0.147149,-0.124546,-0.0819601,0.00915527,0.0281525,0.018959,0.0110626,0.0166321,0.0114059,0.0207901,0.0192261,-9.97986,0.0192261,-0.00270844,0.0136185,0.0087738,0.0164413,-0.0102997,0.0143051,0.00778198
14,3,10.0097,-0.0012207,0,-2.4247,0.0572069,-0.0729268,0.0556539,0.0715807,-0.0913154,0.147149,-0.12363,-0.0813497,0.0125122,0.0256729,0.0147247,0.0120163,0.0188446,0.0110626,0.0248718,0.0176239,-9.97986,0.014801,-0.00255585,0.0140762,0.00904083,0.0123978,-0.00671387,0.0122833,0.0075531
14,4,10.0097,0.000305176,0,-2.42684,0.0553758,-0.0744527,0.0529073,0.0514391,-0.0952827,0.145013,-0.126682,-0.0825704,0.00900269,0.0227356,0.0165176,0.010643,0.0125122,0.00946045,0.0185776,0.0169754,-9.97986,0.0173569,0.00537872,0.016861,0.00923157,0.0104904,-0.00144958,0.0150681,0.0056076
14,5,7.99825,-0.0012207,-0.00198364,-2.42714,0.0544603,-0.0738423,0.0519917,0.00596789,-0.0986396,0.145929,-0.128818,-0.0831808,0.015564,0.0220871,0.0224686,0.0094986,0.0163269,0.00904083,0.0188828,0.0214767,-9.97986,0.0163269,0,0.0136185,0.00686646,0.012207,0.00858307,0.016098,0.00591278
14,6,-1.24003,0.000305176,-0.00442505,-2.42592,0.0569017,-0.0729268,0.054128,-0.00684949,-0.0968086,0.146234,-0.129123,-0.0813497,0.0111771,0.0251389,0.0228119,0.0157928,0.0146866,0.00534058,0.0196457,0.0182724,-9.97986,0.0154495,0.00301361,0.0159454,0.00801086,0.0131226,-0.00247955,0.0149536,0.00675201
14,7,-8.22276,0.0012207,-0.00457764,-2.42562,0.0572069,-0.0738423,0.054128,-0.0187513,-0.0961982,0.145929,-0.129734,-0.0819601,0.00965118,0.02491,0.02491,0.0094223,0.0188828,0.00839233,0.020752,0.019455,-9.97986,0.0156403,-0.0012207,0.0133896,0.0127411,0.01297,-0.00953674,0.0218201,0.0025177
14,8,-9.99003,0.000915527,-0.00335693,-2.4244,0.055681,-0.0741475,0.0556539,0.0160387,-0.0922309,0.145929,-0.127598,-0.0807394,0.0139618,0.0247192,0.0221252,0.0112152,0.0144196,0.0115585,0.0251389,0.018959,-9.97986,0.0102234,0.00465393,0.0184631,0.00865936,-0.00801086,-0.00362396,0.0157547,0.00896454
14,9,-9.99003,0.000915527,-0.000915527,-2.42531,0.0550706,-0.0735371,0.055959,0.0483873,-0.090705,0.145318,-0.127292,-0.0813497,0.014534,0.0287628,0.0249863,0.0146103,0.0138092,0.0112152,0.0174713,0.0178528,-9.97986,0.0147247,0.00667572,0.0146484,0.00701904,-0.015831,-0.00209808,0.0119019,0.00507355
15,0,-9.99003,0.000610352,0,-2.42501,0.0559862,-0.0738423,0.0547383,0.0605944,-0.0910102,0.145013,-0.126072,-0.0822652,0.0110626,0.0282288,0.0239182,0.0119781,0.0167847,0.00972748,0.0245285,0.0178528,-9.97986,0.0156403,0.00270844,0.0133514,0.00694275,-0.0122452,0.000190735,0.0151443,0.00686646
15,1,-9.99003,0.000610352,-0.000457764,-2.42684,0.0550706,-0.0744527,0.054128,0.0697496,-0.090705,0.145013,-0.126377,-0.0828756,0.0111771,0.0230408,0.0238419,0.0111771,0.0193024,0.013504,0.0218201,0.0207901,-9.97986,0.0145721,-0.000190735,0.0132751,0.00740051,-0.0143433,0.0019455,0.0166321,0.00492096
15,2,-9.91038,0.00213623,0.00213623,-2.42562,0.0541551,-0.0753682,0.0565694,0.13109,-0.0861274,0.145624,-0.121799,-0.0822652,0.00926971,0.0175858,0.0232315,0.0145721,0.0139999,0.00713348,0.0218582,0.0171661,-9.97986,0.015831,-0.00102997,0.0108719,0.00736237,0.0165176,0.00339508,0.0146866,0.00553131
15,3,-1.94835,0.000305176,0.00396729,-2.42776,0.0538499,-0.0759786,0.0547383,0.145128,-0.0873481,0.142877,-0.121799,-0.0844015,0.00797272,0.0188065,0.0258636,0.0139236,0.0185013,0.00774384,0.0191498,0.0175476,-9.97986,0.0145721,-0.00404358,0.0142288,0.00785828,0.0136948,0.00629425,0.0178528,0.0069809
15,4,6.01338,-0.0012207,0.00366211,-2.42745,0.0541551,-0.075063,0.0538228,0.152757,-0.0894843,0.144098,-0.122104,-0.0850118,0.012207,0.0193787,0.0254059,0.00995636,0.0162125,0.0094986,0.0196075,0.0170135,-9.97986,0.0121689,-0.0110626,0.00823975,0.00648499,0.01297,0,0.0149536,0.00541687
15,5,10.0097,0,0.00442505,-2.4302,0.0541551,-0.0768941,0.0504659,0.134752,-0.0946723,0.143487,-0.12302,-0.0868429,0.0108337,0.0243759,0.0204086,0.0108337,0.015831,0.00846863,0.0197983,0.0228119,-9.97986,0.0180817,-0.0185776,0.0145721,0.00816345,0.0127411,-0.00354767,0.0131226,0.00682831
15,6,10.0097,-0.0222778,0.00198364,-2.4305,0.0535448,-0.075063,0.0510762,0.0944689,-0.0965034,0.13067,-0.126072,-0.0883688,0.0128555,0.0217438,0.019989,0.0148392,0.0165558,0.00808716,0.0167847,0.018692,-9.97986,0.0142288,-0.00679016,0.0116348,0.00991821,0.0139999,0.001297,0.0128937,0.00473022
15,7,10.0097,0.000610352,0.000762939,-2.42959,0.0535448,-0.0756734,0.0529073,0.0792101,-0.095893,0.14013,-0.126377,-0.0883688,0.0104141,0.0224686,0.0170135,0.0107574,0.0157166,0.00831604,0.019989,0.0175095,-9.97986,0.0180435,-0.00663757,0.0124359,0.00556946,0.0146866,0.00255585,0.0144196,0.00934601
15,8,10.0097,-0.000915527,-0.000305176,-2.42714,0.0565965,-0.0756734,0.0535176,0.0737169,-0.0949775,0.142877,-0.126987,-0.0874532,0.00995636,0.0211334,0.0108337,0.0134277,0.0153732,0.00675201,0.0226974,0.0205231,-9.97986,0.0137329,-0.00518799,0.0143433,0.00762939,0.013237,-0.00320435,0.014267,0.0062561
15,9,10.0097,-0.000305176,0.000305176,-2.42837,0.0550706,-0.075063,0.0526021,0.0731066,-0.0946723,0.143487,-0.126377,-0.085317,0.0135422,0.025444,0.00507355,0.0131989,0.0165939,0.00576019,0.0181198,0.0175476,-9.97986,0.0115204,-0.00518799,0.0168991,0.0102234,0.00774384,-0.00434875,0.0173569,0.00770569
16,0,10.0097,0.000610352,0.000610352,-2.42714,0.0553758,-0.0738423,0.0532125,0.0715807,-0.0934516,0.145318,-0.126682,-0.0837911,0.00881195,0.0241852,0.00972748,0.0117874,0.0182343,0.00774384,0.0180435,0.0189209,-9.97986,0.0143051,-0.00385284,0.0167084,0.00370026,0.00671387,-0.00675201,0.0167084,0.0102234
16,1,10.0097,-0.000915527,-0.000152588,-2.42531,0.0559862,-0.0744527,0.0532125,0.0697496,-0.0931465,0.144708,-0.125156,-0.0837911,0.0131226,0.0255203,0.0167084,0.0088501,0.0144958,0.00614166,0.0214386,0.018959,-9.97986,0.0141144,0.000801086,0.0126648,0.00648499,0.00980377,-0.00614166,0.0153351,0.0069046
16,2,10.0097,-0.000305176,0.000305176,-2.42501,0.0569017,-0.0738423,0.0550435,0.0715807,-0.0922309,0.14776,-0.124851,-0.0804342,0.0119781,0.0277328,0.0140762,0.00976563,0.0186539,0.00961304,0.0210953,0.0229263,-9.97986,0.0151062,0.00259399,0.0140381,0.0056076,0.0162888,-0.00354767,0.0177002,0.00770569
16,3,10.0097,-0.000305176,-0.000152588,-2.42653,0.0559862,-0.0729268,0.054128,0.0718859,-0.0916206,0.145929,-0.12363,-0.0813497,0.0110245,0.0213623,0.0191116,0.00965118,0.0111771,0.00617981,0.0179291,0.022316,-9.97986,0.0109863,-3.8147e-005,0.0139236,0.00576019,0.0155258,-0.0012207,0.0153351,0.00785828
16,4,10.0097,-0.000610352,-0.000457764,-2.42684,0.0553758,-0.0738423,0.0516866,0.0532701,-0.0943672,0.146234,-0.126072,-0.0828756,0.00926971,0.0136566,0.0204849,0.0120544,0.0144196,0.00968933,0.0232315,0.024147,-9.97986,0.0149155,-0.000915527,0.0120163,0.00465393,0.0148773,0.00240326,0.0148773,0.00743866
16,5,8.20027,-0.000915527,-0.00244141,-2.42714,0.0565965,-0.0738423,0.0516866,0.00596789,-0.0989448,0.146539,-0.129429,-0.0834859,0.0107193,0.0203323,0.0207138,0.0123978,0.0133133,0.00873566,0.0190353,0.0105667,-9.97986,0.0175476,0.000686646,0.0151443,0.00537872,0.0140381,0.00205994,0.0144577,0.0082016
16,6,-1.15977,-0.000305176,-0.0038147,-2.42562,0.0565965,-0.073232,0.0535176,-0.00623914,-0.0961982,0.145624,-0.128513,-0.0825704,0.0139236,0.0191498,0.0180054,0.0127792,0.0149536,0.00667572,0.0245667,0.00679016,-9.97986,0.0141525,0.00518799,0.0139999,0.00980377,0.0155258,0.00125885,0.0177383,0.00720978
16,7,-8.15104,0.000610352,-0.0038147,-2.42623,0.0559862,-0.0744527,0.0535176,-0.018141,-0.0971137,0.146234,-0.130344,-0.0819601,0.0144958,0.0200653,0.0189972,0.0130463,0.0166321,0.0108719,0.0221634,0.0152588,-9.97986,0.0167847,0.0119781,0.0108719,0.0117874,0.020752,-0.00732422,0.018692,0.00770569
16,8,-9.99003,0.00152588,-0.00274658,-2.42501,0.0562914,-0.0729268,0.055959,0.0154283,-0.0925361,0.145929,-0.128208,-0.0804342,0.0108719,0.0191116,0.0180054,0.0101852,0.0118256,0.00720978,0.0239182,0.0212479,-9.97986,0.0120163,0.0136185,0.0144577,0.00389099,-0.00423431,-0.0118637,0.0157166,0.00793457
16,9,-9.99003,-0.0012207,-0.00167847,-2.4247,0.0559862,-0.0735371,0.0553487,0.0502184,-0.0897895,0.144708,-0.126377,-0.0810445,0.00782013,0.020752,0.0205231,0.0140762,0.0181198,0.0109482,0.0244522,0.0224686,-9.97986,0.0156021,0.00587463,0.0165176,0.00961304,-0.0139618,-0.0119019,0.0179291,0.00518799
17,0,-9.99003,0.000610352,0.000457764,-2.42562,0.055681,-0.0747579,0.0556539,0.059984,-0.0900947,0.145624,-0.126072,-0.0825704,0.00984192,0.0157547,0.0220871,0.0148773,0.0159073,0.0094986,0.018425,0.0209808,-9.97986,0.0134277,0.00846863,0.0143051,0.0069809,-0.00835419,-0.00881195,0.0180435,0.00694275
17,1,-9.99003,0,-0.000762939,-2.42653,0.055681,-0.0747579,0.0538228,0.0718859,-0.090705,0.145624,-0.124546,-0.0831808,0.00675201,0.0221252,0.0236893,0.0121689,0.0170898,0.00679016,0.0244141,0.0201797,-9.97986,0.0123596,0.00236511,0.0130844,0.00823975,-0.00988007,-0.00335693,0.00984192,0.00801086
17,2,-9.6458,0.00183105,0.00244141,-2.42592,0.0553758,-0.075063,0.0574849,0.131395,-0.0858222,0.145929,-0.123325,-0.0822652,0.00831604,0.0188446,0.0205231,0.0131607,0.018425,0.0082016,0.0225067,0.0255203,-9.97986,0.0144577,-0.0129318,0.0144196,0.00957489,0.0182343,0.000572205,0.0142288,0.00801086
17,3,-2.00267,0.00213623,0.00320435,-2.42776,0.0544603,-0.0741475,0.0547383,0.145128,-0.0876533,0.144403,-0.121799,-0.0834859,0.0115204,0.0226212,0.0234222,0.0153732,0.018692,0.0110626,0.02491,0.0218964,-9.97986,0.0159454,-0.0187302,0.0131226,0.00526428,0.0145721,0.00125885,0.0125122,0.00434875
17,4,6.2087,-0.000305176,0.00427246,-2.42867,0.0538499,-0.0762837,0.0538228,0.152452,-0.0900947,0.143792,-0.121799,-0.085317,0.01194,0.0208664,0.0234985,0.0105667,0.0182724,0.0124359,0.02491,0.0223541,-9.97986,0.0189972,-0.0181198,0.0151062,0.0119781,0.0151825,0.00518799,0.015564,0.00534058
17,5,10.0097,0.000915527,0.00335693,-2.43172,0.0541551,-0.0762837,0.0516866,0.133226,-0.0946723,0.143487,-0.124546,-0.0886739,0.0114441,0.0231171,0.0243759,0.0143051,0.0159073,0.0124359,0.0199127,0.0144577,-9.97986,0.0157166,-0.012207,0.0149155,0.00782013,0.0163651,0.00370026,0.0163269,0.00549316
17,6,10.0097,0.000610352,0.00152588,-2.42989,0.0544603,-0.0759786,0.0501607,0.0932482,-0.0971137,0.141961,-0.125461,-0.0889791,0.0111771,0.0217056,0.0236893,0.00946045,0.017128,0.00995636,0.0248718,0.0104141,-9.97986,0.0130463,-0.00740051,0.0153351,0.00953674,0.0205612,0.00728607,0.0151062,0.00621796
17,7,10.0097,0.000305176,0.000152588,-2.4305,0.0544603,-0.0756734,0.0522969,0.0782946,-0.0955879,0.144098,-0.126682,-0.0883688,0.0112152,0.0236893,0.0262451,0.0115585,0.0180054,0.00904083,0.0242996,0.016098,-9.97986,0.0143814,-0.00637054,0.0130081,0.00648499,0.0177002,0.00984192,0.0150299,0.00400543
17,8,10.0097,-0.000610352,0.000305176,-2.42928,0.0541551,-0.075063,0.0522969,0.0737169,-0.0949775,0.145013,-0.126377,-0.0868429,0.0101471,0.0189209,0.0191498,0.0100708,0.0164795,0.00892639,0.0245285,0.0166702,-9.97986,0.0160599,-0.00221252,0.0146866,0.00804901,0.0185776,0.0102234,0.0152588,0.00545502
17,9,10.0097,-0.000915527,0,-2.42714,0.0562914,-0.0756734,0.0526021,0.0731066,-0.0946723,0.144403,-0.126072,-0.085317,0.00747681,0.0211334,0.0170517,0.0143433,0.018692,0.00457764,0.0276947,0.0189972,-9.97986,0.0157928,-0.00297546,0.0108719,0.00793457,0.018959,0.00606537,0.0159073,0.00637054
18,0,10.0097,0.00183105,-0.000305176,-2.42745,0.0553758,-0.0744527,0.0535176,0.0715807,-0.0931465,0.145929,-0.126072,-0.0840963,0.0118256,0.017662,0.0102997,0.011673,0.018425,0.0108719,0.0223541,0.0150681,-9.97986,0.0184631,-0.00740051,0.0141144,0.00526428,0.0191879,0.0104904,0.0156021,0.00389099
18,1,10.0097,0.000610352,0,-2.42745,0.055681,-0.0744527,0.0538228,0.0697496,-0.0934516,0.145318,-0.125766,-0.0837911,0.00873566,0.0233841,0.0124741,0.0125885,0.0198746,0.0131607,0.0241852,0.02285,-9.97986,0.0173569,-0.00343323,0.0142288,0.00808716,0.0183105,0.00785828,0.019722,0.00724792
18,2,10.0097,-0.000610352,0,-2.42592,0.0553758,-0.0735371,0.0547383,0.072191,-0.0919257,0.146539,-0.12363,-0.0819601,0.0117493,0.0226593,0.0202179,0.0131226,0.0186157,0.00907898,0.0233841,0.0234604,-9.97986,0.0139618,0.00148773,0.0119019,0.0050354,0.0152206,0.00514984,0.0151825,0.00392914
18,3,10.0097,0.00152588,0.000152588,-2.42592,0.0569017,-0.0744527,0.054128,0.0712755,-0.0913154,0.148065,-0.12302,-0.0804342,0.0107574,0.026207,0.0169373,0.0113678,0.0199127,0.00827789,0.0217438,0.0206375,-9.97986,0.0162125,0.00431061,0.0152588,0.0112534,0.0212097,0.00598907,0.0175858,0.00419617
18,4,10.0097,0,0.000457764,-2.42714,0.0550706,-0.0747579,0.0522969,0.0523546,-0.0949775,0.145013,-0.125766,-0.0831808,0.0124359,0.0251389,0.0199127,0.0117874,0.0189972,0.0115585,0.0217438,0.0188065,-9.97986,0.0138474,0.00408173,0.0140381,0.00602722,0.0165558,0.00682831,0.0149536,0.00602722
18,5,8.09987,0.000915527,-0.00167847,-2.42806,0.0553758,-0.0744527,0.0516866,0.00688342,-0.0995551,0.145929,-0.129123,-0.0834859,0.0115585,0.0255203,0.0209045,0.0105667,0.017662,0.0144958,0.0254059,0.0173569,-9.97986,0.0141525,0.00522614,0.0141144,0.00804901,0.0166321,7.62939e-005,0.0176239,0.0088501
18,6,-1.11033,-0.000305176,-0.00396729,-2.42531,0.0569017,-0.0744527,0.0535176,-0.00684949,-0.0971137,0.146234,-0.129123,-0.0816549,0.00984192,0.0272369,0.0222778,0.00843048,0.0136948,0.00991821,0.0222397,0.0112534,-9.97986,0.0189972,-0.00164032,0.0101471,0.0075531,0.018425,-0.00484467,0.0136185,0.00545502
18,7,-8.11717,-0.000305176,-0.00411987,-2.42562,0.0565965,-0.0753682,0.054128,-0.0178358,-0.0971137,0.146844,-0.130344,-0.0813497,0.0120544,0.024147,0.0230026,0.0136948,0.018158,0.00812531,0.022316,0.00896454,-9.97986,0.0183868,0.00183105,0.0159073,0.00934601,0.0195313,-0.00301361,0.0119781,0.00617981
18,8,-9.99003,0.000610352,-0.00289917,-2.4247,0.0559862,-0.073232,0.0535176,0.0139025,-0.0925361,0.146234,-0.127598,-0.0807394,0.00785828,0.02491,0.0202179,0.0108337,0.018692,0.0127792,0.0221634,0.0172424,-9.97986,0.0161743,-0.00396729,0.0102997,0.00762939,-0.00682831,-0.00347137,0.0136948,0.00480652
18,9,-9.99003,0,-0.00106812,-2.42592,0.0547655,-0.0738423,0.0577901,0.0483873,-0.090705,0.144403,-0.126072,-0.0816549,0.0106049,0.0247574,0.0246429,0.0111389,0.0173569,0.00850677,0.0190735,0.0146484,-9.97986,0.0140381,0.00247955,0.0157166,0.00617981,-0.0113678,-0.0056839,0.0149918,0.00713348
19,0,-9.99003,0.000305176,-0.000152588,-2.42623,0.0565965,-0.0738423,0.0553487,0.0605944,-0.0922309,0.145013,-0.126377,-0.0822652,0.0112152,0.0258636,0.0161743,0.00926971,0.0208664,0.0126266,0.0131607,0.021553,-9.97986,0.0144958,0.00846863,0.0180435,0.00587463,-0.00873566,-0.00469208,0.0138855,0.00469208
19,1,-9.99003,0,0.000762939,-2.42745,0.0547655,-0.0738423,0.0553487,0.0706652,-0.0913154,0.145318,-0.125766,-0.0834859,0.0131989,0.0232697,0.0163269,0.0125504,0.015831,0.0111389,0.0207138,0.0163651,-9.97986,0.0130081,0.0119781,0.0151062,0.00926971,-0.00846863,-0.0106049,0.0162506,0.0075531
19,2,-9.83714,0.000915527,0.00213623,-2.42562,0.0550706,-0.0744527,0.0568746,0.132616,-0.0852119,0.145318,-0.120884,-0.0828756,0.00659943,0.024147,0.0162888,0.011673,0.0198746,0.00946045,0.0223541,0.021286,-9.97986,0.0139236,0.00572205,0.0146103,0.0117874,0.0167084,-0.0162888,0.0189972,0.00610352
19,3,-1.80613,-0.000610352,0.00350952,-2.42837,0.0541551,-0.0756734,0.0556539,0.143602,-0.0882636,0.143792,-0.122104,-0.0844015,0.0105667,0.0222778,0.0117111,0.0156021,0.0220108,0.00720978,0.0169754,0.0185776,-9.97986,0.0146484,0.00694275,0.0115204,0.00831604,0.0119019,-0.0185394,0.0165939,0.00522614
19,4,6.05245,0.00213623,0.00442505,-2.42867,0.0535448,-0.0768941,0.0510762,0.152452,-0.0897895,0.144708,-0.121799,-0.0850118,0.0107574,0.0179291,0.00659943,0.00984192,0.0159073,0.00946045,0.0178528,0.0162125,-9.97986,0.0126648,0.0104904,0.01194,0.00541687,0.0151443,-0.0108719,0.0167084,0.00286102
19,5,10.0097,0,0.00396729,-2.4305,0.0526292,-0.0778096,0.0501607,0.134447,-0.0937568,0.143182,-0.123935,-0.0874532,0.00953674,0.0175858,0.00747681,0.0110626,0.0167847,0.0101852,0.0191879,0.0169754,-9.97986,0.0150299,0.00137329,0.0148392,0.00850677,0.0159836,-0.0109863,0.0170898,0.00591278
19,6,10.0097,-0.000305176,0.000762939,-2.42989,0.0538499,-0.0765889,0.0498555,0.0941637,-0.0977241,0.143487,-0.126377,-0.0886739,0.00839233,0.0202179,0.0154877,0.0117111,0.0205231,0.0102997,0.0246429,0.0221252,-9.97986,0.014267,-0.00385284,0.0162125,0.0102615,0.0159073,-0.0186157,0.014267,0.00442505
19,7,10.0097,0.000305176,0.000305176,-2.4302,0.0538499,-0.0753682,0.0516866,0.0798204,-0.095893,0.142877,-0.126987,-0.0880636,0.0111008,0.0230408,0.0126266,0.00953674,0.0175476,0.00953674,0.0204849,0.0194168,-9.97986,0.0130844,-0.00495911,0.0123978,0.0111771,0.0162125,-0.0219727,0.0154877,0.00190735
19,8,10.0097,0.000305176,0.000610352,-2.42837,0.0547655,-0.0747579,0.0522969,0.0749376,-0.095893,0.144708,-0.125766,-0.0856222,0.00766754,0.0241852,0.0215912,0.00881195,0.0178909,0.0128937,0.0215912,0.0148773,-9.97986,0.0131226,-0.00926971,0.0157928,0.010643,0.0151443,-0.0133514,0.0157928,0.00591278
19,9,10.0097,0,-0.000610352,-2.42867,0.0553758,-0.075063,0.0535176,0.0728014,-0.094062,0.144403,-0.125461,-0.0847066,0.0102997,0.0261688,0.0182343,0.0113678,0.0189972,0.0154114,0.0217438,0.0160217,-9.97986,0.0157166,-0.00301361,0.013237,0.0102615,0.0182724,-0.00713348,0.0165939,0.00514984
20,0,10.0097,-0.000610352,-0.000915527,-2.42806,0.0547655,-0.0747579,0.0535176,0.0706652,-0.0946723,0.145624,-0.125461,-0.0844015,0.0109863,0.0258636,0.0135803,0.00984192,0.0171661,0.0123978,0.0227356,0.0164413,-9.97986,0.0127792,-0.00450134,0.0159836,0.0135803,0.0173569,-0.000267029,0.0165558,0.00385284
20,1,10.0097,0.000610352,0.000457764,-2.42684,0.0559862,-0.075063,0.054128,0.0709703,-0.0931465,0.145318,-0.125766,-0.0834859,0.00862122,0.0246048,0.0173187,0.0146866,0.0175095,0.0137711,0.0216293,0.0239182,-9.97986,0.0125504,-0.00972748,0.015564,0.0109482,0.0192642,0.00232697,0.0171661,0.0082016
20,2,10.0097,0.000610352,0.000305176,-2.42501,0.0553758,-0.0738423,0.054128,0.0715807,-0.0925361,0.145318,-0.124851,-0.0825704,0.00934601,0.0199509,0.0198364,0.0107574,0.0163269,0.0104523,0.022049,0.0226212,-9.97986,0.0153351,-0.00865936,0.012207,0.0135422,0.0185394,0.00495911,0.0170898,0.00473022
20,3,10.0097,0.00213623,0.000305176,-2.42592,0.0575121,-0.0741475,0.0538228,0.0728014,-0.0910102,0.147455,-0.124241,-0.0816549,0.00789642,0.0236893,0.0172424,0.0056839,0.018959,0.0151062,0.0210953,0.0268173,-9.97986,0.0173187,-0.00648499,0.0160599,0.0117874,0.016861,0.00720978,0.0124359,0.0043869
20,4,10.0097,-0.000915527,0.000305176,-2.42592,0.0550706,-0.0744527,0.0532125,0.0499132,-0.0943672,0.145929,-0.126377,-0.0822652,0.00831604,0.0276184,0.0189209,0.00968933,0.0169754,0.00896454,0.0226212,0.0206375,-9.97986,0.0151443,-0.00976563,0.0178528,0.0104904,0.015564,-0.00724792,0.0148773,0.00785828
20,5,8.11299,0.000915527,-0.00213623,-2.42806,0.0559862,-0.0744527,0.0522969,0.00535754,-0.09925,0.145624,-0.129429,-0.0837911,0.00946045,0.0246811,0.0167847,0.00812531,0.0146866,0.0130081,0.0216293,0.0246811,-9.97986,0.0135803,-0.00537872,0.0163651,0.0138474,0.013237,-0.0075531,0.0139999,0.00572205
20,6,-1.08806,0.00244141,-0.00396729,-2.42623,0.0562914,-0.0723164,0.0532125,-0.00593396,-0.0961982,0.147149,-0.129123,-0.0816549,0.0088501,0.0249863,0.0192642,0.01091,0.0226974,0.00770569,0.0203705,0.0208664,-9.97986,0.0131226,-0.00221252,0.0159454,0.0111389,0.0154114,-0.0038147,0.0151062,0.00656128
20,7,-8.16264,-0.000610352,-0.00396729,-2.42592,0.0562914,-0.0747579,0.0538228,-0.0166151,-0.0961982,0.146844,-0.129734,-0.0810445,0.01297,0.0257111,0.0206375,0.0135422,0.0193024,0.0112534,0.0230789,0.0143814,-9.97986,0.0144577,-0.000762939,0.0161743,0.0137711,0.0161362,-0.00202179,0.0160217,0.00801086
20,8,-9.99003,0.000610352,-0.00289917,-2.42379,0.0572069,-0.0735371,0.0556539,0.0157335,-0.0922309,0.148065,-0.128818,-0.0807394,0.0161743,0.0199509,0.0197601,0.0106049,0.0106812,0.014801,0.0227737,0.011673,-9.97986,0.0150681,-0.00400543,0.0175476,0.00934601,-0.00614166,0.000686646,0.0173187,0.00782013
20,9,-9.99003,-0.000305176,-0.00167847,-2.42562,0.0553758,-0.0744527,0.0553487,0.0474718,-0.0900947,0.145929,-0.126072,-0.0813497,0.0138092,0.0192261,0.0191498,0.00953674,0.017662,0.0108337,0.02388,0.00846863,-9.97986,0.0119781,0.00255585,0.0153351,0.0103378,-0.0107956,-0.00553131,0.0152969,0.00541687
21,0,-9.99003,0.000915527,0.000152588,-2.42684,0.0550706,-0.0738423,0.0544332,0.0605944,-0.0910102,0.145318,-0.125461,-0.0825704,0.00896454,0.0202179,0.0213623,0.0133896,0.0212097,0.0111008,0.0214005,0.00999451,-9.97986,0.0172043,0.00667572,0.0185394,0.00976563,-0.0133133,-0.00221252,0.0144958,0.00411987
21,1,-9.99003,0.00274658,0.000152588,-2.42714,0.0550706,-0.0738423,0.0535176,0.0724962,-0.0910102,0.145013,-0.126682,-0.0828756,0.00900269,0.020256,0.0191879,0.00934601,0.0147247,0.0109863,0.0224304,0.0132751,-9.97986,0.0154877,-0.00614166,0.0166702,0.00659943,-0.00999451,0.000495911,0.0165939,0.00522614
21,2,-9.75291,0.00152588,0.00289917,-2.4247,0.055681,-0.0735371,0.0574849,0.13048,-0.0839912,0.145929,-0.12363,-0.0828756,0.0114822,0.0235748,0.0221252,0.0128174,0.0127411,0.0122833,0.0200272,0.00850677,-9.97986,0.0131989,-0.00461578,0.0150299,0.0120163,0.0157166,-0.00114441,0.00995636,0.00530243
21,3,-1.72221,0.000610352,0.00274658,-2.42867,0.0541551,-0.0762837,0.0547383,0.145738,-0.088874,0.144708,-0.121189,-0.0837911,0.0128555,0.022049,0.0164413,0.0104904,0.0139618,0.00938416,0.0249863,0.0130463,-9.97986,0.0126266,-0.00740051,0.0161362,0.0138474,0.0134277,-0.00240326,0.013504,0.00595093
21,4,6.20412,0.000915527,0.00442505,-2.42714,0.0535448,-0.0756734,0.0535176,0.153368,-0.0897895,0.143792,-0.121189,-0.085317,0.0126266,0.0191498,0.0193024,0.01194,0.0206375,0.0117493,0.0268555,0.0140381,-9.97986,0.0137711,-0.00644684,0.0146103,0.0143433,0.0152588,0.00263214,0.0125885,0.0056076
21,5,10.0097,-0.000305176,0.00427246,-2.4305,0.0520189,-0.0765889,0.0529073,0.132921,-0.0943672,0.142877,-0.12363,-0.0874532,0.00831604,0.0227356,0.0191116,0.0103378,0.0129318,0.0103378,0.021553,0.0120926,-9.97986,0.0166702,-0.00526428,0.016861,0.0151825,0.0107574,0.00469208,0.0129318,0.00461578
21,6,10.0097,0.00152588,0.000152588,-2.43081,0.0538499,-0.0768941,0.0495503,0.092943,-0.0977241,0.142267,-0.126682,-0.0889791,0.00984192,0.0203705,0.0203323,0.0114822,0.0174713,0.0112534,0.0245667,0.016861,-9.97986,0.0120926,-0.0124359,0.0141144,0.0126648,0.01297,-0.00202179,0.0143433,0.0038147
21,7,10.0097,-0.0012207,-0.000457764,-2.42837,0.0541551,-0.0775044,0.0513814,0.0792101,-0.0952827,0.143487,-0.126377,-0.0877584,0.0128937,0.021286,0.0188446,0.00881195,0.0188828,0.0126648,0.0230026,0.0202179,-9.97986,0.0151062,-0.000305176,0.0170898,0.0125122,0.0159073,0.000305176,0.0144958,0.00534058
21,8,10.0097,-0.000915527,0.000305176,-2.42898,0.0547655,-0.0762837,0.0516866,0.0740221,-0.095893,0.145318,-0.126072,-0.0862325,0.00988007,0.0228119,0.022583,0.00724792,0.0183487,0.0118256,0.0187302,0.0205231,-9.97986,0.0152969,0.00923157,0.0165176,0.0141907,0.0123978,-0.0069809,0.0150681,0.00492096
21,9,10.0097,0.000610352,0.000305176,-2.42806,0.0544603,-0.0756734,0.0522969,0.072191,-0.0949775,0.144403,-0.126682,-0.0850118,0.014267,0.0252533,0.0141525,0.0107956,0.0199127,0.0118637,0.0246048,0.0171661,-9.97986,0.0128937,0.0105286,0.0133896,0.0142288,0.0117493,-0.00473022,0.0173187,0.00610352
22,0,10.0097,0.000915527,-0.000305176,-2.42745,0.0544603,-0.075063,0.0532125,0.0724962,-0.0931465,0.144403,-0.126377,-0.0840963,0.0143814,0.0234222,0.0167847,0.0128937,0.0172043,0.0128937,0.0145721,0.0261688,-9.97986,0.0174713,0.00492096,0.0192642,0.012207,0.0170898,-0.0038147,0.0151443,0.00797272
22,1,10.0097,0.00152588,0.000305176,-2.42653,0.0562914,-0.0756734,0.0535176,0.0712755,-0.0928413,0.145624,-0.126377,-0.0840963,0.0114441,0.0278473,0.019989,0.0125885,0.0165558,0.0139236,0.0164032,0.022316,-9.97986,0.0145721,0.00236511,0.0131607,0.0139236,0.013504,-0.00335693,0.0120926,0.00606537
22,2,10.0097,0.000305176,0,-2.42531,0.0569017,-0.0735371,0.0547383,0.0712755,-0.090705,0.146234,-0.124241,-0.0825704,0.0115585,0.0225067,0.018425,0.00919342,0.0189972,0.0115967,0.0203323,0.019989,-9.97986,0.0128555,0.0012207,0.0152969,0.0119781,0.012207,0.0030899,0.0122833,0.00617981
22,3,10.0097,0.000610352,0.000762939,-2.4247,0.0550706,-0.0723164,0.0544332,0.0724962,-0.0922309,0.146234,-0.124546,-0.0816549,0.0105667,0.019722,0.0206375,0.0111008,0.0183105,0.0133896,0.0165558,0.0237656,-9.97986,0.0143051,0.000991821,0.0139618,0.0166702,0.0151443,0.00858307,0.0163269,0.0030899
22,4,10.0097,0.00152588,0,-2.42653,0.0559862,-0.075063,0.0532125,0.0535753,-0.0949775,0.145318,-0.126682,-0.0816549,0.0105667,0.0252533,0.0222397,0.0131607,0.0221634,0.0148392,0.0211334,0.0165558,-9.97986,0.0128555,0.00522614,0.0150681,0.0122452,0.0100327,0.0105667,0.0117111,0.00846863
22,5,8.29701,-0.00152588,-0.00183105,-2.42684,0.0550706,-0.0744527,0.0513814,0.0071886,-0.09925,0.145624,-0.128513,-0.0831808,0.00823975,0.0253677,0.0246811,0.0123978,0.0215912,0.0131989,0.0218582,0.0234985,-9.97986,0.0122833,0.00614166,0.0123978,0.0117111,0.0130081,0.00564575,0.0131989,0.0075531
22,6,-0.978193,0.00244141,-0.00442505,-2.42592,0.0572069,-0.0735371,0.0538228,-0.00593396,-0.0971137,0.146234,-0.128818,-0.0825704,0.00862122,0.0294876,0.0289536,0.0109482,0.0141907,0.0135422,0.0248337,0.022049,-9.97986,0.0128174,0.0161362,0.0170898,0.0134277,0.014534,-0.00232697,0.0138474,0.0063324
22,7,-7.94261,-0.000915527,-0.00411987,-2.42653,0.055681,-0.0735371,0.054128,-0.0187513,-0.0971137,0.147149,-0.13187,-0.0816549,0.0082016,0.0307083,0.0258255,0.0100327,0.0199509,0.0122833,0.0221634,0.0253677,-9.97986,0.0166321,0.013504,0.0179672,0.00854492,0.0109863,-0.00282288,0.0165558,0.0101852
22,8,-9.99003,0.000305176,-0.00259399,-2.42409,0.0569017,-0.0729268,0.0556539,0.0135973,-0.0925361,0.145318,-0.127903,-0.0807394,0.0123978,0.0253677,0.0214386,0.0094223,0.0180435,0.0094223,0.0229645,0.025444,-9.97986,0.0150299,0.0102997,0.0168228,0.0082016,-0.00301361,-0.00102997,0.0122452,0.00434875
22,9,-9.99003,0.000305176,-0.00106812,-2.42562,0.0547655,-0.075063,0.0565694,0.0456407,-0.090705,0.145624,-0.125766,-0.0813497,0.0118256,0.021553,0.0190353,0.00652313,0.0191879,0.0151062,0.0244141,0.0252914,-9.97986,0.0106049,0.00751495,0.0165558,0.0114441,-0.00808716,0.000495911,0.0167847,0.00720978
23,0,-9.99003,-0.000610352,-0.000610352,-2.42531,0.0550706,-0.0747579,0.0544332,0.0596788,-0.0925361,0.144403,-0.126377,-0.0825704,0.00957489,0.0183487,0.0215912,0.00995636,0.0177002,0.0147247,0.0275803,0.0226212,-9.97986,0.0159454,-0.0062561,0.0158691,0.0115585,-0.0133896,-0.000457764,0.0123978,0.00610352
23,1,-9.99003,0.000305176,0.000305176,-2.42531,0.0550706,-0.0759786,0.0550435,0.0728014,-0.0910102,0.145318,-0.125766,-0.0819601,0.0104523,0.023613,0.0220871,0.0113678,0.0175858,0.0105286,0.020752,0.0213623,-9.97986,0.0131989,-0.0151443,0.0157547,0.00858307,-0.00835419,-0.00118256,0.0130844,0.00808716
23,2,-9.52342,0,0.00305176,-2.42714,0.0550706,-0.0747579,0.0565694,0.129869,-0.0849067,0.144708,-0.121799,-0.0822652,0.0107956,0.0228882,0.0224686,0.00694275,0.0151062,0.00911713,0.0259399,0.0168991,-9.97986,0.0133133,-0.0194931,0.0126266,0.00358582,0.0209808,-0.00240326,0.0153732,0.00724792
23,3,-1.84245,0.000610352,0.00320435,-2.42714,0.0535448,-0.0753682,0.0550435,0.146349,-0.0873481,0.143792,-0.120578,-0.0850118,0.0122452,0.022316,0.022049,0.00846863,0.0151062,0.00907898,0.0241852,0.0160599,-9.97986,0.0143814,-0.00881195,0.0128937,0.00518799,0.0154495,-0.0012207,0.0115585,0.00499725
23,4,6.24166,0.00244141,0.00457764,-2.42898,0.0541551,-0.0765889,0.0535176,0.152757,-0.0897895,0.144403,-0.121494,-0.0856222,0.0125885,0.0225449,0.0268936,0.0127792,0.0161743,0.0131607,0.0212479,0.0102997,-9.97986,0.0101089,0.00133514,0.0178146,0.00514984,0.0178146,0.00263214,0.015831,0.00488281
23,5,10.0097,-0.000610352,0.00350952,-2.43081,0.0529344,-0.0759786,0.0522969,0.132616,-0.0934516,0.142572,-0.123325,-0.0886739,0.0147629,0.0252533,0.0230789,0.00846863,0.0208664,0.0133133,0.022583,0.00274658,-9.97986,0.0159073,0.00038147,0.0149918,0.00865936,0.0128937,0.00225067,0.0122452,0.00534058
23,6,10.0097,-0.000915527,0.00137329,-2.43142,0.0532396,-0.075063,0.0495503,0.0920275,-0.0965034,0.143182,-0.125461,-0.0886739,0.0127792,0.0368881,0.0209427,0.0139236,0.0200653,0.0142288,0.0247955,0.000190735,-9.97986,0.0139236,0.00423431,0.013237,0.00896454,0.0154877,-0.000686646,0.0150299,0.00644684
23,7,10.0097,0.000915527,0.000305176,-2.42959,0.0526292,-0.0756734,0.0516866,0.0789049,-0.0968086,0.142877,-0.126987,-0.0880636,0.0133133,0.0362778,0.0152969,0.0137711,0.0182724,0.0147247,0.0214386,0.00450134,-9.97986,0.0154877,0.00534058,0.0161362,0.00576019,0.0166321,-0.000534058,0.0162506,0.00492096
23,8,10.0097,0.0012207,0.000305176,-2.42837,0.0535448,-0.0759786,0.0526021,0.0746324,-0.0955879,0.144098,-0.126682,-0.0868429,0.00801086,0.0119781,0.0145721,0.0119781,0.015564,0.00900269,0.0232315,0.0108719,-9.97986,0.0191116,0.00331879,0.0162125,0.00499725,0.0178146,-0.0136566,0.0128937,0.0104141
23,9,10.0097,0.00183105,-0.000152588,-2.42837,0.0550706,-0.075063,0.0519917,0.0715807,-0.0934516,0.144708,-0.125766,-0.085317,0.0114059,-0.00198364,0.00671387,0.0133896,0.0157547,0.00835419,0.0192642,0.00785828,-9.97986,0.0155258,0.00190735,0.0185776,0.00209808,0.0144577,-0.0235748,0.0115585,0.00564575
24,0,10.0097,-0.000915527,0.000610352,-2.42745,0.0544603,-0.0747579,0.0526021,0.0712755,-0.0925361,0.145318,-0.126072,-0.0850118,0.0122452,0.0116348,0.0124741,0.014267,0.0184631,0.0102234,0.0196075,0.0111389,-9.97986,0.0241852,0.00595093,0.017662,0.00537872,0.017128,-0.0135803,0.0159454,0.0056076
24,1,10.0097,0.000305176,-0.000610352,-2.42592,0.055681,-0.0747579,0.054128,0.0724962,-0.0937568,0.145318,-0.124851,-0.0837911,0.0094986,0.022583,0.0115967,0.0104523,0.0188828,0.0123596,0.0157547,0.0113678,-9.97986,0.0156021,7.62939e-005,0.0131226,0.000686646,0.0138092,-0.000953674,0.0130081,0.00576019
24,2,10.0097,0.00152588,0.000457764,-2.42531,0.0569017,-0.0747579,0.054128,0.0715807,-0.0916206,0.145929,-0.124546,-0.0819601,0.0125122,0.0389099,0.0130844,0.0116348,0.0197983,0.0108337,0.016098,0.00663757,-9.97986,0.0175476,-0.00354767,0.0141525,0.00419617,0.0171661,0.00934601,0.0156403,0.00572205
24,3,10.0097,0.000915527,-0.000152588,-2.42531,0.0559862,-0.0729268,0.0550435,0.0728014,-0.0931465,0.147149,-0.124851,-0.0816549,0.00858307,0.0390244,0.0167465,0.0126648,0.0179672,0.00915527,0.020256,0.00804901,-9.97986,0.0186539,-0.0130081,0.014801,0.00431061,0.0166702,0.0122833,0.0143814,0.00831604
24,4,10.0097,0,0.000152588,-2.42776,0.0565965,-0.0741475,0.0529073,0.0544908,-0.0946723,0.145013,-0.125766,-0.0822652,0.00926971,0.0284576,0.0191879,0.0123596,0.0189972,0.0108719,0.0221634,0.0141907,-9.97986,0.0143814,-0.0104904,0.0114059,-0.000534058,0.01297,0.0143433,0.0115967,0.00534058
24,5,8.26528,0,-0.00244141,-2.42806,0.0562914,-0.0744527,0.0513814,0.00688342,-0.0989448,0.145318,-0.129734,-0.0831808,0.0121689,0.020752,0.0159454,0.0104141,0.0196457,0.0115204,0.0220871,0.019455,-9.97986,0.0175095,-7.62939e-005,0.0119781,0.00328064,0.0135422,0.00106812,0.0126266,0.0050354
24,6,-0.916853,0.000305176,-0.00427246,-2.4244,0.0565965,-0.0729268,0.0535176,-0.00654431,-0.0968086,0.145929,-0.128208,-0.0816549,0.0148392,0.0138855,0.0108719,0.0123215,0.0162888,0.0113297,0.0194168,0.0173569,-9.97986,0.0164032,-0.000457764,0.0120163,0.000190735,0.0179672,-0.0246429,0.0144577,0.00946045
24,7,-7.85228,0,-0.00488281,-2.42592,0.0572069,-0.0744527,0.0544332,-0.0166151,-0.0983344,0.146844,-0.130954,-0.0816549,0.0118637,0.00862122,0.00858307,0.0137329,0.0175858,0.0114059,0.0237656,0.0185013,-9.97986,0.0167084,0.00232697,0.0152206,0.00106812,0.0159454,-0.0219727,0.0144958,0.00526428
24,8,-9.99003,0.000305176,-0.00213623,-2.42501,0.0569017,-0.0738423,0.0553487,0.0145128,-0.0913154,0.145624,-0.127903,-0.0804342,0.00865936,0.00831604,0.00705719,0.0119781,0.021019,0.0102615,0.0224686,0.0214386,-9.97986,0.017395,-0.00282288,0.0161743,0.0030899,0.00282288,-0.00843048,0.0149536,0.00827789
24,9,-9.99003,0.00183105,-0.00183105,-2.42379,0.0550706,-0.0741475,0.0556539,0.047777,-0.0894843,0.146234,-0.126072,-0.0813497,0.00904083,0.00972748,0.0107574,0.0122452,0.0186539,0.0101471,0.0211716,0.020752,-9.97986,0.0154114,0.00312805,0.00991821,-0.00160217,-0.00831604,0.00183105,0.0183868,0.00522614
25,0,-9.99003,0,-0.000762939,-2.42623,0.0550706,-0.075063,0.0553487,0.0587633,-0.0919257,0.146844,-0.126072,-0.0816549,0.00968933,0.0119019,0.00980377,0.00896454,0.0147247,0.0130081,0.0257111,0.0247574,-9.97986,0.0172806,0.00476837,0.0130844,-0.000991821,-0.00999451,0.00659943,0.0158691,0.00640869
25,1,-9.99003,0.000305176,0.000152588,-2.42562,0.055681,-0.0747579,0.0553487,0.0746324,-0.0900947,0.145929,-0.124851,-0.0831808,0.0069809,0.0182343,0.0169373,0.0138092,0.0165176,0.0116348,0.0218964,0.0186539,-9.97986,0.0147247,0.0062561,0.0154114,-0.000572205,-0.00602722,0.0193024,0.0139999,0.00648499
25,2,-9.37785,0.000915527,0.00244141,-2.42501,0.055681,-0.0744527,0.0562642,0.133226,-0.0849067,0.144708,-0.121799,-0.0825704,0.0107574,0.0239563,0.0172424,0.00782013,0.0174332,0.0122833,0.0251007,0.0075531,-9.97986,0.0144196,0.00347137,0.0150681,-0.00118256,0.0163269,0.0152588,0.019989,0.00331879
25,3,-1.34379,0,0.00335693,-2.42714,0.0541551,-0.0765889,0.054128,0.146044,-0.0870429,0.144098,-0.121494,-0.0834859,0.0117493,0.0233841,0.0191879,0.0140762,0.0162125,0.0136948,0.0236511,0.00717163,-9.97986,0.0118256,-0.0030899,0.0157166,-0.000724792,0.0218582,0.00846863,0.0172424,0.0063324
25,4,6.52608,0.0012207,0.00396729,-2.42837,0.0535448,-0.0762837,0.0544332,0.152147,-0.0900947,0.144403,-0.121494,-0.085317,0.00850677,0.0168228,0.0222778,0.0123596,0.0166321,0.0112534,0.0228882,0.0157928,-9.97986,0.0136185,-0.00976563,0.014534,-0.00087738,0.0197983,-0.00289917,0.0171661,0.00705719
25,5,10.0097,-0.000610352,0.00350952,-2.43081,0.0529344,-0.0765889,0.0513814,0.129869,-0.0955879,0.141351,-0.123935,-0.0886739,0.00743866,0.0128937,0.0200272,0.00850677,0.0138474,0.0127029,0.0230789,0.0198364,-9.97986,0.0139999,-0.00370026,0.0139236,-0.00297546,0.0194168,-0.00202179,0.0154877,0.00732422
25,6,10.0097,-0.000610352,0.00167847,-2.43081,0.0535448,-0.0768941,0.0501607,0.0914171,-0.0974189,0.142572,-0.126377,-0.0880636,0.0113297,0.021553,0.0195694,0.0119019,0.0167465,0.00762939,0.0239944,0.0237656,-9.97986,0.0127792,-0.00743866,0.013504,-0.00415802,0.0206375,-0.0018692,0.0172043,0.00644684
25,7,10.0097,-0.000915527,0.000610352,-2.42837,0.0538499,-0.0765889,0.0504659,0.0792101,-0.0977241,0.144098,-0.127292,-0.0877584,0.00965118,0.0178146,0.0196075,0.0133514,0.0196838,0.00637054,0.0263214,0.0128937,-9.97986,0.0135422,0.000152588,0.0139999,-0.00232697,0.0186157,-0.00419617,0.0144196,0.00541687
25,8,10.0097,0.000610352,0.000152588,-2.42714,0.0535448,-0.0753682,0.0522969,0.0731066,-0.0949775,0.144403,-0.126987,-0.0871481,0.0111008,0.0195694,0.0229645,0.00747681,0.0201797,0.00770569,0.0234222,0.0115204,-9.97986,0.0128174,0.00038147,0.0121689,-0.000534058,0.0151443,-0.0063324,0.0162125,0.00328064
25,9,10.0097,0.000610352,-0.000152588,-2.42776,0.0550706,-0.0747579,0.0532125,0.0715807,-0.0943672,0.144098,-0.125461,-0.0850118,0.0140381,0.0219345,0.0191498,0.0103378,0.0160599,0.0113678,0.0212479,0.01297,-9.97986,0.0119019,0.000343323,0.0146484,-0.00183105,0.0210953,-0.00576019,0.0186157,0.00736237
26,0,10.0097,0.00152588,0.000610352,-2.42837,0.0550706,-0.075063,0.0522969,0.0709703,-0.0922309,0.145318,-0.126072,-0.0844015,0.00770569,0.0201797,0.0193787,0.00774384,0.0133896,0.0112152,0.0217819,0.016861,-9.97986,0.0129318,-0.00583649,0.0123596,-0.0069809,0.0186539,-0.00640869,0.0170135,0.00900269
26,1,10.0097,-0.000305176,0.000305176,-2.42684,0.055681,-0.0741475,0.0532125,0.0697496,-0.0925361,0.145624,-0.125766,-0.0850118,0.00919342,0.0193787,0.0184631,0.0137329,0.0159073,0.0110626,0.0207138,0.017128,-9.97986,0.0151443,-0.00740051,0.011673,-0.00118256,0.0204086,-0.00896454,0.0191498,0.00843048
26,2,10.0097,0.00274658,0.000762939,-2.42531,0.0559862,-0.0738423,0.0544332,0.0724962,-0.0916206,0.148065,-0.124851,-0.0813497,0.0146484,0.0201416,0.0202942,0.0162506,0.0244904,0.0154877,0.0249863,0.0217819,-9.97986,0.0191879,-0.00492096,0.0156403,-0.000343323,0.0236511,-0.00759125,0.0236893,0.00953674
26,3,10.0097,0.00152588,0.000305176,-2.42562,0.0559862,-0.0738423,0.0553487,0.0712755,-0.0903999,0.146234,-0.124546,-0.0816549,0.00782013,0.0185776,0.00713348,0.00747681,0.0132751,0.00541687,0.0144577,0.0103378,-9.97986,0.00938416,-0.00740051,0.00976563,-0.0044632,0.0125122,-0.0213623,0.0121689,0.00431061
26,4,10.0097,-0.00152588,0.000610352,-2.42714,0.0559862,-0.0741475,0.0538228,0.0532701,-0.0946723,0.146844,-0.126377,-0.0825704,0.0151825,0.0263596,0.0219727,0.0186539,0.019722,0.0115204,0.0194168,0.0169754,-9.97986,0.0180817,-0.00202179,0.0182343,0.00289917,0.02285,-0.0111771,0.022049,0.00759125
26,5,8.27962,0.000915527,-0.00289917,-2.42806,0.0559862,-0.0747579,0.050771,0.0071886,-0.0995551,0.146234,-0.129734,-0.0837911,0.00946045,0.0193405,0.018692,0.0129318,0.0148392,0.00919342,0.0233078,0.0174713,-9.97986,0.0168228,-0.00228882,0.0143051,-0.00473022,0.0192642,-0.0125504,0.0170517,0.00495911
26,6,-0.980024,-0.000305176,-0.00427246,-2.42562,0.0572069,-0.0726216,0.0532125,-0.00684949,-0.095893,0.147149,-0.130649,-0.0819601,0.0104141,0.0221634,0.0172043,0.0156021,0.0139618,0.0118637,0.0211716,0.0174332,-9.97986,0.0178909,-0.00087738,0.0183487,-0.00148773,0.0194168,-0.0209808,0.0162506,0.0106812
26,7,-7.93956,0.0012207,-0.00442505,-2.42653,0.0569017,-0.0741475,0.0538228,-0.018141,-0.0974189,0.145929,-0.129123,-0.0822652,0.0101471,0.0224686,0.0196075,0.0139236,0.0163269,0.0121307,0.0185394,0.0184631,-9.97986,0.0160599,-0.00156403,0.0136948,-0.00164032,0.0146103,-0.0209427,0.0164032,0.00732422
26,8,-9.99003,0.0012207,-0.00289917,-2.42409,0.0559862,-0.0744527,0.0550435,0.0139025,-0.0919257,0.144403,-0.129123,-0.0798238,0.00621796,0.0291443,0.020256,0.0130844,0.0147629,0.0123215,0.0181198,0.0202179,-9.97986,0.0146103,-0.00343323,0.0153351,0.000228882,0.000152588,-0.0173187,0.0175858,0.00621796
26,9,-9.99003,0.000915527,-0.00183105,-2.42501,0.0565965,-0.0744527,0.0562642,0.0483873,-0.0903999,0.146539,-0.125766,-0.080129,0.00839233,0.0256729,0.0198364,0.0128174,0.0145721,0.0164032,0.0216293,0.0188828,-9.97986,0.0144577,-0.00293732,0.0155258,-0.00190735,-0.00587463,-0.0121307,0.0188828,0.00846863
27,0,-9.99003,0.0012207,-0.000915527,-2.42592,0.055681,-0.0744527,0.0547383,0.0596788,-0.0910102,0.145318,-0.126377,-0.0816549,0.00976563,0.0241089,0.0173569,0.00793457,0.0162506,0.0102997,0.0188065,0.0181198,-9.97986,0.0127029,0.000915527,0.0130081,0.00190735,-0.0087738,-0.00469208,0.0173187,0.00648499
27,1,-9.99003,-0.000610352,0,-2.42562,0.0535448,-0.0747579,0.0553487,0.0746324,-0.0900947,0.145624,-0.123935,-0.0813497,0.0120544,0.0267029,0.0240326,0.0144196,0.0180054,0.00774384,0.0206757,0.0175476,-9.97986,0.014801,0.00297546,0.0150299,0.00137329,-0.00671387,0.00301361,0.0207138,0.00801086
27,2,-9.36809,0.00152588,0.00259399,-2.42592,0.0538499,-0.0747579,0.0571797,0.133226,-0.0852119,0.145318,-0.12241,-0.0825704,0.0126648,0.0252151,0.0244904,0.0115585,0.0185394,0.00724792,0.0181198,0.0160599,-9.97986,0.0104523,0.00331879,0.0136566,-0.00202179,0.0169754,0.0146866,0.020256,0.00793457
27,3,-1.3798,0.000610352,0.00427246,-2.42776,0.0547655,-0.0765889,0.0550435,0.146959,-0.0882636,0.143487,-0.12241,-0.0844015,0.0104523,0.0270844,0.0196075,0.013237,0.0117493,0.0104141,0.0232697,0.017662,-9.97986,0.0125504,0.000610352,0.0167084,0.00232697,0.0179291,0.0182343,0.0171661,0.00770569
27,4,6.45894,-0.000610352,0.00457764,-2.42837,0.0535448,-0.0762837,0.054128,0.151842,-0.0879585,0.144403,-0.122104,-0.0862325,0.0101089,0.0265121,0.0163269,0.0120926,0.0179672,0.0125122,0.0170898,0.0213242,-9.97986,0.0145721,0.00324249,0.0131607,0.00305176,0.0174332,0.0170517,0.0196457,0.00659943
27,5,10.0097,0.000305176,0.00427246,-2.43081,0.0532396,-0.0762837,0.0498555,0.130785,-0.0943672,0.142572,-0.125461,-0.0883688,0.0122452,0.0260162,0.0217438,0.00896454,0.0214005,0.00621796,0.0216675,0.0197601,-9.97986,0.0124359,7.62939e-005,0.014801,0.00453949,0.0133133,0.0107193,0.0243378,0.00495911
27,6,10.0097,0.0012207,0.00137329,-2.42989,0.0538499,-0.0765889,0.0492452,0.0920275,-0.0977241,0.142877,-0.125766,-0.0883688,0.012207,0.029335,0.0215912,0.00926971,0.0147247,0.0107574,0.0213623,0.0167847,-9.97986,0.0106049,0.00263214,0.00961304,0.00183105,0.018158,0.0111771,0.0200272,0.00720978
27,7,10.0097,-0.00183105,0.000457764,-2.4302,0.0541551,-0.0756734,0.0504659,0.0792101,-0.0977241,0.144098,-0.127292,-0.0880636,0.00793457,0.0305176,0.0191879,0.0138092,0.0188828,0.00480652,0.020256,0.0150299,-9.97986,0.0134659,0.00534058,0.00968933,0.00904083,0.0172424,0.00286102,0.0183868,0.00507355
27,8,10.0097,-0.000915527,-0.000152588,-2.42776,0.0535448,-0.0762837,0.0516866,0.075548,-0.0949775,0.144098,-0.126377,-0.085317,0.0113678,0.0312042,0.0234985,0.0116348,0.015564,0.00999451,0.0211334,0.0177765,-9.97986,0.0136185,0.00720978,0.015831,0.00152588,0.0152969,-0.00343323,0.0189209,0.00556946
27,9,10.0097,-0.000305176,0,-2.42776,0.0547655,-0.0756734,0.0535176,0.0718859,-0.0931465,0.144403,-0.126072,-0.0859274,0.0127029,0.0270081,0.0192261,0.010643,0.0156403,0.00736237,0.019455,0.0163269,-9.97986,0.0137711,0.00671387,0.0164795,0.000457764,0.0154114,7.62939e-005,0.0189972,0.00701904
28,0,10.0097,0.000915527,0.000152588,-2.42714,0.0559862,-0.0735371,0.0516866,0.0718859,-0.0928413,0.144708,-0.126377,-0.0847066,0.0148773,0.0295258,0.0160599,0.0094223,0.0208664,0.00984192,0.0186157,0.0195694,-9.97986,0.0165558,0.00530243,0.0140381,0.00434875,0.0117874,-0.00366211,0.0159454,0.00598907
28,1,10.0097,-0.000915527,0.000457764,-2.42745,0.0565965,-0.0759786,0.0535176,0.0715807,-0.0928413,0.145318,-0.125461,-0.0837911,0.0121689,0.0255203,0.0235367,0.00923157,0.0173187,0.0111389,0.0181961,0.0130081,-9.97986,0.0105286,0.00415802,0.0103378,0.00492096,0.0164032,0.00228882,0.0164795,0.00289917
28,2,10.0097,-0.000305176,0.00106812,-2.42501,0.0562914,-0.0738423,0.0538228,0.0709703,-0.0919257,0.146844,-0.124851,-0.0822652,0.0146866,0.0273514,0.0219727,0.0121689,0.0167084,0.0106049,0.0238037,0.0214386,-9.97986,0.0165939,-0.00274658,0.0163651,0.00823975,0.0139999,0.0030899,0.020752,0.00240326
28,3,10.0097,0.00274658,0.000457764,-2.42501,0.0562914,-0.0744527,0.054128,0.0718859,-0.0919257,0.146234,-0.124241,-0.0807394,0.0104141,0.0270844,0.0177383,0.0112534,0.018959,0.0130081,0.0145721,0.0157928,-9.97986,0.0130463,-0.0043869,0.0156403,0.00663757,0.0184631,-0.00164032,0.0194168,0.00553131
28,4,10.0097,-0.0012207,0.000457764,-2.42653,0.0550706,-0.0762837,0.0529073,0.0523546,-0.0949775,0.146234,-0.126377,-0.0825704,0.01194,0.0255203,0.0209045,0.0123215,0.0178909,0.00648499,0.0204849,0.018425,-9.97986,0.011673,0.00389099,0.0146484,0.00831604,0.0110626,-0.00362396,0.017395,0.00751495
28,5,8.22682,0,-0.00213623,-2.42745,0.0544603,-0.0753682,0.0513814,0.00596789,-0.0989448,0.145318,-0.129734,-0.0837911,0.00957489,0.0237274,0.018158,0.0124359,0.0201416,0.0069809,0.0154495,0.0207901,-9.97986,0.0122452,0.00461578,0.0144958,0.00602722,0.0160599,-0.00213623,0.0210571,0.00549316
28,6,-0.931806,0.000305176,-0.00442505,-2.42501,0.0572069,-0.0738423,0.0532125,-0.00562879,-0.0971137,0.146234,-0.129123,-0.0819601,0.0102615,0.0259018,0.0178528,0.0107574,0.0133133,0.0056076,0.0183105,0.0173569,-9.97986,0.0162125,-0.00297546,0.0111771,0.00572205,0.0169373,-0.00442505,0.0191879,0.00556946
28,7,-7.99174,-0.00152588,-0.00427246,-2.42592,0.0565965,-0.0729268,0.0535176,-0.0175306,-0.095893,0.146539,-0.13126,-0.0816549,0.0112915,0.0228882,0.0164413,0.0115967,0.0129318,0.00926971,0.0222015,0.0180817,-9.97986,0.0125504,-0.0062561,0.0112534,0.00679016,0.0159073,-0.00602722,0.0168228,0.00671387
28,8,-9.99003,0.0012207,-0.00305176,-2.42501,0.0565965,-0.0735371,0.0556539,0.0145128,-0.0919257,0.146234,-0.129123,-0.0807394,0.00831604,0.026741,0.018692,0.0115967,0.0190735,0.0069809,0.0218964,0.0178909,-9.97986,0.0141144,-0.00621796,0.0112152,0.00865936,-0.00499725,-0.00488281,0.0205612,0.00682831
28,9,-9.99003,-0.000915527,-0.0012207,-2.4244,0.055681,-0.0747579,0.0565694,0.0474718,-0.0900947,0.145624,-0.127598,-0.0810445,0.0114441,0.0234222,0.0181198,0.00911713,0.0190735,0.00938416,0.0216675,0.0192642,-9.97986,0.0170898,-0.00213623,0.0172424,0.00389099,-0.00797272,-0.00839233,0.0177765,0.00526428
29,0,-9.99003,0.00305176,-0.000305176,-2.42562,0.0550706,-0.075063,0.054128,0.0596788,-0.0910102,0.144708,-0.126377,-0.0828756,0.00663757,0.0265121,0.0204849,0.0128174,0.0209808,0.00736237,0.0240707,0.019455,-9.97986,0.0154495,-0.00225067,0.0127411,0.00717163,-0.0106812,-0.014267,0.0157547,0.00759125
29,1,-9.99003,0.000610352,0.000152588,-2.42653,0.0550706,-0.0747579,0.0562642,0.0743273,-0.0897895,0.145624,-0.124546,-0.0831808,0.0121307,0.0233078,0.0144958,0.00946045,0.0150681,0.00782013,0.0198746,0.0199127,-9.97986,0.0139236,-0.00415802,0.0132751,0.00598907,-0.00587463,-0.0111771,0.0171661,0.00648499
29,2,-9.45292,-0.000305176,0.00259399,-2.42531,0.0541551,-0.0735371,0.055959,0.1317,-0.0849067,0.145013,-0.121494,-0.0828756,0.0113297,0.0286865,0.0168991,0.00953674,0.0171661,0.0087738,0.0233841,0.0179672,-9.97986,0.0142288,-0.000152588,0.0114822,0.0050354,0.0162125,0.000305176,0.0154495,0.00350952
29,3,-1.65996,0.000305176,0.00320435,-2.42623,0.0529344,-0.0756734,0.0553487,0.146044,-0.0882636,0.143792,-0.121494,-0.0844015,0.0128937,0.0263214,0.0169754,0.0118256,0.0193024,0.00953674,0.0197601,0.0210953,-9.97986,0.0133133,0.00759125,0.0127029,0.00709534,0.020256,0.000572205,0.0144196,0.0075531
29,4,6.4565,0.000610352,0.00518799,-2.42837,0.0541551,-0.0768941,0.0532125,0.152452,-0.0882636,0.143792,-0.121189,-0.0856222,0.00972748,0.0245285,0.0204468,0.0102234,0.0183868,0.0069809,0.0227737,0.0190735,-9.97986,0.0128937,-0.00240326,0.0108719,0.00667572,0.0204086,0.000801086,0.0198746,0.00648499
29,5,10.0097,0.0012207,0.0038147,-2.43111,0.0529344,-0.0759786,0.0513814,0.129259,-0.0937568,0.141961,-0.125156,-0.0889791,0.0122833,0.0273132,0.0209045,0.013237,0.0220871,0.0100708,0.0233841,0.0201797,-9.97986,0.0133514,0.00247955,0.0157166,0.00431061,0.0174713,0.00209808,0.0151825,0.00720978
29,6,10.0097,0.000915527,0.000610352,-2.4305,0.0541551,-0.0765889,0.0498555,0.0920275,-0.0971137,0.142877,-0.125461,-0.0880636,0.014267,0.0268555,0.0195313,0.0125504,0.018158,0.00770569,0.0229263,0.0172043,-9.97986,0.0164795,0.0012207,0.0136566,0.00259399,0.0164032,0.00801086,0.0149536,0.00709534
29,7,10.0097,0.000610352,0.000305176,-2.42989,0.0532396,-0.0747579,0.0510762,0.0782946,-0.0961982,0.142572,-0.126987,-0.0877584,0.0132751,0.0265503,0.0231934,0.0111771,0.0223541,0.00923157,0.0232697,0.0191879,-9.97986,0.0151443,-0.0025177,0.0124359,0.0094223,0.0173187,-0.00217438,0.0164032,0.00480652
29,8,10.0097,-0.000610352,-0.000457764,-2.42806,0.0538499,-0.0744527,0.0529073,0.0740221,-0.0949775,0.143792,-0.126682,-0.0859274,0.00812531,0.0231552,0.017395,0.0117874,0.0200272,0.0075531,0.0186157,0.0177383,-9.97986,0.0137329,-0.00423431,0.0111008,0.00759125,0.018158,-0.00522614,0.0183868,0.00499725
29,9,10.0097,-0.000305176,0,-2.42806,0.0550706,-0.0756734,0.0535176,0.0709703,-0.0943672,0.145013,-0.126377,-0.0850118,0.00965118,0.0306702,0.017395,0.0121689,0.0172424,0.0125885,0.0222015,0.0190735,-9.97986,0.0170135,-0.00305176,0.016098,0.00881195,0.018959,-0.0018692,0.019722,0.00583649
30,0,10.0097,0.0012207,-0.000305176,-2.42837,0.0544603,-0.0753682,0.0522969,0.0728014,-0.0931465,0.144403,-0.126072,-0.0844015,0.00823975,0.0249863,0.0195694,0.00846863,0.0163269,0.0108337,0.0233459,0.0222778,-9.97986,0.0138092,0.000572205,0.0105667,0.00976563,0.0195313,-0.00171661,0.0174332,0.00862122
30,1,10.0097,0.000610352,0.000152588,-2.42714,0.0562914,-0.0741475,0.0556539,0.072191,-0.0931465,0.145013,-0.126072,-0.0834859,0.00934601,0.024147,0.0196457,0.0143433,0.0170135,0.00854492,0.0222397,0.0207901,-9.97986,0.0136566,-0.000419617,0.0178146,0.00728607,0.0178146,-0.0019455,0.0186157,0.01091
30,2,10.0097,0.000915527,0.000305176,-2.42592,0.055681,-0.0741475,0.0544332,0.072191,-0.0900947,0.147149,-0.124851,-0.0816549,0.0115967,0.0231934,0.0182343,0.0105286,0.0143051,0.0101471,0.0196838,0.0140762,-9.97986,0.0139618,-0.00549316,0.0150681,0.00938416,0.018425,-0.00572205,0.0162125,0.0102615
30,3,10.0097,0.000610352,-0.000152588,-2.42501,0.0562914,-0.0744527,0.054128,0.0715807,-0.0922309,0.145624,-0.123935,-0.0810445,0.0124741,0.0160599,0.0232315,0.0152206,0.0173569,0.00984192,0.0211716,0.0172806,-9.97986,0.0151443,-0.0043869,0.0149155,0.0100708,0.0186157,0.00221252,0.0212479,0.00431061
30,4,10.0097,0.00244141,0.000915527,-2.42562,0.055681,-0.0738423,0.0535176,0.0538805,-0.0955879,0.146234,-0.126682,-0.0825704,0.0130463,0.00907898,0.0179672,0.01091,0.0133133,0.0075531,0.02285,0.0156784,-9.97986,0.0153351,-0.0031662,0.0128555,0.00717163,0.0190735,0.00175476,0.0180435,0.00808716
30,5,8.22988,0,-0.00213623,-2.42837,0.0541551,-0.0744527,0.0522969,0.00474719,-0.0995551,0.145929,-0.129123,-0.0837911,0.0113297,0.0135422,0.019722,0.0120163,0.020256,0.010376,0.0240326,0.0166321,-9.97986,0.0123215,-0.00102997,0.0167084,0.00980377,0.0160217,-0.00453949,0.0192642,0.00789642
30,6,-1.00963,-0.0012207,-0.00457764,-2.42501,0.0572069,-0.0741475,0.054128,-0.00654431,-0.095893,0.146234,-0.129734,-0.0822652,0.00938416,0.0130081,0.0198364,0.0123978,0.021019,0.00972748,0.0214005,0.0134659,-9.97986,0.0188065,-0.00347137,0.0125122,0.00801086,0.0159836,-0.00862122,0.0165176,0.00511169
30,7,-8.01616,0.00183105,-0.00396729,-2.42531,0.0569017,-0.0738423,0.054128,-0.018141,-0.0955879,0.146234,-0.130039,-0.0822652,0.0104523,0.021553,0.0193787,0.011673,0.0157166,0.00793457,0.0185776,0.0133896,-9.97986,0.0162125,0.00167847,0.0123215,0.00549316,0.0188446,-0.0104904,0.0165558,0.00766754
30,8,-9.99003,0.000915527,-0.00335693,-2.42531,0.0559862,-0.073232,0.0556539,0.0154283,-0.0913154,0.145624,-0.128513,-0.0810445,0.00968933,0.0222778,0.0229263,0.0126648,0.0155258,0.00888824,0.0213242,0.014534,-9.97986,0.014801,0.00366211,0.0125122,0.0106812,-0.000801086,-0.0143051,0.0163269,0.00762939
30,9,-9.99003,0,-0.00152588,-2.42501,0.0565965,-0.0738423,0.055959,0.0493029,-0.0900947,0.146539,-0.126377,-0.0816549,0.0102234,0.0222015,0.0170898,0.0140762,0.0186539,0.00888824,0.0209427,0.0194931,-9.97986,0.0136948,0.000495911,0.011673,0.00629425,-0.00732422,-0.0114441,0.0167084,0.00659943
31,0,-9.99003,0.0012207,0,-2.42592,0.0535448,-0.075063,0.0553487,0.0593737,-0.0910102,0.144708,-0.126987,-0.0819601,0.0113297,0.0255203,0.0206375,0.0127411,0.0164795,0.00888824,0.0188828,0.0193024,-9.97986,0.0156784,-0.0012207,0.0109482,0.0111771,-0.0126266,-0.00984192,0.0149155,0.00640869
31,1,-9.99003,0.000610352,0.000457764,-2.42592,0.0562914,-0.075063,0.0553487,0.0743273,-0.0910102,0.146539,-0.125461,-0.0834859,0.00751495,0.0198746,0.0233078,0.00846863,0.016861,0.00846863,0.0237274,0.0186157,-9.97986,0.0143433,-0.000114441,0.0114822,0.0101852,-0.00572205,0.000190735,0.0178528,0.00431061
31,2,-9.44377,0,0.00335693,-2.42501,0.0544603,-0.0747579,0.055959,0.1317,-0.0852119,0.145624,-0.121494,-0.0825704,0.0109863,0.022049,0.0215912,0.0146103,0.018692,0.00984192,0.0217819,0.0225449,-9.97986,0.0120163,0.00263214,0.0147247,0.0106812,0.0172043,0.00762939,0.0192642,0.00576019
31,3,-1.42497,0.00274658,0.00350952,-2.42684,0.0535448,-0.075063,0.0535176,0.145738,-0.0876533,0.144098,-0.121494,-0.0834859,0.0110626,0.0227737,0.0217819,0.0128937,0.0157928,0.00984192,0.0187683,0.0279999,-9.97986,0.0139236,-0.00358582,0.0163651,0.00732422,0.0107574,0.0132751,0.017128,0.00724792
31,4,6.48,0.000915527,0.00473022,-2.42837,0.0541551,-0.0762837,0.0538228,0.152147,-0.0900947,0.144403,-0.122715,-0.0859274,0.0111771,0.0243378,0.0201416,0.0124741,0.0152588,0.011673,0.0232315,0.0245667,-9.97986,0.013504,-0.00656128,0.0132751,0.00602722,0.0196838,0.0149918,0.0177002,0.00774384
31,5,10.0097,0.000915527,0.00335693,-2.43111,0.0532396,-0.0768941,0.0513814,0.130174,-0.0949775,0.143182,-0.124241,-0.0877584,0.0106049,0.0252151,0.0234604,0.0103378,0.0140762,0.00419617,0.02388,0.0178528,-9.97986,0.0157547,-0.00087738,0.0142288,0.00331879,0.0164795,0.0131989,0.0163269,0.00614166
31,6,10.0097,0,0.00106812,-2.4302,0.0526292,-0.0765889,0.0495503,0.0917223,-0.0968086,0.144403,-0.126072,-0.0892843,0.0123215,0.0328445,0.0197983,0.0143814,0.0197983,0.00572205,0.0246048,0.0228119,-9.97986,0.0150299,-0.000762939,0.0152588,0.00656128,0.0115585,0.00770569,0.0175858,0.00537872
31,7,10.0097,-0.000915527,0.000152588,-2.42867,0.0538499,-0.0756734,0.0513814,0.0792101,-0.0974189,0.143182,-0.126377,-0.0886739,0.0107193,0.033226,0.019722,0.0136566,0.0198746,0.00648499,0.0218964,0.0228119,-9.97986,0.0163269,0.00232697,0.0142288,0.00991821,0.0197601,0.000991821,0.0162506,0.00648499
31,8,10.0097,-0.000305176,0.000305176,-2.42898,0.0550706,-0.0744527,0.0526021,0.0740221,-0.0946723,0.143487,-0.126377,-0.0865377,0.0082016,0.0196457,0.0218964,0.0117874,0.0189972,0.0108719,0.0207901,0.0230408,-9.97986,0.0121307,-0.00209808,0.0126648,0.00858307,0.0183868,-0.00724792,0.0177002,0.00408173
31,9,10.0097,0.00152588,0.000305176,-2.42776,0.0553758,-0.0759786,0.0526021,0.0724962,-0.0937568,0.145318,-0.125766,-0.0856222,0.00988007,0.0248718,0.02388,0.00896454,0.0150681,0.010643,0.022583,0.0182724,-9.97986,0.0125122,0.00255585,0.00915527,0.00587463,0.0214386,-0.00915527,0.0214386,0.00423431
32,0,10.0097,-0.00274658,0.000305176,-2.42653,0.0562914,-0.075063,0.0535176,0.0715807,-0.0931465,0.145318,-0.126072,-0.0850118,0.0117493,0.0263977,0.0227356,0.0114822,0.0136566,0.0107193,0.0261688,0.0216293,-9.97986,0.0124741,-0.000267029,0.0094986,0.00801086,0.0148773,-0.0156784,0.0164413,0.00934601
32,1,10.0097,0.00183105,0.000305176,-2.42684,0.0559862,-0.0747579,0.0529073,0.0718859,-0.0928413,0.144708,-0.125156,-0.0850118,0.00808716,0.0304794,0.0211334,0.0136566,0.021286,0.0113297,0.0232315,0.0210571,-9.97986,0.0151443,-0.00839233,0.0146484,0.00495911,0.0191116,-0.0153732,0.0196457,0.0088501
32,2,10.0097,0.00183105,0.000152588,-2.42501,0.0572069,-0.0738423,0.0550435,0.0715807,-0.0913154,0.146539,-0.124546,-0.0825704,0.0105667,0.0389099,0.0169373,0.0114059,0.016861,0.0103378,0.0259399,0.0231934,-9.97986,0.0141144,-0.00267029,0.0127792,0.00511169,0.0184631,-0.0152969,0.0183105,0.00812531
32,3,10.0097,0,0.000305176,-2.4247,0.0569017,-0.0738423,0.0550435,0.0718859,-0.0925361,0.147455,-0.12363,-0.0813497,0.0110245,0.0419235,0.019455,0.00995636,0.0208282,0.00923157,0.0214005,0.0189209,-9.97986,0.0156403,-0.00312805,0.0141907,0.00850677,0.020752,-0.0141144,0.0179291,0.0069809
32,4,10.0097,-0.00152588,0.000762939,-2.42714,0.0562914,-0.0753682,0.0535176,0.052965,-0.0949775,0.146539,-0.126072,-0.0834859,0.0128555,0.0368118,0.021553,0.0135422,0.0204086,0.00980377,0.0190735,0.0172424,-9.97986,0.0146103,-0.000152588,0.0154877,0.00804901,0.0173187,-0.0116348,0.0199127,0.00934601
32,5,8.19386,0.0012207,-0.00167847,-2.42776,0.0559862,-0.0744527,0.0510762,0.00505237,-0.0998603,0.145013,-0.128513,-0.0834859,0.0127411,0.0352097,0.0222397,0.014267,0.0210953,0.00953674,0.0229645,0.0190353,-9.97986,0.0146103,-0.000305176,0.015564,0.00347137,0.0191116,-0.0159836,0.0180817,0.00701904
32,6,-1.0905,0.000610352,-0.00442505,-2.42562,0.0572069,-0.0741475,0.0532125,-0.00654431,-0.095893,0.145624,-0.130039,-0.0819601,0.00888824,0.0215912,0.0140762,0.0128937,0.0166702,0.00934601,0.0252151,0.0167465,-9.97986,0.0201797,0.00526428,0.0156784,0.000724792,0.0201797,-0.0106049,0.0181198,0.00995636
32,7,-8.13975,-0.0012207,-0.00457764,-2.42531,0.0569017,-0.0738423,0.0556539,-0.018141,-0.0971137,0.146539,-0.129123,-0.0813497,0.00980377,0.0269699,0.00850677,0.013237,0.015831,0.0101471,0.0237274,0.0104904,-9.97986,0.016098,0.0069809,0.012207,0.00728607,0.017395,-0.0129318,0.0179291,0.0069046
32,8,-9.99003,0.0012207,-0.00320435,-2.42562,0.0550706,-0.0744527,0.0562642,0.0151232,-0.0931465,0.145929,-0.128208,-0.0810445,0.0138092,0.0259781,0.00801086,0.0127029,0.018158,0.00919342,0.0232697,-0.00141144,-9.97986,0.0199509,-0.00160217,0.0127411,0.00324249,-0.00293732,-0.00995636,0.0186157,0.00743866
32,9,-9.99003,0.000610352,-0.00228882,-2.4247,0.0562914,-0.0747579,0.0556539,0.0483873,-0.088874,0.144708,-0.126377,-0.0804342,0.00732422,0.0088501,0.00953674,0.0144577,0.0146103,0.0108719,0.0234985,-0.00663757,-9.97986,0.0164795,-0.0043869,0.0104141,0.00427246,-0.0082016,-0.0044632,0.0180054,0.0062561
33,0,-9.99003,0.000610352,-0.000152588,-2.42684,0.0547655,-0.0744527,0.055959,0.058153,-0.0922309,0.145013,-0.125766,-0.0819601,0.0101471,0.0104523,0.0122833,0.0115585,0.0178909,0.0117493,0.0231171,0.000457764,-9.97986,0.0239563,-0.00217438,0.0150681,0.00286102,-0.00850677,-0.000724792,0.0166702,0.00827789
33,1,-9.99003,0,0,-2.42562,0.0550706,-0.0744527,0.0547383,0.0737169,-0.0910102,0.145318,-0.125156,-0.0828756,0.0111771,0.00934601,0.0161362,0.00869751,0.017662,0.0069809,0.0195694,0.0114059,-9.97986,0.0153351,-0.00465393,0.0110626,0.00171661,-0.00900269,0.000762939,0.0186157,0.00404358
33,2,-9.47185,0.0012207,0.00259399,-2.42531,0.0550706,-0.0735371,0.0571797,0.132921,-0.0864326,0.146234,-0.121494,-0.0822652,0.0157928,0.0115967,0.0152206,0.0102997,0.0199127,0.0124741,0.0242996,0.0157166,-9.97986,0.017128,-0.0133896,0.0115585,-0.00038147,0.0149536,0.000572205,0.0180054,0.00850677
33,3,-1.42131,0.0012207,0.00320435,-2.42776,0.0541551,-0.0747579,0.0550435,0.145738,-0.0876533,0.143792,-0.121189,-0.0844015,0.00911713,0.0199127,0.0120163,0.00968933,0.0137329,0.0115585,0.0231171,0.0146103,-9.97986,0.0187683,-0.0186157,0.0133133,0.00469208,0.0154114,0.001297,0.0154495,0.00644684
33,4,6.46596,0.000915527,0.00457764,-2.42898,0.0535448,-0.0756734,0.0529073,0.153063,-0.0894843,0.143182,-0.121189,-0.085317,0.012207,0.0201035,0.0128174,0.00892639,0.0149155,0.00980377,0.0188446,0.0162506,-9.97986,0.0174332,-0.0144958,0.0124741,0.00492096,0.0148773,-0.000801086,0.0163651,0.00782013
33,5,10.0097,0.000305176,0.00473022,-2.43081,0.0532396,-0.0771993,0.0513814,0.130174,-0.095893,0.142572,-0.124241,-0.0880636,0.0112534,0.0231934,0.0212479,0.00972748,0.015564,0.00751495,0.0214767,0.0124741,-9.97986,0.0135422,-0.00930786,0.0104141,0.00175476,0.0159454,-0.00358582,0.0166702,0.00732422
33,6,10.0097,0,0.00106812,-2.42959,0.0523241,-0.0759786,0.0498555,0.0920275,-0.0955879,0.143792,-0.127598,-0.0886739,0.0133514,0.0242615,0.0167465,0.00785828,0.0156784,0.00854492,0.0215912,0.0162888,-9.97986,0.0171661,0.00087738,0.0123978,0.00263214,0.0159454,0.000648499,0.0193405,0.0094986
33,7,10.0097,0.000610352,0.000457764,-2.42989,0.0541551,-0.0762837,0.050771,0.0764635,-0.0986396,0.144098,-0.126987,-0.0877584,0.0130844,0.0243378,0.0166702,0.00747681,0.0181198,0.00999451,0.0235367,0.0167465,-9.97986,0.0141144,-0.00789642,0.0120163,0.00259399,0.0131607,0.00293732,0.0149155,0.00431061
33,8,10.0097,0.00244141,-0.000305176,-2.42806,0.0538499,-0.0756734,0.0519917,0.0743273,-0.0949775,0.143792,-0.126682,-0.0862325,0.0131226,0.0327301,0.0180435,0.00961304,0.0180054,0.00999451,0.0231552,0.019455,-9.97986,0.0185394,-0.00648499,0.0177765,0.00278473,0.0194931,0.00423431,0.0207138,0.00900269
33,9,10.0097,-0.000305176,-0.000152588,-2.42776,0.0550706,-0.075063,0.0532125,0.072191,-0.0943672,0.143792,-0.126072,-0.0850118,0.00823975,0.0162125,0.0122833,0.00976563,0.0133896,0.00961304,0.0230789,0.0191879,-9.97986,0.017395,0.00114441,0.0158691,0.00431061,0.0143051,-0.0062561,0.0218201,0.00652313
34,0,10.0097,-0.00183105,-0.000152588,-2.42623,0.0547655,-0.0747579,0.0532125,0.0709703,-0.0943672,0.145013,-0.124851,-0.0844015,0.0123978,0.00312805,0.0184631,0.014534,0.0122833,0.0112915,0.0222778,0.0176239,-9.97986,0.0153351,0.0056076,0.0136948,0.00240326,0.0160599,-0.00770569,0.0182343,0.00667572
34,1,10.0097,0.000610352,0.000305176,-2.42776,0.0550706,-0.0747579,0.0532125,0.0706652,-0.0925361,0.144708,-0.125461,-0.0828756,0.01091,0.0018692,0.0193024,0.0111389,0.0141144,0.00827789,0.0250244,0.0165939,-9.97986,0.0193405,0.00396729,0.0122452,0.00587463,0.0134659,0.00156403,0.0167084,0.00675201
34,2,10.0097,0.00305176,0.000152588,-2.42562,0.0565965,-0.0741475,0.0538228,0.0715807,-0.090705,0.146844,-0.124546,-0.0804342,0.00888824,0.0138855,0.0149155,0.00759125,0.0184631,0.00709534,0.0256348,0.0184631,-9.97986,0.0136185,-0.00228882,0.0118256,0.00389099,0.0127029,0.00350952,0.0156021,0.0069809
34,3,10.0097,0.0012207,0.000762939,-2.42562,0.0565965,-0.073232,0.0550435,0.0712755,-0.0922309,0.146234,-0.124546,-0.0819601,0.0126648,0.0191879,0.019989,0.0107193,0.0198364,0.00812531,0.022583,0.0151825,-9.97986,0.0131607,-0.00209808,0.0122833,0.00205994,0.0141144,-0.001297,0.0151443,0.00919342
34,4,10.0097,0.00213623,-0.000457764,-2.42562,0.055681,-0.0753682,0.0519917,0.0538805,-0.094062,0.145318,-0.125766,-0.0825704,0.0105286,0.0201797,0.0183868,0.00865936,0.0155258,0.0104141,0.0180435,0.0173187,-9.97986,0.0125504,-0.00511169,0.0133896,0.00488281,0.0149536,-0.000801086,0.0185394,0.0062561
34,5,8.24941,0,-0.00183105,-2.42776,0.0572069,-0.0744527,0.0516866,0.00596789,-0.100471,0.145624,-0.129123,-0.0834859,0.0131226,0.020752,0.0209045,0.00797272,0.0208664,0.0109482,0.024147,0.0230026,-9.97986,0.0115585,0.00389099,0.0183868,0.0012207,0.0178146,-0.00209808,0.021019,0.00923157
34,6,-1.00718,0.0012207,-0.00442505,-2.42531,0.0572069,-0.0738423,0.0535176,-0.00593396,-0.0965034,0.146844,-0.129123,-0.0822652,0.0088501,0.0202942,0.017662,0.00576019,0.0161743,0.0131607,0.0238037,0.0182343,-9.97986,0.00961304,0.010376,0.013504,0.00217438,0.0178528,-0.000610352,0.0182343,0.00534058
34,7,-8.0247,0.000610352,-0.00411987,-2.42562,0.0572069,-0.075063,0.0522969,-0.0175306,-0.0965034,0.146844,-0.130954,-0.0816549,0.00919342,0.0236511,0.0177002,0.0142288,0.0163269,0.0127411,0.0226212,0.0164032,-9.97986,0.0124741,0.00801086,0.0149918,0.00514984,0.0148392,0.00663757,0.0192261,0.00888824
34,8,-9.99003,0.000610352,-0.00335693,-2.42501,0.0559862,-0.0735371,0.0562642,0.0135973,-0.0922309,0.146234,-0.127903,-0.0804342,0.0119019,0.0201797,0.018158,0.00839233,0.0191879,0.00873566,0.022583,0.0164413,-9.97986,0.0161362,0.0069809,0.0139236,0.00537872,-0.00648499,0.00831604,0.0162506,0.0088501
34,9,-9.99003,-0.000915527,-0.000915527,-2.42592,0.0553758,-0.0747579,0.0556539,0.047777,-0.0897895,0.147149,-0.126682,-0.0807394,0.00911713,0.0208664,0.0205994,0.0128555,0.0186539,0.0131607,0.0236893,0.0166321,-9.97986,0.0118637,0.00236511,0.0101852,0.0031662,-0.00923157,0.00995636,0.019722,0.00595093
35,0,-9.99003,-0.000305176,0.000305176,-2.42623,0.0559862,-0.0744527,0.0547383,0.0593737,-0.0910102,0.145318,-0.126072,-0.0822652,0.0124359,0.022049,0.0174713,0.0106812,0.0228882,0.00900269,0.0244904,0.0207138,-9.97986,0.0141144,-0.0102997,0.0157547,0.00343323,-0.00980377,0.0120544,0.0161743,0.00530243
35,1,-9.99003,0.000610352,0.000610352,-2.42562,0.0547655,-0.0747579,0.0553487,0.0746324,-0.090705,0.145929,-0.125766,-0.0825704,0.0088501,0.0233841,0.0185776,0.00778198,0.0169754,0.0115585,0.0235748,0.0214386,-9.97986,0.0109863,-0.0167847,0.015564,0.00751495,-0.00656128,0.00972748,0.0161743,0.0087738
35,2,-9.34184,0.00244141,0.00244141,-2.42653,0.0553758,-0.0747579,0.055959,0.132311,-0.0861274,0.145318,-0.121494,-0.0822652,0.0113297,0.0241852,0.017662,0.00995636,0.017662,0.0134659,0.0253296,0.0195313,-9.97986,0.0111771,-0.0136185,0.0138092,0.00881195,0.0135803,0.00934601,0.0187683,0.0069809
35,3,-1.51225,0.000915527,0.00427246,-2.42776,0.0535448,-0.0744527,0.0556539,0.145433,-0.0879585,0.145318,-0.121799,-0.0844015,0.00934601,0.0293732,0.0186539,0.0101852,0.0163269,0.00900269,0.0224686,0.014534,-9.97986,0.0105667,-0.00198364,0.0129318,0.00148773,0.0177383,0.0105286,0.018959,0.00453949
35,4,6.44857,0.000610352,0.00396729,-2.42867,0.0538499,-0.0753682,0.0535176,0.152147,-0.0885688,0.143182,-0.120884,-0.085317,0.0115967,0.0269318,0.0139999,0.0111008,0.0160599,0.00713348,0.0224304,0.0178909,-9.97986,0.0104141,0.00148773,0.0157166,0.00511169,0.0169754,0.00770569,0.0167084,0.00675201
35,5,10.0097,-0.000610352,0.00457764,-2.4302,0.0523241,-0.0762837,0.0516866,0.131395,-0.0943672,0.143792,-0.124851,-0.0877584,0.010376,0.0243759,0.0147247,0.0145721,0.0178146,0.0113297,0.0196838,0.0164413,-9.97986,0.0119019,-0.00431061,0.0153351,0.0031662,0.0181198,0.014534,0.0175858,0.0128174
35,6,10.0097,0.000915527,0.00167847,-2.4305,0.0538499,-0.0759786,0.0501607,0.0926378,-0.0968086,0.143792,-0.126072,-0.0880636,0.013237,0.0260162,0.0178909,0.01194,0.0179291,0.0142288,0.0196838,0.0193405,-9.97986,0.0148392,0.000190735,0.017395,0.00888824,0.0203323,0.00659943,0.0188446,0.00843048
35,7,10.0097,0.00183105,0.000305176,-2.42898,0.0535448,-0.0756734,0.0513814,0.0782946,-0.0949775,0.143792,-0.126987,-0.0883688,0.0149155,0.0261307,0.0218582,0.0118256,0.0165558,0.0123596,0.0232697,0.0174332,-9.97986,0.0116348,-0.00232697,0.0125885,0.00587463,0.0165939,-0.0104904,0.0192261,0.00991821
35,8,10.0097,0.000610352,-0.0012207,-2.42898,0.0544603,-0.0756734,0.0522969,0.0749376,-0.0952827,0.143792,-0.126682,-0.0865377,0.0100708,0.0248337,0.0183487,0.0124359,0.0131989,0.0102234,0.0258636,0.0137329,-9.97986,0.018692,-0.00343323,0.0141525,0.00640869,0.0128174,-0.0204086,0.0152969,0.00751495
35,9,10.0097,0.000305176,-0.000457764,-2.42806,0.0544603,-0.075063,0.0532125,0.0718859,-0.0931465,0.144708,-0.126377,-0.085317,0.0107574,0.0244904,0.0162506,0.0101852,0.0156021,0.0119781,0.0202942,0.0161743,-9.97986,0.016098,-0.00770569,0.0152588,0.00732422,0.0178909,-0.0190353,0.0150299,0.00640869
36,0,10.0097,0.000610352,0.000305176,-2.42776,0.0550706,-0.0747579,0.0532125,0.0712755,-0.0934516,0.145013,-0.126377,-0.0840963,0.0117874,0.0256729,0.0205231,0.0127029,0.0151825,0.00911713,0.0217056,0.0144958,-9.97986,0.0141907,-0.0122833,0.0148773,0.00965118,0.0198364,-0.0168991,0.0154877,0.00495911
36,1,10.0097,0,0.000305176,-2.42684,0.0559862,-0.0744527,0.0535176,0.0718859,-0.0934516,0.145013,-0.125766,-0.0834859,0.0117111,0.0234222,0.0181961,0.0087738,0.0166702,0.0101471,0.0183868,0.0166702,-9.97986,0.0183487,-0.00492096,0.0164413,0.00610352,0.0189972,-0.00648499,0.0149536,0.00747681
36,2,10.0097,0.00152588,0,-2.4247,0.0575121,-0.073232,0.0544332,0.0712755,-0.0919257,0.145929,-0.124241,-0.0825704,0.0143051,0.0260544,0.0138474,0.0149155,0.0148773,0.00587463,0.0214005,0.0166702,-9.97986,0.0130844,7.62939e-005,0.016861,0.00480652,0.017128,0.00240326,0.0135803,0.00930786
36,3,10.0097,0.000305176,0.000762939,-2.42592,0.055681,-0.0735371,0.0550435,0.0724962,-0.0931465,0.146844,-0.12363,-0.0804342,0.01091,0.0209808,0.0185013,0.0133133,0.0169754,0.00843048,0.0233459,0.0162125,-9.97986,0.0156403,-0.00621796,0.0126266,0.00751495,0.0151825,-0.000305176,0.0167084,0.00995636
36,4,10.0097,0.0012207,-0.000762939,-2.42684,0.055681,-0.0744527,0.0535176,0.0514391,-0.0965034,0.146234,-0.126072,-0.0825704,0.0114441,0.0233459,0.0224686,0.0117874,0.0151443,0.0133514,0.018692,0.0179672,-9.97986,0.0135803,-0.00232697,0.0153351,0.00789642,0.0159454,-0.00408173,0.0143051,0.00591278
36,5,8.07515,-0.0012207,-0.00259399,-2.42714,0.0559862,-0.075063,0.0513814,0.00596789,-0.100165,0.146234,-0.128818,-0.0834859,0.0119019,0.0233078,0.02491,0.0069809,0.0200653,0.0107193,0.0262833,0.0183868,-9.97986,0.0119781,-0.00301361,0.0162506,0.00297546,0.0127029,-0.00701904,0.0128174,0.00602722
36,6,-1.19304,0.000610352,-0.00411987,-2.42623,0.0575121,-0.0735371,0.0535176,-0.00715467,-0.0961982,0.146844,-0.129429,-0.0816549,0.0140762,0.0222015,0.0234604,0.00850677,0.0175095,0.00736237,0.0228882,0.0205231,-9.97986,0.0141144,0.000686646,0.0141907,0.00663757,0.0190735,0.00671387,0.0189209,0.00926971
36,7,-8.21971,-0.000915527,-0.00473022,-2.42409,0.0575121,-0.0741475,0.0535176,-0.0178358,-0.0965034,0.146539,-0.130954,-0.0816549,0.00865936,0.0238037,0.0270462,0.00701904,0.0178146,0.00869751,0.0217438,0.0210953,-9.97986,0.0127029,-0.00289917,0.0124359,0.00152588,0.0117493,0.0128174,0.0141907,0.00354767
36,8,-9.99003,0,-0.00350952,-2.42562,0.0569017,-0.073232,0.055959,0.0142076,-0.0922309,0.147149,-0.127903,-0.0807394,0.00968933,0.0312042,0.0270844,0.0107193,0.0162506,0.0126266,0.0228119,0.0256729,-9.97986,0.011673,0.0043869,0.0127792,0.000228882,-0.00469208,0.0182343,0.0156784,0.0118256
36,9,-9.99003,-0.000610352,-0.000915527,-2.42348,0.0553758,-0.0738423,0.055959,0.0486925,-0.0900947,0.145013,-0.126987,-0.0813497,0.0108337,0.0239182,0.022316,0.00846863,0.0172043,0.0149155,0.0180054,0.0170135,-9.97986,0.0159073,0.0112152,0.011673,0.00743866,-0.00923157,0.0189209,0.0168228,0.00888824
37,0,-9.99003,0.000305176,-0.000152588,-2.42562,0.0569017,-0.0735371,0.0553487,0.0605944,-0.0913154,0.145318,-0.125461,-0.0819601,0.0115967,0.0247192,0.0273514,0.00667572,0.0186539,0.0108337,0.0206375,0.0162125,-9.97986,0.0160217,0.0115204,0.0136185,0.0062561,-0.00732422,0.0196457,0.0157547,0.00614166
37,1,-9.99003,0.000610352,0.000457764,-2.42592,0.0569017,-0.0744527,0.0565694,0.0734117,-0.090705,0.146234,-0.125766,-0.0828756,0.0150299,0.0238419,0.0264359,0.0056076,0.0166321,0.0130081,0.0246429,0.0186539,-9.97986,0.0161743,0.00720978,0.015564,0.0069046,-0.0087738,0.0116348,0.0131607,0.00770569
37,2,-9.6345,0.000610352,0.00289917,-2.42501,0.0538499,-0.0741475,0.0577901,0.132311,-0.0849067,0.144708,-0.12241,-0.0822652,0.0135422,0.0269318,0.0286865,0.00549316,0.0161362,0.00881195,0.0211716,0.017395,-9.97986,0.0131226,0.00522614,0.0126266,0.0069809,0.0154114,0.00572205,0.0139236,0.00576019
37,3,-1.69841,0.0012207,0.00320435,-2.42714,0.0553758,-0.075063,0.055959,0.145738,-0.0879585,0.144708,-0.121189,-0.0840963,0.0121689,0.0231552,0.0263214,0.00915527,0.0154114,0.0109863,0.0238419,0.0150299,-9.97986,0.0125504,0.00713348,0.0156021,0.00671387,0.0177765,0.00152588,0.0151825,0.00335693
37,4,6.1617,0.00244141,0.00442505,-2.42806,0.0538499,-0.0759786,0.0532125,0.149095,-0.0891792,0.144403,-0.122104,-0.0847066,0.0100708,0.0262833,0.0244904,0.00553131,0.0159454,0.0127792,0.0206375,0.0180817,-9.97986,0.0157166,-0.00312805,0.0154114,0.00770569,0.0165558,-0.00198364,0.0139618,0.00957489
37,5,10.0097,-0.000915527,0.00396729,-2.4305,0.0523241,-0.0753682,0.0516866,0.133531,-0.0934516,0.142877,-0.122715,-0.0868429,0.0107574,0.0238419,0.0269699,0.00934601,0.0202179,0.0094223,0.0226593,0.0199127,-9.97986,0.0088501,-0.00366211,0.0134659,0.00621796,0.0120544,-0.00343323,0.0128174,0.00621796
37,6,10.0097,0,0.00152588,-2.43142,0.0526292,-0.0768941,0.0495503,0.092943,-0.0968086,0.143182,-0.126377,-0.0892843,0.0133514,0.0255203,0.0244904,0.0111771,0.0137711,0.00732422,0.0195313,0.0149918,-9.97986,0.0136948,-0.00259399,0.012207,0.00511169,0.016861,-0.00270844,0.0111008,0.00724792
37,7,10.0097,-0.000305176,0.000305176,-2.42867,0.0541551,-0.0768941,0.0504659,0.0792101,-0.095893,0.141656,-0.127292,-0.0874532,0.00976563,0.0247574,0.0199509,0.0119019,0.0146866,0.00793457,0.0214005,0.0136566,-9.97986,0.0150681,0.00171661,0.0142288,0.00499725,0.0201035,-0.00488281,0.0136948,0.00682831
37,8,10.0097,0.000915527,-0.000610352,-2.42837,0.0550706,-0.0762837,0.0519917,0.0740221,-0.0955879,0.145013,-0.126377,-0.0862325,0.0105667,0.0230789,0.0180054,0.0111389,0.0172043,0.0114822,0.0251389,0.017128,-9.97986,0.013504,0.00667572,0.0110245,0.00526428,0.0218582,-0.00499725,0.0113297,0.00461578
37,9,10.0097,0.00152588,0.000152588,-2.42776,0.0544603,-0.0753682,0.0532125,0.0724962,-0.0943672,0.144403,-0.125461,-0.0859274,0.0108719,0.0170898,0.0154114,0.00839233,0.0154495,0.00701904,0.0205994,0.0163651,-9.97986,0.0139618,0.00537872,0.0122452,0.00228882,0.019722,-0.00541687,0.0115204,0.00827789
38,0,10.0097,-0.0012207,0.000305176,-2.42806,0.0538499,-0.0735371,0.0526021,0.0718859,-0.0928413,0.145318,-0.126682,-0.085317,0.0112534,0.0267029,0.0104523,0.0102997,0.0165176,0.00843048,0.0200653,0.0154495,-9.97986,0.0156021,0.00232697,0.017662,0.00709534,0.0188828,-0.0187683,0.0123596,0.0063324
38,1,10.0097,0.000610352,0.000152588,-2.42623,0.0535448,-0.0747579,0.0550435,0.0715807,-0.0931465,0.145929,-0.126377,-0.0834859,0.00782013,0.0324631,0.00160217,0.0112915,0.0222778,0.0128937,0.0196075,0.0185394,-9.97986,0.0138474,-0.00343323,0.0149536,0.00190735,0.0125885,-0.0362015,0.0124741,0.00492096
38,2,10.0097,-0.0012207,0.000457764,-2.42409,0.0559862,-0.0723164,0.054128,0.0706652,-0.090705,0.146234,-0.124851,-0.0822652,0.00782013,0.028038,-0.00114441,0.013504,0.0159454,0.00514984,0.0209045,0.0159836,-9.97986,0.0166321,-0.0050354,0.0139236,0.00595093,0.0214005,-0.0410843,0.0119781,0.00495911
38,3,10.0097,0.00274658,-0.000152588,-2.42501,0.0562914,-0.0735371,0.0550435,0.0718859,-0.0916206,0.146539,-0.124241,-0.0819601,0.00694275,0.020256,0.00816345,0.0123215,0.0180435,0.00740051,0.0214386,0.0185394,-9.97986,0.0139999,-0.000534058,0.0110626,0.0069809,0.0206375,-0.0289536,0.0125504,0.0063324
38,4,10.0097,-0.0012207,0.000152588,-2.42714,0.0553758,-0.075063,0.0529073,0.0532701,-0.0937568,0.145318,-0.126072,-0.0819601,0.00892639,0.0185776,0.0140381,0.0115204,0.0206375,0.00652313,0.022316,0.0183868,-9.97986,0.0127029,0.00370026,0.0143433,0.00770569,0.0211716,-0.0233841,0.0148392,0.0102615
38,5,8.26833,-0.000305176,-0.00228882,-2.42684,0.0553758,-0.0747579,0.0513814,0.00627307,-0.09925,0.145624,-0.129734,-0.0844015,0.0114059,0.0202179,0.0133514,0.0156403,0.0165176,0.00720978,0.0230026,0.0179672,-9.97986,0.0141907,0.0115967,0.0135803,0.00995636,0.0187302,-0.0334549,0.0123215,0.00526428
38,6,-1.0023,0.000610352,-0.00396729,-2.4247,0.0575121,-0.0735371,0.0550435,-0.00684949,-0.0961982,0.147149,-0.129123,-0.0822652,0.012207,0.0265884,0.0159073,0.010643,0.0188828,0.00984192,0.0201797,0.0204468,-9.97986,0.0157547,0.018158,0.0141907,0.0104141,0.0180054,-0.030098,0.0151062,0.00724792
38,7,-8.03355,0.0012207,-0.00442505,-2.42501,0.0572069,-0.0735371,0.0538228,-0.0184462,-0.0977241,0.146844,-0.129734,-0.0822652,0.00946045,0.0260162,0.0143051,0.00892639,0.016098,0.00907898,0.0212097,0.0176239,-9.97986,0.0185776,0.0131607,0.013504,0.00453949,0.020256,-0.0202942,0.0171661,0.00652313
38,8,-9.99003,-0.000915527,-0.00305176,-2.42501,0.055681,-0.0723164,0.0556539,0.0142076,-0.0934516,0.146234,-0.128513,-0.0807394,0.0144196,0.0240707,0.0199127,0.0143051,0.019989,0.00747681,0.0245285,0.0199127,-9.97986,0.0133514,0.00247955,0.0138092,0.00114441,-0.00156403,-0.0160217,0.010643,0.00629425
38,9,-9.99003,0.000305176,-0.00152588,-2.4247,0.0553758,-0.0744527,0.0571797,0.0480822,-0.0894843,0.145929,-0.126072,-0.0816549,0.0100708,0.0224304,0.0141144,0.0128937,0.0165176,0.0109863,0.0163269,0.0196457,-9.97986,0.0159073,-0.0144196,0.0118256,0.00610352,-0.00785828,-0.0163651,0.0138092,0.00682831
39,0,-9.99003,0.00183105,-0.000152588,-2.42684,0.055681,-0.0735371,0.0544332,0.0602892,-0.090705,0.145013,-0.126682,-0.0819601,0.00972748,0.0228119,0.0192642,0.0138855,0.0131989,0.00957489,0.0216293,0.0217056,-9.97986,0.0156021,-0.0190353,0.0126266,0.0062561,-0.00484467,-0.0110245,0.0120163,0.00812531
39,1,-9.99003,0.000915527,0.000457764,-2.42623,0.0547655,-0.0747579,0.0547383,0.0728014,-0.0913154,0.145318,-0.125156,-0.0831808,0.0107956,0.0211716,0.0216675,0.0125885,0.0179291,0.00789642,0.0230789,0.0260162,-9.97986,0.0167847,-0.00736237,0.0149155,0.0103378,-0.00610352,-0.00106812,0.0107193,0.00553131
39,2,-9.52098,0.0012207,0.00274658,-2.42592,0.0550706,-0.0747579,0.0571797,0.133837,-0.083686,0.145318,-0.121799,-0.0828756,0.0103378,0.0219727,0.0160599,0.00801086,0.0169373,0.00839233,0.022049,0.0235367,-9.97986,0.0163651,-0.00667572,0.0131989,0.00762939,0.0189209,-0.00175476,0.0144196,0.00614166
39,3,-1.54826,0.000610352,0.00396729,-2.42684,0.0544603,-0.0753682,0.054128,0.145738,-0.0885688,0.143487,-0.121494,-0.0840963,0.0121689,0.028038,0.0197601,0.0135422,0.0204468,0.0102234,0.0195694,0.0200272,-9.97986,0.0151062,-0.00301361,0.0167084,0.0104141,0.0191498,0.000991821,0.0139618,0.0056076
39,4,6.37197,0.0012207,0.00427246,-2.42898,0.0535448,-0.0756734,0.0535176,0.151537,-0.0897895,0.144403,-0.12241,-0.0850118,0.0117111,0.0211334,0.0154877,0.0138092,0.0177383,0.0118637,0.0195694,0.0196457,-9.97986,0.0119781,-0.00675201,0.0151062,0.00190735,0.0179291,0.00247955,0.0175476,0.0031662
39,5,10.0097,0,0.00427246,-2.4305,0.0532396,-0.0759786,0.0501607,0.1317,-0.0946723,0.142572,-0.12363,-0.0874532,0.0118637,0.0245667,0.0139999,0.0151062,0.0164795,0.0112152,0.0217819,0.0172043,-9.97986,0.0153732,-0.00324249,0.0148392,0.0107193,0.0199127,-0.00717163,0.0113678,0.00362396
39,6,10.0097,0.000610352,0.00152588,-2.4305,0.0541551,-0.0753682,0.0504659,0.092943,-0.0968086,0.143487,-0.126682,-0.0889791,0.00812531,0.022049,0.0209045,0.0148773,0.0208664,0.00862122,0.0229263,0.00705719,-9.97986,0.0146866,-0.0043869,0.0138474,0.00926971,0.0179672,-0.0170135,0.0128174,0.00453949
39,7,10.0097,0.000305176,-0.000305176,-2.42928,0.0532396,-0.0756734,0.0519917,0.0782946,-0.095893,0.144098,-0.127292,-0.0874532,0.00904083,0.0188828,0.0178146,0.011673,0.0177002,0.0115967,0.0203323,0.0136185,-9.97986,0.0146866,0.00167847,0.0125885,0.00854492,0.0159073,-0.0160599,0.0166321,0.00511169
39,8,10.0097,0.000305176,-0.000457764,-2.42776,0.0538499,-0.0753682,0.0519917,0.0740221,-0.0955879,0.143487,-0.126072,-0.0868429,0.00812531,0.0204468,0.0212097,0.0113297,0.0201416,0.0117111,0.0185394,0.0200653,-9.97986,0.0154495,-0.000152588,0.0173569,0.00785828,0.0148773,-0.0128174,0.0150299,0.0050354
39,9,10.0097,-0.0012207,-0.000305176,-2.42776,0.0541551,-0.0756734,0.0526021,0.0728014,-0.0952827,0.145624,-0.125766,-0.0847066,0.00919342,0.0192261,0.0188446,0.0112152,0.0190735,0.00995636,0.0209427,0.0183487,-9.97986,0.0180054,0.00152588,0.0155258,0.0104141,0.0206757,-0.00164032,0.0195694,0.00850677
40,0,10.0097,-0.000305176,-0.000305176,-2.42653,0.0547655,-0.0747579,0.0538228,0.0712755,-0.0928413,0.145013,-0.125766,-0.0850118,0.00934601,0.0230789,0.0181961,0.013504,0.022583,0.00770569,0.0235367,0.0209045,-9.97986,0.0139618,0.00175476,0.0153732,0.0114059,0.0126648,0.00164032,0.0174332,0.00572205
40,1,10.0097,-0.00152588,0,-2.42806,0.0550706,-0.0744527,0.0538228,0.07036,-0.0922309,0.146539,-0.125766,-0.0837911,0.0146484,0.0216293,0.0174713,0.0141525,0.0169754,0.00938416,0.019722,0.0181198,-9.97986,0.018425,-0.00209808,0.0200272,0.00782013,0.0187302,0.0062561,0.017395,0.00774384
40,2,10.0097,0.000305176,0.000610352,-2.42592,0.0572069,-0.0744527,0.0544332,0.0706652,-0.0925361,0.146539,-0.123935,-0.0822652,0.00747681,0.0201035,0.0163269,0.00900269,0.0135422,0.00774384,0.0210571,0.0144577,-9.97986,0.0190353,-0.00404358,0.0150681,0.0088501,0.0156403,0.00556946,0.0179291,0.00862122
40,3,10.0097,0.000610352,0.000152588,-2.4247,0.0562914,-0.0738423,0.0550435,0.072191,-0.0922309,0.146539,-0.123935,-0.0822652,0.00652313,0.0228119,0.020752,0.0142288,0.0149155,0.00888824,0.0198746,0.0188065,-9.97986,0.0138474,-0.000534058,0.0124359,0.00995636,0.0155258,0.00488281,0.0137329,0.00621796
40,4,10.0097,0,0.000762939,-2.42714,0.055681,-0.0744527,0.0526021,0.0508287,-0.095893,0.146234,-0.126682,-0.0825704,0.01194,0.0269699,0.0203323,0.010376,0.0143051,0.00968933,0.0197983,0.0151443,-9.97986,0.0117874,-0.00141144,0.0139236,0.00926971,0.0183105,0.000267029,0.0139618,0.00659943
40,5,8.01015,-0.000610352,-0.00167847,-2.42837,0.0559862,-0.0744527,0.0519917,0.00413684,-0.0989448,0.146844,-0.128208,-0.0837911,0.0159073,0.0257111,0.0175476,0.00953674,0.0160599,0.0141525,0.0233078,0.0178528,-9.97986,0.0148773,0.000648499,0.00911713,0.00980377,0.0166321,-0.00209808,0.0175476,0.0050354
40,6,-1.18632,0.00244141,-0.00427246,-2.42531,0.0565965,-0.0735371,0.0538228,-0.00654431,-0.0961982,0.146539,-0.129429,-0.0816549,0.0123215,0.021019,0.0184631,0.00911713,0.0164795,0.0105667,0.0190735,0.0207138,-9.97986,0.0130844,0.000839233,0.0130844,0.00881195,0.0152206,-0.00167847,0.0125885,0.00442505
