
Devices
1200
,,BP Load cell - Voltage,String Length - Voltage,Clutch Active - Voltage,#7 iPecs - Voltage,,,,,,,,,EMG 1-8 Left - Voltage,,,,,,,,Pylon Force - Voltage,EMG 9-16 Right - Voltage,,,,,,,,
Frame,Sub Frame,BP Load Cell,String Length,From Arduino Logic,A45,A135,A225,A315,S0,S90,S180,S270,ZSum,EMG 1 Glut Max,EMG 2 Glut Med,EMG 3 Biceps Femoris Long,EMG 4 Rectus Femoris,EMG 5 Vastus Medialis,EMG 6 Tib Ant,EMG 7 Med Gas,EMG 8 Soleus,Pylon volts,EMG 9 Glut Max,EMG 10 Glut Med,EMG 11 Biceps Femoris Long,EMG 12 Rectus Femoris,EMG 13 Vastus Medialis,EMG 14 Tib Ant,EMG 15 Med Gas,EMG 16 Soleus
,,V,V,V,V,V,V,V,V,V,V,V,V,V,V,V,V,V,V,V,V,V,V,V,V,V,V,V,V,V
1,0,-9.99003,0.0012207,-0.00106812,-2.42653,0.055681,-0.0744527,0.0562642,0.0538805,-0.090705,0.145624,-0.126377,-0.0810445,0.01194,0.0175095,0.0175858,0.0122833,0.0181961,0.0111008,0.0221634,0.0203323,-9.97986,0.0165558,-0.001297,0.00926971,0.00858307,-0.0109482,-0.00469208,0.0126266,0.00808716
1,1,-9.99003,-0.000915527,0,-2.42623,0.0547655,-0.075063,0.054128,0.0621202,-0.090705,0.145318,-0.125766,-0.0831808,0.0112534,0.0100708,0.0135422,0.0117111,0.0201797,0.0151443,0.0219345,0.0210571,-9.97986,0.0169754,-0.00133514,0.0159454,0.00686646,-0.00804901,-0.00732422,0.0159454,0.00732422
1,2,-9.99003,0.000305176,0,-2.42684,0.0553758,-0.0747579,0.0544332,0.0718859,-0.0910102,0.145013,-0.125766,-0.0828756,0.010376,0.00572205,0.0126266,0.00808716,0.0174332,0.00881195,0.0182343,0.0159073,-9.97986,0.0160217,-0.0018692,0.0165558,0.00389099,-0.00911713,-0.01297,0.0145721,0.00526428
1,3,-8.71379,0.00152588,0.00350952,-2.42501,0.0544603,-0.0759786,0.0562642,0.136888,-0.0855171,0.145929,-0.121799,-0.0834859,0.00965118,0.0151062,0.0180054,0.0125885,0.0162506,0.00988007,0.0205994,0.0162506,-9.97986,0.0166702,0.000915527,0.0165939,0.00965118,0.0157928,-0.0109482,0.0157928,0.0056076
1,4,-1.36912,0,0.00427246,-2.42714,0.0544603,-0.0747579,0.0547383,0.150926,-0.0870429,0.144098,-0.121799,-0.0844015,0.00904083,0.0204086,0.0173569,0.0112534,0.0179672,0.00965118,0.0216675,0.0167465,-9.97986,0.0162506,-0.0044632,0.00965118,0.00926971,0.0158691,-0.00713348,0.0141525,0.00495911
1,5,6.47847,0,0.00396729,-2.42806,0.0532396,-0.0747579,0.054128,0.152757,-0.0900947,0.143792,-0.122104,-0.085317,0.00858307,0.0318527,0.0189972,0.00793457,0.0177002,0.0131989,0.0172806,0.0177002,-9.97986,0.0162506,-0.00377655,0.0123978,0.00694275,0.0150299,-0.00843048,0.0130081,0.00682831
1,6,10.0097,0.000305176,0.00442505,-2.43111,0.0520189,-0.0778096,0.0513814,0.130174,-0.0946723,0.141961,-0.124546,-0.0877584,0.00900269,0.0304413,0.0149155,0.0102615,0.0205231,0.0102615,0.0209045,0.0222397,-9.97986,0.0147629,-0.00190735,0.0107574,0.00675201,0.0150299,-0.00785828,0.0141525,0.00419617
1,7,10.0097,0.000915527,0.00137329,-2.43081,0.0535448,-0.0759786,0.0510762,0.0926378,-0.0986396,0.144098,-0.127598,-0.0889791,0.0102997,0.025177,0.0159454,0.0134659,0.0187683,0.00785828,0.0264359,0.0191116,-9.97986,0.011673,-0.00141144,0.0151062,0.00629425,0.0147247,-0.00576019,0.0141907,0.00644684
1,8,10.0097,0.000610352,0.000457764,-2.42959,0.0529344,-0.0753682,0.0510762,0.0779894,-0.0961982,0.142877,-0.127292,-0.0877584,0.0115967,0.02491,0.0105667,0.0105286,0.0179291,0.00907898,0.0204086,0.0218964,-9.97986,0.0148392,-0.000610352,0.01297,0.00358582,0.0110626,-0.00499725,0.014267,0.00556946
1,9,10.0097,-0.000915527,0,-2.42898,0.0547655,-0.075063,0.0516866,0.0734117,-0.0952827,0.143487,-0.125156,-0.0871481,0.0117874,0.0196075,0.0147247,0.0137711,0.019989,0.0102997,0.018158,0.0159454,-9.97986,0.0164413,-0.00110626,0.0107574,0.00953674,0.0150681,-0.000610352,0.0177002,0.00572205
2,0,10.0097,0,0.000457764,-2.42714,0.0541551,-0.0756734,0.0532125,0.072191,-0.0943672,0.145013,-0.126072,-0.0850118,0.0117493,0.0170135,0.00930786,0.0149918,0.0183105,0.00854492,0.0232697,0.0154495,-9.97986,0.0156784,-0.00106812,0.0106812,0.00362396,0.0154495,-0.00537872,0.0146103,0.00610352
2,1,10.0097,0.0012207,0.000457764,-2.42714,0.0541551,-0.0756734,0.0532125,0.0712755,-0.0928413,0.144708,-0.126377,-0.0844015,0.00907898,0.0217438,0.0163651,0.0087738,0.0239182,0.0100708,0.0209045,0.0117493,-9.97986,0.0157928,-0.00156403,0.0114441,0.00358582,0.0128174,0.000114441,0.0141144,0.00602722
2,2,10.0097,0,0.000305176,-2.42684,0.0562914,-0.0741475,0.0544332,0.0718859,-0.0934516,0.145624,-0.126072,-0.0837911,0.0139999,0.0208664,0.015564,0.0163651,0.0172806,0.00995636,0.0211334,0.0144958,-9.97986,0.0165176,0.00114441,0.0115204,0.00823975,0.015564,-0.00133514,0.0144958,0.00900269
2,3,10.0097,0.000305176,0.000457764,-2.42501,0.0559862,-0.073232,0.0547383,0.0718859,-0.0931465,0.146539,-0.123935,-0.0813497,0.0124741,0.0242233,0.016861,0.0104904,0.016861,0.00938416,0.0183487,0.0151825,-9.97986,0.0160217,-0.00343323,0.0131989,0.00526428,0.0162125,-0.00286102,0.0172424,0.00900269
2,4,10.0097,-0.000610352,-0.000457764,-2.42623,0.055681,-0.073232,0.054128,0.0712755,-0.0919257,0.146539,-0.125156,-0.0813497,0.0112915,0.025177,0.0191116,0.00839233,0.0191498,0.0126266,0.0228119,0.0158691,-9.97986,0.0138474,-0.00453949,0.0172043,0.00968933,0.0127792,-0.000114441,0.0145721,0.00450134
2,5,10.0097,0.000305176,-0.000610352,-2.42653,0.055681,-0.0744527,0.0535176,0.0407579,-0.0968086,0.145318,-0.126987,-0.0822652,0.00743866,0.0287247,0.0160599,0.00957489,0.0172424,0.0113678,0.0209808,0.0180054,-9.97986,0.0179672,0.00209808,0.0121689,0.00915527,0.0177383,-0.00198364,0.0174713,0.00579834
2,6,6.4269,0,-0.00274658,-2.42776,0.0553758,-0.0741475,0.0519917,-0.00318738,-0.09925,0.146234,-0.129123,-0.0834859,0.0111389,0.0289917,0.0177383,0.00995636,0.0185013,0.0148773,0.0238037,0.0159454,-9.97986,0.0177383,7.62939e-005,0.0167465,0.00530243,0.0171661,-0.00648499,0.0182343,0.00762939
2,7,-2.24406,0.0012207,-0.0038147,-2.42592,0.0562914,-0.0735371,0.0532125,-0.011122,-0.0968086,0.146234,-0.128818,-0.0816549,0.0130844,0.0325012,0.0168228,0.0156021,0.0167847,0.0101089,0.0218582,0.019455,-9.97986,0.0164795,-0.00167847,0.0180817,0.00202179,0.0177383,-0.00339508,0.015831,0.00980377
2,8,-9.89177,0.00274658,-0.0050354,-2.4244,0.0559862,-0.0744527,0.054128,-0.0160048,-0.094062,0.147149,-0.129429,-0.0804342,0.0130081,0.0304794,0.0161743,0.0133896,0.0165176,0.0102234,0.0214386,0.0150299,-9.97986,0.0144577,-0.00339508,0.0140381,0.00526428,0.0152206,-0.00297546,0.017395,0.00915527
2,9,-9.99003,0.00183105,-0.00350952,-2.42409,0.0581224,-0.0729268,0.055959,0.0273302,-0.0910102,0.146844,-0.126987,-0.0807394,0.0120926,0.0255203,0.0191498,0.0123215,0.022049,0.0117874,0.0233459,0.0252533,-9.97986,0.015564,0.000343323,0.0174332,0.0129318,-0.00896454,0.00110626,0.0154877,0.0115585
3,0,-9.99003,0.0012207,-0.00106812,-2.42684,0.0569017,-0.075063,0.0556539,0.0523546,-0.0922309,0.145624,-0.126072,-0.0807394,0.00972748,0.0253677,0.0191116,0.0153732,0.0200272,0.0124359,0.0244141,0.0257874,-9.97986,0.0104904,7.62939e-005,0.0122833,0.00518799,-0.00732422,-0.0069809,0.0154495,0.00408173
3,1,-9.99003,0.000610352,-0.000610352,-2.42501,0.0547655,-0.075063,0.0538228,0.0618151,-0.0922309,0.145624,-0.125766,-0.0828756,0.00736237,0.0285721,0.0197601,0.0130844,0.0189972,0.00728607,0.019455,0.0279236,-9.97986,0.014267,0.00137329,0.0165176,0.00926971,-0.00587463,-0.00774384,0.0187683,0.00835419
3,2,-9.99003,0.000610352,0.000152588,-2.42684,0.0544603,-0.0762837,0.0562642,0.0764635,-0.0897895,0.146234,-0.125461,-0.0825704,0.0108337,0.0283813,0.0208282,0.0186539,0.0174332,0.0120926,0.0202179,0.0190735,-9.97986,0.0144196,0.00259399,0.0123978,0.0082016,0.000610352,-0.00995636,0.0163651,0.00900269
3,3,-8.25114,0.00274658,0.00305176,-2.42684,0.0544603,-0.075063,0.0565694,0.138109,-0.083686,0.145929,-0.121189,-0.0828756,0.0146866,0.030098,0.0233459,0.00911713,0.0188446,0.0127792,0.0227356,0.015831,-9.97986,0.0138474,0.00953674,0.0177383,0.0069046,0.0183868,-0.00896454,0.0181961,0.0062561
3,4,-0.828047,0.000610352,0.00442505,-2.42714,0.0535448,-0.0756734,0.0550435,0.150316,-0.0864326,0.143792,-0.121189,-0.0850118,0.0134659,0.028038,0.0227737,0.0117111,0.0198364,0.0094223,0.0276184,0.01297,-9.97986,0.0148392,0.00366211,0.0137711,0.00827789,0.0173187,-0.0056839,0.0141525,0.0038147
3,5,7.01009,0.000915527,0.00457764,-2.42898,0.0535448,-0.0744527,0.0532125,0.153368,-0.0897895,0.144403,-0.120884,-0.0850118,0.0094223,0.0311279,0.0159073,0.0100327,0.018425,0.0116348,0.0222397,0.0123596,-9.97986,0.0118637,0.0063324,0.0174713,0.00762939,0.0178909,-0.00572205,0.0144196,0.00400543
3,6,10.0097,0.000305176,0.00427246,-2.43172,0.0529344,-0.0768941,0.0498555,0.125902,-0.0946723,0.141961,-0.123935,-0.0883688,0.00930786,0.0270462,0.0133133,0.00812531,0.0156784,0.00827789,0.0214005,0.0109482,-9.97986,0.0155258,-0.00328064,0.0125504,0.00705719,0.0149536,-0.00225067,0.017395,0.00495911
3,7,10.0097,-0.000305176,0.0012207,-2.4302,0.0532396,-0.0756734,0.0504659,0.0892809,-0.0980293,0.142877,-0.126377,-0.0889791,0.0116348,0.0186157,0.0136948,0.014534,0.0193787,0.0105286,0.0231171,0.00751495,-9.97986,0.0154877,-0.0123215,0.014534,0.00492096,0.0128937,7.62939e-005,0.0165558,0.00640869
3,8,10.0097,0.000305176,0.000152588,-2.4305,0.0538499,-0.0762837,0.0516866,0.0782946,-0.0965034,0.142267,-0.126072,-0.0883688,0.0107574,0.00968933,0.0193787,0.0119019,0.0163269,0.00984192,0.0215912,0.0125885,-9.97986,0.0203323,-0.00488281,0.0126266,0.00801086,0.0175476,0.000610352,0.0174713,0.0062561
3,9,10.0097,0.000305176,-0.000152588,-2.42837,0.0550706,-0.0753682,0.0526021,0.0743273,-0.0949775,0.142877,-0.126682,-0.0868429,0.0105667,0.00476837,0.0163651,0.0130081,0.017128,0.00759125,0.0239182,0.0157547,-9.97986,0.0153732,-0.0087738,0.0171661,0.00629425,0.0161743,0.00331879,0.014534,0.00759125
4,0,10.0097,0.0012207,0,-2.42745,0.055681,-0.0744527,0.0529073,0.072191,-0.0946723,0.145624,-0.125461,-0.085317,0.0133514,0.0139618,0.0213242,0.0136185,0.0191879,0.0147629,0.0190353,0.0130844,-9.97986,0.0139618,-0.00793457,0.0163269,0.00957489,0.0170135,0.00423431,0.0158691,0.00724792
4,1,10.0097,0.000305176,0.000152588,-2.42592,0.0547655,-0.0747579,0.0532125,0.072191,-0.0934516,0.145013,-0.126377,-0.0837911,0.00976563,0.0181198,0.0226593,0.0075531,0.0140762,0.0146866,0.021553,0.0169373,-9.97986,0.0178528,-0.00518799,0.0149536,0.00644684,0.0157547,0.00125885,0.0215149,0.00423431
4,2,10.0097,0.000305176,0.000610352,-2.42684,0.0562914,-0.0741475,0.0535176,0.0706652,-0.0928413,0.146234,-0.126377,-0.0840963,0.0118256,0.0226593,0.0245667,0.0120926,0.0171661,0.00629425,0.0245285,0.0170898,-9.97986,0.0166321,-0.00785828,0.0137329,0.00782013,0.0157166,0,0.0136185,0.0069809
4,3,10.0097,0,0.000457764,-2.42592,0.0562914,-0.0756734,0.0544332,0.0712755,-0.0913154,0.146844,-0.12363,-0.0810445,0.0113678,0.023613,0.0267029,0.0146866,0.0157166,0.00785828,0.0250626,0.0159836,-9.97986,0.0200272,-0.00694275,0.0152969,0.00431061,0.0200653,-0.0056076,0.0156784,0.00694275
4,4,10.0097,0.000305176,0.000457764,-2.42318,0.0565965,-0.0741475,0.0550435,0.0709703,-0.0916206,0.145929,-0.124241,-0.0813497,0.00976563,0.0275803,0.026741,0.0138092,0.0160217,0.0109863,0.0244522,0.0164032,-9.97986,0.0112152,-0.00686646,0.0131989,0.00583649,0.0183487,-0.00354767,0.0149918,0.00511169
4,5,10.0097,0.000915527,-0.00137329,-2.42745,0.0559862,-0.075063,0.0519917,0.0389269,-0.0968086,0.146844,-0.126377,-0.0831808,0.0193024,0.0240707,0.0227356,0.0106049,0.018692,0.0150299,0.0210953,0.016861,-9.97986,0.0159073,-0.000114441,0.0117874,0.00751495,0.018158,-0.00732422,0.0172424,0.00553131
4,6,6.31215,0.000305176,-0.00320435,-2.42806,0.0587328,-0.0747579,0.0519917,-0.00379773,-0.09925,0.145929,-0.129123,-0.0825704,0.0088501,0.0248337,0.0224686,0.0104141,0.0130463,0.0107956,0.0247192,0.0114059,-9.97986,0.0138855,-0.00114441,0.0164413,0.00724792,0.0178146,-0.010643,0.0180054,0.00732422
4,7,-2.28343,0,-0.00411987,-2.42592,0.0559862,-0.073232,0.054128,-0.0117323,-0.0965034,0.146539,-0.129429,-0.0831808,0.0123978,0.0261307,0.019455,0.0126266,0.0137329,0.0112534,0.0218582,0.0146866,-9.97986,0.015831,-0.00457764,0.0173187,0.0063324,0.0125885,-0.00724792,0.0177383,0.00751495
4,8,-9.99003,0.0012207,-0.00473022,-2.4244,0.0562914,-0.0744527,0.0550435,-0.0166151,-0.0965034,0.146539,-0.129123,-0.0813497,0.0112915,0.0174713,0.00522614,0.0152206,0.015831,0.01194,0.0199127,0.0153351,-9.97986,0.0101852,-0.00411987,0.0125122,0.00846863,0.0164032,-0.0030899,0.0183868,0.00751495
4,9,-9.99003,0.0012207,-0.00289917,-2.42409,0.0572069,-0.073232,0.0565694,0.0282457,-0.0903999,0.145624,-0.126377,-0.0804342,0.0138855,0.0164413,0.00267029,0.0112915,0.018959,0.00415802,0.0219727,0.0187302,-9.97986,0.0128937,-0.00202179,0.0167847,0.00747681,-0.00846863,0.00236511,0.0119019,0.00720978
5,0,-9.99003,0.000305176,-0.0012207,-2.42501,0.0553758,-0.0738423,0.0550435,0.0535753,-0.0897895,0.145624,-0.126072,-0.0825704,0.0111389,0.0194931,0.00980377,0.0162125,0.0183868,0.0114822,0.0223923,0.0210953,-9.97986,0.0182343,-0.00404358,0.0162506,0.00675201,-0.00663757,-0.000648499,0.0154877,0.00579834
5,1,-9.99003,0.000305176,-0.000152588,-2.42501,0.055681,-0.0744527,0.054128,0.0624254,-0.0925361,0.145013,-0.126377,-0.0831808,0.00953674,0.017128,0.0143814,0.0140381,0.0152969,0.0101471,0.0234985,0.0186157,-9.97986,0.015564,-0.00389099,0.0150299,0.00793457,-0.00476837,0.00293732,0.0164413,0.00358582
5,2,-9.99003,0.00183105,0,-2.42623,0.0544603,-0.0744527,0.0547383,0.0758531,-0.0900947,0.146844,-0.124851,-0.0822652,0.0111389,0.0187302,0.0102234,0.0122833,0.0155258,0.0120926,0.0240707,0.0179672,-9.97986,0.0177002,-0.0043869,0.013504,0.00762939,0.000572205,-0.00267029,0.0132751,0.00793457
5,3,-8.29783,0.000610352,0.00350952,-2.42592,0.0553758,-0.0744527,0.0568746,0.139635,-0.0852119,0.143792,-0.120578,-0.0825704,0.0138474,0.0191116,0.0132751,0.00923157,0.0164413,0.00904083,0.0211334,0.0174332,-9.97986,0.0122452,-0.00213623,0.0105286,0.00694275,0.0129318,-0.0190735,0.0149918,0.00514984
5,4,-0.851545,0.000610352,0.00442505,-2.42714,0.0547655,-0.0747579,0.054128,0.151842,-0.0870429,0.144708,-0.121799,-0.0834859,0.0128937,0.0223923,0.0157928,0.0120926,0.0165558,0.00862122,0.0170135,0.0169754,-9.97986,0.015564,0.000991821,0.0172043,0.00686646,0.0173187,-0.0185394,0.0154495,0.00816345
5,5,7.00765,-0.00183105,0.00396729,-2.42745,0.0538499,-0.0753682,0.0529073,0.152452,-0.0894843,0.144403,-0.121494,-0.0847066,0.0105667,0.0232697,0.0166321,0.00564575,0.0183868,0.00759125,0.0211334,0.016098,-9.97986,0.0166702,0.00236511,0.00953674,0.00720978,0.0178146,-0.0147247,0.0143814,0.00602722
5,6,10.0097,-0.000305176,0.00457764,-2.4305,0.0532396,-0.0762837,0.050771,0.125902,-0.095893,0.141656,-0.12363,-0.0886739,0.00938416,0.0220871,0.0176239,0.0102234,0.0188828,0.0120926,0.021553,0.0167084,-9.97986,0.0154114,-0.00118256,0.0165176,0.0069046,0.0182343,-0.00480652,0.0137711,0.00541687
5,7,10.0097,0.00152588,0.00167847,-2.4305,0.0538499,-0.0768941,0.0501607,0.0911119,-0.0968086,0.142572,-0.126682,-0.0886739,0.0135422,0.0249481,0.0212479,0.0115967,0.0152206,0.0117493,0.0205231,0.0171661,-9.97986,0.0124359,-0.00686646,0.0149918,0.00572205,0.0160217,-0.00221252,0.0127029,0.00591278
5,8,10.0097,-0.000305176,0.000457764,-2.42928,0.0547655,-0.0762837,0.0510762,0.0776842,-0.0971137,0.143487,-0.126072,-0.0892843,0.0102615,0.0268936,0.0202942,0.011673,0.0193024,0.0117874,0.0231934,0.0185394,-9.97986,0.0154495,-0.00171661,0.0094986,0.00705719,0.0210571,0.00629425,0.0172424,0.00801086
5,9,10.0097,-0.000305176,-0.000305176,-2.42837,0.0550706,-0.0756734,0.0522969,0.0740221,-0.095893,0.145013,-0.127292,-0.0859274,0.00999451,0.0252914,0.021553,0.00785828,0.0196457,0.0117493,0.0257111,0.0202942,-9.97986,0.0171661,-0.0037384,0.00907898,0.00591278,0.0198364,0.0113678,0.0134277,0.00900269
6,0,10.0097,0.00183105,0.000305176,-2.42745,0.0541551,-0.0747579,0.0532125,0.072191,-0.0943672,0.145318,-0.126682,-0.0850118,0.011673,0.0235367,0.0212097,0.00919342,0.0180054,0.00686646,0.0186157,0.013504,-9.97986,0.0121689,-0.000228882,0.0114059,0.00385284,0.016861,0.00595093,0.0145721,0.00488281
6,1,10.0097,0.000305176,-0.000152588,-2.42684,0.0547655,-0.0741475,0.054128,0.072191,-0.0934516,0.145013,-0.126987,-0.0837911,0.00812531,0.0227737,0.0189209,0.0120544,0.0201416,0.0111008,0.0202942,0.0207901,-9.97986,0.0162888,-0.00190735,0.0136185,0.00843048,0.0154114,0.00450134,0.019989,0.00827789
6,2,10.0097,-0.000610352,0.000305176,-2.42653,0.055681,-0.0735371,0.0526021,0.0712755,-0.0928413,0.146539,-0.125156,-0.0837911,0.00991821,0.0236511,0.014267,0.00526428,0.0191879,0.00988007,0.0192642,0.0177002,-9.97986,0.017128,-0.000343323,0.0162506,0.00648499,0.0163651,0.00480652,0.014534,0.00480652
6,3,10.0097,0,0.000152588,-2.42592,0.0562914,-0.0738423,0.0547383,0.0712755,-0.0913154,0.14776,-0.12363,-0.0810445,0.0115967,0.0248337,0.0207901,0.0131226,0.0193405,0.0135422,0.0223541,0.0188828,-9.97986,0.0160599,-0.0031662,0.0153732,0.00442505,0.0136566,0.0037384,0.0138855,0.00743866
6,4,10.0097,-0.000915527,0.000762939,-2.42501,0.0562914,-0.0735371,0.0550435,0.0715807,-0.0910102,0.146234,-0.124546,-0.0807394,0.0130463,0.0238037,0.0191116,0.00938416,0.0177383,0.00980377,0.0180435,0.0182724,-9.97986,0.0150299,-0.00331879,0.0128555,0.00427246,0.014801,0.00125885,0.0161362,0.00274658
6,5,10.0097,0,-0.00106812,-2.42776,0.0547655,-0.0753682,0.0519917,0.037401,-0.0968086,0.145929,-0.126682,-0.0828756,0.0101471,0.0230026,0.0206375,0.0108719,0.0156403,0.0101471,0.0218964,0.0192642,-9.97986,0.0131607,-0.000953674,0.0133896,0.00385284,0.0197983,-0.00350952,0.0154877,0.0056076
6,6,6.05306,0.00152588,-0.00259399,-2.42653,0.0572069,-0.075063,0.0504659,-0.00318738,-0.100165,0.146234,-0.130039,-0.0834859,0.0149918,0.0216293,0.0217819,0.0104141,0.0211716,0.00843048,0.0220871,0.0204468,-9.97986,0.0153351,0.000648499,0.0104523,0.00701904,0.0143814,-0.000724792,0.0130081,0.00629425
6,7,-2.494,0.000610352,-0.00427246,-2.42531,0.0559862,-0.0738423,0.054128,-0.0132582,-0.0965034,0.14776,-0.129429,-0.0819601,0.0143051,0.0191116,0.0178146,0.00904083,0.0160599,0.00602722,0.0225067,0.0231171,-9.97986,0.01297,-0.001297,0.0136566,0.00377655,0.0159454,-0.00312805,0.0147629,0.00659943
6,8,-9.99003,-0.0012207,-0.00457764,-2.4247,0.0575121,-0.075063,0.0538228,-0.0147841,-0.0965034,0.147149,-0.129734,-0.0807394,0.0106049,0.0215149,0.0276566,0.0102997,0.0156784,0.0101089,0.0190353,0.0205612,-9.97986,0.0136566,-0.00293732,0.0148773,0.00133514,0.0190353,-0.00736237,0.0154114,0.00602722
6,9,-9.99003,0.000610352,-0.00289917,-2.42592,0.0565965,-0.0738423,0.0568746,0.0309923,-0.0903999,0.146844,-0.127598,-0.080129,0.0139999,0.0268936,0.0233841,0.00900269,0.017128,0.00709534,0.0208664,0.0215149,-9.97986,0.0139999,0.00038147,0.0130844,0.00465393,-0.0122833,-0.00408173,0.0148392,0.00606537
7,0,-9.99003,0,-0.000457764,-2.42623,0.0550706,-0.0741475,0.055959,0.0538805,-0.0903999,0.145318,-0.126072,-0.0813497,0.00900269,0.02388,0.021553,0.00888824,0.016098,0.00587463,0.0177383,0.0167847,-9.97986,0.014534,0.00232697,0.0148773,0.0037384,-0.0114059,-0.00701904,0.0161362,0.00640869
7,1,-9.99003,0.000610352,-0.000457764,-2.42623,0.0559862,-0.0741475,0.0547383,0.0615099,-0.090705,0.144708,-0.126377,-0.0813497,0.0121307,0.0282669,0.0212479,0.00614166,0.0150299,0.00720978,0.0222778,0.0190735,-9.97986,0.0115204,-7.62939e-005,0.0114441,0.00492096,-0.00801086,-0.0131989,0.0152969,0.00659943
7,2,-9.99003,-0.0012207,0.000457764,-2.42623,0.0553758,-0.075063,0.0556539,0.075548,-0.0903999,0.145318,-0.125766,-0.0828756,0.00766754,0.0294876,0.0198364,0.0087738,0.0156403,0.00801086,0.0196457,0.0176239,-9.97986,0.0124741,0.00144958,0.0138092,-0.000724792,-0.00782013,-0.00965118,0.0185013,0.00499725
7,3,-8.36558,-0.000305176,0.00335693,-2.42501,0.0538499,-0.0756734,0.0571797,0.138109,-0.0846015,0.144098,-0.121189,-0.0831808,0.0124359,0.0284195,0.0219345,0.0162506,0.0151443,0.00701904,0.0188828,0.0190735,-9.97986,0.0120544,-0.000152588,0.0150299,0.00667572,0.0162125,-0.0104523,0.0166321,0.00408173
7,4,-0.897627,0.0012207,0.00320435,-2.42776,0.0547655,-0.0759786,0.0538228,0.151537,-0.0867378,0.143487,-0.121799,-0.0850118,0.0103378,0.0275803,0.0201416,0.0110245,0.0159454,0.00965118,0.0196457,0.0217819,-9.97986,0.0137329,-0.000724792,0.0142288,0.00576019,0.0150299,-0.000267029,0.015831,0.0056076
7,5,6.90633,0,0.00457764,-2.42806,0.0535448,-0.075063,0.054128,0.153368,-0.0894843,0.143182,-0.122104,-0.0856222,0.00976563,0.0289154,0.0202179,0.010643,0.0199127,0.0125885,0.0193024,0.0218582,-9.97986,0.010376,0.00110626,0.0132751,0.00827789,0.0159454,0.00694275,0.0161362,0.00610352
7,6,10.0097,0.00152588,0.00457764,-2.4302,0.0532396,-0.0778096,0.050771,0.126817,-0.0965034,0.142877,-0.124546,-0.0880636,0.0102997,0.0424957,0.0221634,0.00812531,0.0172043,0.0102997,0.0236893,0.0159454,-9.97986,0.00995636,-0.00160217,0.016098,0.00991821,0.0164795,0.00808716,0.0180435,0.0038147
7,7,10.0097,0.000305176,0.00213623,-2.4305,0.0535448,-0.0762837,0.0513814,0.0898912,-0.0977241,0.142877,-0.126377,-0.0883688,0.0110245,0.0287628,0.0188065,0.00759125,0.0117111,0.00839233,0.019722,0.0214386,-9.97986,0.015831,0.00209808,0.0109482,0.00450134,0.0193787,0.00549316,0.0169373,0.00797272
7,8,10.0097,0.000610352,-0.000305176,-2.42989,0.0535448,-0.0753682,0.0516866,0.0785997,-0.0961982,0.142267,-0.126377,-0.0874532,0.0114822,0.00598907,0.0189209,0.00995636,0.0159836,0.00953674,0.022583,0.0175858,-9.97986,0.0157547,-0.00152588,0.0164032,0.00865936,0.0159454,0.00434875,0.0153351,0.00686646
7,9,10.0097,0.000305176,0,-2.42745,0.0538499,-0.0759786,0.0522969,0.0731066,-0.0955879,0.144403,-0.126682,-0.0865377,0.0123978,0.00453949,0.0130463,0.00675201,0.0150681,0.00770569,0.0215149,0.0165558,-9.97986,0.0134277,-0.00335693,0.013504,0.00270844,0.017662,0.000572205,0.0192261,0.00644684
8,0,10.0097,0.000915527,0,-2.42592,0.0547655,-0.0747579,0.0532125,0.0709703,-0.0937568,0.144403,-0.126987,-0.0850118,0.01091,0.0111771,0.014534,0.00694275,0.0164032,0.0110245,0.019989,0.0154495,-9.97986,0.00923157,0,0.0133133,0.00816345,0.0174332,-0.00347137,0.0193024,0.00804901
8,1,10.0097,-0.000305176,0.000305176,-2.42653,0.0538499,-0.0753682,0.0532125,0.0718859,-0.0928413,0.143487,-0.126072,-0.0844015,0.0139999,0.0211334,0.019989,0.0121307,0.0139618,0.0136185,0.0231552,0.019722,-9.97986,0.0164795,0.00244141,0.0111771,0.00480652,0.0185776,-0.00534058,0.0194168,0.00770569
8,2,10.0097,-0.000305176,0.000152588,-2.42714,0.0559862,-0.0738423,0.0532125,0.0706652,-0.0934516,0.145013,-0.125461,-0.0831808,0.00930786,0.0232315,0.0196075,0.00732422,0.0144577,0.0121689,0.0183487,0.0127792,-9.97986,0.0144958,0.00198364,0.0130081,0.00801086,0.0200272,-0.00782013,0.0157928,0.00617981
8,3,10.0097,-0.000305176,0.000152588,-2.42501,0.0544603,-0.0744527,0.0544332,0.072191,-0.0922309,0.144403,-0.12302,-0.0813497,0.0117874,0.0229645,0.0218201,0.00144958,0.0159073,0.0112915,0.0239182,0.0206757,-9.97986,0.0177765,-0.000762939,0.0136566,0.00911713,0.0154495,-0.00118256,0.0180435,0.00671387
8,4,10.0097,-0.000305176,0.000457764,-2.42501,0.0565965,-0.0735371,0.0553487,0.0724962,-0.090705,0.146234,-0.123935,-0.0807394,0.0110245,0.0289917,0.0217438,0.00740051,0.0188065,0.01297,0.0242615,0.0188446,-9.97986,0.0150299,-0.000991821,0.0137329,0.00408173,0.0189972,0.00865936,0.0209045,0.00766754
8,5,10.0097,0.00152588,-0.00137329,-2.42745,0.055681,-0.0747579,0.0526021,0.0364855,-0.0977241,0.145624,-0.126072,-0.0834859,0.0108337,0.0259018,0.018692,0.00526428,0.0169754,0.0124359,0.0228882,0.0163269,-9.97986,0.0175476,-0.00297546,0.0146484,0.00705719,0.0170517,0.00331879,0.0199127,0.00679016
8,6,6.08998,-0.000610352,-0.00305176,-2.42837,0.0569017,-0.0747579,0.050771,-0.00379773,-0.100776,0.146234,-0.129429,-0.0834859,0.0118256,0.0273514,0.0182343,0.00720978,0.0158691,0.00991821,0.0228882,0.0187683,-9.97986,0.0124741,-0.00377655,0.0143051,0.00572205,0.0164032,0.00411987,0.020256,0.00770569
8,7,-2.46989,-0.000610352,-0.0038147,-2.42592,0.0562914,-0.073232,0.0532125,-0.0126478,-0.0983344,0.146539,-0.129123,-0.0813497,0.01194,0.0229645,0.0127029,0.0158691,0.019455,0.00408173,0.0266266,0.0127411,-9.97986,0.0141525,-0.00617981,0.0160599,0.00537872,0.0167847,0.000839233,0.017395,0.00682831
8,8,-9.99003,-0.000305176,-0.00488281,-2.42501,0.055681,-0.0729268,0.054128,-0.0166151,-0.0952827,0.147149,-0.130344,-0.0816549,0.0127792,0.0264359,0.0174332,0.0235367,0.0219727,0.0126648,0.0241089,0.018158,-9.97986,0.0131226,-0.00038147,0.0154495,0.00766754,0.0169754,-0.00236511,0.0211334,0.00595093
8,9,-9.99003,0.00183105,-0.00305176,-2.42348,0.0565965,-0.0735371,0.0568746,0.030382,-0.0916206,0.147149,-0.127598,-0.080129,0.00957489,0.023613,0.0123596,0.0187683,0.0199127,0.0112152,0.0218201,0.0160217,-9.97986,0.016098,-0.00377655,0.0209808,0.000991821,-0.00793457,-0.00267029,0.0180817,0.0075531
9,0,-9.99003,-0.000305176,-0.000762939,-2.42592,0.0553758,-0.0735371,0.0544332,0.052965,-0.0913154,0.145929,-0.125461,-0.0816549,0.0113297,0.0265503,0.0151825,0.0170517,0.0183868,0.0108337,0.0219727,0.0188828,-9.97986,0.0149536,-0.00637054,0.011673,0.00301361,-0.0101852,-0.00644684,0.0151443,0.00484467
9,1,-9.99003,0.000610352,-0.000305176,-2.42531,0.0553758,-0.0741475,0.0538228,0.0618151,-0.0916206,0.145318,-0.126377,-0.0828756,0.0112152,0.0261688,0.0160217,0.0193024,0.0170517,0.0111771,0.0211334,0.0187302,-9.97986,0.0132751,-0.00118256,0.0138474,0.00743866,-0.00846863,-0.00862122,0.0166702,0.00793457
9,2,-9.99003,0.00213623,0.000610352,-2.42684,0.0559862,-0.075063,0.055959,0.0761583,-0.0900947,0.145929,-0.125766,-0.0837911,0.0114441,0.0218201,0.0181961,0.0102997,0.0152969,0.00934601,0.0242996,0.0193787,-9.97986,0.0156403,-0.00133514,0.0138092,0.00598907,0.000953674,-0.0130081,0.0200653,0.00644684
9,3,-8.29143,0.00244141,0.0038147,-2.42501,0.0541551,-0.0744527,0.0571797,0.13994,-0.0846015,0.145624,-0.121189,-0.0825704,0.0082016,0.0201416,0.0185013,0.0130081,0.0142288,0.0123215,0.0231934,0.0196457,-9.97986,0.00999451,-0.000915527,0.0139236,0.00652313,0.020256,-0.0159836,0.0196838,0.00396729
9,4,-0.856428,-0.000915527,0.00457764,-2.42653,0.0535448,-0.0753682,0.054128,0.151842,-0.0876533,0.143487,-0.121189,-0.0837911,0.0147629,0.027771,0.02388,0.0177383,0.019989,0.0139236,0.0246048,0.0293732,-9.97986,0.0153351,0.00396729,0.0177383,0.00595093,0.0178146,-0.0162506,0.0163651,0.0094986
9,5,6.91884,0.0012207,0.00457764,-2.42837,0.0541551,-0.0768941,0.0529073,0.153368,-0.0900947,0.144098,-0.121799,-0.0859274,0.0062561,0.0180817,0.0188446,0.00766754,0.0128555,0.00843048,0.0218964,0.0230789,-9.97986,0.0138855,-0.00518799,0.0125885,0.00629425,0.0119781,-0.0158691,0.0146866,0.00652313
9,6,10.0097,-0.000915527,0.0038147,-2.43111,0.0529344,-0.0765889,0.0510762,0.126817,-0.0955879,0.141351,-0.12363,-0.0883688,0.011673,0.0217056,0.0212097,0.0094986,0.0131226,0.00617981,0.0245285,0.0251389,-9.97986,0.0170135,-0.000343323,0.0169754,0.00774384,0.0163651,-0.0038147,0.0130844,0.00553131
9,7,10.0097,0.000610352,0.000915527,-2.43081,0.0526292,-0.0762837,0.0516866,0.0911119,-0.0977241,0.142572,-0.125461,-0.0889791,0.0107574,0.0191498,0.0220871,0.0120544,0.0168991,0.0108719,0.0238419,0.0202179,-9.97986,0.0159073,0.00144958,0.0160599,0.00946045,0.0185776,0.000152588,0.0139999,0.00518799
9,8,10.0097,0.00213623,-0.000152588,-2.42959,0.0541551,-0.0753682,0.0513814,0.0792101,-0.0965034,0.143487,-0.126987,-0.0883688,0.0127029,0.0198746,0.0180817,0.0105667,0.0166702,0.00881195,0.0250244,0.0212479,-9.97986,0.0164032,-0.00236511,0.0136948,0.00595093,0.0146484,0.00534058,0.0131607,0.00617981
9,9,10.0097,0,-0.000152588,-2.42898,0.0538499,-0.075063,0.0513814,0.0749376,-0.0952827,0.144098,-0.126072,-0.0865377,0.0107193,0.0235748,0.0233459,0.01091,0.0178146,0.00507355,0.0302124,0.0215912,-9.97986,0.0139618,-0.0012207,0.0155258,0.00846863,0.0165558,0.0087738,0.0124359,0.00572205
10,0,10.0097,-0.000915527,0.000457764,-2.42714,0.0544603,-0.075063,0.0535176,0.0728014,-0.0934516,0.144098,-0.125766,-0.0847066,0.00797272,0.019989,0.0217819,0.00850677,0.016098,0.00629425,0.0210571,0.0140762,-9.97986,0.0124359,-0.00499725,0.0126648,0.00720978,0.0156021,0.0130844,0.0174332,0.00778198
10,1,10.0097,0.000305176,0.000152588,-2.42776,0.0547655,-0.0744527,0.0532125,0.07036,-0.0922309,0.144403,-0.125766,-0.0847066,0.00938416,0.0224304,0.0209808,0.00801086,0.0129318,0.00289917,0.0271225,0.00823975,-9.97986,0.0141907,-0.000495911,0.0164795,0.00778198,0.0152969,0.00305176,0.0166321,0.00717163
10,2,10.0097,-0.000915527,0.000610352,-2.42653,0.0559862,-0.0744527,0.0550435,0.0718859,-0.0928413,0.147455,-0.125156,-0.0840963,0.0110626,0.0224686,0.0244522,0.0135803,0.0196457,0.0056839,0.0219345,0.00923157,-9.97986,0.0155258,0.000457764,0.0143051,0.00514984,0.0182343,0.00411987,0.0159073,0.00606537
10,3,10.0097,-0.000915527,0.000305176,-2.42501,0.0559862,-0.0738423,0.0547383,0.0709703,-0.0903999,0.146234,-0.124546,-0.0813497,0.00808716,0.022049,0.0209808,0.00667572,0.0127029,0.00995636,0.0198364,0.00907898,-9.97986,0.0151443,0.00354767,0.0151062,0.00797272,0.0160599,-0.00198364,0.013237,0.00583649
10,4,10.0097,0.000610352,0.000152588,-2.4247,0.0572069,-0.0744527,0.0553487,0.0715807,-0.0925361,0.147455,-0.124546,-0.0813497,0.01194,0.0259399,0.0239563,0.0124741,0.0154114,0.00934601,0.0236893,0.0162888,-9.97986,0.0128937,0.000152588,0.0123215,0.00396729,0.0162506,-0.00190735,0.0143051,0.00694275
10,5,10.0097,0.00213623,-0.0012207,-2.42776,0.0562914,-0.0747579,0.0526021,0.0355699,-0.0971137,0.146539,-0.127598,-0.0828756,0.0136566,0.0239182,0.0249863,0.0134277,0.015831,0.00774384,0.0203323,0.0195694,-9.97986,0.0104523,0.00221252,0.0159454,0.00705719,0.0196075,-0.00530243,0.0153351,0.00770569
10,6,5.87026,-0.000305176,-0.00305176,-2.42684,0.055681,-0.0738423,0.0513814,-0.00349256,-0.0998603,0.144098,-0.129429,-0.0831808,0.0129318,0.0260544,0.0225067,0.0204849,0.0216293,0.0120926,0.0240707,0.0222778,-9.97986,0.0145721,-0.00236511,0.0158691,0.00499725,0.0159073,-0.00431061,0.0186539,0.00709534
10,7,-2.63377,0.000915527,-0.0038147,-2.42501,0.0559862,-0.073232,0.0538228,-0.0126478,-0.0974189,0.146234,-0.129734,-0.0825704,0.0123596,0.0212097,0.0255966,0.0175476,0.0146103,0.0106049,0.0192261,0.0181961,-9.97986,0.0101089,0.000267029,0.0136948,0.00926971,0.0125122,-0.00720978,0.0104904,0.00541687
10,8,-9.99003,0.00152588,-0.00411987,-2.42501,0.0559862,-0.0741475,0.0544332,-0.0175306,-0.0961982,0.146234,-0.130649,-0.0810445,0.00511169,0.0214005,0.0257874,0.0179291,0.0161743,0.00991821,0.0199509,0.0222778,-9.97986,0.0163269,-0.000724792,0.0134659,0.00473022,0.0188065,-0.00118256,0.0195313,0.00621796
10,9,-9.99003,0.000305176,-0.00289917,-2.42348,0.0572069,-0.073232,0.0562642,0.0312975,-0.0897895,0.146234,-0.126072,-0.0810445,0.00682831,0.0209808,0.0256729,0.00984192,0.0159073,0.0159454,0.0196457,0.0205994,-9.97986,0.0157166,0.000457764,0.00961304,0.00564575,-0.0101471,-0.00175476,0.0147247,0.00621796
11,0,-9.99003,-0.000305176,-0.000762939,-2.42562,0.0550706,-0.0744527,0.0550435,0.0532701,-0.090705,0.145013,-0.126072,-0.0810445,0.00961304,0.0276947,0.0228882,0.0105286,0.0147629,0.0106049,0.0224304,0.0130463,-9.97986,0.0120163,0.0018692,0.0101471,0.00595093,-0.00888824,-0.00087738,0.0173569,0.00617981
11,1,-9.99003,-0.00183105,0,-2.42623,0.0544603,-0.0741475,0.0550435,0.0624254,-0.0916206,0.145318,-0.124851,-0.0828756,0.00652313,0.0252914,0.0188446,0.0132751,0.0167084,0.00862122,0.0210571,0.0128174,-9.97986,0.0135803,0.00343323,0.0138092,0.0088501,-0.00854492,-0.00480652,0.0141144,0.0088501
11,2,-9.99003,0,-0.000152588,-2.42745,0.0550706,-0.0753682,0.0550435,0.0734117,-0.0894843,0.146539,-0.124851,-0.0831808,0.00926971,0.026207,0.0118256,0.0146866,0.0168991,0.00808716,0.0225449,0.0110245,-9.97986,0.0165939,-0.00148773,0.013237,0.0107574,-0.00370026,-0.00724792,0.0168228,0.00629425
11,3,-8.3311,0.000610352,0.00366211,-2.42684,0.0550706,-0.0747579,0.0568746,0.136888,-0.0849067,0.144098,-0.121189,-0.0828756,0.0152588,0.0179672,0.00598907,0.00762939,0.0157547,0.00881195,0.0224686,0.0114822,-9.97986,0.0137329,-0.00480652,0.0118637,0.00766754,0.0147629,-0.00858307,0.0173187,0.00640869
11,4,-0.939436,-0.0012207,0.00366211,-2.42714,0.0547655,-0.0756734,0.054128,0.151232,-0.0882636,0.144098,-0.121189,-0.0844015,0.0139999,0.0199509,0.01194,0.00404358,0.0177765,0.0114822,0.0255585,0.0133514,-9.97986,0.0140762,-0.00812531,0.0160217,0.00831604,0.015831,-0.00785828,0.0152969,0.00576019
11,5,6.84957,0.000610352,0.00442505,-2.42867,0.0547655,-0.0759786,0.0535176,0.153063,-0.0900947,0.143792,-0.121799,-0.0865377,0.00782013,0.0181961,0.00869751,0.000991821,0.0133133,0.0082016,0.0191498,0.0121307,-9.97986,0.0162888,-0.0056839,0.00995636,0.00995636,0.0196457,-0.00675201,0.0153351,0.00461578
11,6,10.0097,-0.000305176,0.00411987,-2.42989,0.0523241,-0.0762837,0.0513814,0.127123,-0.095893,0.143792,-0.124851,-0.0883688,0.0124359,0.0217438,0.0157928,-0.000686646,0.0187302,0.0131989,0.0207138,0.0180817,-9.97986,0.016861,-0.00434875,0.0171661,0.0108719,0.0182343,-0.00576019,0.0159454,0.0043869
11,7,10.0097,0.00152588,0.000457764,-2.4302,0.0535448,-0.0765889,0.0498555,0.0911119,-0.0977241,0.142267,-0.126987,-0.0886739,0.0114441,0.0231171,0.0170898,-0.00511169,0.0139618,0.0133133,0.0165558,0.0143814,-9.97986,0.014534,0.000991821,0.0137711,0.00972748,0.0169373,-0.00225067,0.0188446,0.00572205
11,8,10.0097,0.000915527,0.000610352,-2.4305,0.0526292,-0.0756734,0.0510762,0.0779894,-0.0971137,0.143487,-0.126987,-0.0877584,0.00854492,0.0250626,0.0175858,-0.00541687,0.0225067,0.0149536,0.0215149,0.0151443,-9.97986,0.0118637,0.00106812,0.0130081,0.00602722,0.014267,-0.00396729,0.0148392,0.00713348
11,9,10.0097,-0.0012207,0.000305176,-2.42714,0.0532396,-0.0756734,0.0513814,0.0728014,-0.0949775,0.144098,-0.126987,-0.0862325,0.0118256,0.0304794,0.0187683,0.00507355,0.0177002,0.0111771,0.0189972,0.016861,-9.97986,0.0134277,0.000495911,0.0133514,0.00816345,0.018959,-0.00156403,0.0162125,0.00766754
12,0,10.0097,0.0012207,0,-2.42806,0.0547655,-0.0747579,0.0532125,0.0734117,-0.0943672,0.145318,-0.126377,-0.0850118,0.0120544,0.0307465,0.0175095,0.0114441,0.0161743,0.0101471,0.019722,0.0174713,-9.97986,0.0155258,0.00289917,0.0088501,0.00652313,0.0149536,-0.000724792,0.0154114,0.00808716
12,1,10.0097,0.00152588,0,-2.42745,0.055681,-0.0747579,0.0532125,0.07036,-0.0931465,0.144403,-0.126987,-0.0847066,0.0113297,0.0273132,0.0201035,0.0186157,0.0160599,0.0108337,0.0230026,0.0220108,-9.97986,0.0153351,-0.00164032,0.0125122,0.0063324,0.0115967,0.00511169,0.0158691,0.00473022
12,2,10.0097,0.0012207,0.000610352,-2.42592,0.0559862,-0.0738423,0.0535176,0.072191,-0.0928413,0.145318,-0.125766,-0.0834859,0.0130844,0.0340271,0.0126266,0.0128174,0.0194168,0.010376,0.0209045,0.0233078,-9.97986,0.0157547,0.00293732,0.0141525,0.00896454,0.0148392,0.00537872,0.0173569,0.00766754
12,3,10.0097,-0.000305176,0.000152588,-2.42531,0.055681,-0.0729268,0.054128,0.072191,-0.0916206,0.145624,-0.124851,-0.0816549,0.00946045,0.0268173,0.017395,0.013504,0.015831,0.00995636,0.0270081,0.0209427,-9.97986,0.0162125,-0.000839233,0.0142288,0.0037384,0.0177383,0.00133514,0.017128,0.00705719
12,4,10.0097,-0.000915527,-0.000305176,-2.42531,0.0559862,-0.0735371,0.0550435,0.0724962,-0.0931465,0.145624,-0.124546,-0.0810445,0.00915527,0.0165558,0.016098,0.020256,0.0197983,0.00583649,0.0204086,0.0265503,-9.97986,0.0176239,0.000686646,0.0128174,0.00617981,0.0189972,0.00312805,0.0153732,0.00705719
12,5,10.0097,0.000305176,-0.000915527,-2.42684,0.0559862,-0.0747579,0.050771,0.037401,-0.0971137,0.145318,-0.127903,-0.0825704,0.0118256,0.0201416,0.0107956,0.015564,0.0225449,0.010376,0.0205612,0.0198364,-9.97986,0.0189209,0.00125885,0.0166321,0.0069046,0.0148392,0.00125885,0.0139999,0.00411987
12,6,6.02773,0.00183105,-0.00289917,-2.42745,0.055681,-0.0747579,0.0516866,-0.00318738,-0.0998603,0.145624,-0.129734,-0.0834859,0.0102997,0.0187683,0.0149536,0.0239563,0.0165939,0.00999451,0.0189972,0.0237274,-9.97986,0.0173569,-0.000953674,0.0179672,0.00671387,0.0167847,-0.0105286,0.0125122,0.0063324
12,7,-2.36308,0,-0.00411987,-2.42531,0.0562914,-0.073232,0.0547383,-0.0120375,-0.0968086,0.148065,-0.130649,-0.0825704,0.00976563,0.0216675,0.0138474,0.031662,0.0202942,0.0119019,0.0221634,0.0267792,-9.97986,0.0216293,0.000572205,0.0125504,0.0037384,0.0162125,-0.0106812,0.0198364,0.00423431
12,8,-9.99003,0.000915527,-0.00427246,-2.42653,0.0569017,-0.0741475,0.0538228,-0.0147841,-0.0955879,0.146539,-0.130344,-0.0819601,0.0111008,0.0249481,0.0177002,0.0288391,0.0193787,0.0107956,0.0208282,0.0268555,-9.97986,0.0130463,-0.000915527,0.016098,0.00484467,0.0181198,-0.00408173,0.0182724,0.00629425
12,9,-9.99003,0.000915527,-0.00213623,-2.42409,0.0562914,-0.0744527,0.0562642,0.0288561,-0.0894843,0.146234,-0.127292,-0.0807394,0.00846863,0.0242233,0.0193024,0.0143814,0.0155258,0.00896454,0.0226974,0.0215912,-9.97986,0.0166321,-0.000724792,0.0163269,0.00320435,-0.0100327,-0.00286102,0.0157166,0.00556946
13,0,-9.99003,-0.000915527,-0.000610352,-2.42592,0.0550706,-0.0741475,0.0553487,0.0541857,-0.0894843,0.146234,-0.126682,-0.0813497,0.0139618,0.0302887,0.0195694,0.0088501,0.0163651,0.00640869,0.0225449,0.0212479,-9.97986,0.018425,0.000267029,0.0117493,0.00297546,-0.0088501,-0.00598907,0.0154114,0.00328064
13,1,-9.99003,0.0012207,0,-2.42562,0.0559862,-0.0747579,0.0547383,0.0627306,-0.0925361,0.145624,-0.125766,-0.0819601,0.00923157,0.0411606,0.018158,0.00160217,0.019455,0.00797272,0.0200653,0.020256,-9.97986,0.0170517,-0.00370026,0.0154495,0.00190735,-0.00823975,-0.00583649,0.0136185,0.00801086
13,2,-9.99003,-0.0012207,-0.000152588,-2.42531,0.0547655,-0.0741475,0.0535176,0.0758531,-0.0897895,0.144098,-0.124851,-0.0831808,0.0088501,0.0402832,0.021553,0.00385284,0.0179291,0.00923157,0.0218582,0.00919342,-9.97986,0.0172043,-0.00278473,0.014534,0.00774384,0.00221252,-0.001297,0.0159073,0.0069046
13,3,-8.06285,0.0012207,0.00366211,-2.42623,0.0547655,-0.075063,0.0565694,0.140245,-0.0849067,0.145013,-0.122104,-0.0831808,0.0123215,0.0427628,0.0172806,0.000114441,0.0179672,0.012207,0.0208664,0.00221252,-9.97986,0.0167847,0.00202179,0.0164413,0.00930786,0.0125504,-0.00263214,0.0183868,0.00579834
13,4,-0.670576,0.00152588,0.00427246,-2.42745,0.0544603,-0.0744527,0.0553487,0.151537,-0.0867378,0.143792,-0.120884,-0.0840963,0.0104523,0.0312805,0.022316,-0.00289917,0.0175858,0.00991821,0.0178146,0.0056839,-9.97986,0.0153732,0.000801086,0.0150299,0.00232697,0.0171661,-0.00293732,0.0150299,0.00667572
13,5,7.1584,0.00152588,0.00350952,-2.42898,0.0544603,-0.0762837,0.0532125,0.153063,-0.090705,0.144098,-0.121189,-0.085317,0.00850677,0.024147,0.0218964,0.00602722,0.0180054,0.0100708,0.0224686,0.0156021,-9.97986,0.0136566,-0.000190735,0.0144196,0.0075531,0.0196457,-0.00968933,0.018425,0.00518799
13,6,10.0097,-0.000610352,0.00396729,-2.43111,0.0532396,-0.0775044,0.050771,0.123461,-0.0955879,0.142877,-0.124851,-0.0889791,0.0117874,0.026474,0.0187683,0.0312042,0.0144958,0.00911713,0.0167084,0.014267,-9.97986,0.0150299,0.000801086,0.0125885,0.00576019,0.0166321,-0.000839233,0.0148773,0.00320435
13,7,10.0097,0,0.00167847,-2.43111,0.0526292,-0.0765889,0.0504659,0.0908068,-0.0980293,0.143182,-0.126987,-0.0889791,0.0119781,0.0198746,0.0178528,0.048027,0.0157547,0.0126648,0.0156784,0.0178528,-9.97986,0.0152588,0.00579834,0.0164413,0.00682831,0.0180817,0.00587463,0.0167084,0.00511169
13,8,10.0097,0.00213623,0.000152588,-2.42928,0.0544603,-0.0753682,0.0513814,0.0785997,-0.0961982,0.143792,-0.126987,-0.0877584,0.0115585,0.0132751,0.017662,0.0388336,0.015831,0.0107574,0.0226212,0.021553,-9.97986,0.0154877,0.00324249,0.0135422,0.00450134,0.0134277,0.00431061,0.0173569,0.00419617
13,9,10.0097,-0.000305176,-0.000152588,-2.42837,0.0547655,-0.0762837,0.0513814,0.0734117,-0.0952827,0.143487,-0.127598,-0.0868429,0.00892639,0.00541687,0.0133896,0.0248718,0.0162888,0.00591278,0.0206757,0.0189209,-9.97986,0.0112534,0.00621796,0.0148392,0.00530243,0.0170898,-0.000152588,0.0131607,0.00652313
14,0,10.0097,0.00183105,0.000762939,-2.42867,0.0547655,-0.075063,0.0532125,0.0718859,-0.0946723,0.145013,-0.126072,-0.0850118,0.0113297,0.0130081,0.0154495,0.0216675,0.0154877,0.0100708,0.021553,0.0198364,-9.97986,0.01297,0.000839233,0.0131989,0.00354767,0.0140762,0.00137329,0.0109482,0.00579834
14,1,10.0097,-0.000610352,0.000610352,-2.42745,0.0553758,-0.0753682,0.0532125,0.0709703,-0.0943672,0.145013,-0.126072,-0.0840963,0.0100708,0.0219345,0.0126648,0.0163269,0.0170517,0.0123215,0.0197601,0.0172424,-9.97986,0.0175476,-0.00114441,0.013504,0.00740051,0.0197601,0.00106812,0.0169754,0.00793457
14,2,10.0097,0.00244141,0.000152588,-2.42562,0.055681,-0.0753682,0.0529073,0.072191,-0.0934516,0.145013,-0.125156,-0.0825704,0.0106812,0.0287247,0.0131989,0.0132751,0.0163651,0.0082016,0.0151443,0.0161362,-9.97986,0.0121689,0.001297,0.0164032,0.00133514,0.0140381,0.00465393,0.0161743,0.00556946
14,3,10.0097,0.000915527,-0.000152588,-2.42592,0.0578172,-0.0738423,0.0547383,0.0715807,-0.0916206,0.146234,-0.124241,-0.0813497,0.0119019,0.0281525,0.0187302,0.00713348,0.0179291,0.0123596,0.0239563,0.0180817,-9.97986,0.0159836,0.00267029,0.0115967,0.00442505,0.0141907,0.00385284,0.0159454,0.0082016
14,4,10.0097,0.000305176,0.000457764,-2.4247,0.0559862,-0.0738423,0.0553487,0.0700548,-0.0910102,0.146844,-0.12363,-0.0819601,0.0117874,0.0167465,0.0226974,0.00846863,0.0187302,0.00461578,0.02388,0.0131607,-9.97986,0.0123978,-0.000228882,0.0137711,0.00617981,0.0182343,0.00774384,0.0156021,0.0082016
14,5,10.0097,-0.000305176,-0.00137329,-2.42653,0.0553758,-0.0741475,0.0516866,0.0367906,-0.0971137,0.145013,-0.127292,-0.0831808,0.00724792,0.00770569,0.0177002,0.00827789,0.0170517,0.00980377,0.0229645,0.0111389,-9.97986,0.0123978,-0.00968933,0.0103378,0.00728607,0.0140762,0.00736237,0.0174332,0.0062561
14,6,6.02407,-0.000915527,-0.00335693,-2.42714,0.0559862,-0.0747579,0.0516866,-0.00532361,-0.100776,0.145929,-0.130039,-0.0837911,0.010376,0.0152206,0.0189209,0.010376,0.0148392,0.00751495,0.0221634,0.00324249,-9.97986,0.0126648,-0.0056839,0.0125122,0.00637054,0.0162506,0.00492096,0.0154495,0.00648499
14,7,-2.51506,0,-0.00366211,-2.42531,0.0559862,-0.0741475,0.0532125,-0.0135634,-0.0971137,0.146844,-0.129734,-0.0822652,0.00904083,0.0209427,0.019455,0.00904083,0.0146484,0.00953674,0.0237274,0.00534058,-9.97986,0.0168228,-0.00408173,0.0191116,0.0088501,0.0177765,0.00423431,0.018158,0.00530243
14,8,-9.99003,0.000305176,-0.00473022,-2.42531,0.0575121,-0.0738423,0.0544332,-0.0156996,-0.0961982,0.147149,-0.129429,-0.0816549,0.010376,0.0230408,0.0188446,0.00656128,0.0189209,0.00679016,0.0230026,0.00473022,-9.97986,0.0137711,-0.000724792,0.0120544,0.00621796,0.0138855,0.00221252,0.0177002,0.00679016
14,9,-9.99003,0.00213623,-0.00244141,-2.42379,0.0562914,-0.0726216,0.0574849,0.0291613,-0.0916206,0.145624,-0.126072,-0.0795187,0.0128555,0.0205612,0.0164795,0.00328064,0.0161362,0.00984192,0.0235367,0.0122452,-9.97986,0.0117111,-0.000572205,0.0137329,0.00526428,-0.00595093,0.00225067,0.0175476,0.00648499
15,0,-9.99003,0.000610352,-0.000610352,-2.42623,0.0550706,-0.0738423,0.0553487,0.052965,-0.090705,0.144708,-0.127292,-0.0816549,0.0107193,0.022316,0.0224686,0.00480652,0.0188065,0.00843048,0.0215912,0.0127029,-9.97986,0.0163651,-0.000419617,0.0120163,0.00247955,-0.00484467,-0.000724792,0.0133514,0.00827789
15,1,-9.99003,0.000915527,-0.000457764,-2.42592,0.0562914,-0.0747579,0.0550435,0.0636461,-0.0916206,0.145318,-0.126072,-0.0825704,0.0126266,0.0250626,0.0166702,0.0164795,0.0176239,0.0100708,0.021553,0.0126648,-9.97986,0.0149918,-0.000991821,0.015831,0.00461578,-0.0075531,0.00225067,0.019455,0.00331879
15,2,-9.99003,0.00152588,0,-2.42592,0.0569017,-0.075063,0.0553487,0.0761583,-0.0897895,0.145318,-0.125461,-0.0834859,0.0138855,0.0251007,0.0227356,0.0244904,0.0201416,0.00896454,0.022583,0.0156784,-9.97986,0.0159454,-0.00144958,0.0149918,0.00610352,-0.000839233,-0.00595093,0.0184631,0.0063324
15,3,-8.09947,0.000610352,0.00228882,-2.42562,0.0550706,-0.0753682,0.0556539,0.138719,-0.0855171,0.143792,-0.121799,-0.0825704,0.0130844,0.0252151,0.0235367,0.016098,0.0166702,0.00740051,0.0165558,0.0186157,-9.97986,0.0130463,-0.00457764,0.0116348,0.00617981,0.0187683,-0.00682831,0.0169373,0.00522614
15,4,-0.696516,0.00183105,0.0038147,-2.42806,0.0532396,-0.0741475,0.0562642,0.151232,-0.0879585,0.144403,-0.121494,-0.0837911,0.0125504,0.0227737,0.0313568,0.00865936,0.0159836,0.0088501,0.0156021,0.0131989,-9.97986,0.0127411,-0.00205994,0.0145721,0.00431061,0.0138092,-0.00797272,0.0133896,0.00415802
15,5,7.01772,0.000915527,0.0038147,-2.42806,0.0532396,-0.0747579,0.0529073,0.153673,-0.0894843,0.144098,-0.121189,-0.0862325,0.0139618,0.0261688,0.0348282,0.00183105,0.0160217,0.00640869,0.0146484,0.0156784,-9.97986,0.0138092,0.000610352,0.0146484,0.00583649,0.0124359,-0.00934601,0.0165939,0.00713348
15,6,10.0097,0.000610352,0.00396729,-2.43142,0.0535448,-0.0771993,0.0510762,0.124376,-0.0952827,0.143182,-0.124851,-0.0877584,0.00938416,0.0198364,0.0339127,-0.00396729,0.0156403,0.00720978,0.0132751,0.0162506,-9.97986,0.012207,0.000953674,0.0125504,0.00453949,0.0131226,-0.0166702,0.0132751,0.00614166
15,7,10.0097,0,0.00106812,-2.4305,0.0544603,-0.0765889,0.0504659,0.0901964,-0.0971137,0.142572,-0.126377,-0.0883688,0.00984192,0.0211716,0.0305939,0.00385284,0.0159836,0.00850677,0.0177383,0.0218964,-9.97986,0.0165939,0.0075531,0.0135422,0.0102234,0.0148773,-0.0122833,0.0178146,0.00980377
15,8,10.0097,0.000610352,0,-2.42928,0.0526292,-0.0756734,0.0516866,0.0795153,-0.0980293,0.142877,-0.126072,-0.0883688,0.00991821,0.022049,0.0211716,-0.00087738,0.0161743,0.0100708,0.015564,0.0205612,-9.97986,0.0134659,0.0056839,0.0147629,0.00556946,0.0176239,-0.01091,0.0145721,0.0056839
15,9,10.0097,0.0012207,-0.000152588,-2.42776,0.0541551,-0.0753682,0.0522969,0.0740221,-0.0952827,0.143182,-0.126682,-0.0862325,0.0130844,0.0246048,0.019722,0.0163651,0.01297,0.0100708,0.0235367,0.0191879,-9.97986,0.0130081,0.00339508,0.0137329,0.00827789,0.0163269,-0.00717163,0.0167084,0.00617981
16,0,10.0097,-0.000915527,0.000610352,-2.42776,0.0550706,-0.0747579,0.0519917,0.072191,-0.0925361,0.145013,-0.127292,-0.0859274,0.0133514,0.0285339,0.0269699,0.0217056,0.0216675,0.0106812,0.0192261,0.0196457,-9.97986,0.0103378,0.00301361,0.0206375,0.00553131,0.0142288,-0.00144958,0.0150299,0.00514984
16,1,10.0097,0.0765991,0.000915527,-2.42776,0.0562914,-0.0744527,0.0529073,0.0715807,-0.0919257,0.165155,-0.125156,-0.0850118,0.0139618,0.0270081,0.0219727,0.0179672,0.0188065,0.00888824,0.0244141,0.0154114,-9.97986,0.0140381,0.00190735,0.0120926,0.0075531,0.0194931,0.00423431,0.0165176,0.00431061
16,2,10.0097,0.00366211,0.000762939,-2.42501,0.0544603,-0.0741475,0.054128,0.0709703,-0.0937568,0.152337,-0.125766,-0.0834859,0.00938416,0.0252533,0.0200272,0.0167847,0.0163651,0.00888824,0.02388,0.0139618,-9.97986,0.0143051,-0.00873566,0.0130081,0.00621796,0.0182343,0.0018692,0.015831,0.0062561
16,3,10.0097,0.000305176,0,-2.42562,0.055681,-0.0735371,0.0544332,0.0715807,-0.0928413,0.14898,-0.124546,-0.0810445,0.00991821,0.02491,0.0205231,0.00495911,0.0181198,0.0125885,0.0258636,0.0127411,-9.97986,0.013504,-0.015564,0.0143433,0.00614166,0.0235367,-0.00137329,0.0167465,0.00553131
16,4,10.0097,0.00152588,0.000152588,-2.4247,0.0553758,-0.0753682,0.0547383,0.0718859,-0.0922309,0.14837,-0.124241,-0.0810445,0.0088501,0.0169373,0.0161743,-0.00171661,0.0135422,0.00930786,0.0290298,0.0149155,-9.97986,0.0170135,-0.0147247,0.0160599,0.0062561,0.0229645,-0.000610352,0.019455,0.00637054
16,5,10.0097,0,-0.00152588,-2.42714,0.0547655,-0.0735371,0.0516866,0.0352648,-0.0974189,0.146844,-0.126987,-0.0834859,0.0118637,0.00904083,0.00442505,0.00148773,0.0169754,0.0125885,0.0258255,0.0168991,-9.97986,0.0106049,-0.00919342,0.0169754,0.00865936,0.0169373,-0.000915527,0.0191879,0.00522614
16,6,5.75185,0.000305176,-0.00320435,-2.42745,0.0559862,-0.0738423,0.0519917,-0.00501844,-0.100471,0.146844,-0.128818,-0.0837911,0.0125504,0.0110245,0.00183105,0.0186157,0.017395,0.00999451,0.0248337,0.016098,-9.97986,0.0206375,-0.00274658,0.0169373,0.00850677,0.0189209,-0.00385284,0.0193405,0.00423431
16,7,-2.68199,-0.00213623,-0.00396729,-2.42501,0.0553758,-0.0738423,0.054128,-0.0138685,-0.0977241,0.147149,-0.129734,-0.0816549,0.00816345,0.0106812,0.000495911,0.0251389,0.0222015,0.00976563,0.0210571,0.0201797,-9.97986,0.0160599,-0.00537872,0.0162506,0.00850677,0.016098,-0.00518799,0.0149155,0.00335693
16,8,-9.99003,0.000305176,-0.00442505,-2.42501,0.0565965,-0.0738423,0.054128,-0.0160048,-0.0949775,0.146539,-0.129734,-0.0810445,0.00720978,0.0104904,0.00133514,0.026741,0.0157547,0.014801,0.0205612,0.0273514,-9.97986,0.018425,-0.00370026,0.0119781,0.00907898,0.0236511,-0.0111008,0.0166321,0.00556946
16,9,-9.99003,-0.000305176,-0.00259399,-2.42318,0.0575121,-0.0738423,0.0574849,0.0316027,-0.0894843,0.146844,-0.127292,-0.0807394,0.0139999,0.0150299,0.00968933,0.021019,0.0165939,0.012207,0.0188446,0.0201797,-9.97986,0.017395,-0.00152588,0.0144196,0.00778198,-0.00671387,-0.0154114,0.0156784,0.00541687
17,0,-9.99003,0.000610352,0.000152588,-2.42501,0.055681,-0.0735371,0.0544332,0.0532701,-0.0900947,0.145929,-0.126072,-0.0813497,0.010376,0.0221634,0.0129318,0.0200272,0.0188828,0.0136185,0.0199127,0.0211334,-9.97986,0.0215912,0.00118256,0.0157928,0.00988007,-0.00591278,-0.00988007,0.0147629,0.00434875
17,1,-9.99003,-0.0012207,0.000152588,-2.42592,0.055681,-0.075063,0.0553487,0.0618151,-0.0916206,0.145929,-0.126072,-0.0816549,0.0128937,0.0186157,0.0127792,0.022316,0.0163269,0.00965118,0.0267792,0.0208282,-9.97986,0.014534,-0.00198364,0.012207,0.00774384,-0.0102997,-0.00526428,0.0149536,0.0031662
17,2,-9.99003,0.000915527,0.000152588,-2.42562,0.0553758,-0.0747579,0.0547383,0.0752428,-0.090705,0.146844,-0.126072,-0.0828756,0.0139618,0.0209808,0.0135803,0.0149155,0.0172043,0.0107574,0.0247574,0.0189972,-9.97986,0.0168228,0.00141144,0.0190735,0.0112534,-0.000267029,0.00453949,0.0161743,0.00492096
17,3,-8.13151,0.000305176,0.00396729,-2.42623,0.0547655,-0.075063,0.0556539,0.138719,-0.0855171,0.144403,-0.121494,-0.0831808,0.0069046,0.0201797,0.0112534,0.0138855,0.0165176,0.0102234,0.0268173,0.0217056,-9.97986,0.0136185,-0.00297546,0.0152206,0.0101852,0.0175476,0.00961304,0.0139999,0.00679016
17,4,-0.774946,0.000610352,0.00350952,-2.42684,0.0547655,-0.0756734,0.055959,0.151537,-0.0882636,0.144403,-0.121189,-0.0834859,0.0125504,0.02285,0.0103378,0.0168991,0.0154495,0.00759125,0.0279617,0.0170135,-9.97986,0.0155258,0.00205994,0.0156403,0.0094223,0.0170135,0.0108337,0.0144577,0.00293732
17,5,6.99849,0.000610352,0.00473022,-2.42776,0.0535448,-0.0738423,0.0535176,0.153063,-0.0903999,0.141961,-0.121799,-0.0859274,0.0124741,0.0246811,0.00686646,0.0185013,0.016861,0.0131226,0.0266266,0.0204468,-9.97986,0.0162125,-0.00148773,0.0156784,0.00732422,0.0194931,0.0144577,0.0157166,0.0063324
17,6,10.0097,0.000305176,0.00442505,-2.43081,0.0532396,-0.0768941,0.0504659,0.126207,-0.0943672,0.141961,-0.125156,-0.0883688,0.0126648,0.0246811,0.0137711,0.0112915,0.0163269,0.00930786,0.0205612,0.0199509,-9.97986,0.0144196,-0.0043869,0.0122833,0.0141907,0.0202942,0.0082016,0.0138092,0.00793457
17,7,10.0097,-0.000305176,0.000610352,-2.43111,0.0532396,-0.0771993,0.0513814,0.0901964,-0.0977241,0.142572,-0.127292,-0.0889791,0.0107956,0.0218201,0.0123215,0.0162506,0.01297,0.0087738,0.0181198,0.0197601,-9.97986,0.0117874,-0.00434875,0.0161362,0.00850677,0.0161362,0.0056839,0.0138474,0.00453949
17,8,10.0097,0.00152588,0.000305176,-2.42989,0.0541551,-0.0762837,0.050771,0.0764635,-0.0961982,0.142877,-0.126682,-0.0883688,0.00831604,0.0225449,0.0167847,0.0147629,0.0196457,0.0146866,0.0122452,0.0193787,-9.97986,0.0102997,-0.00453949,0.015831,0.0106812,0.0180054,0.00183105,0.0155258,0.00816345
17,9,10.0097,0,0,-2.42837,0.0541551,-0.0756734,0.0519917,0.0740221,-0.0955879,0.143792,-0.125766,-0.0859274,0.0122833,0.02388,0.0104523,0.00957489,0.017395,0.00946045,0.0179672,0.0225449,-9.97986,0.0159073,-0.00488281,0.0156403,0.00953674,0.0159836,-0.00522614,0.0175476,0.00801086
18,0,10.0097,0.000915527,0.000610352,-2.42684,0.0559862,-0.0744527,0.0532125,0.0718859,-0.0934516,0.145318,-0.126377,-0.0859274,0.00946045,0.0210571,0.0163651,0.0106049,0.0220108,0.00701904,0.010376,0.0207901,-9.97986,0.0130081,-0.000152588,0.0135803,0.0094986,0.0104904,-0.0106812,0.0141907,0.00907898
18,1,10.0097,-0.000610352,0.000457764,-2.42714,0.055681,-0.0756734,0.0522969,0.0712755,-0.0937568,0.145318,-0.125156,-0.0844015,0.0113678,0.0230789,0.0190353,0.00854492,0.0188446,0.00751495,0.0150681,0.0197601,-9.97986,0.0160217,-0.0030899,0.0159454,0.00850677,0.0133133,-0.0155258,0.0164795,0.00507355
18,2,10.0097,0.00183105,0.000305176,-2.42684,0.0544603,-0.0744527,0.0529073,0.0718859,-0.0928413,0.145929,-0.126072,-0.0840963,0.00991821,0.0246811,0.0204849,0.0113678,0.0166321,0.00869751,0.0158691,0.0174713,-9.97986,0.0153732,-0.0044632,0.0128555,0.0100708,0.015564,-0.013504,0.0201035,0.00778198
18,3,10.0097,-0.000915527,-0.000610352,-2.4244,0.0565965,-0.0729268,0.055959,0.0718859,-0.0913154,0.146234,-0.123935,-0.0819601,0.00995636,0.0245285,0.019455,0.0109863,0.0204468,0.00965118,0.0169754,0.0175858,-9.97986,0.0127792,-0.00526428,0.0120163,0.0102234,0.0146866,-0.0118637,0.0152969,0.00656128
18,4,10.0097,0.000305176,-0.000152588,-2.42684,0.0569017,-0.0741475,0.0550435,0.0712755,-0.0913154,0.146539,-0.123325,-0.0810445,0.00812531,0.0242996,0.0157547,0.0150681,0.0204849,0.0119781,0.0236511,0.0232697,-9.97986,0.0133133,0.000457764,0.0202179,0.0114059,0.0149155,-0.0062561,0.0166702,0.00873566
18,5,10.0097,-0.000305176,-0.00106812,-2.42714,0.055681,-0.0747579,0.0519917,0.0346544,-0.0971137,0.145624,-0.126682,-0.0828756,0.0120926,0.0239944,0.0167084,0.0119019,0.0165558,0.0106049,0.0199127,0.0217056,-9.97986,0.0128937,-0.00038147,0.0137329,0.00408173,0.0141144,-0.00457764,0.0163269,0.00713348
18,6,5.69264,0,-0.00335693,-2.42806,0.0541551,-0.0735371,0.0504659,-0.00654431,-0.0995551,0.145929,-0.130039,-0.0831808,0.0120544,0.0237274,0.0177765,0.00720978,0.0195313,0.00907898,0.0234222,0.0185394,-9.97986,0.0104523,0.000228882,0.0151825,0.00980377,0.0182724,0.00118256,0.0149155,0.00606537
18,7,-2.6826,0.00152588,-0.00396729,-2.42592,0.0572069,-0.0729268,0.054128,-0.0138685,-0.0980293,0.146234,-0.130039,-0.0819601,0.0125885,0.0270844,0.0192642,0.00434875,0.0180817,0.0155258,0.0256348,0.0205994,-9.97986,0.0160599,-0.00110626,0.0141907,0.0107193,0.0212097,0.00576019,0.0191879,0.00736237
18,8,-9.99003,-0.000305176,-0.00442505,-2.4244,0.0565965,-0.0741475,0.0547383,-0.0175306,-0.0949775,0.146844,-0.129429,-0.0819601,0.0127792,0.0247192,0.0171661,0.00499725,0.0188828,0.00968933,0.0252151,0.021553,-9.97986,0.011673,-0.00171661,0.0151062,0.00816345,0.0252914,0.00431061,0.0133896,0.00656128
18,9,-9.99003,-0.000610352,-0.00289917,-2.4247,0.0547655,-0.0741475,0.0565694,0.030382,-0.090705,0.147149,-0.127292,-0.080129,0.0109482,0.0238037,0.0191498,0.000419617,0.0137711,0.00839233,0.0255203,0.0199127,-9.97986,0.0138092,0.00114441,0.0146484,0.00839233,-0.00473022,-0.000991821,0.0136566,0.00854492
19,0,-9.99003,0.000915527,-0.000457764,-2.42501,0.0547655,-0.0729268,0.0562642,0.0541857,-0.0910102,0.145624,-0.126682,-0.0816549,0.0104904,0.0240707,0.0207901,-0.000839233,0.0177383,0.0111771,0.0215149,0.017662,-9.97986,0.0154495,0.00110626,0.0173187,0.0108337,-0.00770569,-0.00843048,0.0141907,0.00328064
19,1,-9.99003,0.000610352,0,-2.42714,0.0547655,-0.0741475,0.0550435,0.0627306,-0.090705,0.144708,-0.125461,-0.0822652,0.00816345,0.0260544,0.0205994,0.001297,0.0130463,0.0110626,0.0196838,0.0175858,-9.97986,0.015831,-0.000305176,0.0169754,0.00808716,-0.00934601,-0.0109863,0.0175476,0.00511169
19,2,-9.99003,0.000915527,0.000457764,-2.42653,0.0547655,-0.075063,0.0544332,0.0746324,-0.0913154,0.146234,-0.125156,-0.0834859,0.00862122,0.0263977,0.0232697,0.0012207,0.0167847,0.0142288,0.0201797,0.0191498,-9.97986,0.0151443,-0.0030899,0.0119019,0.00709534,0.00125885,-0.0128937,0.0129318,0.00423431
19,3,-8.15349,0.000305176,0.0038147,-2.42623,0.0547655,-0.0756734,0.0556539,0.139025,-0.0846015,0.144098,-0.120578,-0.0822652,0.0140762,0.0283813,0.0287247,0.000419617,0.0135803,0.00751495,0.0230026,0.0177002,-9.97986,0.0166321,0.00114441,0.00968933,0.00576019,0.0190735,-0.0109482,0.0140381,0.00377655
19,4,-0.788068,0.0012207,0.0038147,-2.42837,0.0541551,-0.0759786,0.0562642,0.151537,-0.0873481,0.144403,-0.120578,-0.0844015,0.0119781,0.0310516,0.0239944,0.0102615,0.0134277,0.0069046,0.0218964,0.0164795,-9.97986,0.0172424,0.00183105,0.0146484,0.00827789,0.0204086,-0.00499725,0.0157547,0.00465393
19,5,6.92891,0.00183105,0.00457764,-2.42837,0.0538499,-0.0759786,0.0526021,0.153673,-0.090705,0.144098,-0.120884,-0.0850118,0.0109482,0.0290298,0.033226,0.00343323,0.0140762,0.00648499,0.0244522,0.0206375,-9.97986,0.013504,-0.000991821,0.0143433,0.0069809,0.021019,-0.0050354,0.0136185,0.00545502
19,6,10.0097,0.000610352,0.00442505,-2.43142,0.0523241,-0.0775044,0.0513814,0.125292,-0.0949775,0.142877,-0.123935,-0.0889791,0.00919342,0.0276566,0.0365829,-0.00144958,0.017662,0.00999451,0.0263977,0.0173569,-9.97986,0.0140762,-0.000686646,0.0167465,0.00484467,0.0192642,-0.00236511,0.0156021,0.00659943
19,7,10.0097,0,0.000305176,-2.4305,0.0535448,-0.0768941,0.0504659,0.0908068,-0.0974189,0.142877,-0.126682,-0.0883688,0.00892639,0.0275803,0.0342178,-0.00629425,0.0185013,0.0130463,0.0264359,0.0177765,-9.97986,0.0127029,0.00175476,0.0155258,0.00873566,0.0179672,-0.000152588,0.0200272,0.00648499
19,8,10.0097,0.000915527,0.000762939,-2.42959,0.0544603,-0.0744527,0.0510762,0.0782946,-0.095893,0.142267,-0.126377,-0.0883688,0.00556946,0.0254059,0.038414,-0.0094986,0.0192261,0.0108719,0.0261307,0.0186157,-9.97986,0.0109482,0.00167847,0.0146103,0.00587463,0.0196457,-0.00087738,0.0164032,0.00362396
19,9,10.0097,0.000610352,0,-2.42837,0.0544603,-0.0747579,0.0522969,0.0737169,-0.0952827,0.143487,-0.126987,-0.0859274,0.0104523,0.0286102,0.0463867,0.0069809,0.016861,0.0121689,0.0230408,0.0198746,-9.97986,0.0104141,0.00591278,0.0136948,0.00617981,0.0227737,-7.62939e-005,0.0156784,0.00473022
20,0,10.0097,0.00183105,-0.000305176,-2.42745,0.0547655,-0.0765889,0.0532125,0.0728014,-0.0952827,0.143792,-0.126072,-0.0856222,0.0087738,0.0278854,0.0340652,0.0300598,0.0150681,0.0104523,0.0222778,0.0180054,-9.97986,0.0120163,0.000267029,0.0132751,0.000534058,0.0223541,-0.00286102,0.0170898,0.00785828
20,1,10.0097,0.000305176,0.000152588,-2.42714,0.0547655,-0.075063,0.0526021,0.0715807,-0.094062,0.145013,-0.124546,-0.0844015,0.0130463,0.0269699,0.0284195,0.0292206,0.0160217,0.0122452,0.0231934,0.0149536,-9.97986,0.0202179,-7.62939e-005,0.0135803,0.00488281,0.0187683,-0.00392914,0.0129318,0.00583649
20,2,10.0097,-0.0012207,-0.000152588,-2.42623,0.0550706,-0.0744527,0.054128,0.0712755,-0.0934516,0.144708,-0.125766,-0.0837911,0.00709534,0.0242996,0.0197983,0.0234222,0.0196075,0.00881195,0.0224304,0.01091,-9.97986,0.0157928,-0.00339508,0.0111389,0.00385284,0.0192642,-0.00167847,0.0149918,0.00675201
20,3,10.0097,0.000915527,0.000610352,-2.4247,0.0550706,-0.0747579,0.0538228,0.0709703,-0.0916206,0.145624,-0.124241,-0.0816549,0.0114441,0.0302505,0.014534,0.0230789,0.0177765,0.00675201,0.0223541,0.017395,-9.97986,0.0170517,-0.000610352,0.0135422,0.00774384,0.0211334,-0.0031662,0.0150299,0.00621796
20,4,10.0097,0.000915527,0.000152588,-2.42531,0.0562914,-0.0738423,0.055959,0.0709703,-0.0900947,0.147149,-0.12363,-0.0816549,0.0094223,0.021553,0.0138855,0.0157547,0.0193024,0.0100708,0.018692,0.0194931,-9.97986,0.0139236,-0.0038147,0.0134659,0.00896454,0.0169373,-0.00865936,0.0156403,0.010376
20,5,10.0097,0.000915527,-0.0012207,-2.42745,0.0562914,-0.0753682,0.0519917,0.0367906,-0.0968086,0.145318,-0.127292,-0.0828756,0.0136948,0.0212479,0.00846863,0.0188065,0.0174332,0.00850677,0.0258636,0.0176239,-9.97986,0.0163651,-0.00469208,0.0127792,0.0062561,0.0191116,-0.0149155,0.017395,0.00350952
20,6,5.7253,-0.0012207,-0.00350952,-2.42806,0.055681,-0.0744527,0.0522969,-0.00593396,-0.0998603,0.146539,-0.129429,-0.0834859,0.0102234,0.0243759,0.00255585,0.0147629,0.0156403,0.0112152,0.0267029,0.0197601,-9.97986,0.0135803,-0.00366211,0.016098,0.00133514,0.0203323,-0.00869751,0.0156021,0.00499725
20,7,-2.55534,0.00152588,-0.0038147,-2.42562,0.0562914,-0.075063,0.0532125,-0.0141737,-0.0974189,0.145624,-0.130649,-0.0825704,0.00961304,0.0322342,0.00946045,0.0118256,0.0218582,0.00976563,0.0232315,0.015564,-9.97986,0.0203705,0.0018692,0.0163269,0.00587463,0.0166702,-0.00629425,0.0168991,0.00995636
20,8,-9.99003,0.000915527,-0.00427246,-2.4247,0.0569017,-0.0738423,0.0550435,-0.0163099,-0.095893,0.146539,-0.129429,-0.0816549,0.00976563,0.0230026,0.00602722,0.0164032,0.0169373,0.0120926,0.0212479,0.0143051,-9.97986,0.0172424,-0.000228882,0.0140762,0.00514984,0.0206757,0.00350952,0.0161362,0.00808716
20,9,-9.99003,0.00183105,-0.00289917,-2.42379,0.0559862,-0.073232,0.0568746,0.0297716,-0.090705,0.146234,-0.126682,-0.0807394,0.00659943,0.0273895,0.00793457,0.0151825,0.0160599,0.0131607,0.0233078,0.0175858,-9.97986,0.0152969,0.00202179,0.0185776,0.00499725,-0.00297546,0.000915527,0.0157547,0.00881195
21,0,-9.99003,-0.000915527,-0.000457764,-2.42592,0.0553758,-0.0741475,0.0550435,0.054796,-0.0897895,0.145318,-0.126072,-0.0822652,0.0112915,0.0299454,0.0129318,0.0113297,0.0157547,0.0143051,0.0246429,0.0162506,-9.97986,0.0169754,0.000915527,0.0154495,0.00617981,-0.00663757,0.00705719,0.0158691,0.00530243
21,1,-9.99003,0.000305176,-0.000457764,-2.42531,0.055681,-0.0744527,0.0550435,0.0621202,-0.0919257,0.145013,-0.126072,-0.0816549,0.00671387,0.0234222,0.0137711,0.0087738,0.020256,0.011673,0.0244522,0.0196457,-9.97986,0.0131607,0.00305176,0.0157166,0.00843048,-0.00293732,0.00968933,0.0136566,0.00644684
21,2,-9.99003,-0.000305176,0.000305176,-2.4244,0.055681,-0.0744527,0.0556539,0.0782946,-0.090705,0.146234,-0.125156,-0.0831808,0.010376,0.0224304,0.0166321,0.00564575,0.0203705,0.0140762,0.0241089,0.0183487,-9.97986,0.0154495,0.0012207,0.0162125,0.00240326,0.00469208,0.00331879,0.0173569,0.00427246
21,3,-7.85624,0.000610352,0.00335693,-2.42684,0.0550706,-0.0747579,0.055959,0.138719,-0.0864326,0.145318,-0.121189,-0.0822652,0.0113297,0.0252533,0.0172043,0.0104523,0.0222015,0.0125122,0.0230408,0.021019,-9.97986,0.014534,-0.00171661,0.0149918,0.00415802,0.0196838,-0.0031662,0.0154877,0.00743866
21,4,-0.517683,0.00152588,0.00411987,-2.42684,0.0541551,-0.0756734,0.0553487,0.154894,-0.0867378,0.144403,-0.120884,-0.0840963,0.00991821,0.0249481,0.0161743,0.00988007,0.0220871,0.00782013,0.0186157,0.0192642,-9.97986,0.0123596,-0.000419617,0.0137711,0.00804901,0.0165558,-0.00431061,0.0149155,0.00785828
21,5,7.16664,0.00244141,0.0038147,-2.42776,0.0535448,-0.0765889,0.0532125,0.153063,-0.0897895,0.143487,-0.121494,-0.0862325,0.00328064,0.0226212,0.0153732,0.01091,0.0204468,0.013237,0.0199127,0.0193787,-9.97986,0.0146866,-0.00102997,0.0127411,0.00614166,0.0196838,-0.00762939,0.018425,0.0056076
21,6,10.0097,0,0.00457764,-2.43203,0.0547655,-0.0768941,0.050771,0.124071,-0.0952827,0.141961,-0.124241,-0.0883688,0.0104141,0.0228882,0.0204849,0.00823975,0.0172806,0.00862122,0.0196457,0.0151825,-9.97986,0.0169373,-0.00431061,0.0156021,0.00270844,0.01091,-0.00659943,0.0157547,0.0062561
21,7,10.0097,0.00152588,0.000457764,-2.43111,0.0526292,-0.0768941,0.0501607,0.0901964,-0.0974189,0.143487,-0.126377,-0.0892843,0.0150299,0.0231171,0.0205612,0.0151062,0.0230408,0.0126648,0.0209045,0.0156784,-9.97986,0.0199127,0.00164032,0.0161743,0.0087738,0.0188828,-0.00579834,0.0205231,0.00827789
21,8,10.0097,0.000305176,-0.000457764,-2.42959,0.0529344,-0.0753682,0.0513814,0.0792101,-0.0952827,0.143792,-0.126377,-0.0877584,0.00453949,0.0179672,0.013237,0.00564575,0.0137711,0.00679016,0.0211334,0.00965118,-9.97986,0.00846863,-0.0087738,0.0114822,0.00366211,0.01194,-0.0115967,0.0130844,-3.8147e-005
21,9,10.0097,0.000915527,0.000610352,-2.42776,0.0535448,-0.0756734,0.0516866,0.0737169,-0.0937568,0.143792,-0.126987,-0.0859274,0.011673,0.0240326,0.0231934,0.0134659,0.019455,0.0154495,0.0215912,0.014267,-9.97986,0.0156021,-0.00213623,0.0167847,0.0119019,0.0147247,-0.00736237,0.0194168,0.00751495
22,0,10.0097,0,0.000152588,-2.42714,0.0550706,-0.0747579,0.0532125,0.072191,-0.0937568,0.144403,-0.126072,-0.0850118,0.0111771,0.0273132,0.0205994,0.0110626,0.0201797,0.010643,0.0177383,0.0131226,-9.97986,0.0131226,-0.000495911,0.0152206,0.00873566,0.0162506,-0.00892639,0.017128,0.00480652
22,1,10.0097,-0.000915527,0.000305176,-2.42714,0.055681,-0.0744527,0.0535176,0.0718859,-0.0928413,0.144708,-0.124851,-0.0844015,0.0128555,0.0268555,0.023613,0.0102234,0.018692,0.00995636,0.022049,0.0178909,-9.97986,0.0141144,-0.00408173,0.0125885,0.00492096,0.0130463,-0.00789642,0.0141144,0.00545502
22,2,10.0097,-0.000610352,0,-2.42714,0.0550706,-0.0741475,0.0544332,0.0709703,-0.0934516,0.144098,-0.125461,-0.0837911,0.00972748,0.0214386,0.0168991,0.00621796,0.0170898,0.00751495,0.0197601,0.0139236,-9.97986,0.0117874,-0.00190735,0.0128555,0.00682831,0.0122833,-0.00591278,0.0186539,0.00556946
22,3,10.0097,0.000305176,0.000457764,-2.42592,0.0569017,-0.0744527,0.054128,0.072191,-0.0913154,0.145624,-0.124851,-0.0822652,0.0152206,0.0263977,0.0178528,0.00835419,0.017128,0.00682831,0.0230408,0.0161743,-9.97986,0.0164413,-0.00392914,0.0141907,0.00919342,0.0144577,-0.00457764,0.0180817,0.00553131
22,4,10.0097,-0.000915527,0.000457764,-2.42531,0.0553758,-0.0729268,0.0556539,0.0718859,-0.0916206,0.146844,-0.124546,-0.0807394,0.00976563,0.0265503,0.0245285,0.0069809,0.0167847,0.0108719,0.0245667,0.0159454,-9.97986,0.0152206,-0.00198364,0.0142288,0.00900269,0.0133514,-0.0069046,0.016098,0.00614166
22,5,10.0097,0.000915527,-0.000762939,-2.42776,0.0553758,-0.075063,0.0516866,0.0361803,-0.0980293,0.145624,-0.126987,-0.0828756,0.0136566,0.0263214,0.0242615,0.0105286,0.017128,0.0111389,0.0232697,0.0202942,-9.97986,0.0167847,-0.00476837,0.0191116,0.0075531,0.0175095,-0.00659943,0.0153351,0.00682831
22,6,5.72438,-0.000610352,-0.00350952,-2.42684,0.0559862,-0.0738423,0.0513814,-0.00684949,-0.0995551,0.145013,-0.129429,-0.0822652,0.0108719,0.0279617,0.0161362,0.0110245,0.0185394,0.00606537,0.019455,0.0184631,-9.97986,0.0117493,0,0.015831,0.00297546,0.0146484,-0.0113297,0.016861,0.00812531
22,7,-2.57853,-0.00152588,-0.00350952,-2.4247,0.0559862,-0.073232,0.0529073,-0.0150892,-0.0968086,0.146234,-0.130344,-0.0816549,0.0144577,0.0279617,0.0133896,0.0131607,0.0212097,0.0107574,0.0223541,0.0192642,-9.97986,0.0150299,-0.00453949,0.0131989,0.00743866,0.0135803,-0.00732422,0.0153732,0.00434875
22,8,-9.99003,-0.000610352,-0.00457764,-2.42562,0.0562914,-0.073232,0.0550435,-0.0144789,-0.0965034,0.146234,-0.130954,-0.0819601,0.0145721,0.0233078,0.00766754,0.0116348,0.0170898,0.0135803,0.0194168,0.018959,-9.97986,0.0157166,-0.00511169,0.0151062,0.00240326,0.0126648,-0.00228882,0.0179672,0.00347137
22,9,-9.99003,0.00274658,-0.00213623,-2.4244,0.0572069,-0.0744527,0.0571797,0.0316027,-0.0903999,0.14776,-0.126987,-0.0804342,0.0109482,0.0267792,0.0165939,0.0139236,0.0169373,0.00980377,0.0164032,0.0148392,-9.97986,0.0128174,-0.00133514,0.011673,0.0124741,-0.00865936,0.00156403,0.0153732,0.00507355
23,0,-9.99003,0.000915527,-0.00106812,-2.42501,0.0559862,-0.0747579,0.0556539,0.0541857,-0.0891792,0.145929,-0.126377,-0.0804342,0.0100708,0.0228882,0.0187302,0.0101471,0.0189209,0.0146103,0.0135422,0.0152206,-9.97986,0.0166702,-0.00347137,0.017662,0.00843048,-0.0121689,0.0094223,0.0163269,0.00640869
23,1,-9.99003,0.000610352,0.000457764,-2.42592,0.0547655,-0.075063,0.054128,0.0618151,-0.0913154,0.145624,-0.125156,-0.0828756,0.00938416,0.0245285,0.0199127,0.00968933,0.0175858,0.00965118,0.0140381,0.0134277,-9.97986,0.018959,-0.00621796,0.0131989,0.00606537,-0.0107193,0.0128937,0.0133514,0.00682831
23,2,-9.99003,0.00183105,-0.000152588,-2.42623,0.0550706,-0.0738423,0.0550435,0.077379,-0.0903999,0.145624,-0.125156,-0.0822652,0.0137329,0.0244522,0.0170135,0.0110626,0.016861,0.00946045,0.0173569,0.0153732,-9.97986,0.0156021,-0.000534058,0.0147247,0.00846863,-0.001297,0.0128555,0.0165939,0.00663757
23,3,-7.82573,0.000610352,0.00320435,-2.42653,0.0541551,-0.0747579,0.0562642,0.141161,-0.0855171,0.145318,-0.120884,-0.0837911,0.0119019,0.0279236,0.017662,0.00873566,0.0171661,0.00953674,0.0162125,0.0206375,-9.97986,0.0111008,-0.00217438,0.0154495,0.00377655,0.0122452,0.0056839,0.0159454,0.00709534
23,4,-0.488386,0.000610352,0.00442505,-2.42776,0.0538499,-0.0753682,0.0568746,0.154588,-0.0864326,0.144403,-0.120884,-0.0844015,0.0108337,0.0284576,0.0196075,0.00888824,0.0144196,0.00553131,0.0130081,0.0154495,-9.97986,0.0175476,0.000915527,0.0170898,0.00476837,0.0135422,-0.000572205,0.0153732,0.0069046
23,5,7.18923,0.00152588,0.00442505,-2.42837,0.0535448,-0.0759786,0.0538228,0.153368,-0.0894843,0.143182,-0.121799,-0.0862325,0.0114441,0.0282669,0.0190353,0.0108337,0.0139999,0.00934601,0.0163651,0.022049,-9.97986,0.0167084,-0.00217438,0.0166702,0.00518799,0.0159073,-0.00106812,0.0130844,0.00816345
23,6,10.0097,0.000305176,0.0038147,-2.43081,0.0541551,-0.0768941,0.0501607,0.123766,-0.0961982,0.142877,-0.124546,-0.0886739,0.00743866,0.0274658,0.0139236,0.00782013,0.017395,0.00892639,0.0224686,0.021553,-9.97986,0.0115204,0.00240326,0.0130844,0.0075531,0.0179672,-0.00411987,0.0174713,0.00717163
23,7,10.0097,0.000915527,0.00106812,-2.43172,0.0532396,-0.0765889,0.050771,0.0892809,-0.095893,0.143792,-0.125766,-0.0886739,0.0111771,0.0252151,0.014534,0.0043869,0.0188065,0.00793457,0.0245285,0.0213242,-9.97986,0.0161362,-0.00202179,0.0156784,0.00682831,0.0166321,-0.000686646,0.0164795,0.00694275
23,8,10.0097,-0.000305176,0.000305176,-2.42928,0.0529344,-0.0756734,0.0516866,0.0779894,-0.0965034,0.143487,-0.126377,-0.0874532,0.00946045,0.0132751,0.0192642,0.0137711,0.0153732,0.000495911,0.02491,0.0187683,-9.97986,0.0149536,-0.00423431,0.0152588,0.00736237,0.0169754,0.0037384,0.0135803,0.00572205
23,9,10.0097,0.0012207,0.000762939,-2.42776,0.0550706,-0.0768941,0.0526021,0.0740221,-0.0949775,0.144403,-0.127598,-0.0865377,0.0113678,0.0167084,0.0160217,0.0146103,0.0165939,0.0111008,0.0289154,0.0225067,-9.97986,0.0162506,-0.0012207,0.0152206,0.00236511,0.0204468,0.00431061,0.0157928,0.00663757
24,0,10.0097,-0.000305176,-0.000610352,-2.42623,0.0547655,-0.0756734,0.054128,0.0724962,-0.0943672,0.143792,-0.126377,-0.085317,0.0169754,0.0114441,0.0165176,0.0117111,0.0201035,0.0141907,0.027504,0.0154114,-9.97986,0.0157928,0.00259399,0.0115585,0.00713348,0.0149155,0.00522614,0.016098,0.00537872
24,1,10.0097,0.00152588,0.000305176,-2.42623,0.0547655,-0.0738423,0.0532125,0.0712755,-0.0928413,0.145624,-0.126072,-0.0837911,0.0107574,0.00995636,0.0136948,0.00331879,0.0138474,0.00686646,0.0219345,0.0140762,-9.97986,0.0151825,-0.00331879,0.0136566,0.0031662,0.014534,0.00415802,0.0141907,0.00350952
24,2,10.0097,-0.00152588,-0.000152588,-2.42714,0.0544603,-0.073232,0.0535176,0.0712755,-0.0928413,0.146539,-0.125766,-0.0831808,0.0118637,0.0170135,0.0176239,0.0107193,0.0190735,0.0120163,0.0224686,0.0162888,-9.97986,0.0139618,0.00141144,0.0129318,0.00675201,0.0151062,0.00267029,0.0120544,0.00476837
24,3,10.0097,-0.000610352,0.000305176,-2.42501,0.0559862,-0.0741475,0.0550435,0.0715807,-0.0913154,0.147455,-0.124241,-0.0813497,0.0118637,0.0130463,0.0220108,0.00808716,0.0153351,0.0106049,0.0203705,0.0162506,-9.97986,0.0199127,-0.00160217,0.0114822,0.00343323,0.0144196,-0.00366211,0.0163269,0.00846863
24,4,10.0097,0.000305176,-0.000152588,-2.4244,0.0569017,-0.0735371,0.0547383,0.0718859,-0.0919257,0.146844,-0.123935,-0.080129,0.00946045,0.0178528,0.0139236,0.00812531,0.0153732,0.0102997,0.0219345,0.014267,-9.97986,0.0159073,-0.00205994,0.0131989,0.0030899,0.0164795,-0.00946045,0.0166702,0.00621796
24,5,10.0097,-0.000915527,-0.000305176,-2.42623,0.0553758,-0.0753682,0.0519917,0.0346544,-0.0986396,0.145624,-0.126072,-0.0837911,0.0131607,0.0215912,0.0179672,0.00934601,0.0188446,0.00816345,0.0176239,0.0162888,-9.97986,0.0159836,-0.00404358,0.0140381,0.00358582,0.0136185,-0.00854492,0.0160217,0.00675201
24,6,5.63191,-0.000305176,-0.00350952,-2.42684,0.0565965,-0.0738423,0.0519917,-0.00623914,-0.0995551,0.147149,-0.129734,-0.0837911,0.0118637,0.0234985,0.0203323,0.00453949,0.0125122,0.0138092,0.0175476,0.0148773,-9.97986,0.0167847,0.0019455,0.0156403,0.00667572,0.015831,-0.00507355,0.0146484,0.00564575
24,7,-2.65239,0.000915527,-0.00411987,-2.42592,0.0559862,-0.0744527,0.0532125,-0.0138685,-0.0965034,0.146234,-0.130649,-0.0819601,0.0133896,0.0208282,0.0204849,0.00423431,0.0160217,0.0129318,0.0252914,0.0168228,-9.97986,0.0114822,-3.8147e-005,0.0126648,0.00484467,0.0187683,-0.00171661,0.0162888,0.00846863
24,8,-9.99003,0,-0.00488281,-2.42501,0.0562914,-0.0723164,0.0538228,-0.0150892,-0.0949775,0.146844,-0.129429,-0.0816549,0.0110245,0.0160217,0.02491,0.00293732,0.0176239,0.0114059,0.0273514,0.0206375,-9.97986,0.0157928,0.000953674,0.0152206,0.00534058,0.0156403,-0.00526428,0.0130463,0.00648499
24,9,-9.99003,0.0012207,-0.00289917,-2.4244,0.0562914,-0.0744527,0.0568746,0.0312975,-0.0916206,0.14837,-0.126987,-0.0804342,0.0106812,0.0171661,0.0217056,0.00278473,0.0163269,0.0101089,0.0290298,0.014534,-9.97986,0.0128174,-0.00408173,0.0137711,0.00610352,-0.00392914,-0.0056839,0.0167084,0.0082016
25,0,-9.99003,-0.000610352,-0.000305176,-2.42653,0.0550706,-0.075063,0.0556539,0.0535753,-0.0897895,0.145929,-0.125766,-0.0816549,0.0108337,0.0172424,0.0237656,0.0069809,0.0125504,0.0105286,0.0216293,0.0180817,-9.97986,0.016861,-0.000190735,0.015831,0.00629425,-0.00946045,0.000686646,0.0167084,0.00450134
25,1,-9.99003,-0.000610352,0.000305176,-2.42684,0.0547655,-0.0753682,0.0553487,0.0630358,-0.0922309,0.146234,-0.126377,-0.0825704,0.0141525,0.0203705,0.0278854,0.00679016,0.0142288,0.0138092,0.0244904,0.0148773,-9.97986,0.0163651,0.00240326,0.0110245,0.00724792,-0.0116348,-0.00457764,0.0178909,0.00370026
25,2,-9.99003,-0.000305176,-0.000152588,-2.42684,0.0553758,-0.0744527,0.0547383,0.0752428,-0.090705,0.146234,-0.124241,-0.0825704,0.0106049,0.0189209,0.0224686,0.00770569,0.0138855,0.0117111,0.0218582,0.0145721,-9.97986,0.0160217,0.00297546,0.0102615,0.00663757,-0.000534058,-0.0056076,0.0179672,0.00545502
25,3,-7.98716,0.000305176,0.00411987,-2.42592,0.0544603,-0.0759786,0.0565694,0.138719,-0.0858222,0.144403,-0.121799,-0.0828756,0.00968933,0.0247574,0.0181961,0.00389099,0.0176239,0.0115967,0.0235367,0.0224304,-9.97986,0.014267,0.0063324,0.0122452,0.00926971,0.0147247,-0.0031662,0.0178146,0.00728607
25,4,-0.575971,-0.000305176,0.00411987,-2.42745,0.0550706,-0.0756734,0.0556539,0.151537,-0.0873481,0.143792,-0.121494,-0.0847066,0.0102234,0.0242615,0.0256348,0.00537872,0.0172424,0.0107956,0.0268555,0.0188065,-9.97986,0.01194,0.00385284,0.0123596,0.00522614,0.0163651,-0.000419617,0.0166702,0.00392914
25,5,7.16725,0.000305176,0.00320435,-2.42837,0.0523241,-0.0762837,0.0535176,0.152757,-0.0900947,0.142877,-0.122104,-0.0856222,0.00850677,0.0239182,0.0232697,0.0143433,0.0205994,0.00804901,0.0265121,0.0185013,-9.97986,0.0203323,0.00541687,0.0144958,0.00682831,0.0148392,0.00297546,0.0193405,0.00591278
25,6,10.0097,-0.000610352,0.00411987,-2.43081,0.0535448,-0.0765889,0.0498555,0.124986,-0.0949775,0.142877,-0.124241,-0.0883688,0.00892639,0.0222015,0.0233078,0.0158691,0.0165176,0.00797272,0.0245285,0.0139618,-9.97986,0.0125504,0.001297,0.0167465,0.00640869,0.0160217,-0.00202179,0.0207138,0.00411987
25,7,10.0097,0.000305176,0.000457764,-2.42989,0.0535448,-0.0759786,0.050771,0.0911119,-0.0971137,0.142572,-0.124851,-0.0889791,0.00785828,0.0262451,0.0195313,0.0168991,0.0177002,0.00923157,0.0288773,0.0153732,-9.97986,0.00984192,-0.00415802,0.014534,0.00427246,0.0167847,-0.00450134,0.0160599,0.00606537
25,8,10.0097,0.000610352,0.000152588,-2.42928,0.0538499,-0.0762837,0.0513814,0.0776842,-0.095893,0.143182,-0.126682,-0.0874532,0.0119781,0.0248718,0.0261307,0.022049,0.0162506,0.0127029,0.0308609,0.0173187,-9.97986,0.0180054,-0.00556946,0.0137329,0.000686646,0.0190353,-0.00392914,0.0194931,0.00782013
25,9,10.0097,0,0.000305176,-2.42714,0.0547655,-0.0744527,0.0529073,0.0731066,-0.0955879,0.145318,-0.127598,-0.0859274,0.0111771,0.0278473,0.0199509,0.0221252,0.0151825,0.0118256,0.0266647,0.0165176,-9.97986,0.0148392,-0.00297546,0.0123215,0.00564575,0.0183105,-0.00579834,0.0141907,0.00858307
26,0,10.0097,0.00213623,0.000305176,-2.42806,0.0544603,-0.0756734,0.0526021,0.0718859,-0.094062,0.145624,-0.126072,-0.0850118,0.011673,0.043335,0.021553,0.022316,0.0135803,0.0151443,0.0269699,0.0150681,-9.97986,0.0156403,-0.00862122,0.0141907,0.00137329,0.0169754,0.00102997,0.0164032,0.00759125
26,1,10.0097,0.000305176,-0.000457764,-2.42714,0.0541551,-0.0741475,0.0526021,0.0709703,-0.094062,0.143792,-0.125461,-0.0844015,0.00926971,0.0465012,0.0181961,0.0127792,0.0162888,0.0131607,0.0230408,0.0161743,-9.97986,0.0165176,-0.00259399,0.0130844,0.00152588,0.0144196,0.00232697,0.0160599,0.00701904
26,2,10.0097,0.0012207,0,-2.42653,0.0547655,-0.0756734,0.0547383,0.07036,-0.0928413,0.147455,-0.124851,-0.0837911,0.0115585,0.04673,0.0211716,0.0144958,0.0181198,0.0127792,0.0270844,0.0188065,-9.97986,0.0161743,-0.00415802,0.0134659,0.0056076,0.016861,0.000228882,0.0196075,0.0069809
26,3,10.0097,0.0012207,0.000457764,-2.42501,0.0553758,-0.0729268,0.054128,0.0718859,-0.0916206,0.145624,-0.123935,-0.0816549,0.00904083,0.0498962,0.0149155,0.0137711,0.0175858,0.00988007,0.0251007,0.0169373,-9.97986,0.0159836,-0.0044632,0.0123978,0.000915527,0.0141144,-0.00293732,0.0154114,0.00514984
26,4,10.0097,-0.000305176,0.000610352,-2.4244,0.055681,-0.0726216,0.0547383,0.0715807,-0.0916206,0.147455,-0.12363,-0.0816549,0.0127411,0.0333786,0.0164032,0.0134659,0.0182343,0.0133133,0.0255203,0.0136566,-9.97986,0.0183487,0.000991821,0.0154495,0.00679016,0.0214767,-0.00476837,0.0183105,0.0062561
26,5,10.0097,-0.00152588,-0.000915527,-2.42714,0.0553758,-0.0744527,0.0529073,0.0337389,-0.0965034,0.143487,-0.127292,-0.0834859,0.0111008,0.00484467,0.0159836,0.014534,0.0196075,0.00797272,0.0294495,0.0178528,-9.97986,0.0164795,-0.000305176,0.0140381,0.00457764,0.0201797,-0.00675201,0.0175476,0.00759125
26,6,5.65114,0.000915527,-0.00244141,-2.42714,0.0569017,-0.0741475,0.0516866,-0.00562879,-0.0989448,0.146234,-0.129429,-0.0828756,0.00946045,-0.00354767,0.0112152,0.015831,0.0200272,0.014267,0.0247574,0.0166702,-9.97986,0.014801,-7.62939e-005,0.0162125,0.00724792,0.018692,-0.00694275,0.019455,0.00797272
26,7,-2.6298,-0.000305176,-0.00350952,-2.42623,0.0572069,-0.0738423,0.0532125,-0.0138685,-0.0980293,0.145929,-0.129734,-0.0819601,0.00694275,0.00801086,0.00843048,0.0127029,0.0190353,0.0144958,0.0219345,0.0205231,-9.97986,0.0189209,-0.000839233,0.0148392,0.0043869,0.0164795,-0.00843048,0.0184631,0.00610352
26,8,-9.99003,0.000305176,-0.00411987,-2.42348,0.0569017,-0.0738423,0.0538228,-0.0150892,-0.0961982,0.145929,-0.130039,-0.0813497,0.00640869,0.0110245,0.0145721,0.0135422,0.0182724,0.0118256,0.0204468,0.0207901,-9.97986,0.0188446,-7.62939e-005,0.0162125,0.00587463,0.0166702,-0.00396729,0.0193024,0.00804901
26,9,-9.99003,0.000305176,-0.00289917,-2.42409,0.0565965,-0.0738423,0.0577901,0.0306871,-0.0916206,0.146539,-0.126987,-0.0807394,0.00926971,0.0158691,0.0175476,0.0139999,0.0146484,0.013504,0.0217056,0.0181198,-9.97986,0.0177765,-0.000457764,0.0138855,0.00198364,-0.00667572,-0.00328064,0.0182724,0.00530243
27,0,-9.99003,0.00183105,-0.000915527,-2.42562,0.0562914,-0.0744527,0.055959,0.0544908,-0.0897895,0.145013,-0.125766,-0.0816549,0.0050354,0.0162506,0.00976563,0.0159454,0.0152969,0.0088501,0.0183105,0.0188446,-9.97986,0.0179672,0.00102997,0.0178146,0.00286102,-0.00976563,-0.00183105,0.0152206,0.0044632
27,1,-9.99003,0.0012207,0,-2.42592,0.0544603,-0.0744527,0.054128,0.0627306,-0.0916206,0.145624,-0.126072,-0.0825704,0.0136948,0.0196075,0.014801,0.0176239,0.0191879,0.00785828,0.0229645,0.0172424,-9.97986,0.016098,-0.00225067,0.0153732,0.00488281,-0.00652313,0.00038147,0.0149155,0.00911713
27,2,-9.99003,0.000915527,0.000152588,-2.42653,0.0559862,-0.0747579,0.0538228,0.0785997,-0.0910102,0.147149,-0.125461,-0.0825704,0.00976563,0.018959,0.0119781,0.0126266,0.0139999,0.0104523,0.0214005,0.0147247,-9.97986,0.0147629,0.00102997,0.0121307,0.0056076,0.00476837,-0.00164032,0.0201797,0.00514984
27,3,-7.71647,0.000610352,0.0038147,-2.42592,0.0538499,-0.0753682,0.0562642,0.13994,-0.0852119,0.144403,-0.121494,-0.0819601,0.0153351,0.0255203,0.018692,0.0120544,0.0167084,0.0102234,0.0189972,0.0172424,-9.97986,0.0157928,-7.62939e-005,0.0138474,0.00205994,0.0172043,-0.0056839,0.0169373,0.00518799
27,4,-0.33885,0.000915527,0.00320435,-2.42745,0.0532396,-0.0759786,0.0538228,0.151842,-0.0876533,0.144708,-0.120884,-0.0847066,0.00862122,0.025444,0.0165558,0.0107193,0.0181961,0.00999451,0.0241089,0.0177002,-9.97986,0.0166321,0.00320435,0.0156784,0.00556946,0.0175476,-0.00640869,0.0133896,0.00682831
27,5,7.35524,0.000305176,0.00427246,-2.42837,0.0535448,-0.0747579,0.0550435,0.153368,-0.0891792,0.142877,-0.12241,-0.0850118,0.0106812,0.0229645,0.0164032,0.00934601,0.0189209,0.0087738,0.02388,0.0167084,-9.97986,0.0144577,-0.00274658,0.0154495,0.00846863,0.0138092,-0.00255585,0.0169754,0.0056076
27,6,10.0097,-0.000610352,0.00411987,-2.43142,0.0529344,-0.0775044,0.0504659,0.123461,-0.0971137,0.142267,-0.123935,-0.0883688,0.01297,0.0247955,0.0213623,0.0136185,0.0160599,0.00476837,0.0248718,0.0170135,-9.97986,0.0159836,0.000686646,0.0120926,0.00644684,0.0197983,0.000686646,0.0161743,0.00400543
27,7,10.0097,0.00183105,0.000915527,-2.43081,0.0535448,-0.0762837,0.0504659,0.0914171,-0.0983344,0.143182,-0.125766,-0.0895895,0.0102997,0.0243378,0.0211334,0.0123215,0.0175858,0.00919342,0.019455,0.0159454,-9.97986,0.0129318,-0.00114441,0.0140381,0.00694275,0.0194168,-0.00453949,0.0149918,0.00675201
27,8,10.0097,0.00152588,0.000457764,-2.42989,0.0538499,-0.0765889,0.050771,0.0779894,-0.095893,0.143487,-0.126072,-0.0880636,0.0143051,0.0271988,0.0204086,0.0143433,0.0163269,0.0130844,0.021553,0.0163269,-9.97986,0.0141144,-0.00286102,0.0138855,0.00900269,0.0206757,-0.00392914,0.0166702,0.00831604
27,9,10.0097,0,-0.000152588,-2.42867,0.0538499,-0.0738423,0.0529073,0.0731066,-0.094062,0.145013,-0.126072,-0.0868429,0.0127029,0.0255585,0.022049,0.0108719,0.0154495,0.0132751,0.0198746,0.0183868,-9.97986,0.0176239,-0.0094986,0.0120163,0.00648499,0.0193787,-0.0038147,0.0138474,0.00549316
28,0,10.0097,0.00183105,0.000152588,-2.42806,0.0547655,-0.075063,0.0529073,0.0709703,-0.0949775,0.145013,-0.126072,-0.0850118,0.0112152,0.0255585,0.0226593,0.0094986,0.0141144,0.00621796,0.0232315,0.016098,-9.97986,0.018425,-0.00205994,0.0149918,0.00511169,0.0200272,-0.00350952,0.0170135,0.00499725
28,1,10.0097,0.000305176,0,-2.42684,0.0559862,-0.0738423,0.0529073,0.0712755,-0.0931465,0.145318,-0.125766,-0.0850118,0.0146484,0.0261688,0.0208282,0.0128555,0.0123978,0.0103378,0.0186539,0.014534,-9.97986,0.0183487,-0.0031662,0.0117111,0.00659943,0.0160599,-0.00221252,0.0154114,0.00537872
28,2,10.0097,0.000305176,0.000152588,-2.42653,0.0553758,-0.075063,0.054128,0.0700548,-0.0931465,0.146234,-0.126072,-0.0844015,0.012207,0.0242233,0.0219727,0.00518799,0.0161743,0.0120544,0.0220108,0.0207901,-9.97986,0.0154877,0.00106812,0.00801086,0.00556946,0.0169373,-0.00144958,0.0178909,0.00762939
28,3,10.0097,0.000305176,0.000152588,-2.42562,0.0559862,-0.0741475,0.054128,0.0709703,-0.0922309,0.146234,-0.124241,-0.0816549,0.0102997,0.0247192,0.0198746,0.0151062,0.0115967,0.012207,0.0215912,0.0163269,-9.97986,0.0126648,-0.000724792,0.0138855,0.00686646,0.0154114,0.00221252,0.0127792,0.00350952
28,4,10.0097,-0.000305176,0.000305176,-2.4247,0.0559862,-0.073232,0.054128,0.0718859,-0.0910102,0.145624,-0.124241,-0.0813497,0.0125885,0.0248718,0.0230789,0.0108719,0.0178528,0.00965118,0.0207901,0.0195313,-9.97986,0.0143814,-0.00267029,0.013237,0.00656128,0.0156784,-0.00358582,0.0138855,0.00534058
28,5,10.0097,0.000305176,-0.0012207,-2.42837,0.0559862,-0.075063,0.0532125,0.0346544,-0.0971137,0.145624,-0.127292,-0.0828756,0.00988007,0.0236511,0.0224686,0.0107193,0.0128555,0.0112534,0.0214386,0.0216293,-9.97986,0.0130844,-0.00286102,0.0150681,0.0082016,0.0149918,-0.00835419,0.0165176,0.00789642
28,6,5.53914,0.000610352,-0.00305176,-2.42714,0.0562914,-0.0741475,0.050771,-0.00745984,-0.0995551,0.145318,-0.130954,-0.0834859,0.00946045,0.0259781,0.0219345,0.0112915,0.0115967,0.0123215,0.0216293,0.0205231,-9.97986,0.0133896,-0.001297,0.0117493,0.00587463,0.0192261,-0.00736237,0.0131607,0.00419617
28,7,-2.66154,0.000305176,-0.00396729,-2.42653,0.0562914,-0.0744527,0.0529073,-0.0123427,-0.0980293,0.145624,-0.130039,-0.0816549,0.0123215,0.0286484,0.0237656,0.00846863,0.0153351,0.0111771,0.0218582,0.0175858,-9.97986,0.0175095,-0.00156403,0.0141525,0.0062561,0.0187683,-0.00671387,0.0113678,0.00396729
28,8,-9.99003,0,-0.00442505,-2.42531,0.0565965,-0.0744527,0.0556539,-0.0147841,-0.0952827,0.146844,-0.130344,-0.0816549,0.010376,0.0255966,0.0224304,0.0137711,0.0166702,0.0137329,0.0174332,0.0212097,-9.97986,0.010643,-0.00118256,0.0128937,0.00778198,0.0159073,-0.00583649,0.014801,0.00450134
28,9,-9.99003,0.000305176,-0.00259399,-2.4247,0.0565965,-0.0738423,0.0562642,0.0319078,-0.0903999,0.146234,-0.126682,-0.080129,0.00911713,0.0237656,0.0218582,0.0105286,0.0125885,0.0120544,0.018959,0.0261307,-9.97986,0.0138092,-0.00133514,0.0124741,0.00812531,-0.00793457,-0.00331879,0.0141525,0.00595093
29,0,-9.99003,0,-0.000762939,-2.42592,0.0553758,-0.0744527,0.055959,0.054796,-0.0913154,0.145624,-0.124851,-0.0813497,0.0120163,0.0242615,0.0221634,0.00705719,0.0229263,0.00995636,0.0169373,0.022583,-9.97986,0.0121689,-0.00461578,0.0141144,0.00915527,-0.00907898,-0.000686646,0.0184631,0.00484467
29,1,-9.99003,0.000610352,-0.000610352,-2.42562,0.0550706,-0.0759786,0.0550435,0.0627306,-0.0910102,0.145318,-0.126072,-0.0828756,0.0123215,0.0318909,0.021019,0.0119781,0.0158691,0.0100708,0.022049,0.0291824,-9.97986,0.0128555,0.00125885,0.0120163,0.00988007,-0.0122452,-0.000457764,0.0116348,0.00713348
29,2,-9.99003,-0.000305176,0.000305176,-2.4247,0.0553758,-0.0738423,0.0553487,0.0782946,-0.0903999,0.146234,-0.125156,-0.0825704,0.00808716,0.0266266,0.0244522,0.00858307,0.0178528,0.0111008,0.0217438,0.0251007,-9.97986,0.0127029,0.00587463,0.0127029,0.00904083,0.000267029,-0.000419617,0.0154114,0.00312805
29,3,-7.70701,-0.000915527,0.00411987,-2.42653,0.0562914,-0.0744527,0.0565694,0.13994,-0.0852119,0.145013,-0.121494,-0.0837911,0.0102234,0.0232697,0.0214386,0.0101852,0.0164032,0.0107574,0.0188828,0.0243759,-9.97986,0.0148773,0.00659943,0.0165558,0.00385284,0.0185013,-0.00106812,0.0157547,0.00556946
29,4,-0.372724,0.000305176,0.00473022,-2.42714,0.0535448,-0.0759786,0.054128,0.152452,-0.0873481,0.143182,-0.120884,-0.085317,0.0117874,0.0130081,0.0169373,0.0094986,0.0194168,0.00637054,0.0187302,0.0247955,-9.97986,0.0131989,0.00514984,0.0150299,0.00751495,0.015831,-0.00225067,0.0133896,0.00480652
29,5,7.35097,0,0.00427246,-2.42898,0.0535448,-0.0744527,0.0532125,0.153673,-0.0897895,0.144403,-0.120884,-0.0847066,0.0114059,0.0138092,0.0204468,0.0038147,0.0148773,0.00991821,0.0169754,0.0225067,-9.97986,0.014534,-0.00118256,0.0107574,0.0119781,0.0125504,-0.00225067,0.0156021,0.00724792
29,6,10.0097,-0.000305176,0.00411987,-2.43081,0.0535448,-0.0765889,0.0516866,0.123155,-0.0949775,0.142877,-0.125461,-0.0889791,0.00850677,0.0177383,0.0202179,0.000267029,0.015564,0.00972748,0.0154877,0.0181961,-9.97986,0.0123978,0.00106812,0.0156021,0.00705719,0.0152206,-0.00232697,0.0147247,0.00492096
29,7,10.0097,0,0.00106812,-2.4305,0.0535448,-0.0759786,0.0486348,0.0883654,-0.0974189,0.142877,-0.126072,-0.0889791,0.00850677,0.0174332,0.019989,-0.00415802,0.0173187,0.00904083,0.0182343,0.0227737,-9.97986,0.014267,-0.00221252,0.0136566,0.00846863,0.0146484,-0.00514984,0.0146103,0.00762939
29,8,10.0097,-0.000305176,0.000152588,-2.42989,0.0538499,-0.0753682,0.0516866,0.077379,-0.0961982,0.142267,-0.127598,-0.0877584,0.00770569,0.0218201,0.0167084,0.0102997,0.0161743,0.0087738,0.0172043,0.0187302,-9.97986,0.0145721,-0.0037384,0.0136185,0.00526428,0.0137329,-0.00545502,0.0150681,0.00782013
29,9,10.0097,0,-0.000305176,-2.42959,0.0538499,-0.0753682,0.0522969,0.0728014,-0.0934516,0.144403,-0.126987,-0.0856222,0.0107956,0.0206757,0.0129318,0.0196075,0.0138855,0.00701904,0.011673,0.0131607,-9.97986,0.0122452,-0.00671387,0.0128555,0.0056839,0.0148773,-0.00270844,0.0166702,0.00637054
30,0,10.0097,-0.000915527,0,-2.42898,0.0541551,-0.0744527,0.0522969,0.072191,-0.0937568,0.144708,-0.124851,-0.0850118,0.0104904,0.0189972,0.00759125,0.0179672,0.0164795,0.0130081,0.0135422,0.0123215,-9.97986,0.0156784,-0.000915527,0.0114822,0.00782013,0.0141525,-0.00217438,0.014534,0.00587463
30,1,10.0097,0.000610352,0.000762939,-2.42684,0.0553758,-0.0744527,0.0535176,0.0706652,-0.0931465,0.145013,-0.126072,-0.0847066,0.0120544,0.0188446,0.0110245,0.011673,0.0131226,0.00816345,0.0127029,0.00812531,-9.97986,0.0177383,0.00087738,0.0156784,0.00671387,0.0132751,-0.00675201,0.0162506,0.00846863
30,2,10.0097,-0.000915527,-0.000610352,-2.42684,0.0565965,-0.0753682,0.054128,0.0715807,-0.0925361,0.145318,-0.124241,-0.0825704,0.0119781,0.0245285,0.0147247,0.00347137,0.017395,0.00621796,0.0164795,0.00968933,-9.97986,0.0159073,-0.000305176,0.0179672,0.0117111,0.0157928,-0.0116348,0.0172424,0.00816345
30,3,10.0097,0.000610352,-0.000305176,-2.4244,0.0562914,-0.0738423,0.0529073,0.0715807,-0.0925361,0.14776,-0.124546,-0.0816549,0.00869751,0.0279999,0.0198364,-0.00137329,0.0131226,0.0118637,0.0187302,0.00835419,-9.97986,0.0133133,-0.00507355,0.0151062,0.00919342,0.0127411,-0.00747681,0.0156403,0.00602722
30,4,10.0097,0.000610352,0.000457764,-2.4244,0.0562914,-0.0738423,0.0556539,0.0709703,-0.0919257,0.147455,-0.124546,-0.0807394,0.00564575,0.0319672,0.0205994,0.0171661,0.0161362,0.00610352,0.0193024,0.0103378,-9.97986,0.0131607,-0.00244141,0.0123978,0.00801086,0.011673,-0.00766754,0.0154114,0.00507355
30,5,10.0097,-0.000305176,-0.0012207,-2.42745,0.055681,-0.0747579,0.0526021,0.0349596,-0.0968086,0.145318,-0.127598,-0.0828756,0.0102234,0.0345612,0.0191116,0.0485611,0.0162125,0.00705719,0.0178528,0.0118256,-9.97986,0.0127411,-0.001297,0.0124741,0.00984192,0.0154495,-0.0043869,0.0157166,0.00621796
30,6,5.54372,0.000305176,-0.00305176,-2.42806,0.0569017,-0.0741475,0.0519917,-0.00715467,-0.0986396,0.147149,-0.130039,-0.0831808,0.00938416,0.0328445,0.0209808,0.0387573,0.0186157,0.0120163,0.0226974,0.0133896,-9.97986,0.0111771,-0.00114441,0.0141525,0.00957489,0.0152588,-0.00919342,0.0120163,0.00514984
30,7,-2.70671,-0.0012207,-0.00335693,-2.42592,0.0569017,-0.073232,0.0519917,-0.0150892,-0.0968086,0.145013,-0.129734,-0.0819601,0.0114441,0.0302124,0.0206375,0.0289154,0.0182343,0.00595093,0.0295639,0.0108337,-9.97986,0.0130844,-0.000839233,0.0145721,0.0110626,0.0137711,-0.0155258,0.0170135,0.0075531
30,8,-9.99003,0.00183105,-0.00488281,-2.4244,0.055681,-0.073232,0.0544332,-0.0138685,-0.0965034,0.146539,-0.128513,-0.0810445,0.0123978,0.0311279,0.0191116,0.0214767,0.0133896,0.0107574,0.0255203,0.0136566,-9.97986,0.0151062,-0.0019455,0.0106812,0.00888824,0.0150299,-0.016098,0.014801,0.00705719
30,9,-9.99003,0.000610352,-0.00274658,-2.42501,0.0565965,-0.0729268,0.0565694,0.0316027,-0.0885688,0.146844,-0.126987,-0.0807394,0.00534058,0.031929,0.019722,0.0151443,0.0174713,0.0104141,0.0307465,0.013504,-9.97986,0.0187683,-0.00179291,0.0156784,0.0105286,-0.00724792,-0.0121689,0.014801,0.00839233
31,0,-9.99003,0,-0.00198364,-2.42562,0.0553758,-0.0735371,0.0562642,0.052965,-0.090705,0.145929,-0.126072,-0.0804342,0.00896454,0.0296021,0.0196075,0.0110626,0.0148392,0.0114059,0.0283051,0.0164413,-9.97986,0.0127792,-0.00606537,0.0121307,0.00919342,-0.00457764,-0.00320435,0.0185394,0.00637054
31,1,-9.99003,0.000305176,0.000305176,-2.42592,0.0535448,-0.0741475,0.0544332,0.0624254,-0.0910102,0.146539,-0.126987,-0.0825704,0.00804901,0.0320816,0.0214386,0.00900269,0.0151825,0.0120163,0.0239563,0.0149918,-9.97986,0.0137711,-0.00495911,0.0140762,0.0135803,-0.00747681,0.0044632,0.0178146,0.00797272
31,2,-9.99003,0.00152588,-0.000305176,-2.42592,0.0562914,-0.0747579,0.0547383,0.0776842,-0.0897895,0.145318,-0.124241,-0.0834859,0.00789642,0.0218964,0.0148773,0.00389099,0.0152969,0.00808716,0.0273895,0.0166321,-9.97986,0.0158691,-0.00190735,0.0144958,0.0104904,0.00297546,0.0069046,0.0136948,0.0082016
31,3,-7.6591,-0.000610352,0.00335693,-2.42623,0.0547655,-0.075063,0.0547383,0.140245,-0.0861274,0.144098,-0.121799,-0.0834859,0.0100327,0.0156784,0.0202942,0.00553131,0.0178146,0.00549316,0.0285721,0.014267,-9.97986,0.018425,0.00087738,0.013504,0.0082016,0.016098,0.0145721,0.0158691,0.00827789
31,4,-0.28636,0.000610352,0.00457764,-2.42745,0.0535448,-0.0756734,0.054128,0.151232,-0.0882636,0.143792,-0.120884,-0.0850118,0.00865936,0.0108337,0.0189972,0.00106812,0.0130081,0.0135422,0.0255203,0.015831,-9.97986,0.0133133,-0.00198364,0.0125122,0.00957489,0.0162125,0.0141144,0.0139999,0.0030899
31,5,7.36135,-0.000305176,0.00473022,-2.42776,0.0541551,-0.0759786,0.054128,0.154588,-0.0891792,0.143182,-0.121189,-0.0862325,0.0108719,0.0154495,0.017662,0.00934601,0.0182724,0.00713348,0.0215912,0.0270081,-9.97986,0.0177765,-0.00362396,0.0107193,0.00988007,0.0128174,0.0128174,0.0131989,0.00621796
31,6,10.0097,-0.00213623,0.00427246,-2.43233,0.0544603,-0.0771993,0.0495503,0.121935,-0.0952827,0.142572,-0.125156,-0.0877584,0.0112915,0.0137711,0.0199127,0.0133514,0.0141525,0.00682831,0.0183868,0.0318146,-9.97986,0.013237,-0.00556946,0.0127792,0.00736237,0.0145721,0.00461578,0.0154877,0.00667572
31,7,10.0097,0.000915527,0.000915527,-2.43142,0.0535448,-0.0753682,0.0522969,0.0901964,-0.0980293,0.143182,-0.126682,-0.0883688,0.00793457,0.019989,0.0155258,0.0131226,0.0149155,0.00926971,0.0248337,0.0308228,-9.97986,0.0130463,-0.00240326,0.0170135,0.00812531,0.0139999,0.000801086,0.0179291,0.00400543
31,8,10.0097,-0.000610352,-0.000152588,-2.42959,0.0547655,-0.0762837,0.050771,0.0779894,-0.0968086,0.143182,-0.127903,-0.0871481,0.00705719,0.0191879,0.0150681,0.0125122,0.0174332,0.00823975,0.0244522,0.0307846,-9.97986,0.0163269,-0.000343323,0.0147247,0.00896454,0.0199509,0.00244141,0.0172806,0.0069046
31,9,10.0097,-0.0012207,0.000305176,-2.42776,0.0547655,-0.0759786,0.0532125,0.0734117,-0.0949775,0.145013,-0.126377,-0.0862325,0.00961304,0.0156403,0.0152588,0.00759125,0.0175476,0.00843048,0.0221252,0.0299072,-9.97986,0.0160217,-0.000801086,0.0160599,0.00564575,0.0198746,-0.00141144,0.0150681,0.00465393
32,0,10.0097,0.00183105,0.000152588,-2.42837,0.0541551,-0.0759786,0.0526021,0.0715807,-0.0946723,0.144708,-0.126072,-0.0850118,0.0115585,0.0193787,0.0170517,0.00278473,0.014801,0.00778198,0.0221634,0.0218201,-9.97986,0.013237,-0.00431061,0.0187683,0.00457764,0.018158,0.000686646,0.0139236,0.00549316
32,1,10.0097,0.000915527,0.000152588,-2.42714,0.0544603,-0.0744527,0.0522969,0.0712755,-0.0931465,0.146234,-0.126377,-0.085317,0.0114441,0.0205994,0.0143051,0.00709534,0.018692,0.0108719,0.0219345,0.0190353,-9.97986,0.0107956,-0.00152588,0.0150681,0.00801086,0.0201797,0.00190735,0.0172043,0.00736237
32,2,10.0097,0.000610352,0.000457764,-2.42745,0.0547655,-0.0738423,0.0538228,0.0706652,-0.0934516,0.144403,-0.125461,-0.0828756,0.010376,0.0270844,0.0227737,0.0188065,0.0174713,0.0105286,0.0193024,0.0155258,-9.97986,0.0102997,-0.000572205,0.0094986,0.00656128,0.0191116,-0.00133514,0.0166702,0.00759125
32,3,10.0097,-0.00183105,0.000305176,-2.42531,0.0559862,-0.0735371,0.0535176,0.0718859,-0.0913154,0.147455,-0.123935,-0.0813497,0.0112152,0.0245667,0.0209045,0.029068,0.0165176,0.0114822,0.02491,0.0107956,-9.97986,0.0166321,-0.00461578,0.0131989,0.00984192,0.0167084,-0.00457764,0.0178528,0.00530243
32,4,10.0097,-0.000610352,0.000610352,-2.42501,0.0565965,-0.073232,0.0547383,0.07036,-0.0919257,0.145929,-0.12363,-0.0804342,0.00984192,0.025177,0.0149918,0.029068,0.0147247,0.00537872,0.0226593,0.00957489,-9.97986,0.018158,-0.00171661,0.016861,0.00484467,0.0189972,-0.00991821,0.0193024,0.00751495
32,5,10.0097,0.00213623,-0.00213623,-2.42745,0.0550706,-0.0744527,0.0516866,0.0337389,-0.0971137,0.145624,-0.127598,-0.0834859,0.0112534,0.0309372,0.0155258,0.0308609,0.0170135,0.010376,0.021286,0.0101852,-9.97986,0.0196457,-0.0019455,0.0144577,0.00957489,0.0149536,-0.00759125,0.0154877,0.00946045
32,6,5.38991,0.00305176,-0.00320435,-2.42776,0.0553758,-0.0738423,0.0510762,-0.00745984,-0.101081,0.146234,-0.129734,-0.0828756,0.00644684,0.0268173,0.018158,0.0255966,0.0133514,0.0149536,0.0247192,0.0056076,-9.97986,0.0132751,-0.00431061,0.0128174,0.00572205,0.0172043,-0.0082016,0.0131989,0.00793457
32,7,-2.84495,0,-0.00305176,-2.42623,0.0562914,-0.0741475,0.0526021,-0.0150892,-0.0965034,0.14776,-0.130954,-0.0825704,0.013504,0.0273895,0.0207901,0.0181198,0.0178909,0.0127029,0.0258255,0.0136185,-9.97986,0.0111389,-0.00156403,0.0143433,0.00476837,0.0183487,-0.00869751,0.0159836,0.00785828
32,8,-9.99003,0.0012207,-0.0050354,-2.4244,0.055681,-0.0744527,0.054128,-0.0147841,-0.0968086,0.147149,-0.129734,-0.0822652,0.00926971,0.0298691,0.0184631,0.0127411,0.014801,0.0100327,0.019989,0.0138474,-9.97986,0.0106049,-0.00247955,0.0136185,0.00743866,0.0188828,-0.00900269,0.0128555,0.00473022
32,9,-9.99003,-0.000305176,-0.00228882,-2.42501,0.0565965,-0.0747579,0.0562642,0.032213,-0.0916206,0.146539,-0.126682,-0.080129,0.0109863,0.0312805,0.0193787,0.0175095,0.0187302,0.0133133,0.0205994,0.0135803,-9.97986,0.0113678,0.000839233,0.0161743,0.00640869,-0.00522614,-0.00965118,0.0150299,0.00556946
33,0,-9.99003,0.000610352,-0.0012207,-2.42562,0.0553758,-0.0747579,0.0556539,0.0541857,-0.0903999,0.145624,-0.126377,-0.0810445,0.0105667,0.025177,0.0146484,0.0162506,0.0185776,0.00854492,0.0208664,0.0195694,-9.97986,0.0157547,-0.000915527,0.0122452,0.0082016,-0.00404358,-0.0062561,0.016861,0.00972748
33,1,-9.99003,0,-0.000305176,-2.42653,0.0553758,-0.0756734,0.0550435,0.0636461,-0.0919257,0.146539,-0.125156,-0.0831808,0.0101471,0.0206757,0.0191879,0.0153351,0.017395,0.0125504,0.0230408,0.00988007,-9.97986,0.015831,0.000228882,0.0149918,0.00499725,-0.00396729,-0.00743866,0.016098,0.00392914
33,2,-9.99003,0.00183105,0.000152588,-2.42653,0.0547655,-0.0738423,0.0550435,0.077379,-0.0900947,0.146844,-0.125156,-0.0822652,0.00995636,0.0252151,0.0188828,0.0148392,0.0154877,0.00915527,0.0254059,0.0110626,-9.97986,0.0169373,0.00152588,0.0159454,0.00652313,0.00385284,-0.0100327,0.0134659,0.00709534
33,3,-7.67558,-0.000915527,0.00305176,-2.42653,0.0538499,-0.0744527,0.0565694,0.139635,-0.0839912,0.145013,-0.121494,-0.0828756,0.00862122,0.0349426,0.0215912,0.0112152,0.014801,0.0102997,0.0234222,0.0153351,-9.97986,0.0165558,0.00305176,0.0122833,0.00675201,0.0161362,-0.00553131,0.0110245,0.00705719
33,4,-0.286054,0,0.00411987,-2.42714,0.0538499,-0.0747579,0.0532125,0.152147,-0.0879585,0.145013,-0.121494,-0.0844015,0.01091,0.0378418,0.0258255,0.00972748,0.0209045,0.00759125,0.0263977,0.014267,-9.97986,0.017128,0.00648499,0.0138092,0.00537872,0.0217438,-0.00164032,0.0133133,0.0063324
33,5,7.38484,0.000610352,0.00427246,-2.42837,0.0532396,-0.0753682,0.0532125,0.153673,-0.0903999,0.143182,-0.121494,-0.0850118,0.00827789,0.0204086,0.0231171,0.00904083,0.0150681,0.00789642,0.0267029,0.0137711,-9.97986,0.0170898,0.00362396,0.0126648,0.00404358,0.0160599,-0.00198364,0.0168991,0.00591278
33,6,10.0097,-0.000305176,0.0038147,-2.4302,0.0541551,-0.0768941,0.0504659,0.122545,-0.0965034,0.142572,-0.125156,-0.0895895,0.00991821,0.00667572,0.020752,0.00434875,0.0170898,0.0101852,0.0234604,0.0188065,-9.97986,0.0161362,0.00297546,0.00904083,0.00892639,0.014267,0.00331879,0.0173569,0.00617981
33,7,10.0097,-0.00213623,0.000457764,-2.4302,0.0523241,-0.0762837,0.050771,0.0886705,-0.0974189,0.143182,-0.126682,-0.0880636,0.00759125,0.00331879,0.0159454,-0.000457764,0.0143051,0.00953674,0.0210953,0.0185394,-9.97986,0.0161743,0.00709534,0.0143051,0.0069809,0.0151443,-0.00247955,0.0169373,0.0075531
33,8,10.0097,0.000305176,-0.000915527,-2.42867,0.0529344,-0.0765889,0.050771,0.0776842,-0.0968086,0.145013,-0.126377,-0.0880636,0.00835419,0.0123978,0.015831,-0.00518799,0.0149918,0.0125504,0.0221634,0.0173569,-9.97986,0.0121689,-0.00087738,0.0110245,0.00179291,0.0162125,-0.00911713,0.0140762,0.00453949
33,9,10.0097,0,0.000305176,-2.42806,0.0541551,-0.0747579,0.0522969,0.0737169,-0.0952827,0.145013,-0.126987,-0.0862325,0.0149536,0.0216675,0.0165176,-0.00221252,0.0212479,0.0144196,0.0286102,0.02491,-9.97986,0.0184631,0.0043869,0.0216293,0.00629425,0.0191116,-0.00526428,0.0201797,0.0120926
34,0,10.0097,0,-0.000457764,-2.42623,0.055681,-0.0744527,0.0538228,0.0712755,-0.0925361,0.145013,-0.126377,-0.0856222,0.00728607,0.0112152,0.00995636,-0.00736237,0.0156403,0.00175476,0.0223541,0.0156021,-9.97986,0.00873566,-0.00488281,0.0109482,0.00339508,0.0136185,-0.0127029,0.014534,0.00530243
34,1,10.0097,-0.000915527,0.000457764,-2.42684,0.0547655,-0.075063,0.0535176,0.0706652,-0.0934516,0.145318,-0.125461,-0.0847066,0.0123215,0.0191879,0.0143814,0.00724792,0.0234985,0.00953674,0.0304031,0.0196075,-9.97986,0.0134659,-0.00244141,0.0146866,0.00358582,0.0157166,-0.00389099,0.0155258,0.00514984
34,2,10.0097,0.00244141,-0.000305176,-2.42684,0.0541551,-0.0747579,0.0547383,0.0706652,-0.0925361,0.146844,-0.124851,-0.0831808,0.00946045,0.0185776,0.0102615,0.0218582,0.016098,0.00915527,0.0237656,0.0163651,-9.97986,0.0176239,-0.00431061,0.0157166,0.00495911,0.0149918,0.00385284,0.0154114,0.00583649
34,3,10.0097,0.000915527,-0.000152588,-2.42562,0.0569017,-0.0735371,0.0544332,0.0706652,-0.0925361,0.145013,-0.12363,-0.0813497,0.00991821,0.0180435,0.0146103,0.0233459,0.0159454,0.0125504,0.0221252,0.0160599,-9.97986,0.0111771,-0.00217438,0.0113678,0.00614166,0.0104141,0.00667572,0.0174332,0.00518799
34,4,10.0097,0.000610352,-0.000305176,-2.42531,0.0565965,-0.0747579,0.0562642,0.0715807,-0.0910102,0.14837,-0.124241,-0.0813497,0.0139236,0.0185013,0.00934601,0.0181961,0.0146103,0.0069809,0.0235748,0.019722,-9.97986,0.0158691,-0.00286102,0.0163651,0.00572205,0.0178146,0.00656128,0.0178528,0.00469208
34,5,10.0097,0,-0.00213623,-2.42837,0.0565965,-0.0753682,0.0529073,0.0340441,-0.0971137,0.146539,-0.126987,-0.0822652,0.0114059,0.0177383,0.0139236,0.0157166,0.0175095,0.0111389,0.0251389,0.012207,-9.97986,0.0156021,-0.00785828,0.0123978,0.00274658,0.0167084,0.00354767,0.0124359,0.00816345
34,6,5.34017,-0.000610352,-0.00305176,-2.42776,0.0547655,-0.0741475,0.0516866,-0.00654431,-0.09925,0.146234,-0.129734,-0.0828756,0.0146103,0.0187683,0.0180817,0.0153732,0.0186539,0.0102615,0.0223923,0.017395,-9.97986,0.0110245,-0.00205994,0.0111771,0.00938416,0.0162506,-0.00358582,0.0146484,0.0062561
34,7,-2.79857,0.0012207,-0.00442505,-2.4244,0.0572069,-0.0738423,0.0538228,-0.0144789,-0.0971137,0.146539,-0.130039,-0.0813497,0.00930786,0.0211716,0.0187302,0.00587463,0.018425,0.00576019,0.0265121,0.017662,-9.97986,0.0117493,0.00415802,0.0138855,0.00713348,0.01297,-0.00278473,0.0191879,0.00595093
34,8,-9.99003,0.00244141,-0.00457764,-2.42684,0.0575121,-0.073232,0.0553487,-0.0141737,-0.095893,0.147455,-0.130954,-0.0816549,0.00999451,0.022316,0.0188828,0.00522614,0.019722,0.0118637,0.0225449,0.0234604,-9.97986,0.0163269,0.00728607,0.0170898,0.000991821,0.0150681,-0.000495911,0.0165558,0.00812531
34,9,-9.99003,0.0012207,-0.00198364,-2.42501,0.0569017,-0.0738423,0.0562642,0.0328234,-0.090705,0.146844,-0.127292,-0.0810445,0.0136185,0.0239563,0.0184631,0.00972748,0.0159836,0.00770569,0.0228119,0.0228119,-9.97986,0.0150299,0.00591278,0.0144577,0.00507355,-0.0100708,-0.00259399,0.0161362,0.00644684
35,0,-9.99003,0.000610352,-0.000152588,-2.42684,0.055681,-0.0747579,0.0553487,0.0538805,-0.0897895,0.146539,-0.126072,-0.0798238,0.00865936,0.0242615,0.0193405,0.00858307,0.0196075,0.00495911,0.0224686,0.0205612,-9.97986,0.0119019,0.00904083,0.014267,0.00656128,-0.0106812,-0.00694275,0.0154495,0.00484467
35,1,-9.99003,-0.000610352,-0.000305176,-2.42562,0.0541551,-0.0744527,0.0553487,0.0618151,-0.0922309,0.143792,-0.126377,-0.0819601,0.0094986,0.0222778,0.0203323,0.00629425,0.0193405,0.00968933,0.0214005,0.0170898,-9.97986,0.0135422,0.000534058,0.0131607,0.00156403,-0.00778198,-0.0180817,0.0162125,0.00919342
35,2,-9.99003,0,0.000457764,-2.42653,0.0553758,-0.075063,0.0544332,0.0758531,-0.0900947,0.146234,-0.125156,-0.0828756,0.00717163,0.0285721,0.017128,0.000762939,0.0169754,0.00572205,0.0284576,0.0162125,-9.97986,0.0170135,0.000762939,0.0152206,0.00831604,-0.00362396,-0.0148773,0.0157928,0.00713348
35,3,-7.79735,0.0012207,0.00320435,-2.42623,0.0547655,-0.0744527,0.0565694,0.13933,-0.0864326,0.145929,-0.121189,-0.0819601,0.0102997,0.0239944,0.0162125,0.00270844,0.0187683,0.0127792,0.0204468,0.0177383,-9.97986,0.0134659,0.000152588,0.0154495,0.00656128,0.0119781,-0.0127792,0.0179291,0.00671387
35,4,-0.449629,0.00244141,0.00427246,-2.42806,0.0535448,-0.0759786,0.0532125,0.152452,-0.0879585,0.144403,-0.121189,-0.0844015,0.0121307,0.0229263,0.0182724,0.00457764,0.0217056,0.00801086,0.019722,0.017128,-9.97986,0.0122452,-0.0111008,0.0134659,0.00255585,0.0160217,-0.00804901,0.0157547,0.00679016
35,5,7.14315,0.000915527,0.00427246,-2.42776,0.0535448,-0.0747579,0.0535176,0.155199,-0.0894843,0.143792,-0.121189,-0.085317,0.0125885,0.0291824,0.0198746,-0.00114441,0.0217819,0.0101471,0.0215912,0.019989,-9.97986,0.0128174,-0.0155258,0.0157166,0.00789642,0.0144958,-0.0062561,0.014534,0.00804901
35,6,10.0097,-0.000305176,0.00473022,-2.43142,0.0526292,-0.0768941,0.0510762,0.123766,-0.0949775,0.141961,-0.124241,-0.0898946,0.00995636,0.0273132,0.019455,0.00106812,0.0203705,0.0136566,0.0190353,0.0219727,-9.97986,0.0132751,-0.0208282,0.0146484,0.00736237,0.0156784,-0.00137329,0.0192261,0.00576019
35,7,10.0097,0.00152588,0.000915527,-2.43142,0.0535448,-0.0759786,0.0498555,0.0898912,-0.0971137,0.142877,-0.126987,-0.0886739,0.0108337,0.0256729,0.0202942,-0.0043869,0.0201035,0.0101089,0.0194168,0.020752,-9.97986,0.0172806,-0.013237,0.0130463,0.00846863,0.0190735,0.00400543,0.0125885,0.00549316
35,8,10.0097,0.000305176,0,-2.42989,0.0538499,-0.0753682,0.0513814,0.0792101,-0.0955879,0.144098,-0.127292,-0.0874532,0.0113297,0.0225449,0.0215149,-0.00930786,0.0191879,0.00732422,0.0190353,0.0183868,-9.97986,0.0165939,-0.00644684,0.0111008,0.00522614,0.0162888,0.00953674,0.0176239,0.00621796
35,9,10.0097,0.000610352,0.000305176,-2.42806,0.0541551,-0.0756734,0.0513814,0.0728014,-0.0949775,0.144403,-0.126072,-0.0868429,0.0115967,0.0263214,0.0213623,-0.00396729,0.018425,0.00770569,0.0224304,0.0214386,-9.97986,0.0157166,-0.00801086,0.0142288,0.00778198,0.0153351,0.00537872,0.0187683,0.00621796
36,0,10.0097,0.000610352,0.000152588,-2.42684,0.0550706,-0.0759786,0.0538228,0.0715807,-0.0937568,0.143487,-0.125766,-0.0856222,0.00995636,0.0227356,0.019722,0.00221252,0.0173569,0.0127029,0.0201416,0.0217438,-9.97986,0.0161743,-0.000648499,0.0148392,0.00762939,0.0169373,0.00495911,0.0154114,0.00659943
36,1,10.0097,0.000610352,0,-2.42745,0.0541551,-0.0753682,0.0532125,0.0718859,-0.0934516,0.144708,-0.125156,-0.0847066,0.0125122,0.0292587,0.0211716,0.020256,0.0176239,0.00576019,0.0225067,0.0175858,-9.97986,0.0118256,-0.00209808,0.0156403,0.00476837,0.0154114,0.00255585,0.0142288,0.0105286
36,2,10.0097,0.000915527,0.000305176,-2.42623,0.0550706,-0.0744527,0.054128,0.072191,-0.0916206,0.146234,-0.124851,-0.0834859,0.0115967,0.0197601,0.0191498,0.0239944,0.0225067,0.0113297,0.0196838,0.0247955,-9.97986,0.0163269,-0.00289917,0.0128937,0.0100327,0.0200272,0.00476837,0.0143814,0.00564575
36,3,10.0097,0.000610352,-0.000152588,-2.42562,0.0559862,-0.0729268,0.0550435,0.0712755,-0.090705,0.146234,-0.125156,-0.0822652,0.0120163,0.0165939,0.018959,0.018959,0.0187683,0.00808716,0.0178528,0.0260162,-9.97986,0.0138474,-0.0063324,0.0118637,0.00583649,0.0151443,0.00228882,0.0108337,0.00240326
36,4,10.0097,0.000915527,-0.000152588,-2.42531,0.055681,-0.0738423,0.0556539,0.0709703,-0.0903999,0.146234,-0.124241,-0.0810445,0.00644684,0.0200272,0.0202179,0.0130081,0.0205231,0.0107574,0.0215912,0.0218964,-9.97986,0.0136566,-0.00507355,0.0152969,0.00522614,0.0208282,0.00522614,0.0162506,0.00614166
36,5,10.0097,-0.00244141,-0.00152588,-2.42714,0.055681,-0.0744527,0.0516866,0.0325182,-0.0974189,0.146844,-0.126682,-0.0831808,0.0115585,0.0253677,0.0200272,0.016861,0.0185394,0.0153732,0.0203705,0.0281525,-9.97986,0.014801,-0.00431061,0.0130081,0.00900269,0.0195313,0.00579834,0.0154495,0.00816345
36,6,5.26906,0.00183105,-0.00411987,-2.42776,0.055681,-0.0738423,0.0516866,-0.00868054,-0.100471,0.145929,-0.128818,-0.0831808,0.00873566,0.0261688,0.0231171,0.00976563,0.017395,0.00705719,0.0230408,0.0257111,-9.97986,0.0144958,-0.00537872,0.0166702,0.00682831,0.0156784,0.00259399,0.0152969,0.00778198
36,7,-2.9301,0.00213623,-0.00457764,-2.42653,0.0562914,-0.0747579,0.0535176,-0.0153944,-0.0989448,0.146234,-0.130039,-0.0825704,0.00640869,0.0248337,0.0259399,0.00797272,0.0204468,0.00946045,0.0193787,0.0302505,-9.97986,0.0164413,-0.000572205,0.0139236,0.00801086,0.0185013,0.00377655,0.0145721,0.00686646
36,8,-9.99003,0.000610352,-0.00427246,-2.42592,0.0569017,-0.073232,0.0544332,-0.0126478,-0.0946723,0.146844,-0.130649,-0.0810445,0.00904083,0.0210953,0.0295639,0.0069809,0.015831,0.00968933,0.0196457,0.0244141,-9.97986,0.0128174,-0.00328064,0.011673,0.00675201,0.0195313,0.000953674,0.0141144,0.00263214
36,9,-9.99003,-0.000610352,-0.00274658,-2.42348,0.0559862,-0.0729268,0.0568746,0.0343492,-0.0900947,0.146844,-0.126987,-0.0798238,0.00869751,0.0209427,0.0209045,0.0094986,0.0219345,0.00976563,0.0216675,0.0269318,-9.97986,0.016098,-0.00457764,0.0184631,0.00637054,-0.00320435,-0.000534058,0.0193024,0.00404358
37,0,-9.99003,0.00183105,-0.000457764,-2.42501,0.0559862,-0.0738423,0.055959,0.0551012,-0.090705,0.146234,-0.126682,-0.0819601,0.0124359,0.016861,0.0214005,0.0130844,0.0169373,0.0114822,0.0217438,0.0266266,-9.97986,0.0156021,-0.000343323,0.0149918,0.00713348,-0.00518799,0.00297546,0.0168991,0.00720978
37,1,-9.99003,-0.000610352,-0.000152588,-2.42714,0.0559862,-0.075063,0.0544332,0.0624254,-0.0919257,0.146539,-0.125461,-0.0822652,0.00968933,0.0216675,0.0214386,0.0287628,0.0148392,0.00831604,0.0251007,0.025177,-9.97986,0.0159836,0.000419617,0.0157166,0.00904083,-0.00602722,0.000953674,0.0165939,0.00671387
37,2,-9.99003,0.000610352,0.000457764,-2.42562,0.0550706,-0.0741475,0.0547383,0.077379,-0.0897895,0.144403,-0.125156,-0.0825704,0.00991821,0.0231171,0.0207138,0.0291443,0.0222015,0.0138855,0.0218582,0.019455,-9.97986,0.0118637,-0.00293732,0.00976563,0.0115585,0.00202179,0.00190735,0.0168228,0.00629425
37,3,-7.67772,0.00183105,0.00305176,-2.42592,0.0544603,-0.0738423,0.055959,0.137193,-0.0858222,0.144403,-0.121494,-0.0834859,0.00900269,0.0244522,0.0252533,0.0229263,0.0199127,0.00816345,0.0189209,0.0151825,-9.97986,0.0131607,-0.0063324,0.0117111,0.00591278,0.0228119,0.00259399,0.0167084,0.00541687
37,4,-0.297346,-0.000305176,0.00473022,-2.42684,0.0535448,-0.0759786,0.0526021,0.152452,-0.0879585,0.143182,-0.120273,-0.0840963,0.0122833,0.0261688,0.0228119,0.0220108,0.0189972,0.00934601,0.0208664,0.00766754,-9.97986,0.0195313,-0.00484467,0.0143051,0.00427246,0.0189209,-0.00133514,0.0165939,0.00663757
37,5,7.25606,0.000610352,0.00457764,-2.42714,0.0544603,-0.0759786,0.0535176,0.153063,-0.0897895,0.143792,-0.122104,-0.0859274,0.0140381,0.0292969,0.0253296,0.0131226,0.0175858,0.00892639,0.0224304,-0.00293732,-9.97986,0.0180817,-0.00209808,0.0115204,0.00911713,0.0187302,-0.00862122,0.0169754,0.00289917
37,6,10.0097,-0.000305176,0.00366211,-2.43203,0.0526292,-0.0771993,0.0510762,0.123461,-0.0952827,0.141351,-0.125156,-0.0883688,0.00938416,0.029068,0.0244904,0.0149536,0.0170135,0.00999451,0.0240326,-0.00484467,-9.97986,0.0158691,-7.62939e-005,0.0146866,0.0056076,0.0199509,-0.0125122,0.0191498,0.00396729
37,7,10.0097,0.000305176,0.000915527,-2.4302,0.0535448,-0.0759786,0.050771,0.0901964,-0.0974189,0.141961,-0.126072,-0.0895895,0.0133896,0.0301743,0.0248718,0.0117493,0.0199127,0.00938416,0.0267792,-0.000190735,-9.97986,0.0117874,-0.00255585,0.0149536,0.00804901,0.0177765,-0.0187302,0.0177765,0.00667572
37,8,10.0097,0.000305176,0.000762939,-2.42898,0.0535448,-0.0762837,0.0516866,0.0776842,-0.0955879,0.142877,-0.126682,-0.0880636,0.0102615,0.0312042,0.0234222,0.0104141,0.0177383,0.0131989,0.028801,0.0123978,-9.97986,0.0126266,0.00244141,0.0156021,0.0122452,0.0206375,-0.0279999,0.0171661,0.00778198
37,9,10.0097,0.00213623,-0.000305176,-2.42898,0.0544603,-0.0762837,0.0526021,0.0734117,-0.0943672,0.145013,-0.126682,-0.0862325,0.0082016,0.0316238,0.0238419,0.00923157,0.0174332,0.00915527,0.0221634,0.0140762,-9.97986,0.0144196,-0.00202179,0.0146103,0.0082016,0.0166702,-0.0291824,0.0185394,0.00389099
38,0,10.0097,0.000915527,0.000305176,-2.42745,0.0541551,-0.0759786,0.0535176,0.0724962,-0.0946723,0.144708,-0.126072,-0.085317,0.0148773,0.0350571,0.0286484,0.00915527,0.0211716,0.0102997,0.0228119,0.0209808,-9.97986,0.0156784,0.000724792,0.0134659,0.0108719,0.0179672,-0.0252914,0.0130463,0.00579834
38,1,10.0097,0.0012207,0.000305176,-2.42745,0.0538499,-0.0744527,0.0535176,0.0706652,-0.0928413,0.143792,-0.126377,-0.0844015,0.0102997,0.0332642,0.0259781,0.00946045,0.0163651,0.0150299,0.0259399,0.0203705,-9.97986,0.01194,-0.00198364,0.0144196,0.00770569,0.0174713,-0.0180054,0.017128,0.00610352
38,2,10.0097,-0.0012207,0.000152588,-2.42501,0.0553758,-0.0744527,0.054128,0.0706652,-0.0925361,0.144403,-0.126072,-0.0831808,0.0104141,0.0333786,0.0318527,0.0119019,0.0187302,0.0156021,0.019989,0.022049,-9.97986,0.0101089,0.000495911,0.0158691,0.00530243,0.01194,-0.0117493,0.0170898,0.00488281
38,3,10.0097,-0.000915527,0.000305176,-2.42501,0.0569017,-0.0735371,0.0538228,0.0712755,-0.0922309,0.148065,-0.124851,-0.0816549,0.00816345,0.0283813,0.032692,0.0109482,0.0159454,0.0104141,0.0189972,0.0179291,-9.97986,0.0108719,0.0012207,0.0172424,0.00556946,0.0122452,-0.000839233,0.0194168,0.00499725
38,4,10.0097,-0.000305176,0.000457764,-2.4247,0.0562914,-0.0720113,0.0553487,0.0712755,-0.0910102,0.145624,-0.124241,-0.0816549,0.00583649,0.0310516,0.0312042,0.00675201,0.0183868,0.0123596,0.0204849,0.00900269,-9.97986,0.0107956,-0.00232697,0.0144196,0.00675201,0.0133514,0.0104904,0.0165176,0.00637054
38,5,10.0097,0.000305176,-0.00106812,-2.42684,0.0547655,-0.0741475,0.0522969,0.0334337,-0.0974189,0.145624,-0.128513,-0.0831808,0.0115585,0.0247955,0.0239182,0.000152588,0.0200272,0.0127029,0.0204086,0.0121307,-9.97986,0.0113297,-0.00289917,0.0135803,0.00705719,0.0153351,0.00801086,0.0179672,0.0043869
38,6,5.29592,0.000610352,-0.00305176,-2.42745,0.055681,-0.0738423,0.0516866,-0.00898572,-0.100165,0.146539,-0.130649,-0.0844015,0.00644684,0.0181961,0.0172424,-0.00339508,0.0249863,0.0127029,0.0228882,0.0165939,-9.97986,0.0146103,-0.00400543,0.0135422,0.0109482,0.0151443,0.00934601,0.0194168,0.00724792
38,7,-2.83793,0,-0.00350952,-2.42501,0.0572069,-0.0741475,0.0532125,-0.0147841,-0.0974189,0.146844,-0.130039,-0.0819601,0.00694275,0.0146866,0.00999451,0.00244141,0.0198746,0.00850677,0.0183868,0.00972748,-9.97986,0.0147247,-0.000572205,0.0119019,0.00583649,0.0101089,0.00900269,0.0137711,0.00614166
38,8,-9.99003,0.000915527,-0.00396729,-2.42592,0.0572069,-0.0738423,0.0526021,-0.012953,-0.0961982,0.145624,-0.130039,-0.0816549,0.0112915,0.0104523,0.00938416,0.00843048,0.0179672,0.00656128,0.0187302,0.0117874,-9.97986,0.0166321,0.00362396,0.013504,0.00301361,0.0135422,0.0110245,0.0154495,0.00873566
38,9,-9.99003,0.0012207,-0.00244141,-2.42318,0.0562914,-0.0738423,0.0562642,0.0312975,-0.0900947,0.146234,-0.126987,-0.0804342,0.0101471,0.00160217,0.0123978,0.000839233,0.0176239,0.00858307,0.0139618,0.010376,-9.97986,0.0163269,0.00328064,0.0162506,0.00812531,-0.00957489,0.00648499,0.0185776,0.0056839
39,0,-9.99003,0.00305176,-0.000305176,-2.42592,0.0562914,-0.0753682,0.0553487,0.0554064,-0.0903999,0.145624,-0.126072,-0.0816549,0.0114822,0.00717163,0.0202179,0.000839233,0.0149155,0.0129318,0.0143814,0.0134659,-9.97986,0.0189209,-0.000534058,0.0138474,0.00484467,-0.00572205,0.00366211,0.0151062,0.0043869
39,1,-9.99003,0,-0.000152588,-2.42623,0.0559862,-0.0738423,0.055959,0.0630358,-0.0913154,0.146234,-0.126377,-0.0828756,0.0100327,0.00938416,0.0221252,-0.000648499,0.0181198,0.0109482,0.0114822,0.0173187,-9.97986,0.0178909,-0.00156403,0.015831,0.00888824,-0.00717163,0.00907898,0.0165939,0.00694275
39,2,-9.99003,0.00152588,0,-2.42714,0.0553758,-0.075063,0.0550435,0.077379,-0.0900947,0.144708,-0.125156,-0.0825704,0.0111008,0.0123215,0.0286484,0.000839233,0.0217819,0.0123596,0.0140762,0.0152206,-9.97986,0.0151062,-0.000839233,0.0157547,0.00816345,-0.00328064,0.00583649,0.013504,0.00671387
39,3,-7.57487,0.000305176,0.00396729,-2.42562,0.0547655,-0.0747579,0.0553487,0.139025,-0.0855171,0.145624,-0.122715,-0.0825704,0.0094223,0.0126648,0.0208282,0.00244141,0.0217819,0.0137711,0.0178146,0.0178909,-9.97986,0.016861,-0.000953674,0.0151443,0.00656128,0.0187683,0.0031662,0.0182724,0.00823975
39,4,-0.257673,0.000915527,0.00320435,-2.42623,0.0538499,-0.0753682,0.0547383,0.151537,-0.0873481,0.144098,-0.121799,-0.0847066,0.00976563,0.0153351,0.02285,0.00335693,0.0173187,0.00972748,0.0168228,0.0136185,-9.97986,0.0144196,0.000724792,0.0157166,0.00827789,0.0183487,0.00106812,0.0161362,0.00480652
39,5,7.36318,0.000610352,0.00457764,-2.42898,0.0541551,-0.0753682,0.054128,0.153978,-0.0891792,0.142877,-0.121799,-0.0859274,0.00659943,0.017395,0.0198364,0.0123215,0.0196457,0.0169754,0.0190735,0.0143814,-9.97986,0.016861,0.00133514,0.0138474,0.00907898,0.0158691,0.00217438,0.0121307,0.00400543
39,6,10.0097,-0.0012207,0.00411987,-2.43142,0.0532396,-0.0768941,0.050771,0.121935,-0.0971137,0.141961,-0.125156,-0.0880636,0.00934601,0.0173569,0.0120163,0.0251389,0.0181961,0.0104141,0.0242615,0.0148392,-9.97986,0.0165176,-0.00312805,0.0102615,0.0108719,0.0138474,-0.00183105,0.0161743,0.00385284
39,7,10.0097,0.00152588,0.000915527,-2.4302,0.0535448,-0.0771993,0.050771,0.0895861,-0.0974189,0.143487,-0.125461,-0.0883688,0.0104904,0.0140762,0.0127792,0.0383759,0.0162888,0.0114059,0.0215912,0.0164032,-9.97986,0.0157928,-0.0012207,0.0121307,0.0107193,0.0181198,-0.00106812,0.0195313,0.00175476
39,8,10.0097,0.000610352,-0.000152588,-2.4302,0.0532396,-0.0762837,0.0504659,0.0789049,-0.0977241,0.144403,-0.126377,-0.0880636,0.0117493,0.0139236,0.001297,0.0348663,0.0188065,0.0136948,0.0277328,0.0170135,-9.97986,0.0118256,-0.0050354,0.0122833,0.0109482,0.0169373,-0.00156403,0.0170135,0.00305176
39,9,10.0097,-0.000610352,0,-2.42837,0.0553758,-0.0756734,0.0516866,0.0728014,-0.0949775,0.143182,-0.126072,-0.0865377,0.0112152,0.0125122,-0.00419617,0.0230408,0.0168228,0.0123215,0.0292206,0.0162125,-9.97986,0.0128555,-0.000953674,0.0131989,0.0104904,0.0183868,-0.00675201,0.0165939,0.00835419
40,0,10.0097,0.00152588,0.000152588,-2.42592,0.0553758,-0.075063,0.0532125,0.0712755,-0.0952827,0.145013,-0.125766,-0.0856222,0.00774384,0.0170517,-0.0030899,0.0161362,0.0160217,0.00846863,0.0271606,0.0151062,-9.97986,0.0135422,-0.0037384,0.0139999,0.0056839,0.0166321,-0.0140762,0.0162506,0.00434875
40,1,10.0097,-0.000610352,-0.000152588,-2.42745,0.0544603,-0.0747579,0.0532125,0.0709703,-0.0934516,0.145318,-0.126072,-0.0834859,0.00881195,0.0196838,0.00038147,0.0135422,0.016861,0.0116348,0.0301743,0.0162506,-9.97986,0.0183868,0.00038147,0.0156403,0.00541687,0.0233459,-0.0177765,0.0154495,0.00499725
40,2,10.0097,0.00244141,0.000762939,-2.42653,0.0553758,-0.075063,0.0547383,0.0718859,-0.0928413,0.145013,-0.125461,-0.0834859,0.0153732,0.02388,0.00644684,0.0143814,0.0159454,0.0113297,0.029068,0.018425,-9.97986,0.0166702,-0.00247955,0.0159836,0.00514984,0.0212479,-0.0157166,0.0164413,0.00465393
40,3,10.0097,0,-0.000152588,-2.42592,0.0565965,-0.0735371,0.0550435,0.0718859,-0.0925361,0.146844,-0.124546,-0.0813497,0.0110626,0.0295258,0.00762939,0.0164032,0.0186157,0.0139618,0.0302887,0.0208282,-9.97986,0.0128937,-0.00171661,0.0117111,0.00469208,0.0217819,-0.0088501,0.0144196,0.0043869
40,4,10.0097,0.00213623,0.000762939,-2.4244,0.0565965,-0.0741475,0.0547383,0.0715807,-0.090705,0.145318,-0.12302,-0.0807394,0.0135803,0.0259399,0.0107574,0.0125885,0.0183487,0.00564575,0.0266647,0.0240326,-9.97986,0.0120163,-0.00297546,0.0165558,0.00713348,0.0175858,-0.00587463,0.0164795,0.00404358
40,5,10.0097,-0.000915527,-0.0012207,-2.42653,0.055681,-0.0744527,0.0519917,0.0328234,-0.0968086,0.145013,-0.127598,-0.0837911,0.0115967,0.0302505,0.0172424,0.0159454,0.0165558,0.0113678,0.0281525,0.0222778,-9.97986,0.01194,-0.00343323,0.0111389,0.00652313,0.0172424,-0.00213623,0.0179291,0.00797272
