
Devices
1200
,,BP Load cell - Voltage,String Length - Voltage,Clutch Active - Voltage,#7 iPecs - Voltage,,,,,,,,,EMG 1-8 Left - Voltage,,,,,,,,Pylon Force - Voltage,EMG 9-16 Right - Voltage,,,,,,,,
Frame,Sub Frame,BP Load Cell,String Length,From Arduino Logic,A45,A135,A225,A315,S0,S90,S180,S270,ZSum,EMG 1 Glut Max,EMG 2 Glut Med,EMG 3 Biceps Femoris Long,EMG 4 Rectus Femoris,EMG 5 Vastus Medialis,EMG 6 Tib Ant,EMG 7 Med Gas,EMG 8 Soleus,Pylon volts,EMG 9 Glut Max,EMG 10 Glut Med,EMG 11 Biceps Femoris Long,EMG 12 Rectus Femoris,EMG 13 Vastus Medialis,EMG 14 Tib Ant,EMG 15 Med Gas,EMG 16 Soleus
,,V,V,V,V,V,V,V,V,V,V,V,V,V,V,V,V,V,V,V,V,V,V,V,V,V,V,V,V,V
1,0,10.0097,0.00305176,0.000762939,-2.42837,0.0541551,-0.0762837,0.0522969,0.0685289,-0.0952827,0.142877,-0.127598,-0.0865377,0.00900269,0.00995636,0.00320435,0.00801086,0.0391388,0.107269,0.0216293,0.179825,-9.97986,0.0105667,0.0168228,0.0828171,-1.14281,0.031662,-0.0199509,0.0266266,-0.0379944
1,1,10.0097,0.00213623,0.00152588,-2.42959,0.0535448,-0.0762837,0.0519917,0.0691393,-0.0965034,0.143792,-0.126682,-0.0865377,0.00984192,-0.00423431,0.00926971,0.0123978,0.0435638,0.12619,0.0174332,0.211411,-9.97986,-0.000915527,0.00770569,0.0708008,-1.11523,0.0317764,-0.0238419,0.0269699,-0.0312805
1,2,10.0097,-0.000610352,0.000915527,-2.42745,0.0544603,-0.0756734,0.0535176,0.0679186,-0.0955879,0.145013,-0.127903,-0.0865377,0.00629425,0.0136185,0.0185394,0.0114441,0.0498581,0.144386,0.0185013,0.203629,-9.97986,-0.00572205,0.00621796,0.0730896,-1.1031,0.0307846,-0.0235367,0.0202942,-0.0209045
1,3,10.0097,0,0.00167847,-2.42653,0.055681,-0.0747579,0.0519917,0.0694445,-0.0931465,0.145013,-0.126072,-0.0844015,0.00511169,0.0144196,0.0172806,-0.0038147,0.0484085,0.163651,0.0138855,0.208435,-9.97986,-0.0128174,0.0139236,0.0687408,-1.07841,0.0304794,-0.0240707,0.0195694,-0.00240326
1,4,10.0097,-0.000610352,0.00320435,-2.42837,0.055681,-0.0747579,0.054128,0.0688341,-0.0949775,0.145318,-0.126682,-0.0844015,-0.00133514,0.0216675,0.00595093,-0.00759125,0.04879,0.184784,0.0158691,0.212135,-9.97986,-0.0202942,0.0178909,0.0667572,-1.03527,0.0286865,-0.0120544,0.0147247,0.0175858
1,5,10.0097,0.000610352,0.00396729,-2.42623,0.055681,-0.0735371,0.0535176,0.0706652,-0.0919257,0.145624,-0.125156,-0.0819601,-0.00499725,0.0276947,0.00343323,-0.0124359,0.0471497,0.20237,0.00976563,0.185509,-9.97986,-0.0243759,0.0276947,0.0605774,-0.987892,0.0281525,-0.0123596,0.021019,0.0464249
1,6,10.0097,-0.000915527,0.0038147,-2.42318,0.055681,-0.075063,0.054128,0.07036,-0.0922309,0.145929,-0.124546,-0.0804342,-0.00259399,0.019989,0.0127411,-0.0144577,0.0539398,0.225296,0.0143051,0.113983,-9.97986,-0.020752,0.0157547,0.0597763,-0.947037,0.0263977,-0.00774384,0.0198746,0.0596237
1,7,10.0097,-0.0012207,0.00473022,-2.42501,0.0575121,-0.0738423,0.0544332,0.0718859,-0.0922309,0.14776,-0.124241,-0.0807394,0.000610352,0.0186157,0.0182724,-0.0222397,0.0592804,0.24437,0.0122452,0.0267792,-9.97986,-0.0178146,0.00804901,0.0508499,-0.900383,0.0283432,-0.00621796,0.0166702,0.0624084
1,8,10.0097,-0.000915527,0.00442505,-2.42409,0.0550706,-0.0741475,0.054128,0.0709703,-0.0919257,0.147455,-0.124546,-0.0795187,0.00946045,0.0116348,0.0284576,-0.045433,0.0641251,0.262985,0.0115585,-0.069046,-9.97986,-0.0174332,0.000801086,0.0376892,-0.846786,0.0257492,-0.00221252,0.0165176,0.0553131
1,9,10.0097,-0.000610352,0.00579834,-2.4247,0.0565965,-0.0729268,0.0550435,0.072191,-0.0922309,0.14776,-0.123325,-0.0786031,0.0130463,0.00423431,0.0302505,-0.0450516,0.0663376,0.281029,0.011673,-0.184441,-9.97986,-0.00831604,-0.00499725,0.032959,-0.776825,0.0241852,0.00476837,0.0155258,0.0460815
2,0,10.0097,0.0012207,0.00640869,-2.42592,0.0565965,-0.0738423,0.0556539,0.072191,-0.0916206,0.146844,-0.124241,-0.0789083,0.0148392,0.0141907,0.0278473,-0.0255966,0.0740433,0.281563,0.00988007,-0.190887,-9.97986,0.000495911,-0.00389099,0.0298309,-0.705681,0.0263977,0.00938416,0.0192642,0.031929
2,1,10.0097,0.000305176,0.00640869,-2.42562,0.0559862,-0.0738423,0.0538228,0.0566271,-0.0931465,0.145624,-0.125156,-0.0792135,0.00999451,0.0143814,0.0217819,-0.0111771,0.083046,0.283813,0.0108719,-0.105019,-9.97986,0.0141144,0.00236511,0.0275421,-0.640411,0.0242615,0.0101089,0.0214005,0.0146103
2,2,10.0097,-0.000305176,0.0062561,-2.42623,0.0559862,-0.0741475,0.0550435,0.0560167,-0.0937568,0.145624,-0.126377,-0.0804342,0.0106049,0.00576019,0.0126648,-0.00240326,0.0963974,0.28923,0.01194,-0.0719833,-9.97986,0.0310516,-0.00209808,0.0274658,-0.576134,0.0159073,0.0110245,0.0261307,0.00644684
2,3,10.0097,0.0012207,0.00610352,-2.42592,0.0550706,-0.075063,0.0538228,0.0642565,-0.0916206,0.145929,-0.125766,-0.0810445,0.0217056,0.00423431,0.0107574,0.0201035,0.103416,0.28347,0.0255203,-0.0632095,-9.97986,0.0370407,0.00873566,0.0265503,-0.501671,0.0230789,0.0179291,0.0383759,0.00865936
2,4,10.0097,-0.000305176,0.0050354,-2.42653,0.0541551,-0.0744527,0.054128,0.0682238,-0.0925361,0.145929,-0.125461,-0.0816549,0.0239182,0.0056839,0.0062561,0.0459671,0.105705,0.275726,0.0147629,-0.0582123,-9.97986,0.034523,0.00297546,0.0141144,-0.448341,0.00782013,0.0157166,0.0307465,-7.62939e-005
2,5,10.0097,0.00152588,0.00717163,-2.42684,0.0553758,-0.0753682,0.0544332,0.0813463,-0.090705,0.145013,-0.125766,-0.0819601,0.026207,0.0118256,0.0142288,0.0481415,0.116577,0.286636,0.0214386,-0.041008,-9.97986,0.041008,0.0118637,0.0136566,-0.380287,0.00946045,0.0257111,0.0300217,0.00652313
2,6,10.0097,0.0012207,0.00701904,-2.42837,0.0535448,-0.075063,0.0522969,0.0810411,-0.0934516,0.144403,-0.125156,-0.0844015,0.0203323,0.0180817,0.0123596,0.0467682,0.126534,0.281754,0.0189972,-0.053978,-9.97986,0.0402451,-0.0069809,0.00644684,-0.319824,-0.000457764,0.0261307,0.0255203,0.00457764
2,7,10.0097,0.000915527,0.0062561,-2.42867,0.0535448,-0.0753682,0.0529073,0.0731066,-0.0961982,0.143792,-0.126682,-0.0844015,0.0154877,0.0153351,0.0190353,0.0613785,0.12886,0.278893,0.0265121,-0.0529861,-9.97986,0.0399017,-0.0118256,0.00911713,-0.265656,-0.000686646,0.0278091,0.030899,0.010376
2,8,10.0097,0.00274658,0.00534058,-2.42867,0.0538499,-0.075063,0.0513814,0.0694445,-0.0949775,0.143487,-0.127598,-0.0856222,0.0167084,0.022583,0.0230408,0.0510788,0.130997,0.281525,0.0224686,-0.0508881,-9.97986,0.0424576,0.000915527,0.0050354,-0.213165,-0.00679016,0.0285721,0.0337219,0.00865936
2,9,10.0097,0.0012207,0.00427246,-2.42837,0.0538499,-0.0768941,0.0522969,0.0682238,-0.0955879,0.144098,-0.127598,-0.0868429,0.0124359,0.0303268,0.0176239,0.0395966,0.133514,0.280113,0.0242996,-0.0216675,-9.97986,0.0391388,0.0114441,0.00324249,-0.170593,-0.00938416,0.0319672,0.0336075,0.00957489
3,0,10.0097,0.0012207,0.00427246,-2.42898,0.0535448,-0.075063,0.0519917,0.0685289,-0.0946723,0.143487,-0.127598,-0.0847066,0.00854492,0.0328445,0.0199127,0.0333786,0.134697,0.269585,0.0300217,0.0304794,-9.97986,0.0352097,0.0139999,-0.00156403,-0.116463,-0.0127411,0.0313187,0.033493,0.00926971
3,1,10.0097,0.0012207,0.00396729,-2.42898,0.0538499,-0.0768941,0.0522969,0.0691393,-0.0937568,0.144098,-0.127292,-0.085317,0.00591278,0.0323486,0.0255203,0.0340652,0.131721,0.269432,0.0318527,0.0747681,-9.97986,0.0298309,0.0144958,-0.00305176,-0.0654602,-0.00831604,0.0338364,0.0341797,0.0114822
3,2,10.0097,0.00213623,0.00488281,-2.42806,0.0541551,-0.0756734,0.0532125,0.0697496,-0.0943672,0.144708,-0.126987,-0.0850118,0.0131226,0.0273895,0.0315857,0.0383759,0.134583,0.265121,0.0318146,0.115089,-9.97986,0.0244904,0.0213242,-0.00541687,-0.0163269,0.00114441,0.0350189,0.0320435,0.0119019
3,3,10.0097,0.000610352,0.00473022,-2.42776,0.0553758,-0.0747579,0.0538228,0.0691393,-0.0934516,0.143792,-0.126682,-0.0837911,0.00858307,0.0287247,0.0411224,0.0366592,0.137901,0.258446,0.0327301,0.166397,-9.97986,0.0140381,0.0107574,-0.00747681,0.0296783,0.0043869,0.0341797,0.0400543,0.0153732
3,4,10.0097,-0.0012207,0.00534058,-2.42745,0.0550706,-0.0759786,0.0513814,0.0694445,-0.0937568,0.144403,-0.125766,-0.0828756,-0.00183105,0.0304794,0.0283432,0.0363159,0.135918,0.246353,0.0383377,0.184097,-9.97986,0.0105667,-0.000572205,-0.00904083,0.0844574,0.00671387,0.0386047,0.0350189,0.0138092
3,5,10.0097,0.0012207,0.00518799,-2.42653,0.0553758,-0.0738423,0.0535176,0.0694445,-0.0925361,0.146539,-0.124851,-0.0813497,-0.00717163,0.0226212,0.0183868,0.0337982,0.136642,0.24395,0.0318146,0.153008,-9.97986,0.0159073,-0.00541687,-0.0151062,0.13443,0.0114822,0.0402069,0.0409698,0.0124359
3,6,10.0097,-0.000915527,0.00549316,-2.42409,0.0559862,-0.0744527,0.0550435,0.0709703,-0.0928413,0.147149,-0.124546,-0.0798238,-0.0125122,0.0218201,0.0404358,0.0292587,0.132523,0.234337,0.0332642,0.0965118,-9.97986,0.00434875,-0.00225067,-0.0166702,0.189705,0.00171661,0.0373077,0.0407791,0.014801
3,7,10.0097,-0.00366211,0.00442505,-2.42623,0.0578172,-0.0738423,0.0562642,0.0709703,-0.0919257,0.146539,-0.12363,-0.0798238,-0.00854492,0.043869,0.0579834,0.0392914,0.131798,0.225639,0.0333405,-0.00473022,-9.97986,-0.0115967,0.00919342,-0.0148392,0.227966,-0.000724792,0.0395584,0.0402832,0.0147247
3,8,10.0097,-0.000610352,0.00457764,-2.42531,0.0562914,-0.0735371,0.0550435,0.0706652,-0.0913154,0.14776,-0.126072,-0.080129,0.00583649,0.0617599,0.0782013,0.0441742,0.132484,0.209961,0.0333023,-0.151291,-9.97986,-0.0195694,0.00850677,-0.0196457,0.271645,-0.00549316,0.0437927,0.0442123,0.016861
3,9,10.0097,0.00213623,0.00396729,-2.42409,0.0562914,-0.0735371,0.0547383,0.0718859,-0.0919257,0.146234,-0.123325,-0.0798238,0.0148773,0.0680542,0.0951767,0.0381851,0.126419,0.200806,0.0376892,-0.140724,-9.97986,-0.0154877,0.00370026,-0.0208664,0.294342,-0.014801,0.0387955,0.0427628,0.0179291
4,0,10.0097,0.00152588,0.00289917,-2.4247,0.0565965,-0.0744527,0.0544332,0.0712755,-0.0919257,0.14776,-0.124851,-0.0807394,0.0380325,0.065155,0.096817,0.0157547,0.128288,0.191879,0.0326538,-0.050621,-9.97986,-0.00564575,0.00713348,-0.0202179,0.328903,-0.0148773,0.0304413,0.0452423,0.0185776
4,1,10.0097,-0.0012207,0.00427246,-2.42623,0.055681,-0.0744527,0.054128,0.0578478,-0.0928413,0.145318,-0.123325,-0.0804342,0.0569534,0.0674057,0.108833,0.00102997,0.125961,0.179062,0.0384521,-0.0817108,-9.97986,-0.0031662,0.0126648,-0.021286,0.360947,-0.0164795,0.0229263,0.0447083,0.020752
4,2,10.0097,0.000305176,0.00244141,-2.42592,0.0553758,-0.0723164,0.0529073,0.0566271,-0.0937568,0.146539,-0.125766,-0.0810445,0.0403976,0.0970459,0.125084,-0.0218582,0.120316,0.160599,0.0366211,-0.125847,-9.97986,0.00518799,0.019455,-0.0223541,0.396461,-0.0203705,0.0114822,0.0474167,0.0222397
4,3,10.0097,-0.000305176,0.00213623,-2.42776,0.0550706,-0.0735371,0.0535176,0.0627306,-0.0925361,0.146234,-0.125156,-0.0816549,0.0119019,0.145149,0.1297,-0.0429535,0.119553,0.153351,0.0345612,-0.117416,-9.97986,0.00740051,0.0200653,-0.0232697,0.413551,-0.0239563,0.0138855,0.0506973,0.0211716
4,4,10.0097,-0.000305176,0.00305176,-2.42562,0.0544603,-0.0747579,0.0532125,0.0706652,-0.0928413,0.144403,-0.124241,-0.0822652,0.00198364,0.132408,0.102196,-0.0645828,0.119972,0.140114,0.034523,-0.0966263,-9.97986,0.00717163,0.0139236,-0.0250244,0.435219,-0.0249481,0.0240707,0.0515366,0.0214767
4,5,10.0097,0,0.00198364,-2.42684,0.0553758,-0.0753682,0.0553487,0.0843981,-0.090705,0.143487,-0.124851,-0.0834859,0.0104523,0.0790405,0.0413132,-0.11261,0.122833,0.123062,0.0355148,-0.0733948,-9.97986,0.0261688,0.0177765,-0.0307846,0.452766,-0.0220108,0.0284195,0.0513458,0.0239182
4,6,10.0097,0,0.00289917,-2.42867,0.0529344,-0.0762837,0.0522969,0.0785997,-0.0943672,0.143182,-0.126072,-0.0850118,0.0138092,0.0479126,0.00713348,-0.156097,0.116158,0.105743,0.0334167,-0.0422668,-9.97986,0.0338745,0.0171661,-0.0341415,0.481148,-0.0233078,0.0375748,0.0476837,0.0245667
4,7,10.0097,0.000305176,0.00167847,-2.42867,0.0532396,-0.0753682,0.0519917,0.0734117,-0.095893,0.142572,-0.123935,-0.085317,0.0157928,0.00106812,-0.0224304,-0.184479,0.114555,0.0934982,0.0333023,0.00167847,-9.97986,0.0424957,0.00720978,-0.0313187,0.503922,-0.0207138,0.044632,0.0453568,0.0244904
4,8,10.0097,0.000915527,0.00167847,-2.42867,0.0535448,-0.0762837,0.0516866,0.0712755,-0.0946723,0.141961,-0.127598,-0.0865377,0.0162506,-0.0582123,-0.0410843,-0.140648,0.112877,0.0811386,0.037117,0.0225449,-9.97986,0.0526428,0.000228882,-0.034523,0.523148,-0.0210571,0.0505066,0.0465775,0.0268173
4,9,10.0097,0.000305176,0.00106812,-2.42928,0.0550706,-0.0762837,0.0532125,0.0688341,-0.0943672,0.144098,-0.127903,-0.0874532,0.0135803,-0.0572968,-0.0438309,-0.0730133,0.118065,0.0648499,0.0333405,0.00682831,-9.97986,0.0499725,-0.000495911,-0.0353241,0.538521,-0.0216293,0.0482178,0.0415039,0.0281525
5,0,10.0097,-0.000610352,0.00152588,-2.42928,0.0529344,-0.0762837,0.0519917,0.0688341,-0.0955879,0.143792,-0.128208,-0.0868429,0.0170898,-0.0225067,-0.0563431,-0.0426865,0.116577,0.0521469,0.0334167,-0.0399017,-9.97986,0.050354,0.0151443,-0.0380325,0.551643,-0.0203323,0.0443268,0.043335,0.0298691
5,1,10.0097,-0.000610352,0.00213623,-2.42898,0.0538499,-0.0753682,0.0535176,0.0685289,-0.0946723,0.143792,-0.127292,-0.0859274,0.0222397,-0.0153732,-0.0746918,0.0565338,0.11425,0.0431061,0.0286484,-0.0518417,-9.97986,0.0457764,0.00938416,-0.0387955,0.576286,-0.0200653,0.0356293,0.0432968,0.0279999
5,2,10.0097,0,0.00152588,-2.42837,0.0544603,-0.0744527,0.050771,0.0688341,-0.0943672,0.142877,-0.127292,-0.085317,0.0206375,-0.0388336,-0.10582,0.131607,0.111275,0.0272751,0.0257492,-0.0152969,-9.97986,0.0445175,0.00339508,-0.0365829,0.601463,-0.0203323,0.030632,0.0415039,0.030899
5,3,10.0097,-0.00152588,0.00106812,-2.42745,0.0553758,-0.0753682,0.0532125,0.0682238,-0.0934516,0.144403,-0.126072,-0.0840963,0.0146484,-0.0774765,-0.104713,0.122604,0.111809,0.0123596,0.0307083,0.00717163,-9.97986,0.0362396,-0.00919342,-0.0417709,0.611305,-0.0170135,0.0224304,0.039444,0.0337219
5,4,10.0097,-0.000610352,0.00106812,-2.42684,0.0547655,-0.0753682,0.0532125,0.0709703,-0.094062,0.144098,-0.125766,-0.0844015,0.0125122,-0.111656,-0.0948715,0.0515747,0.117188,0.00469208,0.0244904,0.00297546,-9.97986,0.0317764,-0.025177,-0.0429535,0.613899,-0.0139236,0.0179291,0.0352859,0.0312042
5,5,10.0097,0.00152588,0.000762939,-2.42653,0.0565965,-0.0744527,0.0571797,0.0715807,-0.0919257,0.145318,-0.125766,-0.0825704,0.00450134,-0.132217,-0.0821686,-0.00972748,0.110855,-0.00854492,0.0210953,-0.0285721,-9.97986,0.0254822,0.00583649,-0.0443268,0.626831,-0.0102615,0.0104141,0.034256,0.0291061
5,6,10.0097,0.000610352,0.00152588,-2.42562,0.0562914,-0.0744527,0.0544332,0.0697496,-0.0919257,0.146234,-0.124241,-0.0810445,0.00324249,-0.111237,-0.0526047,-0.0449753,0.113564,-0.0198746,0.0180054,-0.0402451,-9.97986,0.0165939,0.0306702,-0.0419617,0.634956,-0.00816345,0.00087738,0.0326538,0.0261307
5,7,10.0097,0.000915527,0.00137329,-2.42623,0.0562914,-0.0738423,0.0547383,0.07036,-0.0922309,0.147149,-0.124546,-0.0822652,0.0102615,-0.04879,-0.0306702,-0.080986,0.106773,-0.0329971,0.0229645,-0.0327301,-9.97986,0.0148773,0.0201416,-0.0426102,0.648232,-0.00827789,-0.00423431,0.0289154,0.0266266
5,8,10.0097,0.000915527,0.000762939,-2.4244,0.0565965,-0.0762837,0.0553487,0.0709703,-0.0928413,0.14837,-0.125461,-0.0810445,0.0104904,-0.000114441,-0.0270462,-0.0402832,0.108032,-0.0433731,0.0230408,-0.0306702,-9.97986,0.00453949,0.0272369,-0.0475693,0.650368,-0.00434875,-0.020752,0.031395,0.0306702
5,9,10.0097,-0.000610352,0.000762939,-2.42348,0.0559862,-0.0738423,0.0556539,0.0709703,-0.0919257,0.14837,-0.12363,-0.0804342,0.0141525,0.0144577,-0.0271988,0.0159073,0.100594,-0.0525665,0.019989,0.00125885,-9.97986,0.00614166,0.0262833,-0.0391769,0.652199,-0.00732422,-0.0273514,0.0292587,0.0290298
6,0,10.0097,0.00152588,0.000762939,-2.42623,0.0553758,-0.0729268,0.0535176,0.0715807,-0.0910102,0.147455,-0.123935,-0.0807394,0.0115967,0.0276184,-0.0123596,-0.00179291,0.104218,-0.0642395,0.0185394,0.026207,-9.97986,0.0127411,0.0137711,-0.0418091,0.658112,-0.00518799,-0.0107193,0.0291061,0.0331879
6,1,10.0097,0.0012207,0.000762939,-2.42562,0.0569017,-0.073232,0.054128,0.058153,-0.0943672,0.147455,-0.126682,-0.0822652,0.00648499,0.0337601,0.00358582,-0.0228119,0.101433,-0.0708771,0.021286,0.0329208,-9.97986,0.0157928,-0.00347137,-0.037117,0.65712,-0.00442505,-0.000724792,0.0312424,0.0305176
6,2,10.0097,0.00213623,-0.000152588,-2.42653,0.0550706,-0.0741475,0.0538228,0.0569322,-0.0922309,0.146234,-0.126072,-0.0822652,-0.000534058,0.0377274,0.0152588,-0.0323486,0.0991821,-0.0774002,0.0209045,0.0639343,-9.97986,0.0226212,-0.0205994,-0.0424957,0.662193,-0.00354767,0.0120926,0.0305939,0.0311279
6,3,10.0097,0,-0.000915527,-2.42592,0.0550706,-0.075063,0.0535176,0.0642565,-0.0934516,0.147149,-0.124851,-0.0822652,0.000610352,0.0517654,0.0368118,-0.0128937,0.0990677,-0.0900269,0.0239182,0.0737762,-9.97986,0.0306702,0.00106812,-0.0417328,0.658722,0.00270844,0.0270081,0.030098,0.0317764
6,4,10.0097,0.000610352,-0.000762939,-2.42745,0.0553758,-0.0747579,0.0556539,0.0697496,-0.0913154,0.146234,-0.125766,-0.0831808,0.000419617,0.0464249,0.0564575,0.151138,0.0929642,-0.100327,0.0209045,0.0553894,-9.97986,0.0286865,0.0185013,-0.0397873,0.64045,0.00480652,0.0347519,0.0281143,0.0341034
6,5,10.0097,0.00183105,-0.000457764,-2.42592,0.0550706,-0.0735371,0.0553487,0.0831774,-0.0897895,0.145624,-0.124851,-0.0840963,0.00137329,0.0333405,0.0861359,0.301437,0.0954437,-0.103302,0.0240707,0.0642776,-9.97986,0.023613,0.019455,-0.0386047,0.618629,0.00576019,0.0408173,0.0262833,0.0350571
6,6,10.0097,0.000305176,-0.00106812,-2.42867,0.0538499,-0.0768941,0.0529073,0.0798204,-0.094062,0.145013,-0.127292,-0.0865377,-0.00389099,0.0344467,0.1091,0.259285,0.087204,-0.105858,0.0242233,0.0724792,-9.97986,0.0183487,0.00946045,-0.0404358,0.596199,0.0128174,0.0368881,0.0286102,0.0336838
6,7,10.0097,0.000610352,-0.00274658,-2.42867,0.0532396,-0.0744527,0.0522969,0.0724962,-0.0946723,0.145013,-0.127903,-0.0886739,0.000190735,0.0566864,0.123634,0.169296,0.0866699,-0.113831,0.0288773,0.0722504,-9.97986,0.014267,0.0104904,-0.0344086,0.557289,0.0108719,0.0255585,0.0267792,0.0325775
6,8,10.0097,0.0012207,-0.00366211,-2.42867,0.0535448,-0.0762837,0.0532125,0.0712755,-0.0952827,0.144098,-0.127292,-0.0874532,0.00350952,0.0691223,0.111313,0.138817,0.0777817,-0.120621,0.0231934,0.0812912,-9.97986,0.0130844,0.018692,-0.0324249,0.518799,0.0127411,0.0276947,0.0270462,0.0321198
6,9,10.0097,0.000305176,-0.0038147,-2.4305,0.0541551,-0.075063,0.0516866,0.0679186,-0.094062,0.143182,-0.128208,-0.0883688,0.00087738,0.0830841,0.0967407,0.119171,0.0795364,-0.119171,0.0267029,0.0840378,-9.97986,0.00278473,0.0137711,-0.0327301,0.48069,0.0156784,0.0261688,0.0302124,0.0297546
7,0,10.0097,-0.000305176,-0.00442505,-2.4305,0.0523241,-0.075063,0.0516866,0.0676134,-0.0955879,0.143487,-0.126987,-0.0880636,0.00175476,0.0857925,0.080719,0.117912,0.0707245,-0.123177,0.0241852,0.0838089,-9.97986,0.000686646,0.0668335,-0.0341034,0.442314,0.015564,0.0196457,0.0276184,0.0309753
7,1,10.0097,0.000610352,-0.00411987,-2.42837,0.0535448,-0.0753682,0.0529073,0.0688341,-0.0955879,0.143792,-0.127598,-0.0874532,0.0030899,0.0999832,0.0568771,0.128403,0.0630569,-0.135002,0.0282288,0.0936127,-9.97986,-0.00244141,0.116348,-0.0327301,0.402184,0.0239944,0.0165558,0.0253677,0.0273514
7,2,10.0097,0,-0.00488281,-2.42867,0.0541551,-0.075063,0.0529073,0.0694445,-0.094062,0.143487,-0.126682,-0.0871481,-3.8147e-005,0.0972748,0.0426865,0.124016,0.0652695,-0.136642,0.0305557,0.0918198,-9.97986,-0.00789642,0.0975418,-0.0345993,0.360336,0.0285721,0.00648499,0.0266266,0.0297928
7,3,10.0097,-0.000610352,-0.00457764,-2.42684,0.055681,-0.0756734,0.0538228,0.0694445,-0.0943672,0.144098,-0.126072,-0.0859274,-0.00205994,0.095253,0.0396729,0.124397,0.0545502,-0.142365,0.0299072,0.0711823,-9.97986,-0.00961304,0.0563431,-0.0275803,0.310593,0.0272751,0.00534058,0.0274658,0.0299835
7,4,10.0097,0.000305176,-0.00442505,-2.42684,0.0544603,-0.0759786,0.0532125,0.0697496,-0.0934516,0.144403,-0.126682,-0.085317,0.0140381,0.102463,0.0311279,0.113106,0.0530243,-0.148277,0.0351715,0.0683594,-9.97986,-0.00358582,0.0188065,-0.0324249,0.256691,0.0275803,0.00263214,0.0304031,0.026741
7,5,10.0097,0.0012207,-0.00442505,-2.42684,0.0559862,-0.0747579,0.0529073,0.0688341,-0.0925361,0.144708,-0.125156,-0.0847066,0.0216293,0.104828,0.0172424,0.0841522,0.0510025,-0.15667,0.035553,0.0917816,-9.97986,-0.00171661,-0.0292969,-0.0254059,0.202332,0.0336456,0.00244141,0.0318527,0.0276184
7,6,10.0097,-0.00183105,-0.00411987,-2.42531,0.0569017,-0.0729268,0.0556539,0.0712755,-0.0919257,0.146539,-0.124851,-0.0825704,0.0241852,0.0985336,-0.00907898,0.0570297,0.0452042,-0.160789,0.0324249,0.0817108,-9.97986,-0.00450134,-0.0857544,-0.0258636,0.161705,0.0323486,0.00640869,0.0323868,0.0245667
7,7,10.0097,0,-0.00457764,-2.42592,0.0569017,-0.0744527,0.0547383,0.0709703,-0.0900947,0.145318,-0.126072,-0.0822652,0.0203323,0.0705338,-0.0239563,0.0217438,0.0414658,-0.160751,0.0384903,0.0658035,-9.97986,0.00988007,-0.116043,-0.0291061,0.117607,0.0365448,0.0063324,0.0335312,0.0252151
7,8,10.0097,0.000305176,-0.00518799,-2.42562,0.0565965,-0.0744527,0.0556539,0.0715807,-0.0928413,0.145318,-0.123935,-0.0834859,0.0187302,0.0225449,-0.0265121,0.0101089,0.037117,-0.162315,0.0313568,0.0733948,-9.97986,0.0161743,-0.0730133,-0.0220871,0.0537109,0.0349426,0.00106812,0.0386047,0.023613
7,9,10.0097,-0.000915527,-0.00457764,-2.4247,0.0565965,-0.0771993,0.0556539,0.0706652,-0.0913154,0.147455,-0.12363,-0.0822652,0.0184631,0.0146484,-0.0264359,0.0342178,0.0362778,-0.164108,0.0321198,0.0366974,-9.97986,0.0199509,-0.0128937,-0.0248337,0.0063324,0.0350189,-0.00686646,0.0371552,0.0211334
8,0,10.0097,0.00183105,-0.00427246,-2.42501,0.0569017,-0.0738423,0.055959,0.0715807,-0.0928413,0.145013,-0.12363,-0.0825704,0.0198364,0.0571442,-0.0201797,0.0390244,0.0279617,-0.164719,0.0300598,0.0025177,-9.97986,0.0192261,0.00415802,-0.0205231,-0.0411606,0.0385666,-0.0157928,0.0411606,0.0196075
8,1,10.0097,-0.0012207,-0.00534058,-2.42714,0.0559862,-0.0741475,0.0519917,0.0557115,-0.0943672,0.146234,-0.125766,-0.0831808,0.0169754,0.0763321,-0.0185013,0.0437927,0.0252151,-0.161705,0.0342941,-0.00537872,-9.97986,0.0194168,0.0473022,-0.0261307,-0.0889206,0.0392151,-0.0165558,0.0387573,0.0157547
8,2,10.0097,-0.000610352,-0.0050354,-2.42592,0.0562914,-0.0735371,0.0544332,0.0572374,-0.0925361,0.144098,-0.125461,-0.0834859,0.0189209,0.0286484,-0.0386047,0.0358582,0.0185013,-0.163345,0.0297165,0.00358582,-9.97986,0.0293732,0.105629,-0.022316,-0.126534,0.0350571,-0.0123596,0.0390625,0.0151443
8,3,10.0097,-0.000915527,-0.00350952,-2.42592,0.0565965,-0.075063,0.0535176,0.0645616,-0.0925361,0.143182,-0.125461,-0.0834859,0.0186157,-0.0541306,-0.0510025,0.00637054,0.0157928,-0.162277,0.0238037,-0.00709534,-9.97986,0.0292587,0.13092,-0.0228119,-0.167046,0.0328827,-0.00556946,0.041275,0.0139236
8,4,10.0097,0.00152588,-0.00366211,-2.42714,0.0562914,-0.0735371,0.0544332,0.0706652,-0.0922309,0.146539,-0.125461,-0.0847066,0.0106049,-0.0738907,-0.0327301,-0.00720978,0.0150681,-0.15625,0.0284195,-0.0145721,-9.97986,0.0312424,0.152397,-0.0221252,-0.204391,0.031929,-0.0153351,0.0364304,0.0104523
8,5,10.0097,0.00152588,-0.00244141,-2.42714,0.0544603,-0.075063,0.0547383,0.0819567,-0.0903999,0.145013,-0.124546,-0.0850118,0.00965118,-0.0432205,-0.00999451,-0.013504,0.0109482,-0.156708,0.0252533,0.0603867,-9.97986,0.0257874,0.0926971,-0.015564,-0.235748,0.036087,-0.0141907,0.0392914,0.00789642
8,6,10.0097,0.000610352,-0.00167847,-2.42959,0.0535448,-0.0759786,0.0532125,0.0801256,-0.0955879,0.145318,-0.126377,-0.0868429,0.0102615,-0.00305176,0.00217438,-0.0203705,0.0104523,-0.154724,0.0284576,0.100021,-9.97986,0.0175476,0.0169373,-0.0137711,-0.26165,0.0367737,-0.0140762,0.0394821,0.0112915
8,7,10.0097,0.00244141,-0.00244141,-2.42928,0.0541551,-0.0753682,0.0526021,0.07036,-0.0946723,0.145013,-0.126682,-0.0874532,0.00934601,0.0341797,0.0334167,-0.0171661,0.00263214,-0.145607,0.0279617,0.088768,-9.97986,0.00965118,-0.0170517,-0.0201035,-0.286942,0.0350952,-0.022049,0.0386047,0.00831604
8,8,10.0097,0.000915527,-0.00244141,-2.42928,0.0547655,-0.0759786,0.0519917,0.0697496,-0.0955879,0.143487,-0.127292,-0.0862325,0.00694275,0.0547028,0.0761414,-0.0312424,0.00450134,-0.128212,0.0260162,0.0812149,-9.97986,0.00461578,-0.0801086,-0.0149155,-0.303421,0.0328827,-0.0316238,0.0405121,-0.00282288
8,9,10.0097,-0.0012207,-0.00289917,-2.4302,0.0544603,-0.0747579,0.0519917,0.0691393,-0.0955879,0.144403,-0.127598,-0.0880636,-0.000305176,0.0655365,0.102806,-0.0533676,0.0012207,-0.104294,0.0286102,0.0106812,-9.97986,0.00263214,-0.113258,-0.0170135,-0.327568,0.0327301,-0.0344849,0.0388336,-0.0012207
9,0,10.0097,0.000610352,-0.00274658,-2.42898,0.0535448,-0.0756734,0.0522969,0.0694445,-0.0937568,0.142267,-0.127598,-0.0874532,0.00148773,0.0498962,0.0989532,-0.0862885,0.0030899,-0.0769043,0.0278091,-0.0259781,-9.97986,0.0030899,-0.110435,-0.0150681,-0.346718,0.0302124,-0.0309372,0.0431061,-0.00102997
9,1,10.0097,0.00183105,-0.00183105,-2.42959,0.0529344,-0.0753682,0.0535176,0.0685289,-0.0955879,0.143182,-0.127292,-0.0871481,0.0178146,0.0363922,0.0949478,-0.136032,-0.00488281,-0.0543976,0.0210571,-0.0255585,-9.97986,0.00118256,-0.101776,-0.0112915,-0.354004,0.0282288,-0.0210571,0.0386047,-0.00770569
9,2,10.0097,0,-0.0012207,-2.42867,0.0532396,-0.0753682,0.0513814,0.0691393,-0.094062,0.142572,-0.127903,-0.0856222,0.0202942,0.0300598,0.0782776,-0.113449,0.00102997,-0.02285,0.0278854,-0.0440216,-9.97986,0.00846863,-0.0961685,-0.0146484,-0.357475,0.0381851,-0.0139618,0.0382233,-0.00629425
9,3,10.0097,0.000305176,-0.000762939,-2.42745,0.055681,-0.0741475,0.0538228,0.0697496,-0.0925361,0.144403,-0.126377,-0.0856222,0.0118637,0.0255966,0.0481796,-0.0593567,-0.00289917,0.000953674,0.0209045,-0.0442886,-9.97986,0.000724792,-0.0898361,-0.014267,-0.360451,0.0512695,-0.023613,0.0353241,-0.00492096
9,4,10.0097,0.000915527,-0.000457764,-2.42776,0.0547655,-0.0768941,0.0535176,0.0694445,-0.0925361,0.144098,-0.126682,-0.0840963,0.00736237,0.022049,0.0291061,0.0165176,-0.00236511,0.0194168,0.0223541,-0.0452423,-9.97986,-0.0109863,-0.0385284,-0.0102234,-0.370369,0.0538254,-0.0167465,0.0390625,-0.0111008
9,5,10.0097,0.000305176,0,-2.42653,0.0550706,-0.0747579,0.0538228,0.0694445,-0.0919257,0.146844,-0.125461,-0.0834859,0.00385284,0.00679016,0.0281906,0.0572586,-0.00400543,0.046463,0.0242615,-0.0345612,-9.97986,-0.0153351,-0.0298691,-0.01297,-0.364685,0.0582123,-0.00888824,0.0358963,-0.0102615
9,6,10.0097,0.00152588,0.000305176,-2.42501,0.0565965,-0.0744527,0.0547383,0.0709703,-0.0913154,0.146844,-0.12363,-0.0822652,0.0126266,0.00854492,0.0304031,0.00480652,-0.0094986,0.0577927,0.0197601,0.000762939,-9.97986,-0.00991821,-0.0801086,-0.0103378,-0.364265,0.0504684,0.00320435,0.0324631,-0.0146484
9,7,10.0097,0,0.000305176,-2.4247,0.0578172,-0.0714009,0.0553487,0.0718859,-0.0913154,0.14837,-0.125156,-0.0804342,0.00717163,0.0550842,0.0444412,0.0126266,-0.00999451,0.0793076,0.0219727,0.0218582,-9.97986,-0.000457764,-0.0632858,-0.00705719,-0.356216,0.0391769,0.00549316,0.0304031,-0.0172806
9,8,10.0097,0.00183105,0.000762939,-2.42501,0.0553758,-0.0744527,0.0544332,0.0706652,-0.0922309,0.14776,-0.123935,-0.0810445,0.00453949,0.173225,0.0613785,0.0540924,-0.00869751,0.0967789,0.0131989,0.0339508,-9.97986,0.0115967,-0.0319672,-0.00720978,-0.346565,0.0222778,0.00297546,0.0320053,-0.0179291
9,9,10.0097,0,0.00137329,-2.42501,0.055681,-0.0735371,0.0553487,0.0718859,-0.0925361,0.146539,-0.12302,-0.0807394,0.00629425,0.220871,0.0554276,0.0325775,-0.0143433,0.108833,0.00865936,0.047493,-9.97986,0.0311661,-0.0455475,-0.00537872,-0.334053,-0.00152588,0.00148773,0.0286484,-0.0202942
10,0,10.0097,-0.0012207,0.000762939,-2.42623,0.0572069,-0.0744527,0.0562642,0.0709703,-0.0916206,0.141656,-0.123935,-0.080129,0.00301361,0.0379562,-0.0123596,-0.0278091,-0.0126266,0.12001,0.0124359,0.075798,-9.97986,0.0416565,-0.0566864,-0.00694275,-0.319824,-0.0188828,0.00396729,0.0237656,-0.0203705
10,1,10.0097,-0.000305176,0.00167847,-2.42653,0.0559862,-0.0735371,0.0544332,0.0590685,-0.0949775,0.143792,-0.125766,-0.0810445,0.00846863,-0.109406,-0.0525284,-0.0663757,-0.0149918,0.127945,0.00598907,0.0684738,-9.97986,0.0506592,-0.0484467,-0.00537872,-0.29705,-0.0337219,-0.00801086,0.0245667,-0.0235367
10,2,10.0097,0.000915527,0.000457764,-2.42562,0.055681,-0.0741475,0.054128,0.0596788,-0.0931465,0.145929,-0.125156,-0.0810445,0.0206375,-0.0944138,-0.0247574,-0.0157928,-0.0165176,0.142784,0.00831604,0.0539017,-9.97986,0.0424957,-0.00495911,-0.000495911,-0.273857,-0.0394821,-0.00358582,0.0266266,-0.0298309
10,3,10.0097,0.00152588,0.00167847,-2.42653,0.0550706,-0.0759786,0.0532125,0.0642565,-0.0928413,0.146234,-0.126377,-0.0813497,0.0270462,-0.0286865,-7.62939e-005,0.0359726,-0.0222015,0.149536,0.00747681,0.0547791,-9.97986,0.0370789,0.0219727,-0.0050354,-0.255165,-0.0394058,-0.00839233,0.0258636,-0.0275803
10,4,10.0097,0.0012207,0.00183105,-2.42653,0.0553758,-0.0744527,0.0550435,0.07036,-0.0913154,0.145929,-0.124851,-0.0825704,0.018158,0.0365448,0.0113297,0.0671005,-0.0193787,0.159492,0.00778198,0.039444,-9.97986,0.0275421,-0.000724792,0.00110626,-0.239067,-0.0402069,-0.0107574,0.0262833,-0.0262451
10,5,10.0097,-0.000915527,0.00335693,-2.42653,0.0547655,-0.0747579,0.054128,0.0822618,-0.0913154,0.147149,-0.124851,-0.0828756,0.0174332,0.0697708,0.00659943,0.0539017,-0.0191879,0.164413,0.00785828,0.00377655,-9.97986,0.0128937,0.00190735,-0.00389099,-0.209618,-0.0340271,-0.0131607,0.02285,-0.0271988
10,6,10.0097,0.000610352,0.00213623,-2.42806,0.0535448,-0.073232,0.054128,0.0782946,-0.0937568,0.143487,-0.126987,-0.0865377,0.0130463,0.0517654,0.00228882,0.00377655,-0.024147,0.17086,0,-0.0374985,-9.97986,0.0147629,-0.0128937,0.00274658,-0.190125,-0.0233078,-0.0231552,0.0241852,-0.0281143
10,7,10.0097,-0.000305176,0.00198364,-2.42898,0.0541551,-0.0756734,0.0516866,0.0724962,-0.0949775,0.143487,-0.127598,-0.0859274,0.0163269,-0.00209808,-0.00572205,-0.0173187,-0.0220871,0.178528,0.00305176,-0.0696564,-9.97986,0.0136566,-0.0476456,0.00228882,-0.167885,-0.017395,-0.0262833,0.0219345,-0.0289917
10,8,10.0097,0.000915527,0.00259399,-2.42837,0.0541551,-0.0756734,0.054128,0.0694445,-0.0946723,0.142877,-0.126987,-0.0859274,0.0161743,-0.0578308,-0.0328827,-0.0268936,-0.0349426,0.176926,0.00106812,-0.0614166,-9.97986,0.0118637,-0.0721359,0.0018692,-0.136261,-0.00778198,-0.0337601,0.0197601,-0.029335
10,9,10.0097,0.0012207,0.00152588,-2.42867,0.0541551,-0.0762837,0.0522969,0.0694445,-0.095893,0.143792,-0.127292,-0.0859274,0.00995636,-0.0515366,-0.0213242,-0.030098,-0.038414,0.176048,-0.00453949,-0.0269318,-9.97986,0.0113297,-0.098381,0.00217438,-0.116539,-0.00522614,-0.0341797,0.0200272,-0.0302887
11,0,10.0097,-0.000305176,0.00198364,-2.42898,0.0544603,-0.075063,0.0510762,0.07036,-0.0946723,0.145624,-0.127292,-0.0859274,0.00778198,-0.0444031,0.0179291,-0.00110626,-0.0390625,0.174332,-0.000610352,-0.0598145,-9.97986,0.0144958,-0.0865173,-0.000152588,-0.0925827,-0.0044632,-0.0344849,0.0176239,-0.0310898
11,1,10.0097,-0.000610352,0.00244141,-2.42867,0.0541551,-0.0762837,0.0519917,0.0688341,-0.0949775,0.143792,-0.127292,-0.0868429,0.0116348,-0.0304794,0.0330353,-0.00663757,-0.03685,0.172806,0.000190735,-0.0954437,-9.97986,0.0152588,-0.0358582,0.00606537,-0.0574875,0.000228882,-0.0318909,0.0128937,-0.0318146
11,2,10.0097,0,0.00259399,-2.42959,0.0544603,-0.0759786,0.0529073,0.0676134,-0.0943672,0.144708,-0.126377,-0.0856222,0.00900269,-0.00297546,0.0244141,-0.0318146,-0.0378799,0.173798,0.00598907,-0.07164,-9.97986,0.00209808,0.00770569,0.00823975,-0.0274277,-0.0056076,-0.0292587,0.0122833,-0.0337601
11,3,10.0097,0.000610352,0.00305176,-2.42714,0.0550706,-0.075063,0.0532125,0.0694445,-0.094062,0.144098,-0.126682,-0.0844015,0.00648499,0.00534058,-0.00198364,-0.0286102,-0.0365448,0.16571,0.00232697,-0.0576401,-9.97986,0.00209808,0.043335,0.00801086,0.0030899,-0.00762939,-0.032692,0.0110245,-0.0329971
11,4,10.0097,-0.000610352,0.00335693,-2.42653,0.0562914,-0.0741475,0.0538228,0.0700548,-0.0931465,0.145013,-0.126377,-0.0837911,0.0137329,-0.0274277,-0.0310516,-0.0534058,-0.0348663,0.164185,0.00659943,-0.0770187,-9.97986,0.00392914,0.0530243,0.0111008,0.0395584,-0.0158691,-0.0331116,0.00984192,-0.0333405
11,5,10.0097,0.00152588,0.00350952,-2.42623,0.0569017,-0.0747579,0.0544332,0.0700548,-0.0934516,0.145624,-0.124851,-0.0831808,0.0082016,-0.0297165,-0.0385284,-0.113335,-0.0372696,0.150757,0.00320435,-0.0731659,-9.97986,-0.0056839,0.059166,0.0108337,0.0722504,-0.0253296,-0.0300598,0.00610352,-0.0368881
11,6,10.0097,0.00152588,0.00411987,-2.42562,0.0562914,-0.0735371,0.0556539,0.0715807,-0.0922309,0.14776,-0.125156,-0.0810445,0.00751495,0.00537872,-0.0328445,-0.115891,-0.0226593,0.149803,0.0088501,-0.0297928,-9.97986,-0.00343323,0.08564,0.0166702,0.113029,-0.0244141,-0.0279236,0.0149155,-0.0335693
11,7,10.0097,0.000305176,0.00274658,-2.42623,0.0559862,-0.0738423,0.0532125,0.0715807,-0.0916206,0.146234,-0.12363,-0.0798238,0.00347137,-0.0131226,-0.045433,-0.0714111,-0.0221634,0.144424,0.0122833,0.010643,-9.97986,0.010376,0.0715256,0.0100327,0.136147,-0.027771,-0.0355148,0.00770569,-0.0355148
11,8,10.0097,-0.000305176,0.00350952,-2.4247,0.0553758,-0.0762837,0.0547383,0.07036,-0.0903999,0.144708,-0.125156,-0.0804342,0.00976563,-0.066452,-0.0620651,-0.082283,-0.0229645,0.137405,0.0134277,0.00663757,-9.97986,0.0211334,0.0468445,0.015831,0.175362,-0.0202942,-0.0250244,0.0114059,-0.0348663
11,9,10.0097,-0.000305176,0.00350952,-2.42501,0.0572069,-0.0729268,0.055959,0.0709703,-0.0913154,0.145624,-0.123935,-0.0807394,0.0165558,-0.104103,-0.0807571,-0.123291,-0.0189209,0.13649,0.0157928,-0.0188828,-9.97986,0.010643,0.0310135,0.0132751,0.210342,-0.0171661,-0.0227356,0.0113678,-0.0327682
12,0,10.0097,-0.000610352,0.00305176,-2.42776,0.0565965,-0.0741475,0.0535176,0.07036,-0.0919257,0.14776,-0.123935,-0.080129,0.00984192,-0.0975037,-0.073967,-0.161171,-0.0198746,0.124435,0.0141907,-0.0152969,-9.97986,3.8147e-005,-0.0202942,0.0130081,0.241356,-0.0134277,-0.0242615,0.0063324,-0.0351334
12,1,10.0097,0.00152588,0.00396729,-2.42653,0.0550706,-0.0744527,0.0535176,0.0557115,-0.0943672,0.146844,-0.124851,-0.0810445,-0.00419617,-0.067215,-0.0650024,-0.186615,-0.0266647,0.114479,0.0102615,0.0488663,-9.97986,-0.0169373,-0.0492096,0.0130844,0.277748,-0.00747681,-0.0268173,0.00663757,-0.0394821
12,2,10.0097,0.00152588,0.00259399,-2.42623,0.0575121,-0.0738423,0.0532125,0.0575426,-0.0916206,0.146234,-0.125156,-0.0822652,0.00267029,-0.0539017,-0.0629807,-0.149078,-0.0234604,0.112915,0.0154114,0.10788,-9.97986,-0.015564,-0.0233841,0.0152206,0.303612,-0.00492096,-0.0301743,0.00759125,-0.033989
12,3,10.0097,0.00366211,0.00213623,-2.42623,0.0562914,-0.0756734,0.0547383,0.0639513,-0.0928413,0.146539,-0.125766,-0.0807394,0.0062561,-0.0130081,-0.0269318,-0.0452805,-0.0233459,0.102196,0.0108719,0.1371,-9.97986,-0.0146484,0.017128,0.0177383,0.327721,-0.00400543,-0.0347519,0.00427246,-0.0369644
12,4,10.0097,0.00274658,0.00320435,-2.42653,0.055681,-0.0744527,0.054128,0.0694445,-0.0922309,0.146539,-0.125461,-0.0822652,0.00850677,0.0531006,0.0317764,-0.00766754,-0.017128,0.0971222,0.0191116,0.162239,-9.97986,-0.00766754,0.0463104,0.0184631,0.354424,0.00259399,-0.0287628,0.00854492,-0.032692
12,5,10.0097,0.000305176,0.0038147,-2.42623,0.0550706,-0.075063,0.0544332,0.0834825,-0.0919257,0.146234,-0.124546,-0.0822652,0.00366211,0.0791168,0.0372314,-0.0490189,-0.0214386,0.0851822,0.0124359,0.133171,-9.97986,0.00175476,0.02491,0.0194931,0.384178,0.00926971,-0.0352859,0.00671387,-0.0365067
12,6,10.0097,0.00213623,0.00350952,-2.42714,0.0538499,-0.0759786,0.0529073,0.0779894,-0.094062,0.145013,-0.126072,-0.0856222,-0.000114441,0.113029,0.0498199,-3.8147e-005,-0.0213242,0.0769043,0.0129318,0.120544,-9.97986,0.0069809,-0.0170135,0.0191498,0.410309,0.00537872,-0.0283051,0.00850677,-0.0331879
12,7,10.0097,-0.000305176,0.00213623,-2.42837,0.0544603,-0.0765889,0.0532125,0.0715807,-0.0955879,0.144098,-0.126377,-0.085317,0.00453949,0.157509,0.0955963,0.0545502,-0.0127792,0.0722885,0.0178909,0.106659,-9.97986,0.00808716,-0.0470352,0.0200272,0.421257,0.00141144,-0.020752,0.0115585,-0.0349808
12,8,10.0097,0,0.0012207,-2.42959,0.0535448,-0.0756734,0.0529073,0.0712755,-0.0946723,0.142877,-0.127292,-0.085317,0.0178528,0.132103,0.126991,0.113144,-0.0131989,0.0648117,0.0214767,0.0601959,-9.97986,0.021286,-0.0601959,0.0192642,0.429382,0.000991821,-0.017395,0.00835419,-0.0341415
12,9,10.0097,0.00183105,0.000762939,-2.42837,0.0523241,-0.0753682,0.0519917,0.0700548,-0.094062,0.143792,-0.127598,-0.0859274,0.0178909,0.0966644,0.172119,0.2034,-0.00976563,0.0648117,0.020256,0.0540161,-9.97986,0.0278091,-0.0414276,0.0240326,0.441055,-0.00305176,-0.00492096,0.010643,-0.0333405
13,0,10.0097,-0.000915527,0.000305176,-2.42898,0.0544603,-0.0744527,0.0510762,0.067003,-0.095893,0.142877,-0.128818,-0.0868429,0.0184631,0.0908279,0.20134,0.122147,-0.0109863,0.0598145,0.0113297,0.0377274,-9.97986,0.0274277,-0.00881195,0.0226974,0.44529,-0.0128555,-0.00457764,0.00839233,-0.0401688
13,1,10.0097,-0.000915527,0.00152588,-2.42898,0.0538499,-0.0747579,0.0535176,0.0688341,-0.0931465,0.142877,-0.128208,-0.0877584,0.0217438,0.104942,0.190964,-0.029335,-0.00370026,0.0616837,0.0202942,0.000801086,-9.97986,0.0389481,0.00553131,0.0314331,0.469971,-0.00301361,0.00385284,0.0191879,-0.0294113
13,2,10.0097,-0.000915527,0.000915527,-2.42806,0.0553758,-0.0756734,0.0516866,0.0688341,-0.094062,0.144098,-0.126072,-0.0856222,0.00370026,0.120926,0.151863,-0.0875092,-0.0111771,0.0502396,0.012207,-0.0952148,-9.97986,0.0270081,-0.035553,0.0243378,0.474625,-0.00434875,-0.00587463,0.01297,-0.0377274
13,3,10.0097,-0.00335693,0.000915527,-2.42684,0.0544603,-0.0744527,0.0529073,0.0694445,-0.094062,0.145013,-0.126072,-0.0850118,0.000190735,0.155373,0.135689,0.0624847,-0.000762939,0.0522995,0.0110245,-0.203171,-9.97986,0.0283051,0.00919342,0.0200653,0.483475,-0.00274658,-0.0267792,0.0100327,-0.0362396
13,4,10.0097,0.00183105,0.00137329,-2.42776,0.0541551,-0.0747579,0.054128,0.0685289,-0.0925361,0.143182,-0.125766,-0.0819601,0.00297546,0.11261,0.0805664,0.302086,0.0038147,0.0534821,0.0114822,-0.186081,-9.97986,0.0334549,0.0977325,0.0349808,0.489044,0.00804901,-0.0382233,0.0203705,-0.0333786
13,5,10.0097,-0.000305176,0,-2.42623,0.0553758,-0.0744527,0.054128,0.0700548,-0.0928413,0.144098,-0.125766,-0.0837911,-0.00717163,0.016861,-0.0117874,0.298729,-0.00667572,0.0455475,0.00831604,-0.109253,-9.97986,0.0216293,0.0863266,0.0268173,0.485497,0.00728607,-0.0432205,0.0133896,-0.0322342
13,6,10.0097,-0.000915527,0.000915527,-2.42501,0.0565965,-0.0723164,0.0553487,0.0724962,-0.090705,0.143792,-0.124546,-0.0813497,-0.00267029,-0.014267,-0.067215,0.221748,0.00484467,0.0445175,0.0159454,-0.0539398,-9.97986,0.0201035,0.0568008,0.0292587,0.481339,0.00858307,-0.0282669,0.0152588,-0.0322723
13,7,10.0097,-0.00152588,0.000305176,-2.4247,0.0562914,-0.0741475,0.054128,0.0706652,-0.0910102,0.145318,-0.124546,-0.0819601,0.00480652,-0.034523,-0.0989151,0.215263,0.00465393,0.0376892,0.00469208,-0.0479889,-9.97986,0.0241852,0.0643921,0.0264359,0.487061,0.0125504,-0.0181961,0.019455,-0.030098
13,8,10.0097,-0.000305176,0.000610352,-2.42592,0.0572069,-0.0744527,0.0550435,0.0715807,-0.0919257,0.145624,-0.12363,-0.0816549,0.0172043,-0.0357056,-0.0951767,0.164566,0.00320435,0.0344086,-0.0012207,-0.0802612,-9.97986,0.0207138,0.032959,0.0282669,0.488014,0.00328064,0.000114441,0.0186157,-0.0313187
13,9,10.0097,0.00427246,0.00106812,-2.42531,0.0565965,-0.073232,0.0553487,0.0712755,-0.0900947,0.14837,-0.123325,-0.0813497,0.0226212,0.00747681,-0.0619888,0.131073,0.00606537,0.0324631,-0.00453949,-0.0414658,-9.97986,0.0219345,-0.0806046,0.0264359,0.489502,-0.001297,0.00740051,0.0157547,-0.0292587
14,0,10.0097,0.00366211,0.000610352,-2.42379,0.0565965,-0.0744527,0.055959,0.0718859,-0.090705,0.14776,-0.12363,-0.0807394,0.0304413,0.0572586,-0.0373459,0.0955963,0.00598907,0.0363541,-0.0125885,0.0309372,-9.97986,0.0206757,-0.114822,0.026207,0.493279,-0.00339508,0.0159073,0.020256,-0.0247574
14,1,10.0097,-0.000305176,0.000762939,-2.42348,0.0565965,-0.0744527,0.0529073,0.0566271,-0.0946723,0.146539,-0.126072,-0.0816549,0.0333786,0.0160599,-0.0279999,0.0220871,0.00556946,0.029068,-0.0191116,0.0691223,-9.97986,0.0196838,-0.0146484,0.0275421,0.490723,-0.0147629,0.0240326,0.0122452,-0.0251007
14,2,10.0097,-0.00183105,-0.000762939,-2.42653,0.0569017,-0.0738423,0.054128,0.0575426,-0.0928413,0.144708,-0.126377,-0.0819601,0.0376511,-0.0370026,-0.0326538,0.0317764,0.00442505,0.0295258,-0.0170135,0.0793839,-9.97986,0.032196,0.0789642,0.0253296,0.495415,-0.0204086,0.0286102,0.0135803,-0.0254059
14,3,10.0097,0.000305176,-0.000457764,-2.42653,0.0553758,-0.0753682,0.0550435,0.0639513,-0.0922309,0.143182,-0.126072,-0.0825704,0.0307465,-0.0423813,-0.0919342,0.0460434,0.00385284,0.0309372,-0.0164032,0.0714493,-9.97986,0.0468445,0.0743484,0.0232697,0.491867,-0.0283051,0.0222778,0.0180817,-0.0246429
14,4,10.0097,0.000610352,0.000305176,-2.42623,0.0541551,-0.0744527,0.0550435,0.0706652,-0.0913154,0.143487,-0.125766,-0.0828756,0.0252151,-0.0955582,-0.128517,-0.0218201,0.00419617,0.0277328,-0.0189209,0.0304794,-9.97986,0.0641632,0.0746918,0.0260162,0.48912,-0.0336838,0.0122452,0.0193024,-0.0221634
14,5,10.0097,0.000915527,0.000305176,-2.42684,0.0550706,-0.0759786,0.0556539,0.0834825,-0.0919257,0.143487,-0.125461,-0.0828756,0.0131607,-0.149193,-0.118599,-0.0670624,0.00675201,0.0255966,-0.0170135,-0.0680542,-9.97986,0.0649643,0.100708,0.0233841,0.484695,-0.0401306,-0.0117493,0.0209427,-0.0204849
14,6,10.0097,-0.000610352,0.00152588,-2.42806,0.0538499,-0.0756734,0.0522969,0.0779894,-0.0946723,0.143487,-0.127292,-0.0859274,0.00976563,-0.146255,-0.0914764,-0.111122,0.0107193,0.0202942,-0.0163651,-0.053215,-9.97986,0.0678635,0.130692,0.0261688,0.484505,-0.0416946,-0.0292206,0.0143814,-0.0198746
14,7,10.0097,0.00396729,0.000610352,-2.42837,0.0535448,-0.0756734,0.050771,0.072191,-0.0937568,0.145318,-0.126682,-0.0862325,-0.00106812,-0.125732,-0.053978,-0.177689,0.00988007,0.020256,-0.0227737,0.0031662,-9.97986,0.0619888,0.124092,0.0167084,0.493469,-0.044136,-0.0279999,0.018959,-0.0183105
14,8,10.0097,0.0012207,0.0012207,-2.42837,0.0541551,-0.0756734,0.0519917,0.0691393,-0.0952827,0.143792,-0.127292,-0.0862325,0.00141144,-0.094223,-0.0114059,-0.127373,0.0117493,0.0262833,-0.0184631,0.0121689,-9.97986,0.0469589,0.0636292,0.0230789,0.511932,-0.0478745,-0.0283813,0.0192261,-0.0178146
14,9,10.0097,0.00152588,0.00167847,-2.42928,0.0532396,-0.0759786,0.0526021,0.0688341,-0.0946723,0.143792,-0.127598,-0.0865377,-0.00301361,-0.0550842,0.00846863,-0.0606918,0.0143814,0.0258255,-0.018158,0.0135422,-9.97986,0.0350952,0.00888824,0.0225067,0.537605,-0.0499725,-0.0227737,0.0259781,-0.0139618
15,0,10.0097,0.00366211,0.00106812,-2.4305,0.0538499,-0.0762837,0.050771,0.0688341,-0.0946723,0.146234,-0.126987,-0.0865377,-0.00675201,-0.0175476,0.00663757,-0.0143814,0.0104523,0.023613,-0.0183487,0.0832367,-9.97986,0.014267,-0.0234222,0.0190735,0.556183,-0.0513077,-0.00869751,0.0280762,-0.00831604
15,1,10.0097,0.00183105,0.00152588,-2.42745,0.0535448,-0.075063,0.0522969,0.0685289,-0.0943672,0.143792,-0.126987,-0.0865377,-0.0038147,0.0128555,0.0044632,0.0668335,0.0118637,0.0275803,-0.018158,0.170403,-9.97986,0.000267029,-0.0431061,0.0218582,0.572777,-0.0514603,0.0128937,0.0321579,-0.00564575
15,2,10.0097,-0.000305176,0.000762939,-2.42776,0.0547655,-0.0762837,0.0522969,0.0685289,-0.0931465,0.145013,-0.126987,-0.0850118,-0.00492096,0.0328445,0.0154495,0.140762,0.0125122,0.025177,-0.0137329,0.163078,-9.97986,-0.018692,-0.0748825,0.0203323,0.591316,-0.0510788,0.026741,0.0340652,-0.00709534
15,3,10.0097,0.000305176,0.0012207,-2.42776,0.0547655,-0.0759786,0.0526021,0.0691393,-0.0946723,0.144403,-0.126377,-0.0840963,0.00995636,0.0299454,0.0176239,0.198441,0.0138092,0.0302887,-0.0146484,0.103302,-9.97986,-0.041275,-0.0884628,0.0218964,0.606766,-0.0531006,0.0203323,0.03479,-0.00591278
15,4,10.0097,0.00152588,0.000762939,-2.42745,0.0562914,-0.075063,0.054128,0.0682238,-0.094062,0.145013,-0.125766,-0.0837911,0.00988007,0.0294113,0.030899,0.179825,0.014534,0.0358582,-0.0142288,0.0445938,-9.97986,-0.0551224,-0.0538254,0.0230789,0.620041,-0.047226,0.0245285,0.039978,-0.00125885
15,5,10.0097,0.00244141,0.00198364,-2.42684,0.0572069,-0.075063,0.054128,0.0700548,-0.0913154,0.146234,-0.125766,-0.0825704,0.0110626,0.0354004,0.0457382,0.145149,0.0140381,0.0365067,-0.0130463,0.1091,-9.97986,-0.0537491,-0.0201797,0.0183105,0.627708,-0.0480652,0.0318146,0.039711,0
15,6,10.0097,0.000915527,0.000915527,-2.4247,0.0559862,-0.073232,0.0538228,0.0715807,-0.0916206,0.14776,-0.124851,-0.0810445,0.00171661,0.0341415,0.0545502,0.150032,0.0163651,0.0321198,-0.0128937,0.19825,-9.97986,-0.0365448,-0.00587463,0.0168228,0.629921,-0.0554276,0.0295258,0.0379562,-0.000801086
15,7,10.0097,0,0,-2.42409,0.055681,-0.073232,0.0538228,0.07036,-0.0913154,0.148675,-0.124241,-0.0816549,0.000305176,0.0827789,0.0744247,0.125809,0.0169373,0.0356674,-0.0115204,0.111389,-9.97986,-0.0203705,0.0463104,0.0248337,0.622368,-0.0533295,0.0276947,0.040741,0.00114441
15,8,10.0097,0.000915527,-0.00152588,-2.4244,0.0569017,-0.0735371,0.0556539,0.0694445,-0.0910102,0.146844,-0.12363,-0.0819601,-0.00900269,0.116615,0.0798416,0.0922775,0.0148773,0.0370789,-0.0138474,0.0762177,-9.97986,-0.000343323,0.0945282,0.0209808,0.600624,-0.0484467,0.0170517,0.0448227,0.00518799
15,9,10.0097,0.000305176,-0.00106812,-2.42623,0.0565965,-0.0735371,0.0556539,0.0694445,-0.0910102,0.146234,-0.12363,-0.0813497,-0.0087738,0.102692,0.0784302,0.078392,0.016861,0.0418091,-0.0088501,0.109558,-9.97986,0.0196838,0.0789642,0.022049,0.57888,-0.0500488,0.00705719,0.0455475,0.0062561
16,0,10.0097,-0.000610352,-0.00183105,-2.42501,0.0569017,-0.073232,0.0553487,0.0700548,-0.0910102,0.146539,-0.124546,-0.0819601,-0.00644684,0.0813675,0.0651932,0.0500488,0.0152969,0.0365067,-0.0129318,0.0690079,-9.97986,0.0291824,0.0144196,0.0185013,0.560188,-0.0490189,-0.000839233,0.0460052,0.00976563
16,1,10.0097,-0.00152588,-0.00152588,-2.42623,0.0562914,-0.0744527,0.0532125,0.0560167,-0.0943672,0.145318,-0.126377,-0.0819601,0.00953674,0.0925064,0.0561142,0.028038,0.0162125,0.0378799,-0.030632,0.0749969,-9.97986,0.0294495,-0.0523376,0.0209045,0.54306,-0.0513077,-0.00335693,0.0476837,0.00816345
16,2,10.0097,-0.0012207,-0.00320435,-2.42714,0.0559862,-0.0729268,0.0538228,0.0563219,-0.0931465,0.145318,-0.126682,-0.0825704,0.018425,0.101547,0.0662231,0.00911713,0.0179291,0.0318146,-0.0165558,0.0376892,-9.97986,0.0259781,-0.0498962,0.0201797,0.519028,-0.0460052,0.000495911,0.050621,0.0102234
16,3,10.0097,-0.00274658,-0.00244141,-2.42653,0.0559862,-0.075063,0.0550435,0.0630358,-0.0925361,0.147149,-0.125156,-0.0825704,0.0199509,0.100899,0.0670242,-0.00598907,0.0170517,0.0322342,-0.000228882,-0.103645,-9.97986,0.0278854,-0.0111008,0.0236511,0.49202,-0.0458527,-0.0105286,0.0510406,0.01194
16,4,10.0097,0.000915527,-0.00213623,-2.42623,0.0553758,-0.0753682,0.0538228,0.0694445,-0.0928413,0.146234,-0.125766,-0.0831808,0.0163651,0.101089,0.0588608,-0.0321579,0.016861,0.0316238,-0.000839233,-0.151596,-9.97986,0.0231171,-0.024147,0.0220108,0.470009,-0.0435257,-0.014267,0.0528336,0.0128174
16,5,10.0097,0.00213623,-0.00152588,-2.42684,0.0535448,-0.0747579,0.0550435,0.0840929,-0.0903999,0.145624,-0.124546,-0.0837911,0.0177002,0.0909424,0.051918,-0.0517654,0.0154877,0.0301361,0.00289917,-0.084877,-9.97986,0.0189972,-0.0771713,0.0209808,0.451241,-0.0396347,-0.0168228,0.0521469,0.0133133
16,6,10.0097,0.00183105,-0.00137329,-2.43142,0.0544603,-0.0765889,0.0526021,0.0798204,-0.0937568,0.142572,-0.125766,-0.0862325,0.0231934,0.0669098,0.0762939,-0.102692,0.0105667,0.0259399,0.0069809,-0.00263214,-9.97986,0.0142288,-0.0974655,0.0209427,0.427589,-0.0371933,-0.0147629,0.0512314,0.0131989
16,7,10.0097,0.00305176,-0.00152588,-2.42867,0.0541551,-0.0765889,0.0522969,0.0724962,-0.0946723,0.144098,-0.127292,-0.0859274,0.0178146,0.0492096,0.115547,-0.111809,0.00823975,0.0255203,0.0126648,0.0577164,-9.97986,0.0185394,-0.0478363,0.0178528,0.412064,-0.0301361,-0.00469208,0.0549698,0.0166321
16,8,10.0097,0,-0.000762939,-2.42806,0.0532396,-0.0762837,0.0522969,0.0700548,-0.0937568,0.144708,-0.127292,-0.0868429,0.00705719,0.0772095,0.147629,-0.0629807,0.00896454,0.0241852,0.0112152,0.0420761,-9.97986,0.00198364,-0.00766754,0.0205612,0.401306,-0.0269699,3.8147e-005,0.0517654,0.0166702
16,9,10.0097,0.000305176,-0.00152588,-2.42867,0.0538499,-0.0762837,0.0513814,0.0694445,-0.0949775,0.145624,-0.127598,-0.0874532,0.00972748,0.160599,0.151443,-0.0759506,0.0119781,0.0266647,0.0112152,0.0342178,-9.97986,-0.012207,-0.0270844,0.0224304,0.389214,-0.0243378,0.00152588,0.0532913,0.0194168
17,0,10.0097,0.000305176,-0.00106812,-2.4302,0.0535448,-0.0759786,0.0519917,0.0691393,-0.0943672,0.145624,-0.126072,-0.0874532,0.0147629,0.229454,0.138741,-0.113297,0.0082016,0.0274658,0.0177765,0.0219727,-9.97986,-0.0140381,-0.0638962,0.0202179,0.37693,-0.0231934,0.0111771,0.0497055,0.0200272
17,1,10.0097,-0.0012207,-0.00152588,-2.42867,0.0526292,-0.0753682,0.0516866,0.0688341,-0.0943672,0.142572,-0.127292,-0.0871481,0.0128174,0.192795,0.110245,-0.114136,0.0141525,0.0228882,0.0177383,-0.0172806,-9.97986,-0.0128555,-0.0856018,0.0218964,0.373802,-0.0167465,0.0244904,0.0507355,0.0225067
17,2,10.0097,-0.00366211,-0.00228882,-2.42776,0.0538499,-0.0753682,0.0538228,0.07036,-0.0937568,0.141351,-0.126682,-0.0868429,0.0177002,0.0918961,0.0795746,-0.102463,0.00854492,0.0247955,0.0167465,-0.0831985,-9.97986,0.000915527,-0.0668335,0.022049,0.342941,-0.0101471,0.0297928,0.050354,0.0252151
17,3,10.0097,-0.000305176,-0.00305176,-2.42776,0.0550706,-0.075063,0.0519917,0.0700548,-0.0919257,0.143792,-0.126072,-0.085317,0.0312805,0.0745392,0.0760651,-0.0812912,0.0056076,0.018959,0.0185013,-0.179024,-9.97986,0.0151443,-0.0352097,0.0217819,0.303421,-0.00591278,0.023613,0.0509262,0.0263596
17,4,10.0097,0.000610352,-0.00350952,-2.42653,0.055681,-0.0765889,0.054128,0.07036,-0.0928413,0.144098,-0.126377,-0.085317,0.0430679,0.0774765,0.0701523,-0.0431061,0.00869751,0.0183487,0.0207138,-0.195236,-9.97986,0.0163269,-0.018425,0.0251007,0.262566,-0.00221252,0.00740051,0.050087,0.0287628
17,5,10.0097,-0.000610352,-0.0038147,-2.42592,0.0553758,-0.0747579,0.0522969,0.0697496,-0.0913154,0.144403,-0.125766,-0.0850118,0.0484085,0.00946045,0.0396347,-0.0094986,0.00801086,0.0188065,0.0198746,-0.155487,-9.97986,0.0416946,-0.0117111,0.0205994,0.208893,0.00320435,-0.000686646,0.0468445,0.0281143
17,6,10.0097,0.000610352,-0.00457764,-2.42501,0.0559862,-0.0741475,0.0550435,0.0715807,-0.0910102,0.146234,-0.125156,-0.0834859,0.0401688,0.00827789,0.00457764,-0.0336075,0.00541687,0.0152969,0.0197983,-0.154648,-9.97986,0.059967,-0.017128,0.0271988,0.162926,0.00114441,0.00598907,0.0448227,0.0302505
17,7,10.0097,-0.000915527,-0.00442505,-2.42531,0.0562914,-0.0729268,0.054128,0.0712755,-0.0916206,0.146234,-0.125156,-0.0819601,0.0282669,0.00270844,-0.0554276,-0.0883102,0.0120544,0.0176239,0.0205994,-0.122948,-9.97986,0.0775146,-0.018425,0.0270462,0.125275,0.0100708,0.00370026,0.0435638,0.0352859
17,8,10.0097,0.000610352,-0.00305176,-2.4244,0.0575121,-0.0729268,0.0553487,0.0709703,-0.0913154,0.145013,-0.12363,-0.0822652,0.0175858,-0.0667953,-0.108643,-0.149612,0.00213623,0.0172424,0.0156403,-0.0640869,-9.97986,0.0882339,-0.0044632,0.0274277,0.0947952,0.0113297,-0.00766754,0.044632,0.0325394
17,9,10.0097,0.00335693,-0.00259399,-2.42531,0.0569017,-0.0741475,0.054128,0.0731066,-0.0925361,0.146844,-0.123935,-0.0807394,0.00892639,-0.127182,-0.0989532,-0.158424,0.0056076,0.021286,0.0241089,0.000152588,-9.97986,0.0793076,0.0290298,0.0279236,0.0780106,0.0152969,-0.0075531,0.0455856,0.033493
18,0,10.0097,0.00183105,-0.00152588,-2.42562,0.055681,-0.073232,0.0547383,0.0712755,-0.0916206,0.146539,-0.124241,-0.0813497,0.00701904,-0.125351,-0.0596237,-0.0465393,0.00343323,0.0176239,0.019722,0.0449371,-9.97986,0.0743484,0.042305,0.0279617,0.0576401,0.0168991,-0.00595093,0.045929,0.0376129
18,1,10.0097,0,-0.00198364,-2.42592,0.0559862,-0.0735371,0.0547383,0.0535753,-0.0937568,0.147149,-0.125766,-0.0816549,0.00175476,-0.109291,-0.0512314,0.0365829,0.00324249,0.0177765,0.0198746,0.0793839,-9.97986,0.0642776,0.0362778,0.0297928,0.0449371,0.0223541,-0.00724792,0.0466156,0.0376892
18,2,10.0097,0.000305176,-0.00167847,-2.42562,0.0572069,-0.0741475,0.0538228,0.0593737,-0.0925361,0.145013,-0.125461,-0.0804342,-0.00511169,-0.118599,-0.0302505,0.00518799,0.00354767,0.0195313,0.0228882,0.100822,-9.97986,0.0550079,0.0753021,0.0327682,0.0421524,0.0216675,-0.00377655,0.0534439,0.0408173
18,3,10.0097,-0.00152588,-0.000457764,-2.42531,0.055681,-0.0735371,0.0547383,0.0645616,-0.0913154,0.145929,-0.125156,-0.0831808,-0.000419617,-0.103912,0.016861,0.00911713,-0.00160217,0.0173569,0.0261307,0.0365448,-9.97986,0.0411224,0.0350189,0.033226,0.0359344,0.0249481,-0.00610352,0.049324,0.0434113
18,4,10.0097,0.0012207,-0.0012207,-2.42623,0.0544603,-0.0747579,0.0544332,0.0694445,-0.0925361,0.148065,-0.125766,-0.0828756,0.00350952,-0.0506592,0.0561142,0.0849915,-0.00934601,0.013237,0.0295258,-0.00148773,-9.97986,0.0410461,-0.0698853,0.0345993,0.0243759,0.0299454,0.00087738,0.0489044,0.0445938
18,5,10.0097,0.00518799,-0.00152588,-2.42653,0.0550706,-0.0741475,0.054128,0.0843981,-0.0903999,0.146539,-0.124241,-0.0840963,0.00900269,-0.0144196,0.072937,0.152473,-0.0107193,0.0123596,0.0301743,0.103531,-9.97986,0.0335312,-0.113144,0.0366974,0.00434875,0.0333405,0.0187302,0.0486755,0.0415421
18,6,10.0097,0.0012207,-0.000610352,-2.4302,0.0550706,-0.0756734,0.0526021,0.0804308,-0.0937568,0.144098,-0.126682,-0.0865377,0.0105286,0.0201416,0.0616455,0.182877,-0.0112534,0.0131989,0.0370407,0.191002,-9.97986,0.0252151,-0.0814056,0.0370789,-0.0144196,0.0330353,0.0152588,0.0457764,0.0460434
18,7,10.0097,0,-0.00152588,-2.42806,0.0541551,-0.0765889,0.0516866,0.0724962,-0.0943672,0.143182,-0.128208,-0.0868429,0.00137329,0.0251389,0.0365067,0.155563,-0.0191116,0.0123978,0.0372314,0.191536,-9.97986,0.0244141,-0.0228119,0.0358582,-0.0299072,0.0344849,0.0122452,0.0495911,0.0459671
18,8,10.0097,0,-0.00167847,-2.42867,0.0538499,-0.0759786,0.0526021,0.07036,-0.0937568,0.143487,-0.126072,-0.0877584,-0.00713348,0.0365067,0.0115585,0.100708,-0.0232315,0.00961304,0.0405121,0.183334,-9.97986,0.0283051,0.0521088,0.0377274,-0.0489426,0.0359344,0.00717163,0.0471115,0.0440216
18,9,10.0097,0.000305176,-0.00198364,-2.42837,0.0544603,-0.0738423,0.0519917,0.0685289,-0.0949775,0.143792,-0.127292,-0.0880636,-0.00118256,0.0527954,-0.0272369,0.0725555,-0.0257492,0.0128174,0.0427628,0.20649,-9.97986,0.0193405,0.120773,0.0360107,-0.0639725,0.0399399,0.00320435,0.0461578,0.0461197
19,0,10.0097,0.00152588,-0.00152588,-2.42837,0.0541551,-0.0762837,0.0532125,0.0685289,-0.0943672,0.143487,-0.128513,-0.0883688,-0.00183105,0.0519562,-0.0395966,0.0522614,-0.0278473,0.0123978,0.0411606,0.226593,-9.97986,0.00663757,0.0909042,0.0391388,-0.0910568,0.0406265,0.0101471,0.0404739,0.0450134
19,1,10.0097,-0.00335693,-0.00289917,-2.42898,0.0526292,-0.075063,0.0519917,0.0676134,-0.095893,0.143792,-0.127598,-0.0883688,-0.00213623,0.0684357,-0.0484467,0.0510406,-0.0226593,0.0150299,0.0515747,0.197487,-9.97986,-0.00350952,0.034256,0.0350952,-0.117874,0.0482559,0.00492096,0.0363922,0.0445175
19,2,10.0097,0.000305176,-0.00411987,-2.42867,0.0544603,-0.0753682,0.0535176,0.0697496,-0.094062,0.144403,-0.127292,-0.0862325,-0.00846863,0.0701904,-0.0575256,0.0364685,-0.0203705,0.0143433,0.0482559,0.15358,-9.97986,-0.0203323,0.0323868,0.0355148,-0.147476,0.0524521,0.000267029,0.0364304,0.0504303
19,3,10.0097,-0.00152588,-0.00350952,-2.42745,0.0544603,-0.0759786,0.0535176,0.0691393,-0.0937568,0.143792,-0.126682,-0.0859274,-0.00213623,0.056076,-0.0435638,0.0323105,-0.0160217,0.0105667,0.050354,0.10807,-9.97986,-0.033989,0.0421524,0.0329971,-0.183945,0.0508499,-0.0025177,0.0300217,0.0409317
19,4,10.0097,-0.00335693,-0.00305176,-2.42653,0.0550706,-0.0747579,0.0526021,0.0691393,-0.0925361,0.145318,-0.126682,-0.0850118,0.0050354,0.0506973,-0.0312424,0.0400543,-0.0146866,0.0119019,0.0566864,-0.00785828,-9.97986,-0.0511551,0.0626373,0.037384,-0.217361,0.0542068,0.00804901,0.0337982,0.0409317
19,5,10.0097,-0.00244141,-0.00274658,-2.42623,0.0550706,-0.0741475,0.0538228,0.0709703,-0.0931465,0.144403,-0.126072,-0.0847066,-0.00957489,0.0500107,-0.0131226,0.0242615,-0.00991821,0.00766754,0.0537109,-0.14576,-9.97986,-0.0526428,0.0462723,0.0283051,-0.249062,0.0608826,-0.00465393,0.0292206,0.0413513
19,6,10.0097,0.0012207,-0.00289917,-2.42501,0.0553758,-0.0738423,0.054128,0.0709703,-0.0919257,0.145013,-0.124546,-0.0825704,-0.00865936,0.0379562,-0.00320435,0.0153351,-0.00213623,0.00926971,0.0507355,-0.193672,-9.97986,-0.0368881,-0.00461578,0.0333786,-0.281029,0.057869,-0.000839233,0.0280762,0.0386047
19,7,10.0097,0.00183105,-0.00320435,-2.42501,0.0569017,-0.0741475,0.0532125,0.0712755,-0.0903999,0.146539,-0.123935,-0.0816549,0.00213623,0.0188065,-0.00385284,0.00774384,0.00148773,0.0124741,0.0567627,-0.157204,-9.97986,-0.0173187,-0.0123978,0.0286102,-0.315323,0.0589371,-0.00247955,0.0249863,0.0350189
19,8,10.0097,0.000610352,-0.00396729,-2.4247,0.0541551,-0.073232,0.054128,0.072191,-0.0910102,0.145929,-0.123325,-0.0822652,0.00370026,-0.0111389,0.000953674,-0.0018692,0.00743866,0.00434875,0.057373,-0.0850677,-9.97986,-0.00839233,-0.00770569,0.0300217,-0.350037,0.055809,-0.00598907,0.0212479,0.038147
19,9,10.0097,0.00152588,-0.00274658,-2.42531,0.0562914,-0.0726216,0.0544332,0.0728014,-0.0913154,0.147149,-0.123935,-0.0816549,0.0131989,-0.0117111,0.00564575,0.00495911,0.0069809,0.000190735,0.0523758,-0.0397873,-9.97986,0.00782013,0.00442505,0.0273895,-0.389023,0.0531387,-0.00602722,0.0148392,0.0342941
20,0,10.0097,0.00152588,-0.00350952,-2.42501,0.0562914,-0.0735371,0.0538228,0.0718859,-0.0913154,0.148065,-0.124241,-0.0825704,0.0312805,0.0236893,0.0157928,-0.00289917,0.00709534,-0.00617981,0.0537109,-0.0466919,-9.97986,0.0231171,0.0128937,0.0287247,-0.429153,0.0527954,-0.0107956,0.0131226,0.0344086
20,1,10.0097,0.000610352,-0.00411987,-2.42562,0.0550706,-0.0741475,0.0532125,0.0557115,-0.0931465,0.145318,-0.124851,-0.0828756,0.0329208,0.0273514,0.00717163,-0.00392914,0.0106049,-0.00614166,0.0551987,-0.0281143,-9.97986,0.0432205,0.00507355,0.0301361,-0.465469,0.0585556,-0.0151443,0.0134659,0.0328445
20,2,10.0097,0.00396729,-0.00488281,-2.42592,0.0565965,-0.075063,0.0535176,0.0572374,-0.0931465,0.146234,-0.125461,-0.0834859,0.0208664,0.010376,-0.0031662,0.000190735,0.0139236,-0.0156021,0.0588608,0.0387955,-9.97986,0.0534058,-0.040741,0.0278091,-0.513115,0.0555038,-0.0160217,0.00827789,0.0299072
20,3,10.0097,0.00213623,-0.00427246,-2.42592,0.0559862,-0.0753682,0.054128,0.0624254,-0.0931465,0.145013,-0.125766,-0.0834859,0.0133514,-0.00331879,0.0181961,0.00991821,0.0156021,-0.0183487,0.0618362,0.0960922,-9.97986,0.0518036,-0.0823212,0.028038,-0.553627,0.0589371,-0.018425,0.000572205,0.0281143
20,4,10.0097,0.000915527,-0.00350952,-2.42684,0.0547655,-0.0747579,0.0550435,0.0694445,-0.0928413,0.145318,-0.124851,-0.0844015,0.00354767,0.00724792,0.0658417,0.00930786,0.0186157,-0.0246429,0.0601578,0.128212,-9.97986,0.0373077,-0.0506592,0.0259399,-0.598907,0.0574875,-0.0205231,-0.00709534,0.0285339
20,5,10.0097,0.00396729,-0.00350952,-2.42653,0.0562914,-0.0744527,0.0550435,0.0843981,-0.0916206,0.146234,-0.125766,-0.0840963,-0.000610352,0.0229645,0.117493,0.0112152,0.0222397,-0.0296783,0.0653458,0.199089,-9.97986,0.0250626,0.000114441,0.0273895,-0.635414,0.059967,-0.0218964,-0.0102234,0.0268936
20,6,10.0097,0.00274658,-0.00335693,-2.42837,0.0529344,-0.0762837,0.0535176,0.0789049,-0.0931465,0.143792,-0.126377,-0.0871481,0.0031662,0.0315475,0.144539,0.00766754,0.0221634,-0.034256,0.0593567,0.309296,-9.97986,0.00839233,-0.0206757,0.0278091,-0.678406,0.0556946,-0.0167084,-0.0154877,0.0244904
20,7,10.0097,0.00152588,-0.00396729,-2.42898,0.0523241,-0.0759786,0.0529073,0.0715807,-0.0949775,0.144708,-0.126377,-0.0883688,0.00854492,0.0331497,0.155754,-0.0104141,0.0200653,-0.043335,0.0613022,0.335083,-9.97986,-0.00152588,-0.0340652,0.0248337,-0.716705,0.0580597,-0.0175095,-0.0271225,0.0229645
20,8,10.0097,-0.00335693,-0.00335693,-2.42898,0.0535448,-0.0759786,0.0516866,0.067003,-0.0931465,0.146539,-0.126987,-0.0871481,0.0178146,0.0759506,0.175552,-0.0250626,0.02388,-0.042572,0.0636673,0.212555,-9.97986,-0.018158,-0.00995636,0.0255203,-0.753174,0.055275,-0.0177383,-0.0284195,0.0247574
20,9,10.0097,-0.00183105,-0.00411987,-2.42837,0.0529344,-0.075063,0.0526021,0.0688341,-0.0952827,0.144708,-0.128208,-0.0877584,0.0201035,0.121078,0.208511,-0.0264359,0.0252533,-0.0501633,0.0619125,0.0476074,-9.97986,-0.0332642,-0.00419617,0.0241089,-0.788956,0.056076,-0.0279999,-0.0413513,0.0221634
21,0,10.0097,0.000915527,-0.00488281,-2.42867,0.0529344,-0.0765889,0.0519917,0.0694445,-0.0949775,0.145624,-0.126987,-0.0886739,0.0128555,0.16407,0.234566,-0.022049,0.0278473,-0.0558472,0.0697327,-0.0120163,-9.97986,-0.0365829,0.00904083,0.02491,-0.822449,0.0550079,-0.0368881,-0.0455093,0.0197983
21,1,10.0097,0.000305176,-0.00396729,-2.42959,0.0550706,-0.0759786,0.0519917,0.0688341,-0.0925361,0.144708,-0.127292,-0.0874532,0.0188065,0.23735,0.254211,-0.014801,0.0268173,-0.0554276,0.069046,-0.0140762,-9.97986,-0.0405502,0.0163651,0.0209045,-0.854378,0.0556183,-0.0240326,-0.0560379,0.023613
21,2,10.0097,-0.00183105,-0.0038147,-2.42745,0.0538499,-0.075063,0.0529073,0.07036,-0.0937568,0.144708,-0.126072,-0.0871481,0.0182343,0.288506,0.232086,-0.0304413,0.0258636,-0.0630951,0.0642776,-0.0509262,-9.97986,-0.0377655,0.0334167,0.0230408,-0.890656,0.0564575,-0.0168991,-0.0628662,0.0196075
21,3,10.0097,-0.0012207,-0.00411987,-2.42806,0.0535448,-0.0756734,0.0519917,0.0694445,-0.094062,0.144403,-0.126987,-0.0859274,0.0102997,0.289993,0.138359,-0.0372696,0.0249863,-0.062027,0.0641251,-0.10849,-9.97986,-0.0288773,0.0737381,0.0212097,-0.929375,0.0585938,-0.0172424,-0.070343,0.0200653
21,4,10.0097,-0.00274658,-0.00350952,-2.42806,0.0532396,-0.0738423,0.0547383,0.0706652,-0.0937568,0.141351,-0.126072,-0.0850118,0.000991821,0.206375,0.0108337,-0.0364685,0.0275803,-0.0740814,0.0685501,-0.112686,-9.97986,-0.0133514,0.0763321,0.0188828,-0.958672,0.0540161,-0.0113297,-0.0806808,0.0215912
21,5,10.0097,-0.00213623,-0.00335693,-2.42531,0.055681,-0.0744527,0.0538228,0.0700548,-0.094062,0.14013,-0.125766,-0.0837911,0.0063324,-0.00160217,-0.0784683,-0.0382233,0.0332642,-0.0712204,0.070343,-0.110779,-9.97986,0.00484467,0.0608826,0.0186539,-0.983925,0.0589752,-0.0043869,-0.0785828,0.0196075
21,6,10.0097,-0.000305176,-0.00244141,-2.4247,0.0565965,-0.0738423,0.054128,0.07036,-0.0913154,0.144403,-0.124241,-0.0822652,0.00476837,-0.0984192,-0.0958252,-0.0453186,0.0290298,-0.0802231,0.0646973,-0.141449,-9.97986,0.0210571,-0.0136185,0.0214767,-1.01566,0.0521851,-0.0148773,-0.0852966,0.0155258
21,7,10.0097,0.000305176,-0.00167847,-2.4247,0.0562914,-0.0726216,0.0535176,0.0709703,-0.0913154,0.146234,-0.12363,-0.0825704,0.0248337,-0.0533295,-0.0607681,-0.052948,0.0333405,-0.0788879,0.0663757,-0.148468,-9.97986,0.0302887,-0.0441742,0.0210953,-1.02837,0.0565338,-0.0261688,-0.0894165,0.0174713
21,8,10.0097,-0.00183105,-0.000915527,-2.4247,0.0569017,-0.0726216,0.0556539,0.0712755,-0.0913154,0.145318,-0.124851,-0.0822652,0.0228119,-0.0889587,-0.083046,-0.0629044,0.0335312,-0.0816727,0.0647736,-0.117455,-9.97986,0.0296021,-0.0125885,0.0194931,-1.04435,0.0535965,-0.0286102,-0.0965118,0.0178528
21,9,10.0097,-0.000915527,-0.00137329,-2.42531,0.0553758,-0.0738423,0.0550435,0.0709703,-0.0913154,0.145318,-0.123935,-0.0807394,0.0282288,-0.146027,-0.138931,-0.0720596,0.0291824,-0.0782013,0.0613403,-0.0909805,-9.97986,0.0414658,-0.0334167,0.0130081,-1.05247,0.052681,-0.0159454,-0.0976944,0.0156403
22,0,10.0097,0.000305176,-0.000762939,-2.42562,0.055681,-0.0729268,0.0544332,0.0712755,-0.0931465,0.146234,-0.123935,-0.0810445,0.0261688,-0.188332,-0.168266,-0.0783157,0.0348282,-0.0852203,0.0666046,-0.0943756,-9.97986,0.0537109,-0.0271606,0.016098,-1.05457,0.0531006,-0.00694275,-0.0977325,0.0148392
22,1,10.0097,-0.000915527,0.000152588,-2.42501,0.0575121,-0.0741475,0.0532125,0.054796,-0.0928413,0.146539,-0.125766,-0.0825704,0.0272369,-0.186272,-0.133934,-0.0871658,0.0352859,-0.0805664,0.067749,-0.135918,-9.97986,0.0470352,0.0157166,0.0194168,-1.04877,0.0538254,-0.0019455,-0.0951385,0.0169373
22,2,10.0097,-0.000305176,-0.000305176,-2.42684,0.0553758,-0.0741475,0.0538228,0.0575426,-0.0916206,0.148065,-0.125766,-0.0813497,0.0222397,-0.074501,-0.100861,-0.0930786,0.0336075,-0.0803757,0.0691605,-0.17498,-9.97986,0.0471878,0.0094986,0.0194931,-1.03794,0.0506973,0.000457764,-0.0972366,0.0167084
22,3,10.0097,0.00213623,0.000457764,-2.42684,0.0569017,-0.075063,0.0538228,0.0645616,-0.0922309,0.146234,-0.124851,-0.0819601,0.018425,-0.00553131,-0.0926971,-0.0399399,0.0344849,-0.0764847,0.0658798,-0.159988,-9.97986,0.0473404,-0.0362396,0.0214005,-1.01898,0.0534821,-0.00114441,-0.089035,0.0158691
22,4,10.0097,0.000915527,0.00183105,-2.42745,0.0547655,-0.0735371,0.0553487,0.0691393,-0.0910102,0.145318,-0.124851,-0.0810445,0.015564,-0.0307846,-0.0844574,0.000801086,0.0370026,-0.0700378,0.0675201,-0.0961304,-9.97986,0.042305,-0.0916672,0.0191116,-0.991478,0.0498581,-0.00904083,-0.0888824,0.0186539
22,5,10.0097,0.000610352,0.00320435,-2.42684,0.0553758,-0.0753682,0.0535176,0.0828722,-0.0913154,0.144098,-0.124851,-0.0822652,0.0118256,-0.0764084,-0.0945282,-0.00102997,0.0310135,-0.0656509,0.0646591,-0.0469208,-9.97986,0.0414276,-0.0813293,0.0159836,-0.96489,0.0460052,-0.020256,-0.0816727,0.0167465
22,6,10.0097,0.000915527,0.00396729,-2.4302,0.0535448,-0.0759786,0.0538228,0.0801256,-0.094062,0.143487,-0.126072,-0.0850118,0.00934601,-0.112762,-0.105362,0.00137329,0.0307846,-0.0593185,0.0634384,-0.0170898,-9.97986,0.043869,-0.00888824,0.0141144,-0.921631,0.0457001,-0.0302505,-0.076828,0.0180817
22,7,10.0097,0.000610352,0.0038147,-2.42898,0.0538499,-0.0753682,0.0519917,0.0724962,-0.0943672,0.143487,-0.127598,-0.0840963,0.00190735,-0.115051,-0.101471,-0.00415802,0.0309753,-0.057373,0.0643539,0.0374603,-9.97986,0.0439835,0.0691986,0.0150681,-0.873184,0.0461197,-0.0294495,-0.068779,0.0171661
22,8,10.0097,0.00244141,0.00473022,-2.42928,0.0541551,-0.0759786,0.0516866,0.0694445,-0.0946723,0.144708,-0.127598,-0.0850118,0.00480652,-0.103378,-0.089035,-0.00804901,0.0294876,-0.0521851,0.0637054,0.0812912,-9.97986,0.0449753,0.0871658,0.0129318,-0.816193,0.0456619,-0.0269699,-0.062294,0.014801
22,9,10.0097,0.000305176,0.00534058,-2.42898,0.0541551,-0.0747579,0.0513814,0.0691393,-0.0955879,0.144098,-0.127903,-0.0859274,0.00686646,-0.0840759,-0.0650406,0.0172043,0.0286865,-0.0523758,0.0624466,0.0911713,-9.97986,0.0299835,0.0642395,0.0152206,-0.749168,0.0471115,-0.0207901,-0.0536728,0.0177765
23,0,10.0097,-0.000305176,0.0062561,-2.42959,0.0541551,-0.0762837,0.0510762,0.0688341,-0.0943672,0.143792,-0.126987,-0.085317,0.00701904,-0.0561142,-0.0394058,0.0843048,0.0239944,-0.0432968,0.0623703,0.0904465,-9.97986,0.0292206,0.0692368,0.00934601,-0.680695,0.0444794,-0.0247192,-0.0447845,0.0143814
23,1,10.0097,0.00152588,0.00595093,-2.42898,0.0575121,-0.0762837,0.0519917,0.0679186,-0.0952827,0.143792,-0.128818,-0.085317,0.0108719,-0.034523,-0.0250626,0.1017,0.0296402,-0.0389862,0.0592422,0.0804901,-9.97986,0.02285,0.0716019,0.0138855,-0.602722,0.0453568,-0.0245285,-0.0391769,0.0186539
23,2,10.0097,0.00396729,0.00686646,-2.42714,0.0544603,-0.0741475,0.0516866,0.0691393,-0.0937568,0.143487,-0.126987,-0.0840963,0.0107574,-0.0050354,0.000228882,0.0658417,0.0266266,-0.0376511,0.0556564,0.0825882,-9.97986,0.0188446,0.0279999,0.00892639,-0.525055,0.0469589,-0.0207901,-0.0281143,0.0169754
23,3,10.0097,0.00244141,0.00762939,-2.42653,0.0547655,-0.0747579,0.0532125,0.0700548,-0.0931465,0.144403,-0.124851,-0.0825704,0.00720978,0.0128937,0.0177765,0.0550842,0.0246429,-0.0355911,0.0483704,0.06073,-9.97986,0.0114059,-0.00572205,0.00415802,-0.440483,0.042038,-0.020256,-0.0199509,0.0111771
23,4,10.0097,0.000610352,0.00747681,-2.42745,0.0550706,-0.075063,0.0526021,0.0694445,-0.0925361,0.145624,-0.125766,-0.0819601,0.00606537,0.0139999,0.037117,0.0486755,0.0252151,-0.0297546,0.0507355,0.0419617,-9.97986,0.00480652,-0.0082016,0.00423431,-0.35862,0.0463104,-0.0151062,-0.0118256,0.0112915
23,5,10.0097,0.00152588,0.00808716,-2.42653,0.055681,-0.0738423,0.0526021,0.0697496,-0.090705,0.145013,-0.125156,-0.0810445,0.00610352,0.0363922,0.0684357,0.0554657,0.0167847,-0.0267792,0.0387573,0.0863647,-9.97986,-0.00305176,-0.00656128,0.000267029,-0.269775,0.0466919,-0.0109482,-0.00701904,0.00938416
23,6,10.0097,0.00305176,0.00854492,-2.42501,0.0559862,-0.0735371,0.0547383,0.07036,-0.0925361,0.146234,-0.125156,-0.0795187,0.0120544,0.0595856,0.100327,0.0681305,0.0161743,-0.0164795,0.0383377,0.113983,-9.97986,-0.0151062,-0.0385284,-0.00343323,-0.18734,0.0479889,-0.0128174,-0.00305176,0.00858307
23,7,10.0097,0.00335693,0.00808716,-2.42531,0.0565965,-0.0744527,0.0544332,0.0700548,-0.0919257,0.145013,-0.123935,-0.0792135,0.00831604,0.0815582,0.145035,0.0574112,0.0136566,-0.014801,0.0346756,0.135269,-9.97986,-0.0187683,-0.0715637,-0.00740051,-0.0995636,0.0511169,-0.0206375,0.00152588,0.0106049
23,8,10.0097,0.00213623,0.00839233,-2.42562,0.0569017,-0.0741475,0.0535176,0.072191,-0.0919257,0.14837,-0.123935,-0.0776876,0.00362396,0.131149,0.188637,0.0503922,0.0124741,-0.0154114,0.0260162,0.181923,-9.97986,-0.0285721,-0.0542831,-0.00976563,-0.00835419,0.0492477,-0.0154495,0.00694275,0.0107574
23,9,10.0097,0.000305176,0.00991821,-2.4244,0.0562914,-0.073232,0.0556539,0.0709703,-0.0916206,0.147455,-0.124241,-0.0776876,0.00556946,0.164948,0.214157,0.0617981,0.0113678,-0.0152588,0.0251389,0.192184,-9.97986,-0.0252151,-0.0115204,-0.00694275,0.0948715,0.0532532,-0.0133514,0.0154495,0.0109482
24,0,10.0097,0.00152588,0.00946045,-2.42501,0.0562914,-0.0738423,0.0547383,0.0709703,-0.0925361,0.146539,-0.124546,-0.0779928,0.00370026,0.144424,0.223923,0.0537109,0.00980377,-0.0124359,0.0185394,0.184097,-9.97986,-0.0306702,-0.00450134,-0.00896454,0.189857,0.0559235,-0.0174713,0.0154877,0.00778198
24,1,10.0097,0.000610352,0.0100708,-2.42714,0.0550706,-0.0747579,0.0547383,0.0544908,-0.0949775,0.147149,-0.125156,-0.0792135,0.00640869,0.112305,0.216789,0.0507355,0.0102615,-0.00564575,0.016098,0.191727,-9.97986,-0.033989,-0.0102997,-0.00675201,0.292854,0.0576019,-0.0225067,0.02285,0.00785828
24,2,10.0097,-0.00183105,0.00823975,-2.42531,0.0559862,-0.0726216,0.0556539,0.0578478,-0.0931465,0.146234,-0.126072,-0.0792135,0.00087738,0.144424,0.186272,0.0378036,0.00576019,-0.0139618,0.0107574,0.167999,-9.97986,-0.0378799,-0.0288773,-0.00980377,0.37941,0.052948,-0.0212097,0.0271225,0.00770569
24,3,10.0097,-0.00305176,0.00823975,-2.42653,0.055681,-0.0744527,0.0553487,0.0639513,-0.0919257,0.147149,-0.124851,-0.080129,0.00839233,0.204659,0.155411,0.0315857,0.00595093,-0.0111008,0.0128174,0.113029,-9.97986,-0.0313568,-0.057106,-0.00831604,0.458603,0.0555038,-0.0128937,0.0307846,0.00865936
24,4,10.0097,-0.00274658,0.00808716,-2.42714,0.0547655,-0.0744527,0.0544332,0.0709703,-0.0922309,0.146844,-0.125156,-0.0807394,0.0138855,0.227623,0.144119,0.0193787,0.00247955,-0.013504,0.00869751,0.0166321,-9.97986,-0.0174713,-0.0673676,-0.00221252,0.546036,0.0621414,0.00526428,0.0324249,0.00717163
24,5,10.0097,-0.0012207,0.00869751,-2.42531,0.0553758,-0.0744527,0.054128,0.0837877,-0.0913154,0.144403,-0.124851,-0.0804342,0.0209808,0.237198,0.115242,0.00434875,0.00488281,-0.0125504,0.0082016,-0.104713,-9.97986,-0.0169373,-0.0511169,-0.00278473,0.619926,0.0584412,0.0146866,0.0349808,0.00808716
24,6,10.0097,-0.0012207,0.00732422,-2.42959,0.0538499,-0.075063,0.0526021,0.0792101,-0.0937568,0.143182,-0.126682,-0.0847066,0.0282288,0.225182,0.0656891,0.00392914,0.00530243,-0.0144958,0.00965118,-0.181084,-9.97986,-0.021286,-0.0336075,-0.00240326,0.683861,0.0610733,0.0187683,0.0409698,0.0108719
24,7,10.0097,0.00183105,0.00640869,-2.42928,0.0532396,-0.0756734,0.0526021,0.0728014,-0.0946723,0.141656,-0.127292,-0.0847066,0.0357056,0.206375,0.0305939,-0.000724792,0.00339508,-0.00991821,0.00507355,-0.130539,-9.97986,-0.00812531,-0.0191498,-0.00507355,0.742493,0.0622177,0.0231171,0.0473785,0.0113678
24,8,10.0097,0.000610352,0.00564575,-2.42898,0.0532396,-0.0759786,0.0519917,0.0715807,-0.0949775,0.141961,-0.127903,-0.0859274,0.0328827,0.163956,-0.00404358,-0.00938416,-0.00331879,-0.0114441,0.0050354,-0.0407791,-9.97986,0.00247955,-0.00904083,-0.00484467,0.787201,0.0606155,0.0287628,0.0506973,0.0150681
24,9,10.0097,0.00366211,0.00427246,-2.42989,0.0526292,-0.0765889,0.0519917,0.0694445,-0.0949775,0.141046,-0.127598,-0.0859274,0.0210571,0.0517654,-0.0268555,-0.00270844,-0.00816345,-0.00732422,0.000228882,0.0400162,-9.97986,0.0261307,0.0201797,-0.00587463,0.835648,0.0592422,0.0201035,0.0529861,0.0122833
25,0,10.0097,-0.000610352,0.00350952,-2.42806,0.0550706,-0.0753682,0.0516866,0.0700548,-0.094062,0.140436,-0.127292,-0.0859274,0.019455,-0.0611115,-0.0455093,0.00038147,-0.011673,-0.00854492,-0.0025177,0.0862122,-9.97986,0.0367737,0.0387955,-0.00656128,0.867004,0.0603485,0.019722,0.0553131,0.0165176
25,1,10.0097,-0.00305176,0.00228882,-2.42898,0.0529344,-0.0756734,0.0519917,0.0694445,-0.0952827,0.14013,-0.126987,-0.0856222,0.0152206,-0.161743,-0.0857544,0.0044632,-0.0129318,-0.00968933,-0.00434875,0.0391769,-9.97986,0.0463104,0.0348663,-0.00377655,0.892448,0.0561905,0.0229263,0.0560379,0.0159836
25,2,10.0097,0,0.00305176,-2.42806,0.0544603,-0.0756734,0.0526021,0.0697496,-0.0937568,0.142267,-0.126377,-0.0850118,0.0142288,-0.217285,-0.130997,0.00671387,-0.00785828,-0.00972748,-0.00740051,-0.0304794,-9.97986,0.0473404,0.0365067,-0.00404358,0.916023,0.0616455,0.0255966,0.0582504,0.016861
25,3,10.0097,0.000610352,0.00259399,-2.42776,0.0553758,-0.0744527,0.0532125,0.0700548,-0.0949775,0.144403,-0.126987,-0.0837911,0.0112534,-0.232773,-0.168533,0.0141144,-0.00175476,-0.0139999,-0.00682831,-0.0476074,-9.97986,0.0498962,0.0285721,-0.00541687,0.941658,0.0576019,0.0265503,0.0640869,0.0169373
25,4,10.0097,0.000915527,0.00137329,-2.42714,0.0559862,-0.075063,0.0538228,0.0694445,-0.0934516,0.146234,-0.124851,-0.0834859,0.00339508,-0.205498,-0.132942,0.00598907,-0.00713348,-0.0118637,-0.00679016,-0.0665283,-9.97986,0.0463486,-0.0133896,-0.00110626,0.958023,0.0536728,0.026207,0.0685501,0.0163651
25,5,10.0097,0.0012207,0.00183105,-2.42714,0.0562914,-0.0747579,0.0532125,0.0709703,-0.0925361,0.14776,-0.126072,-0.0834859,-0.00286102,-0.114746,-0.074234,0.01194,-0.0031662,-0.00896454,-0.00659943,-0.110397,-9.97986,0.0452423,-0.0736618,0.000190735,0.966606,0.0564575,0.0339508,0.0740814,0.0169754
25,6,10.0097,0.000915527,0.00167847,-2.42623,0.0587328,-0.0738423,0.054128,0.0712755,-0.0910102,0.14898,-0.125766,-0.0819601,-0.00595093,-0.044136,-0.0390625,0.0177383,-0.00148773,-0.0120926,-0.0131226,-0.109825,-9.97986,0.0315475,-0.0905228,0.00160217,0.974693,0.0548172,0.0280762,0.0757599,0.0174713
25,7,10.0097,0.00244141,0.000915527,-2.42501,0.0565965,-0.073232,0.0535176,0.0709703,-0.0922309,0.146844,-0.124241,-0.0807394,-0.00659943,-0.0288773,-0.0186539,0.0153732,-0.00221252,-0.0102997,-0.00907898,-0.0678253,-9.97986,0.0159836,0.00106812,0.00392914,0.98156,0.0529099,0.023613,0.0772095,0.0179291
25,8,10.0097,0.00152588,0.000610352,-2.4247,0.0565965,-0.0735371,0.054128,0.0712755,-0.0916206,0.147149,-0.124546,-0.0819601,-0.00358582,-0.0307846,-0.00469208,0.0139236,-0.00225067,-0.00865936,-0.0117111,-0.0437546,-9.97986,0.00740051,0.0671387,0,0.978241,0.0505829,0.0255203,0.0755692,0.0185776
25,9,10.0097,0.00244141,0.000152588,-2.42379,0.0562914,-0.0735371,0.0532125,0.0706652,-0.0922309,0.14837,-0.124546,-0.080129,-0.00278473,-0.0104904,0.0156784,0.0087738,-0.00102997,-0.0056076,-0.0133896,-0.0281525,-9.97986,0.00267029,0.0666046,0.00537872,0.971909,0.051918,0.0249863,0.0719452,0.0190735
26,0,10.0097,0.000915527,0,-2.42562,0.0565965,-0.0747579,0.0538228,0.0715807,-0.0903999,0.148065,-0.124241,-0.0807394,0.00209808,0.0276184,0.0358582,0.00114441,0.00137329,0.00133514,-0.0094986,-0.0274658,-9.97986,-0.00236511,0.0547409,0.00247955,0.967941,0.055542,0.023613,0.0722122,0.0182724
26,1,10.0097,0,0.000305176,-2.42592,0.0569017,-0.0747579,0.0535176,0.0563219,-0.0952827,0.147455,-0.125156,-0.0828756,0.0141144,0.0593567,0.0482559,-0.00110626,0.00385284,-0.00389099,-0.00564575,-0.0364304,-9.97986,0.00236511,0.0419617,0.00133514,0.969048,0.0548172,0.0112915,0.0720596,0.0193787
26,2,10.0097,-0.000915527,-0.000915527,-2.42592,0.055681,-0.0744527,0.054128,0.0557115,-0.0937568,0.146539,-0.125766,-0.0816549,0.0240707,0.0607681,0.0556946,0.0056076,0.00453949,-0.000152588,-0.00431061,-0.0296402,-9.97986,0.0115967,0.104866,0.00579834,0.958977,0.0539017,0.0188446,0.0685883,0.0210953
26,3,10.0097,-0.000915527,-0.000915527,-2.42653,0.055681,-0.0729268,0.0547383,0.0648668,-0.0928413,0.147149,-0.125766,-0.0828756,0.0225449,0.0751495,0.0611115,0.0109863,0.00411987,0.00324249,-0.00385284,-0.064888,-9.97986,0.0263977,0.159378,0.00038147,0.943604,0.0545883,0.0213242,0.068512,0.0214005
26,4,10.0097,0.00183105,-0.000305176,-2.42714,0.0550706,-0.0753682,0.0538228,0.07036,-0.0925361,0.145318,-0.125461,-0.0834859,0.0169754,0.0871277,0.0446701,0.0116348,0.0069809,0.00141144,-0.00370026,-0.0589371,-9.97986,0.0393295,0.136833,-0.000228882,0.931206,0.0517654,0.024147,0.066185,0.0212479
26,5,10.0097,-0.000610352,0.000305176,-2.42531,0.055681,-0.0747579,0.054128,0.0843981,-0.0916206,0.142572,-0.125156,-0.0834859,0.0175476,0.0263977,-0.0127792,0.0136185,0.00957489,0,-0.00675201,0.0123978,-9.97986,0.0532913,0.0340652,0.00442505,0.923805,0.0509644,0.0256348,0.0613403,0.0244141
26,6,10.0097,0.00152588,0.000152588,-2.42989,0.0535448,-0.0756734,0.0516866,0.0785997,-0.0937568,0.142877,-0.127598,-0.0859274,0.0148773,-0.0363541,-0.0281906,0.014801,0.00648499,0.00247955,0.0038147,0.034523,-9.97986,0.0534058,-0.0775528,3.8147e-005,0.909233,0.0484848,0.0255585,0.0564194,0.022583
26,7,10.0097,0.00305176,-0.00137329,-2.42837,0.0538499,-0.0762837,0.0529073,0.072191,-0.0946723,0.143792,-0.128208,-0.0874532,0.0159836,-0.0279999,-0.00522614,0.0114059,0.00705719,-0.00133514,-0.00183105,0.00980377,-9.97986,0.0419998,-0.0295639,-0.00198364,0.885506,0.0443649,0.0276566,0.0531769,0.0169373
26,8,10.0097,-0.000610352,-0.00167847,-2.42867,0.0532396,-0.0753682,0.0522969,0.0688341,-0.0949775,0.144098,-0.126987,-0.0862325,0.0230026,-0.00640869,0.00450134,0.0212097,0.0146484,0.00652313,0.00671387,-0.0121307,-9.97986,0.0378036,0.0476456,0.00228882,0.874748,0.037117,0.0255203,0.0507355,0.0178909
26,9,10.0097,0.00183105,-0.00183105,-2.4305,0.0535448,-0.0762837,0.0516866,0.0694445,-0.0946723,0.144403,-0.126682,-0.0877584,0.0211334,0.0162125,0.0194168,0.0187302,0.0115585,0.00255585,0.00114441,-0.0118256,-9.97986,0.0241852,-0.00572205,-0.00270844,0.84877,0.038414,0.025177,0.0480652,0.0169373
27,0,10.0097,-0.000305176,-0.00274658,-2.42928,0.0547655,-0.0747579,0.0522969,0.0685289,-0.0946723,0.143792,-0.127598,-0.0874532,0.0115204,0.08564,0.0429916,0.00804901,0.0101852,0.00907898,0.00385284,0.00911713,-9.97986,0.0185776,-0.0881195,-0.00648499,0.822449,0.0296402,0.0201416,0.04879,0.0173569
27,1,10.0097,-0.00274658,-0.00350952,-2.42745,0.0535448,-0.0756734,0.0532125,0.0682238,-0.0965034,0.144098,-0.126987,-0.0880636,0.0154877,0.120697,0.0201797,0.00274658,0.0104523,0.0130463,0.00614166,0.0367355,-9.97986,0.0279617,-0.119095,-0.0123215,0.796242,0.026474,0.0178528,0.0395584,0.0172806
27,2,10.0097,-0.000610352,-0.00335693,-2.42806,0.0535448,-0.075063,0.0535176,0.0688341,-0.0946723,0.144403,-0.127598,-0.0862325,0.0137711,0.0931168,-0.0248337,0.010643,0.0109863,0.0171661,0.00804901,0.0468826,-9.97986,0.0252151,-0.0826263,-0.0110626,0.764961,0.017395,0.0201035,0.036087,0.0130844
27,3,10.0097,-0.000305176,-0.00228882,-2.42806,0.0541551,-0.0753682,0.0550435,0.0694445,-0.094062,0.142877,-0.126987,-0.085317,0.00995636,0.0460434,-0.0474167,0.0162506,0.0115585,0.0260162,0.00778198,0.0379181,-9.97986,0.027771,-0.0139618,-0.0165939,0.737038,0.0114059,0.0149536,0.0366211,0.016098
27,4,10.0097,0.0012207,-0.00335693,-2.42745,0.0559862,-0.0741475,0.0535176,0.07036,-0.0928413,0.145318,-0.126682,-0.0844015,0.00892639,0.0324631,-0.0325394,0.0139999,0.0108337,0.0328445,0.00740051,0.0154877,-9.97986,0.0244522,0.0257874,-0.0185394,0.69973,0.0127792,0.0101852,0.0296402,0.00907898
27,5,10.0097,0.000915527,-0.00305176,-2.42562,0.0550706,-0.0753682,0.0544332,0.0691393,-0.0928413,0.145624,-0.125156,-0.0844015,0.0147629,0.0397873,-0.00663757,0.00991821,0.0119019,0.0302887,0.0101852,0.00209808,-9.97986,0.0246048,0.039978,-0.0159073,0.662003,0.00713348,0.01194,0.030098,0.00911713
27,6,10.0097,0.00152588,-0.00457764,-2.42531,0.0569017,-0.073232,0.0550435,0.072191,-0.0922309,0.145929,-0.124241,-0.0834859,0.0114059,0.0510406,0.0131607,0.00980377,0.00934601,0.037117,0.0063324,-0.0082016,-9.97986,0.0227737,0.0188828,-0.0230789,0.616035,0.00164032,0.00644684,0.0232697,0.0088501
27,7,10.0097,0.0012207,-0.00442505,-2.42562,0.0572069,-0.0735371,0.0547383,0.0715807,-0.0919257,0.146844,-0.124851,-0.0825704,0.0120926,0.0349808,0.0151825,0.0105286,0.0174332,0.0405121,0.0149918,-0.0139618,-9.97986,0.0181961,-0.00328064,-0.0272751,0.56366,0.000953674,0.0128937,0.0182343,0.0130081
27,8,10.0097,0,-0.00488281,-2.4247,0.0562914,-0.0738423,0.0550435,0.07036,-0.0922309,0.144098,-0.124241,-0.0831808,0.00892639,-0.0186539,0.00225067,0.00938416,0.0107193,0.0419998,0.0205994,-0.00545502,-9.97986,0.0192642,0.0191879,-0.0265503,0.508232,0.00328064,0.0126266,0.0135422,0.0146866
27,9,10.0097,0,-0.00610352,-2.4247,0.0562914,-0.0744527,0.0547383,0.0709703,-0.0910102,0.146539,-0.123325,-0.0822652,0.00839233,-0.0377274,-0.000839233,0.00816345,0.014534,0.0445557,0.0156021,0.000495911,-9.97986,0.0245667,0.0179291,-0.0245285,0.431786,-0.00419617,0.0156784,0.00926971,0.0155258
28,0,10.0097,0.00152588,-0.00732422,-2.42592,0.0562914,-0.0741475,0.0556539,0.0728014,-0.0916206,0.146844,-0.124241,-0.0831808,0.01091,-0.0435638,-0.00671387,0.00896454,0.00919342,0.0497818,0.0151825,0.00751495,-9.97986,0.0269318,-0.0159836,-0.0236511,0.339851,0.000190735,0.0149155,0.00850677,0.0147247
28,1,10.0097,0,-0.00900269,-2.42562,0.0562914,-0.0744527,0.054128,0.054796,-0.0928413,0.146234,-0.124241,-0.0847066,0.00408173,-0.0386047,-0.0266266,0.00938416,0.00480652,0.0522232,0.0125885,0.0227356,-9.97986,0.0246048,-0.043869,-0.0270462,0.239868,-0.00457764,0.0102615,0,0.0125122
28,2,10.0097,0.0012207,-0.0106812,-2.42623,0.055681,-0.0744527,0.0535176,0.0569322,-0.0928413,0.146234,-0.125766,-0.0847066,0.00476837,-0.025177,-0.0488663,0.0120926,0.00419617,0.0530624,0.0196075,0.0333786,-9.97986,0.0291443,-0.0466919,-0.0212097,0.136299,-0.000572205,0.00282288,-0.00320435,0.0124741
28,3,10.0097,0.00183105,-0.00976563,-2.42531,0.0565965,-0.0741475,0.0556539,0.0645616,-0.0919257,0.145624,-0.126072,-0.0856222,0.00804901,-0.044136,-0.0527191,0.0151062,0.000953674,0.0576782,0.0207901,0.0337219,-9.97986,0.0239944,-0.0275803,-0.015564,0.031395,0.00450134,0.000419617,0.000190735,0.0172806
28,4,10.0097,0.000610352,-0.00946045,-2.42653,0.0553758,-0.0747579,0.054128,0.0718859,-0.0919257,0.146234,-0.125461,-0.0865377,0.00965118,-0.0419235,-0.0214005,0.018425,0.0025177,0.0559616,0.0246048,0.0399399,-9.97986,0.0189972,-0.00789642,-0.0136948,-0.0644302,0.00904083,7.62939e-005,-0.00411987,0.0156403
28,5,10.0097,0.000915527,-0.00900269,-2.42684,0.0538499,-0.0747579,0.054128,0.0834825,-0.090705,0.145318,-0.124851,-0.0865377,0.00930786,-0.0153732,0.00389099,0.0147629,0.000724792,0.0515747,0.0230408,0.0408173,-9.97986,0.0166702,-0.00377655,-0.00556946,-0.17334,0.0108719,-0.00247955,-0.00537872,0.0132751
28,6,10.0097,0.000610352,-0.0088501,-2.42928,0.0535448,-0.0747579,0.0522969,0.0779894,-0.0937568,0.144403,-0.126072,-0.0886739,0.0101471,0.000419617,0.013504,0.0175095,-0.000419617,0.0543594,0.0247574,0.0473022,-9.97986,0.0120163,-0.00614166,-0.000343323,-0.265694,0.0122833,-0.00637054,-0.00370026,0.0177383
28,7,10.0097,0,-0.00976563,-2.42989,0.0535448,-0.0762837,0.0516866,0.0718859,-0.0952827,0.143792,-0.127598,-0.0883688,0.00450134,0.0117874,0.0233078,0.0182724,-0.000801086,0.0561905,0.030899,0.0469208,-9.97986,0.0107193,-0.0267029,0.00328064,-0.361137,0.00946045,-0.0104904,-0.0062561,0.0171661
28,8,10.0097,0,-0.0088501,-2.42898,0.0544603,-0.075063,0.0526021,0.07036,-0.0937568,0.144098,-0.126682,-0.0880636,0.0118637,0.018158,0.027504,0.0160599,0.00278473,0.0499725,0.0283051,0.0511169,-9.97986,0.00858307,-0.0315857,0.0123596,-0.439072,0.0153351,-0.0115585,-0.00553131,0.0168991
28,9,10.0097,0.000610352,-0.00778198,-2.42959,0.0532396,-0.0759786,0.0504659,0.067003,-0.0952827,0.143792,-0.128208,-0.0889791,0.0111008,0.0205231,0.0328064,0.0159073,-0.000762939,0.0518417,0.0310516,0.0567245,-9.97986,0.00202179,-0.0203705,0.0211334,-0.501251,0.01091,-0.0233459,-0.00679016,0.0153351
29,0,10.0097,0.000915527,-0.00640869,-2.42837,0.0541551,-0.0762837,0.0535176,0.0685289,-0.0952827,0.143792,-0.128208,-0.0886739,0.013237,0.0257492,0.0349426,0.016861,0.00205994,0.0512695,0.0344467,0.0561905,-9.97986,0.0075531,-0.0246811,0.0306702,-0.552597,0.011673,-0.0244904,-0.00770569,0.0208282
29,1,10.0097,-0.000915527,-0.00610352,-2.42959,0.0535448,-0.0747579,0.0510762,0.0682238,-0.0937568,0.143792,-0.126682,-0.0886739,0.0117874,0.030365,0.0310898,0.017395,-0.00301361,0.046196,0.0321198,0.0548935,-9.97986,0.00793457,-0.0087738,0.0377655,-0.599213,0.00827789,-0.0249481,-0.014801,0.0159836
29,2,10.0097,0.00152588,-0.00427246,-2.42714,0.0547655,-0.075063,0.054128,0.0697496,-0.094062,0.143487,-0.126682,-0.0871481,0.0114441,0.0339508,0.0345612,0.0138474,-0.00175476,0.0446701,0.0302505,0.051918,-9.97986,0.00457764,0.0584793,0.0496292,-0.633698,0.00953674,-0.0245667,-0.0141907,0.0172424
29,3,10.0097,0.000305176,-0.00305176,-2.42928,0.0538499,-0.0744527,0.0532125,0.07036,-0.0934516,0.145013,-0.127292,-0.085317,0.00968933,0.0376129,0.0354385,0.0162125,-0.0031662,0.0436401,0.0325775,0.055275,-9.97986,0.00778198,0.104675,0.057373,-0.658989,0.00465393,-0.0197983,-0.00995636,0.0189972
29,4,10.0097,-0.000305176,-0.00228882,-2.42531,0.0547655,-0.0753682,0.054128,0.0694445,-0.0937568,0.144403,-0.125461,-0.0844015,0.0109482,0.0384521,0.0373077,0.0205231,-0.00637054,0.0434875,0.0310516,0.0545883,-9.97986,0.00843048,0.0950623,0.0659561,-0.678291,-0.00240326,-0.014534,-0.0115585,0.0201416
29,5,10.0097,0.00152588,-0.0012207,-2.42684,0.0544603,-0.075063,0.0553487,0.0706652,-0.0922309,0.146539,-0.124851,-0.0828756,0.00782013,0.0365448,0.0392151,0.0159073,-0.00396729,0.0418472,0.0308609,0.0603104,-9.97986,0.00900269,0.0398254,0.0769043,-0.687027,0.000495911,-0.0115204,-0.0128555,0.018959
29,6,10.0097,-0.0012207,0.000152588,-2.42562,0.0544603,-0.0744527,0.0556539,0.0715807,-0.0916206,0.144708,-0.123935,-0.0819601,0.0114441,0.0373459,0.0418091,0.0129318,-3.8147e-005,0.0431442,0.0311661,0.0589752,-9.97986,0.0138474,0.0154495,0.0876999,-0.6744,-0.000610352,-0.001297,-0.0114822,0.0165558
29,7,10.0097,0,0.00106812,-2.4244,0.0569017,-0.073232,0.0550435,0.07036,-0.0922309,0.146539,-0.122715,-0.0810445,0.00743866,0.041008,0.0414658,0.0163651,-0.00217438,0.0487137,0.0305939,0.0547028,-9.97986,0.0114059,0.00427246,0.0951004,-0.654144,-0.00282288,0.00297546,-0.00522614,0.0196457
29,8,10.0097,0.000305176,0.00152588,-2.4244,0.0562914,-0.0744527,0.0526021,0.0691393,-0.0916206,0.148065,-0.12363,-0.0810445,0.00587463,0.0443649,0.0473022,0.0144196,-0.00263214,0.0509644,0.0305939,0.0549316,-9.97986,0.0101471,-0.000724792,0.100937,-0.628777,-0.00282288,0.00389099,-0.00377655,0.0227356
29,9,10.0097,0,0.00274658,-2.42531,0.055681,-0.0744527,0.0562642,0.0712755,-0.0913154,0.146234,-0.123935,-0.080129,0.010376,0.0526428,0.0488663,0.017662,-0.00297546,0.0536728,0.0281906,0.0543213,-9.97986,0.00694275,-0.0102615,0.108185,-0.588531,-0.00358582,0.00366211,0.00171661,0.0287628
30,0,10.0097,0.0012207,0.00396729,-2.4247,0.0575121,-0.0738423,0.0547383,0.0718859,-0.0910102,0.145624,-0.12363,-0.080129,0.00247955,0.0496674,0.0477982,0.0130463,-0.0106049,0.0608063,0.0317383,0.0532913,-9.97986,0.00141144,-0.0289917,0.117302,-0.539856,-0.0019455,0.00110626,0.00301361,0.0279999
30,1,10.0097,0.000610352,0.00488281,-2.42653,0.0562914,-0.0729268,0.0532125,0.0572374,-0.0934516,0.146234,-0.125156,-0.0807394,0.00606537,0.0504303,0.0484467,0.0186157,-0.0037384,0.062561,0.0382614,0.0508881,-9.97986,0.00663757,-0.0137711,0.120621,-0.485458,-0.00442505,-0.00640869,0.00595093,0.0288391
30,2,10.0097,0.0012207,0.00488281,-2.42592,0.0562914,-0.0735371,0.054128,0.058153,-0.094062,0.146539,-0.127598,-0.0807394,0.00610352,0.0489044,0.0481415,0.0187683,-0.00343323,0.0650024,0.0326538,0.0497055,-9.97986,0.00648499,0.0094223,0.130005,-0.413399,-0.00389099,-0.00614166,0.0114822,0.033493
30,3,10.0097,0.000915527,0.00686646,-2.42562,0.0559862,-0.0738423,0.0547383,0.065172,-0.0934516,0.147455,-0.125766,-0.0798238,0.00984192,0.0542068,0.0500107,0.0167084,-0.00640869,0.0619888,0.0372314,0.0479889,-9.97986,0.00179291,0.0239563,0.135612,-0.336227,-0.00637054,-0.00999451,0.0122833,0.0328064
30,4,10.0097,-0.000305176,0.00778198,-2.42714,0.0553758,-0.0747579,0.0550435,0.0700548,-0.0916206,0.145624,-0.125461,-0.0804342,0.00930786,0.0502014,0.0476456,0.0149536,-0.0050354,0.0635529,0.0302124,0.0496674,-9.97986,0.00751495,0.0431824,0.145874,-0.243721,-0.0111771,-0.0107956,0.0154877,0.0293732
30,5,10.0097,0.0012207,0.00915527,-2.42592,0.0562914,-0.0744527,0.0553487,0.0840929,-0.0910102,0.145624,-0.123325,-0.078298,0.00869751,0.0522614,0.0473022,0.013504,-0.000228882,0.0622177,0.0291443,0.0419998,-9.97986,0.00888824,0.042305,0.154381,-0.14576,-0.01297,-0.0108337,0.0208282,0.0310135
30,6,10.0097,0.00152588,0.0102234,-2.42959,0.0529344,-0.0738423,0.0532125,0.0770738,-0.0934516,0.144403,-0.126377,-0.0834859,0.0108337,0.04879,0.0470734,0.0158691,-0.0019455,0.0566483,0.0283813,0.0393295,-9.97986,0.01091,-0.019989,0.167122,-0.0392532,-0.020256,-0.0135803,0.0224304,0.0339127
30,7,10.0097,0,0.00961304,-2.4305,0.0529344,-0.0756734,0.0526021,0.0746324,-0.0955879,0.142877,-0.126987,-0.0837911,0.0139618,0.04879,0.0459671,0.0177765,0.000228882,0.0562668,0.0267792,0.0432968,-9.97986,0.0111389,-0.0573349,0.18074,0.0624084,-0.0216293,-0.0108719,0.0246429,0.0338364
30,8,10.0097,0.000305176,0.00946045,-2.42837,0.0538499,-0.0753682,0.0535176,0.07036,-0.0949775,0.145013,-0.127598,-0.0834859,0.0105667,0.0517273,0.0452042,0.013237,-0.000419617,0.0500488,0.0275421,0.0398254,-9.97986,0.00656128,-0.0313568,0.191498,0.155907,-0.0267792,-0.0192642,0.0288391,0.0339508
30,9,10.0097,0,0.00869751,-2.42989,0.0532396,-0.0759786,0.0526021,0.0679186,-0.0943672,0.143792,-0.127292,-0.0850118,0.0156403,0.0466156,0.0439072,0.0125504,-0.00247955,0.0408936,0.0283813,0.0384903,-9.97986,0.00671387,-0.00782013,0.208168,0.251846,-0.0273132,-0.02388,0.0281906,0.0354767
31,0,10.0097,0.00152588,0.00793457,-2.42898,0.0550706,-0.0771993,0.0532125,0.0694445,-0.0931465,0.142877,-0.126987,-0.0837911,0.0121307,0.0495529,0.0411606,0.0139618,-0.00209808,0.0283813,0.0278091,0.0380707,-9.97986,0.00793457,-0.000991821,0.228691,0.334892,-0.0257111,-0.025444,0.0299072,0.0350952
31,1,10.0097,-0.000305176,0.0062561,-2.4305,0.0529344,-0.0762837,0.0526021,0.0688341,-0.0946723,0.144403,-0.125156,-0.0856222,0.0153732,0.0505829,0.0444412,0.018425,0.00442505,0.023613,0.0297928,0.0378799,-9.97986,0.00640869,0.00797272,0.256958,0.400047,-0.029068,-0.0296783,0.0326538,0.0310135
31,2,10.0097,0,0.00564575,-2.42806,0.0544603,-0.0759786,0.054128,0.0682238,-0.0928413,0.144098,-0.126987,-0.0840963,0.0127411,0.0469589,0.0404739,0.0170517,0.00087738,0.0209427,0.0266647,0.0416565,-9.97986,0.00553131,0.00133514,0.287857,0.458527,-0.0313568,-0.0272369,0.030899,0.0328827
31,3,10.0097,-0.0012207,0.00549316,-2.42776,0.0550706,-0.0756734,0.0532125,0.0709703,-0.0943672,0.145318,-0.126377,-0.0831808,0.00289917,0.0436783,0.0429916,0.0173187,0.00957489,0.0116348,0.0300598,0.0470734,-9.97986,-0.000572205,-0.00293732,0.311813,0.509148,-0.0294113,-0.0249481,0.0310516,0.033226
31,4,10.0097,0.000305176,0.00427246,-2.42714,0.0550706,-0.0747579,0.0535176,0.0688341,-0.094062,0.145013,-0.123935,-0.0834859,-0.00850677,0.0481796,0.039711,0.0175858,0.00572205,0.00282288,0.0256729,0.047226,-9.97986,0.00179291,-0.0135422,0.320816,0.546532,-0.0353241,-0.0205612,0.030632,0.0336838
31,5,10.0097,0.00183105,0.00320435,-2.42592,0.0562914,-0.0747579,0.0535176,0.07036,-0.0922309,0.145318,-0.125766,-0.0816549,-0.0112915,0.0427246,0.0351334,0.00976563,0.0069046,-0.00839233,0.0238037,0.0448608,-9.97986,0.00179291,-0.0106812,0.326653,0.565834,-0.0354767,-0.017662,0.0283432,0.0312042
31,6,10.0097,-0.0012207,0.00244141,-2.42562,0.0562914,-0.0747579,0.054128,0.0700548,-0.0900947,0.146234,-0.124546,-0.080129,-0.0102997,0.0453949,0.0405884,0.0143814,0.0094986,-0.0144577,0.0267029,0.0496292,-9.97986,0.00461578,-0.0111389,0.306931,0.586052,-0.0345993,-0.0206757,0.0299835,0.0296402
31,7,10.0097,-0.000915527,0.00183105,-2.4244,0.0565965,-0.0744527,0.054128,0.0715807,-0.0925361,0.146234,-0.12363,-0.0798238,-0.0161743,0.0442505,0.0409698,0.0178146,0.00434875,-0.0182343,0.0254822,0.0426865,-9.97986,0.0130463,-0.0143433,0.284653,0.59269,-0.0331879,-0.0260925,0.0286865,0.0287628
31,8,10.0097,0.000610352,0.000762939,-2.4244,0.0572069,-0.073232,0.0535176,0.0715807,-0.090705,0.147455,-0.124546,-0.0810445,-0.0192642,0.0414276,0.037384,0.010376,0.00514984,-0.0284958,0.0226974,0.0429535,-9.97986,0.0123596,-0.0217056,0.250664,0.599327,-0.0327301,-0.0292206,0.0299072,0.0269699
31,9,10.0097,0.000915527,0.000305176,-2.42501,0.0569017,-0.0729268,0.0538228,0.0712755,-0.0910102,0.147149,-0.12241,-0.0810445,-0.00751495,0.0410843,0.0406647,0.0108719,0.00553131,-0.0355148,0.0305939,0.0432968,-9.97986,0.0128937,-0.0257111,0.201721,0.590897,-0.0298309,-0.0240326,0.0294113,0.0210571
32,0,10.0097,0.000305176,-0.00137329,-2.42592,0.0553758,-0.073232,0.0532125,0.072191,-0.0922309,0.145624,-0.124546,-0.0825704,0.00694275,0.0374603,0.0416565,0.0122452,0.00118256,-0.0391006,0.0276947,0.0358963,-9.97986,0.00549316,-0.0232697,0.15667,0.569878,-0.0265121,-0.021019,0.0292206,0.013504
32,1,10.0097,-0.000610352,-0.00259399,-2.4247,0.0565965,-0.0744527,0.0532125,0.0560167,-0.0943672,0.146539,-0.126377,-0.0819601,0.0306702,0.0444031,0.0381088,0.013504,-0.00133514,-0.0405121,0.0302505,0.0254822,-9.97986,0.000495911,-0.0198746,0.10704,0.538025,-0.0195694,-0.0172424,0.0321579,0.00392914
32,2,10.0097,0,-0.00411987,-2.42684,0.0553758,-0.0738423,0.0529073,0.0572374,-0.0928413,0.145929,-0.125766,-0.0844015,0.0366974,0.0428009,0.0372314,0.0130463,0.00377655,-0.0465012,0.0283051,0.0277328,-9.97986,-0.00331879,-0.0215149,0.0610733,0.4842,-0.0233078,-0.0166702,0.0292969,-0.00762939
32,3,10.0097,0.000610352,-0.0050354,-2.42562,0.0562914,-0.0744527,0.0519917,0.0645616,-0.0916206,0.145624,-0.125156,-0.0840963,0.042572,0.0434875,0.0369644,0.0136185,0.00156403,-0.0554276,0.0230789,0.018692,-9.97986,-0.00274658,-0.0233459,0.0184631,0.427361,-0.0210953,-0.0125885,0.0301743,-0.0209808
32,4,10.0097,-0.000305176,-0.0062561,-2.42684,0.0559862,-0.075063,0.0535176,0.0700548,-0.0916206,0.145929,-0.126072,-0.0844015,0.0461578,0.0475693,0.0419998,0.0141144,0.00598907,-0.0556946,0.0165939,0.00923157,-9.97986,-0.00102997,-0.0258636,-0.0308228,0.364761,-0.0234985,-0.00537872,0.0304031,-0.0275421
32,5,10.0097,0,-0.00640869,-2.42745,0.0553758,-0.075063,0.0529073,0.0843981,-0.0903999,0.144403,-0.125461,-0.0850118,0.00923157,0.0379562,0.0385284,0.0143814,0.00217438,-0.0596237,0.00740051,0.0117111,-9.97986,-0.0069046,-0.0188065,-0.067482,0.28141,-0.0219727,-0.00442505,0.0299835,-0.0384521
32,6,10.0097,-0.000610352,-0.00656128,-2.42837,0.0550706,-0.0762837,0.050771,0.0785997,-0.0943672,0.143487,-0.126377,-0.0886739,-0.0274658,0.043335,0.0403976,0.00999451,0.00816345,-0.0650406,0.000534058,0.0104904,-9.97986,-0.0146484,-0.0196075,-0.110664,0.200348,-0.019989,-0.0114059,0.032196,-0.0486374
32,7,10.0097,0.000915527,-0.00793457,-2.42928,0.0544603,-0.0762837,0.0516866,0.07036,-0.0949775,0.143487,-0.126377,-0.0898946,-0.0392151,0.0466156,0.0396729,0.0094223,0.0125504,-0.0650787,-0.00537872,0.0154877,-9.97986,-0.0249481,-0.0207138,-0.14122,0.112915,-0.0188828,-0.0186157,0.0337219,-0.0470734
32,8,10.0097,0.000305176,-0.00946045,-2.42837,0.0535448,-0.0768941,0.0510762,0.0700548,-0.0934516,0.143182,-0.127292,-0.0895895,-0.0483704,0.0430298,0.0365448,0.00835419,0.0209427,-0.0701141,-0.0037384,0.0114059,-9.97986,-0.0332642,-0.00675201,-0.171509,0.0217438,-0.0291061,-0.00930786,0.0341797,-0.0506973
32,9,10.0097,0.00183105,-0.00915527,-2.42959,0.0538499,-0.0759786,0.0516866,0.0691393,-0.0943672,0.144403,-0.127598,-0.0886739,-0.0325012,0.044899,0.0322342,0.0101471,0.0348663,-0.0685501,-0.00377655,0.00980377,-9.97986,-0.0376129,0.0126648,-0.200233,-0.069809,-0.0283051,0.000457764,0.0374222,-0.0468826
33,0,10.0097,-0.000610352,-0.00900269,-2.42867,0.0541551,-0.0759786,0.0522969,0.0700548,-0.0946723,0.144403,-0.127598,-0.0892843,-0.02388,0.0414276,0.0345612,0.0119781,0.0450134,-0.0740051,-0.00873566,0.00556946,-9.97986,-0.0320816,0.00125885,-0.208015,-0.150108,-0.0291824,0.00579834,0.039711,-0.040741
33,1,10.0097,0.000610352,-0.00854492,-2.42959,0.0538499,-0.0756734,0.0492452,0.0691393,-0.0946723,0.141351,-0.126987,-0.0886739,-0.0075531,0.0437546,0.0339508,0.0159454,0.0471497,-0.0780869,-0.00869751,-0.00137329,-9.97986,-0.0295258,-0.0230408,-0.224457,-0.233994,-0.0245285,0.00465393,0.0404739,-0.0444794
33,2,10.0097,-0.000915527,-0.00869751,-2.42745,0.0544603,-0.0753682,0.0529073,0.0700548,-0.0919257,0.144403,-0.126377,-0.0871481,-0.00637054,0.0382233,0.0297928,0.0127029,0.0491714,-0.0819778,-0.00682831,-0.00785828,-9.97986,-0.0197983,-0.0336075,-0.231285,-0.318336,-0.0276947,0.0136566,0.041275,-0.0395584
33,3,10.0097,0.00183105,-0.00732422,-2.42684,0.0547655,-0.0759786,0.0522969,0.0697496,-0.0937568,0.143182,-0.126072,-0.085317,0.0177383,0.0338364,0.0226212,0.0143814,0.0611496,-0.0908279,-0.00911713,-0.0122833,-9.97986,-0.00759125,-0.0265503,-0.23632,-0.389824,-0.0242233,0.0125122,0.0416183,-0.0372314
33,4,10.0097,0.000305176,-0.00701904,-2.42684,0.0544603,-0.0744527,0.0532125,0.0709703,-0.0946723,0.146234,-0.125766,-0.0865377,0.0697327,0.0366592,0.0240707,0.00823975,0.064621,-0.0882339,-0.00480652,-0.00629425,-9.97986,-0.00415802,-0.0278854,-0.242081,-0.457077,-0.0317764,0.00610352,0.0421524,-0.0371933
33,5,10.0097,0.000610352,-0.00549316,-2.42592,0.0550706,-0.0744527,0.0529073,0.07036,-0.0922309,0.145929,-0.125156,-0.0859274,0.103798,0.0281906,0.0236893,0.0156021,0.0694275,-0.0945663,-0.00110626,-0.00400543,-9.97986,-0.0185013,-0.0222778,-0.244865,-0.516319,-0.0375366,0.0038147,0.0493622,-0.0318527
33,6,10.0097,0.000610352,-0.00579834,-2.42501,0.0565965,-0.0744527,0.0544332,0.07036,-0.0922309,0.146539,-0.124546,-0.0831808,0.0955582,0.0385666,0.0231552,0.0156403,0.0758362,-0.0901031,-0.00492096,0.0109482,-9.97986,-0.0363541,-0.0210953,-0.243301,-0.579224,-0.0325012,0.00171661,0.0483322,-0.0278473
33,7,10.0097,0,-0.0050354,-2.42531,0.0575121,-0.0738423,0.0550435,0.0709703,-0.090705,0.148065,-0.123935,-0.0822652,0.0859833,0.0342941,0.02491,0.0133896,0.0680542,-0.0894928,-0.000228882,0.017128,-9.97986,-0.0400925,-0.0224304,-0.240822,-0.625229,-0.0320053,0.00198364,0.0508499,-0.0255585
33,8,10.0097,0.000915527,-0.00488281,-2.42592,0.0559862,-0.073232,0.0535176,0.0706652,-0.0922309,0.146234,-0.124851,-0.0828756,0.0799561,0.028801,0.016861,0.0142288,0.0680923,-0.0911331,-0.0043869,0.0255966,-9.97986,-0.0387955,-0.0244141,-0.240479,-0.668488,-0.0305939,0.00972748,0.0484085,-0.0199127
33,9,10.0097,0.000915527,-0.00427246,-2.42592,0.0569017,-0.0735371,0.0550435,0.0712755,-0.0913154,0.146539,-0.124546,-0.0816549,0.0627136,0.0252914,0.0216293,0.0173569,0.0703049,-0.0836182,-0.00198364,0.0332642,-9.97986,-0.0247955,-0.0196457,-0.230827,-0.709496,-0.0286484,0.00904083,0.0479126,-0.0191879
34,0,10.0097,0.000610352,-0.00335693,-2.42409,0.0559862,-0.0741475,0.0550435,0.0706652,-0.0922309,0.145929,-0.123935,-0.0816549,0.0414658,0.0304794,0.0135422,0.0151825,0.07164,-0.0767517,-0.000495911,0.0386429,-9.97986,-0.0183487,-0.0113297,-0.230675,-0.73925,-0.0269699,0.00896454,0.04673,-0.0155258
34,1,10.0097,0.000305176,-0.00335693,-2.42653,0.0559862,-0.0741475,0.0547383,0.0563219,-0.0946723,0.146844,-0.125766,-0.0825704,0.0183868,0.0247955,0.00873566,0.0140381,0.0706482,-0.0666046,-0.00148773,0.0406647,-9.97986,-0.00190735,-0.00286102,-0.225945,-0.771027,-0.0211716,0.00709534,0.0436783,-0.013237
34,2,10.0097,0.0012207,-0.00305176,-2.42653,0.0559862,-0.073232,0.0547383,0.0551012,-0.0937568,0.146844,-0.125156,-0.0828756,0.00907898,0.0203705,0.00946045,0.0110245,0.0690079,-0.0657272,0.00213623,0.0370407,-9.97986,0.0239944,0.00583649,-0.215759,-0.791321,-0.0194168,0.0019455,0.0395966,-0.00785828
34,3,10.0097,0.000610352,-0.00259399,-2.42592,0.0538499,-0.0747579,0.0547383,0.065172,-0.0925361,0.145318,-0.124851,-0.0831808,-0.0190735,0.0167084,0.00659943,0.0163651,0.0710678,-0.0571442,0.00331879,0.0347519,-9.97986,0.0424957,0.00537872,-0.211906,-0.810585,-0.0190735,0.0012207,0.0346375,-0.00606537
34,4,10.0097,-0.000915527,-0.00152588,-2.42562,0.0562914,-0.0744527,0.0547383,0.0694445,-0.0925361,0.145013,-0.122715,-0.0837911,-0.0417709,0.0191116,0.00339508,0.0146866,0.0704575,-0.0621796,0.0050354,0.0225449,-9.97986,0.0587463,0.0106049,-0.199318,-0.829239,-0.0161743,-0.00530243,0.0275421,-0.00244141
34,5,10.0097,0.0012207,-0.000915527,-2.42684,0.0544603,-0.0747579,0.0547383,0.0840929,-0.0913154,0.144708,-0.125156,-0.0840963,-0.031395,0.0190735,0.00534058,0.0175095,0.0668716,-0.0669861,0.00598907,0.0182343,-9.97986,0.0765228,0.00610352,-0.183372,-0.834312,-0.0103378,-0.00205994,0.0257874,-0.000228882
34,6,10.0097,-0.000305176,0,-2.42806,0.0532396,-0.0768941,0.0522969,0.0779894,-0.0946723,0.144403,-0.126682,-0.0865377,-0.0477982,0.0206757,0.00644684,0.0196838,0.0674057,-0.0678253,0.00717163,0.00335693,-9.97986,0.0885391,0.0018692,-0.17067,-0.838242,-0.00656128,0.00255585,0.0208282,-0.00717163
34,7,10.0097,0.0012207,-0.000457764,-2.42928,0.0532396,-0.075063,0.0529073,0.0718859,-0.0943672,0.143792,-0.127292,-0.0862325,-0.0543594,0.0230789,0.00789642,0.0197601,0.0654984,-0.074234,0.00671387,-0.00484467,-9.97986,0.0880432,0.00495911,-0.153885,-0.835876,-0.00724792,0.00614166,0.0163269,-0.0100708
34,8,10.0097,-0.00213623,-0.000305176,-2.42837,0.0544603,-0.0756734,0.0532125,0.0691393,-0.0955879,0.142267,-0.126987,-0.0868429,-0.0366592,0.0175095,0.0063324,0.018959,0.0616455,-0.0990677,0.00335693,0.000686646,-9.97986,0.0756073,0.00263214,-0.139084,-0.833092,-0.00602722,0.00823975,0.00896454,-0.0127411
34,9,10.0097,0,-0.000457764,-2.4302,0.0535448,-0.0759786,0.0522969,0.0679186,-0.0965034,0.143792,-0.127903,-0.0880636,-0.0563431,0.0138855,0.00370026,0.0182343,0.0580597,-0.107384,0.00621796,0.00961304,-9.97986,0.0625992,-0.00175476,-0.123444,-0.830307,-0.00514984,0.0111389,0.00732422,-0.0154877
35,0,10.0097,0.000915527,-0.000152588,-2.42867,0.0529344,-0.0762837,0.0532125,0.0685289,-0.094062,0.142877,-0.127903,-0.0862325,-0.0906372,0.018158,-0.00198364,0.0164032,0.0573349,-0.108948,0.00640869,0.00961304,-9.97986,0.0531387,0.00629425,-0.108795,-0.822868,-0.0043869,0.0107574,-0.000457764,-0.0156403
35,1,10.0097,-0.000610352,-0.000610352,-2.42898,0.0535448,-0.0762837,0.0516866,0.0679186,-0.0946723,0.142877,-0.128513,-0.0865377,-0.0982666,0.0141525,0.0019455,0.0116348,0.0567627,-0.113373,0.00900269,0.0107574,-9.97986,0.0477219,-0.00038147,-0.0936127,-0.816994,-0.000953674,0.0137329,-0.00762939,-0.0198746
35,2,10.0097,0,0.000457764,-2.42806,0.0547655,-0.0762837,0.054128,0.0697496,-0.094062,0.143792,-0.126682,-0.0850118,-0.0535965,0.0191879,0.00701904,0.0189972,0.062027,-0.113182,0.0104904,0.00610352,-9.97986,0.0477982,-0.000915527,-0.0786209,-0.80555,0.00736237,0.0127029,-0.00747681,-0.0204468
35,3,10.0097,0.000305176,0.000457764,-2.42776,0.0550706,-0.075063,0.054128,0.0709703,-0.0931465,0.145318,-0.126072,-0.0850118,0.0144577,0.0157928,0.00453949,0.021286,0.0648117,-0.102196,0.0118637,0.00450134,-9.97986,0.0428391,-0.00156403,-0.0701141,-0.797768,0.00743866,0.0100708,-0.0144196,-0.0165558
35,4,10.0097,0.00213623,0.000457764,-2.42745,0.0538499,-0.075063,0.0529073,0.0706652,-0.0931465,0.145624,-0.126682,-0.0847066,0.069313,0.014534,0.0038147,0.013237,0.0742722,-0.0956345,0.0110626,0.0019455,-9.97986,0.0376892,0.0019455,-0.0627899,-0.785103,0.0139618,0.0082016,-0.0153732,-0.014534
35,5,10.0097,0.00366211,0.00167847,-2.42653,0.055681,-0.0744527,0.0538228,0.07036,-0.0925361,0.146539,-0.124241,-0.0834859,0.0831985,0.0123978,0.000228882,0.0133514,0.0849915,-0.0737762,0.0180054,0.00736237,-9.97986,0.0484848,-0.00473022,-0.0519943,-0.768089,0.0206757,0.015831,-0.0214005,-0.0107574
35,6,10.0097,0.0012207,0.00137329,-2.4247,0.0572069,-0.073232,0.0538228,0.072191,-0.0934516,0.145929,-0.123325,-0.0804342,0.103416,0.0104141,-0.001297,0.0127792,0.0972366,-0.0495529,0.015831,0.000152588,-9.97986,0.0737762,-0.00770569,-0.0517273,-0.751495,0.0261307,0.0108337,-0.0244904,-0.0128174
35,7,10.0097,0.0012207,0.00198364,-2.42653,0.0565965,-0.0744527,0.0538228,0.0706652,-0.0922309,0.145318,-0.124546,-0.0807394,0.0934601,0.0143433,0.00118256,0.0136566,0.107994,-0.0246811,0.0227737,-0.001297,-9.97986,0.0843811,-0.00602722,-0.0424957,-0.728951,0.029068,0.0094986,-0.0230026,-0.0075531
35,8,10.0097,0.00152588,0.00152588,-2.4244,0.055681,-0.0738423,0.0553487,0.0694445,-0.0916206,0.147149,-0.123935,-0.080129,0.0539017,0.00968933,0.000991821,0.0138092,0.119972,-0.00900269,0.0193024,-0.00160217,-9.97986,0.0600815,-0.00473022,-0.0428391,-0.700798,0.0376129,0.00911713,-0.0243759,-0.00720978
35,9,10.0097,0.000610352,0.00259399,-2.4247,0.0565965,-0.0738423,0.0550435,0.0706652,-0.0928413,0.146234,-0.123935,-0.0798238,0.0190735,0.00930786,-0.000762939,0.0134277,0.128288,0.0261307,0.0252914,0.00476837,-9.97986,0.0379181,0.00263214,-0.0432205,-0.679512,0.039444,0.00617981,-0.0228882,-0.00545502
36,0,10.0097,0.00183105,0.00335693,-2.42531,0.0553758,-0.0729268,0.0550435,0.07036,-0.090705,0.146539,-0.124851,-0.0807394,0.0298691,0.00717163,-0.00423431,0.014267,0.131836,0.0599289,0.0265503,0.00701904,-9.97986,0.0223923,0.0115204,-0.0548553,-0.64785,0.0505066,0.00209808,-0.01194,-0.00583649
36,1,10.0097,0.00183105,0.00198364,-2.42592,0.0559862,-0.0747579,0.0532125,0.0554064,-0.0925361,0.146234,-0.126072,-0.0816549,0.090065,0.00209808,-0.00713348,0.00598907,0.132332,0.0934219,0.0309372,0.0112152,-9.97986,0.0154877,0.00782013,-0.0610733,-0.620461,0.057373,0.000457764,-0.00621796,-0.00724792
36,2,10.0097,0.00152588,0.00213623,-2.42562,0.0572069,-0.0744527,0.054128,0.058153,-0.0928413,0.146844,-0.124851,-0.0807394,0.145683,0.00286102,-0.00701904,0.00892639,0.13916,0.114708,0.0310898,0.0196457,-9.97986,0.0281906,0.0175476,-0.0604248,-0.58609,0.0675201,0.000991821,0.0030899,-0.0088501
36,3,10.0097,0.000610352,0.00350952,-2.42592,0.0550706,-0.0738423,0.0556539,0.0639513,-0.0919257,0.145013,-0.125766,-0.0813497,0.134544,0.00236511,-0.0100327,0.00728607,0.136795,0.126381,0.0362778,0.0199127,-9.97986,0.0521469,0.012207,-0.0667191,-0.548286,0.0675964,0.0044632,0.00751495,-0.0125504
36,4,10.0097,-0.000610352,0.00396729,-2.42562,0.0565965,-0.0738423,0.054128,0.0709703,-0.0922309,0.145318,-0.125156,-0.0816549,0.11261,0.00514984,-0.00965118,0.00595093,0.130959,0.127487,0.0376129,0.0231171,-9.97986,0.0690079,0.0146866,-0.069046,-0.514145,0.0732803,0.00133514,0.0155258,-0.0152588
36,5,10.0097,0.000610352,0.00427246,-2.42684,0.0553758,-0.0747579,0.054128,0.0843981,-0.0913154,0.145013,-0.124851,-0.0819601,0.0775528,0.00297546,-0.0122452,0.0018692,0.129395,0.126572,0.0421906,0.0236893,-9.97986,0.0737,0.0111389,-0.07061,-0.467873,0.0732422,-0.000267029,0.0191879,-0.0180054
36,6,10.0097,-0.000305176,0.00457764,-2.42989,0.0529344,-0.0759786,0.0519917,0.0776842,-0.0946723,0.143792,-0.126377,-0.0856222,0.0333405,-0.000114441,-0.0136948,0.0044632,0.123672,0.110931,0.036087,0.0217438,-9.97986,0.0776672,0.0203323,-0.0736237,-0.427933,0.0727463,-0.00522614,0.0148392,-0.025177
36,7,10.0097,-0.00152588,0.00396729,-2.42806,0.0535448,-0.0762837,0.0522969,0.0700548,-0.0955879,0.142267,-0.127292,-0.0850118,-0.00347137,0.000648499,-0.00991821,0.0063324,0.11837,0.0824738,0.0409698,0.0279999,-9.97986,0.0723648,0.0228882,-0.0700378,-0.386314,0.0761414,-0.00209808,0.0215149,-0.033226
36,8,10.0097,0.00152588,0.00335693,-2.42867,0.0535448,-0.0747579,0.0532125,0.07036,-0.0952827,0.144708,-0.127292,-0.085317,-0.0236893,0.00492096,-0.00465393,0.00759125,0.101357,0.0622559,0.0424957,0.025177,-9.97986,0.0709534,0.021553,-0.0668335,-0.345421,0.0736237,-0.00793457,0.0252914,-0.038681
36,9,10.0097,-0.000915527,0.00335693,-2.42989,0.0544603,-0.0753682,0.0513814,0.0685289,-0.0961982,0.141961,-0.127292,-0.0862325,-0.0615311,0.00476837,-0.00106812,0.00423431,0.0933075,0.0484467,0.0380707,0.0184631,-9.97986,0.083046,0.0157547,-0.0665283,-0.310783,0.0724792,-0.00988007,0.024147,-0.0536346
37,0,10.0097,0.000610352,0.00350952,-2.42959,0.0541551,-0.0765889,0.0526021,0.0688341,-0.0955879,0.143792,-0.127903,-0.085317,-0.0723267,0.00751495,0.00595093,0.00362396,0.0830078,0.041008,0.0432205,0.0154877,-9.97986,0.106354,0.0172043,-0.0593185,-0.265427,0.0735474,-0.0154877,0.0310516,-0.0532532
37,1,10.0097,-0.000305176,0.00320435,-2.42898,0.0544603,-0.0753682,0.0519917,0.0697496,-0.0943672,0.142572,-0.126987,-0.0868429,-0.087471,0.0119781,0.00442505,0.0062561,0.0764847,0.0401688,0.0402451,0.0094986,-9.97986,0.115089,0.0235367,-0.0625229,-0.224419,0.0678253,-0.0150681,0.0292206,-0.0544739
37,2,10.0097,0.000610352,0.0038147,-2.42745,0.0550706,-0.0753682,0.0529073,0.0691393,-0.0955879,0.143792,-0.126072,-0.0850118,-0.0960922,0.0149918,0.0117874,0.0104141,0.0684738,0.0312042,0.0399399,0.00648499,-9.97986,0.11734,0.023613,-0.0598526,-0.183258,0.070076,-0.0136185,0.0361252,-0.0572586
37,3,10.0097,-0.000610352,0.00350952,-2.42806,0.0535448,-0.075063,0.0547383,0.0691393,-0.0922309,0.145013,-0.126987,-0.0840963,-0.0920105,0.0123215,0.0120544,0.00934601,0.0619125,0.0287628,0.0405884,0.00461578,-9.97986,0.114784,0.022049,-0.0510025,-0.146065,0.0728989,-0.0115585,0.0400162,-0.0572205
37,4,10.0097,-0.00183105,0.00442505,-2.42623,0.055681,-0.0738423,0.054128,0.0694445,-0.0931465,0.144708,-0.125156,-0.0825704,-0.055275,0.0112534,0.0127792,0.00965118,0.0588226,0.031929,0.0411224,0.0124741,-9.97986,0.100403,0.0115204,-0.0343323,-0.0982285,0.071907,-0.0125122,0.0403595,-0.0627518
37,5,10.0097,-0.000610352,0.00427246,-2.42745,0.055681,-0.0759786,0.0544332,0.0700548,-0.0919257,0.144708,-0.125461,-0.0816549,0.00865936,0.0130081,0.0156021,0.00934601,0.0545883,0.0240707,0.0406647,0.0149536,-9.97986,0.0710678,0.00202179,-0.0209808,-0.0593948,0.0672913,-0.0167084,0.043869,-0.0624847
37,6,10.0097,-0.000305176,0.00518799,-2.42562,0.0565965,-0.0738423,0.0544332,0.0712755,-0.0913154,0.147149,-0.12363,-0.0798238,0.0400925,0.0143051,0.0171661,0.010376,0.0448608,0.0139618,0.0402069,0.0127792,-9.97986,0.0388336,0.00511169,-0.0167084,-0.0170517,0.067215,-0.0160217,0.0435638,-0.0630951
37,7,10.0097,0,0.00411987,-2.42592,0.0565965,-0.0726216,0.0544332,0.0709703,-0.0922309,0.146234,-0.124241,-0.080129,0.0292587,0.0171661,0.0199509,0.0112534,0.0418854,0.00301361,0.0376511,0.0102234,-9.97986,0.0176239,0.0127792,-0.00488281,0.0285339,0.0665665,-0.0142288,0.0442505,-0.0655746
37,8,10.0097,0.000610352,0.00427246,-2.42562,0.0562914,-0.0735371,0.0553487,0.0706652,-0.0919257,0.146844,-0.124851,-0.0807394,0.0082016,0.0153732,0.0160599,0.00701904,0.0336075,-0.00480652,0.032959,0.0130844,-9.97986,0.0094223,0.01194,0.0056839,0.0668716,0.0630188,-0.0159454,0.0441742,-0.0567245
37,9,10.0097,0.000915527,0.00457764,-2.4247,0.0565965,-0.0735371,0.0562642,0.0718859,-0.0897895,0.146844,-0.12363,-0.0792135,0.00946045,0.0159073,0.0159836,0.00579834,0.03582,-0.00782013,0.0327301,0.023613,-9.97986,0.0108719,0.0114441,0.0216675,0.108528,0.0626755,-0.0133133,0.0506973,-0.0556946
38,0,10.0097,0.00152588,0.00442505,-2.42501,0.0559862,-0.0744527,0.0538228,0.0712755,-0.090705,0.14776,-0.12302,-0.0798238,0.0330734,0.0159454,0.016861,0.00488281,0.0312424,-0.0112915,0.0288773,0.029335,-9.97986,0.0155258,0.0126266,0.0332642,0.144882,0.063858,-0.0187683,0.0529861,-0.0558472
38,1,10.0097,0,0.00350952,-2.42653,0.0559862,-0.0735371,0.0547383,0.054796,-0.0946723,0.145929,-0.126072,-0.0819601,0.0209808,0.0111389,0.0218964,0.00102997,0.0350952,-0.013504,0.0257874,0.028038,-9.97986,0.0391006,0.015564,0.0440216,0.181999,0.0662613,-0.0194168,0.0568008,-0.0539398
38,2,10.0097,0.000610352,0.00289917,-2.42562,0.0562914,-0.0741475,0.0544332,0.0584581,-0.0937568,0.147149,-0.126072,-0.0813497,-0.00354767,0.0162506,0.0183105,0.00743866,0.0370407,-0.0146484,0.0234985,0.0301361,-9.97986,0.0416565,0.013237,0.0595856,0.217438,0.0616837,-0.0202179,0.0557709,-0.0499344
38,3,10.0097,-0.000305176,0.00335693,-2.42592,0.0569017,-0.0741475,0.0544332,0.0645616,-0.0928413,0.145318,-0.125461,-0.0813497,-0.00770569,0.0170898,0.0146866,0.00514984,0.0379181,-0.0139999,0.0196075,0.0305176,-9.97986,0.0337982,0.00759125,0.0707245,0.248642,0.0625229,-0.0229645,0.0524521,-0.0503159
38,4,10.0097,0.000305176,0.00366211,-2.42653,0.0547655,-0.0735371,0.0547383,0.0691393,-0.0925361,0.145318,-0.125766,-0.0828756,-0.0180817,0.0229645,0.0170517,0.0087738,0.0365448,-0.0159836,0.0221634,0.0315857,-9.97986,0.0114822,-0.00411987,0.0793076,0.279999,0.0563812,-0.0177002,0.0553513,-0.0457764
38,5,10.0097,0.00183105,0.00305176,-2.42562,0.0547655,-0.0759786,0.0550435,0.0847032,-0.0900947,0.146844,-0.124851,-0.0825704,0.0134277,0.0210953,0.0198364,0.00408173,0.0335693,-0.0186157,0.0159073,0.0291824,-9.97986,-0.015831,0.00137329,0.0850677,0.296211,0.0541687,-0.0227356,0.0507736,-0.045433
38,6,10.0097,-0.0012207,0.00350952,-2.42776,0.0541551,-0.0759786,0.0529073,0.0785997,-0.0937568,0.142877,-0.126682,-0.0850118,0.0788116,0.02388,0.0204086,0.00709534,0.0327682,-0.016861,0.0175476,0.0322342,-9.97986,-0.0278091,0.00221252,0.0944138,0.329552,0.0550842,-0.0216675,0.0545883,-0.043335
38,7,10.0097,0,0.00289917,-2.42867,0.0538499,-0.0762837,0.0501607,0.0709703,-0.0949775,0.143487,-0.126987,-0.0868429,0.0969315,0.0280762,0.025177,0.0103378,0.0388718,-0.0162888,0.0138092,0.0312424,-9.97986,-0.0362778,-0.00724792,0.0958252,0.351181,0.0519943,-0.0241089,0.0556183,-0.0416565
38,8,10.0097,-0.00152588,0.00198364,-2.42928,0.0538499,-0.0762837,0.0522969,0.0694445,-0.0955879,0.144708,-0.126987,-0.085317,0.0929642,0.0292969,0.0288773,0.00995636,0.0371933,-0.0180054,0.0112915,0.0311279,-9.97986,-0.0325394,-0.00331879,0.0983429,0.373001,0.051651,-0.0255585,0.0542831,-0.0388718
38,9,10.0097,-0.000305176,0.00198364,-2.42806,0.0529344,-0.0765889,0.050771,0.0688341,-0.095893,0.142572,-0.126987,-0.0859274,0.0675201,0.0292206,0.0255585,0.0075531,0.0363159,-0.0173187,0.0126648,0.0271988,-9.97986,-0.0370026,-0.00389099,0.102272,0.397186,0.0531769,-0.0226974,0.0554276,-0.0370407
39,0,10.0097,-0.000610352,0.00198364,-2.42928,0.0541551,-0.075063,0.0519917,0.0679186,-0.0952827,0.143182,-0.126987,-0.0859274,0.0622559,0.0289917,0.0268936,0.00679016,0.0405884,-0.0144577,0.0159073,0.0214767,-9.97986,-0.0392532,-0.00270844,0.109291,0.418358,0.0542068,-0.0217819,0.0546265,-0.0347519
39,1,10.0097,0,0.00183105,-2.42928,0.0550706,-0.0756734,0.0513814,0.0660875,-0.0943672,0.144403,-0.127903,-0.0868429,0.0472641,0.030098,0.0281143,0.01091,0.0350952,-0.0191879,0.0181961,0.0180435,-9.97986,-0.0432587,0.00392914,0.112305,0.440483,0.0519943,-0.0210571,0.0532532,-0.0347137
39,2,10.0097,0.00183105,0.00289917,-2.42745,0.0541551,-0.0753682,0.0529073,0.07036,-0.0928413,0.144098,-0.126682,-0.085317,0.0291443,0.0296402,0.0321198,0.0163269,0.0313187,-0.0194931,0.0231171,0.015831,-9.97986,-0.0455475,0.0102234,0.114365,0.467186,0.0600433,-0.0139999,0.0554657,-0.0272369
39,3,10.0097,0.000305176,0.000915527,-2.42714,0.0544603,-0.0756734,0.0532125,0.0688341,-0.0946723,0.144098,-0.125461,-0.0831808,0.0217438,0.0263596,0.0272369,0.00972748,0.02388,-0.0204086,0.0147247,0.00301361,-9.97986,-0.0628662,0.00221252,0.103912,0.474014,0.0551605,-0.0288391,0.0452423,-0.0380325
39,4,10.0097,0.0012207,0.00228882,-2.42684,0.0544603,-0.0756734,0.0526021,0.0676134,-0.0916206,0.145929,-0.126072,-0.0834859,0.0199509,0.0365829,0.0384903,0.0179672,0.0340652,-0.0115967,0.0195694,0.00423431,-9.97986,-0.0630188,0.00782013,0.115662,0.492783,0.0629807,-0.0228882,0.0460815,-0.0281525
39,5,10.0097,0.000610352,0.00167847,-2.42653,0.0550706,-0.0747579,0.0544332,0.0697496,-0.0919257,0.145013,-0.125461,-0.0816549,0.021553,0.0268173,0.0344849,0.0127792,0.0284195,-0.0176239,0.0153351,-0.00469208,-9.97986,-0.0687408,0.010376,0.110321,0.50808,0.0635529,-0.0225067,0.0452423,-0.0310135
39,6,10.0097,-0.000305176,0.00198364,-2.42409,0.0569017,-0.0747579,0.0547383,0.0706652,-0.0928413,0.146539,-0.125461,-0.080129,0.034256,0.0273895,0.0311661,0.0137329,0.0232697,-0.0163651,0.0139618,-0.0087738,-9.97986,-0.0720215,0.00507355,0.111084,0.519562,0.0644302,-0.0217056,0.0484467,-0.029068
39,7,10.0097,0.000305176,0.00106812,-2.42562,0.055681,-0.0735371,0.0535176,0.0715807,-0.0913154,0.147455,-0.124241,-0.0810445,0.0365829,0.0338364,0.0344086,0.0124741,0.0240707,-0.0125885,0.0152588,-0.00671387,-9.97986,-0.0797272,0.00343323,0.10643,0.532951,0.0770187,-0.0241852,0.0478363,-0.0282288
39,8,10.0097,0,0.00137329,-2.42562,0.0559862,-0.0726216,0.0553487,0.0715807,-0.0925361,0.147149,-0.123935,-0.0807394,0.0401688,0.0268936,0.0281143,0.0156021,0.0185394,-0.0140381,0.0117493,-0.0109863,-9.97986,-0.0754929,0.00236511,0.109024,0.549927,0.0740051,-0.0310135,0.0481415,-0.0262451
39,9,10.0097,0,0.00183105,-2.4244,0.0559862,-0.0729268,0.0553487,0.0712755,-0.0910102,0.147149,-0.12363,-0.080129,0.00759125,0.0278091,0.0297928,0.0178146,0.0171661,-0.0111389,0.00961304,-0.0115585,-9.97986,-0.065918,-0.00282288,0.109863,0.566902,0.0821686,-0.0276947,0.0465775,-0.0255966
40,0,10.0097,0.000610352,0.00183105,-2.4244,0.0562914,-0.0735371,0.0547383,0.07036,-0.0922309,0.146844,-0.124546,-0.0804342,-0.0460434,0.0258255,0.027771,0.0165558,0.0125885,-0.0260162,0.0133514,-0.0107193,-9.97986,-0.0549698,-0.00640869,0.104218,0.583572,0.0833511,-0.0268173,0.044632,-0.0259018
40,1,10.0097,0.000915527,0.00183105,-2.42653,0.0559862,-0.0741475,0.054128,0.0554064,-0.0977241,0.146539,-0.125766,-0.0804342,-0.0813675,0.0226593,0.0267029,0.017395,0.0131989,-0.0299072,0.0165939,-0.00656128,-9.97986,-0.0339508,-0.0123215,0.103683,0.606537,0.0865173,-0.026741,0.0452042,-0.0231171
40,2,10.0097,-0.000610352,0.00198364,-2.42653,0.055681,-0.0738423,0.0544332,0.0584581,-0.0928413,0.145929,-0.125766,-0.0810445,-0.096817,0.0209808,0.0216675,0.0138092,0.015564,-0.0247192,0.00968933,0.00171661,-9.97986,-0.000915527,-0.016098,0.107803,0.624084,0.0904465,-0.0192261,0.0445938,-0.0241089
40,3,10.0097,0.0012207,0.00152588,-2.42684,0.055681,-0.0741475,0.0550435,0.0654772,-0.0919257,0.145929,-0.124546,-0.0822652,-0.0868607,0.0162125,0.0160599,0.0107193,0.00587463,-0.0274658,0.0137711,0.00282288,-9.97986,0.0241852,-0.0118256,0.106049,0.650063,0.0953293,-0.0185394,0.0416946,-0.0249863
40,4,10.0097,-0.0012207,0.00320435,-2.42531,0.0547655,-0.0741475,0.0547383,0.0712755,-0.0922309,0.145318,-0.125156,-0.0825704,-0.0531769,0.015831,0.0143433,0.0125122,0.0104904,-0.0294495,0.0200653,0.00946045,-9.97986,0.0539017,-0.00579834,0.108566,0.673828,0.0991058,-0.0131226,0.0385666,-0.0255585
40,5,10.0097,0.000305176,0.00320435,-2.42714,0.0553758,-0.0747579,0.0544332,0.0868395,-0.090705,0.145318,-0.124241,-0.0828756,-0.0284576,0.00740051,0.0104523,0.0141907,0.0143051,-0.0336075,0.0203705,0.00377655,-9.97986,0.0737,-0.00671387,0.10479,0.705414,0.100899,-0.010376,0.0424957,-0.022316
40,6,10.0097,0.00335693,0.00350952,-2.42928,0.0532396,-0.0762837,0.0532125,0.0776842,-0.0931465,0.142572,-0.126682,-0.0859274,-0.00160217,0.0104523,0.0100327,0.0151825,0.0137329,-0.0309753,0.0234604,0.00976563,-9.97986,0.0794983,-0.000572205,0.108109,0.734138,0.104218,-0.00652313,0.0428009,-0.0249863
40,7,10.0097,-0.000610352,0.00335693,-2.42928,0.0529344,-0.0775044,0.0513814,0.072191,-0.0931465,0.145013,-0.127598,-0.0865377,0.0415039,0.00915527,0.0125504,0.0129318,0.00518799,-0.0326157,0.0234985,0.00980377,-9.97986,0.0704193,-0.0037384,0.104828,0.767632,0.1091,-0.00831604,0.0440598,-0.0230789
