
Devices
1200
,,BP Load cell - Voltage,String Length - Voltage,Clutch Active - Voltage,#7 iPecs - Voltage,,,,,,,,,EMG 1-8 Left - Voltage,,,,,,,,Pylon Force - Voltage,EMG 9-16 Right - Voltage,,,,,,,,
Frame,Sub Frame,BP Load Cell,String Length,From Arduino Logic,A45,A135,A225,A315,S0,S90,S180,S270,ZSum,EMG 1 Glut Max,EMG 2 Glut Med,EMG 3 Biceps Femoris Long,EMG 4 Rectus Femoris,EMG 5 Vastus Medialis,EMG 6 Tib Ant,EMG 7 Med Gas,EMG 8 Soleus,Pylon volts,EMG 9 Glut Max,EMG 10 Glut Med,EMG 11 Biceps Femoris Long,EMG 12 Rectus Femoris,EMG 13 Vastus Medialis,EMG 14 Tib Ant,EMG 15 Med Gas,EMG 16 Soleus
,,V,V,V,V,V,V,V,V,V,V,V,V,V,V,V,V,V,V,V,V,V,V,V,V,V,V,V,V,V
1,0,10.0097,0.000610352,-0.00366211,-2.42745,0.0532396,-0.0765889,0.0522969,0.0718859,-0.0949775,0.142877,-0.126682,-0.0877584,0.0354004,0.0214005,0.0196457,0.0121689,0.0128174,-0.146637,-0.0050354,0.0151443,-9.97986,-0.0253296,0.000305176,0.0421524,-0.0637436,0.0869751,-0.048027,0.00259399,-0.170708
1,1,10.0097,0.000305176,-0.00473022,-2.42898,0.0541551,-0.0756734,0.0526021,0.0694445,-0.0949775,0.143792,-0.127292,-0.0874532,0.0137329,0.0302887,0.0186539,0.00682831,0.00686646,-0.138512,-0.00682831,0.0147247,-9.97986,-0.00701904,-0.00225067,0.0437927,-0.120125,0.0880051,-0.0566864,0.00244141,-0.175133
1,2,10.0097,-0.000305176,-0.00610352,-2.42837,0.0529344,-0.0759786,0.0519917,0.0700548,-0.0937568,0.144098,-0.126377,-0.0880636,-0.0274277,0.0239182,0.016861,0.0082016,0.000572205,-0.12989,-0.0181198,0.0131226,-9.97986,0.0283051,-0.00431061,0.0453186,-0.192375,0.0903702,-0.0716782,0.0038147,-0.180397
1,3,10.0097,0.000610352,-0.00518799,-2.4302,0.0538499,-0.0762837,0.0519917,0.0676134,-0.0955879,0.143792,-0.127903,-0.0880636,-0.0629425,0.030098,0.0168991,0.0137711,-0.00495911,-0.109177,-0.0216293,0.017662,-9.97986,0.0474548,-0.00572205,0.0379562,-0.221367,0.0829697,-0.0741959,0.00576019,-0.186081
1,4,10.0097,0,-0.00335693,-2.42806,0.0541551,-0.0762837,0.0516866,0.0685289,-0.0952827,0.144403,-0.127903,-0.0880636,-0.0762939,0.0337601,0.0183487,0.00659943,-0.00881195,-0.0969696,-0.0304413,0.0177002,-9.97986,0.0571442,-0.00164032,0.0333786,-0.245361,0.0717545,-0.0773239,0.00617981,-0.184975
1,5,10.0097,0,-0.0038147,-2.42684,0.0541551,-0.0735371,0.0529073,0.0700548,-0.0925361,0.144403,-0.126072,-0.0868429,-0.0777817,0.032196,0.0206757,0.00125885,-0.0115967,-0.0833893,-0.0317383,0.0156403,-9.97986,0.0534058,-0.00972748,0.0206375,-0.282707,0.0613403,-0.0840378,0.00900269,-0.192947
1,6,10.0097,0.00152588,-0.0038147,-2.42867,0.0544603,-0.0759786,0.0529073,0.0694445,-0.094062,0.143792,-0.127292,-0.0871481,-0.048027,0.0305939,0.0174332,0.00492096,-0.0166321,-0.0676727,-0.0437164,0.0216293,-9.97986,0.0293732,-0.00587463,0.00965118,-0.319748,0.0538635,-0.0854492,0.011673,-0.191154
1,7,10.0097,0.000610352,-0.00274658,-2.42714,0.0544603,-0.0753682,0.0526021,0.0697496,-0.0928413,0.143487,-0.126682,-0.085317,-0.0175095,0.0281906,0.0256729,0.0102615,-0.0166702,-0.0577545,-0.0486374,0.0166702,-9.97986,0.0177765,-0.0062561,-0.000419617,-0.336685,0.0383377,-0.0959396,0.00850677,-0.19352
1,8,10.0097,-0.0012207,-0.00137329,-2.42776,0.0544603,-0.0747579,0.0532125,0.0700548,-0.0928413,0.145318,-0.126377,-0.0840963,-0.00926971,0.0319672,0.0210571,0.0108719,-0.0199509,-0.0434875,-0.0540924,0.0170898,-9.97986,0.0191116,-0.00232697,-0.00267029,-0.342064,0.0323486,-0.0973511,0.00785828,-0.19783
1,9,10.0097,0.00152588,0.000305176,-2.42531,0.0559862,-0.0735371,0.055959,0.0706652,-0.0934516,0.146539,-0.125766,-0.0828756,0.0117111,0.0335312,0.0307846,0.0133133,-0.0199127,-0.0348663,-0.0601959,0.0127411,-9.97986,0.0132751,0.00228882,-0.00514984,-0.338211,0.0388718,-0.0984573,0.00827789,-0.195503
2,0,10.0097,0.00183105,0.000457764,-2.42653,0.0565965,-0.0735371,0.054128,0.0700548,-0.0928413,0.145318,-0.125156,-0.0804342,0.0102615,0.0350952,0.0310898,0.0147629,-0.019989,-0.0276184,-0.0603104,0.0119019,-9.97986,0.0117874,0.00667572,0.000839233,-0.320168,0.0399017,-0.0902557,0.0104141,-0.194168
2,1,10.0097,0.00274658,0.00244141,-2.42531,0.0569017,-0.0726216,0.0550435,0.0706652,-0.0928413,0.147149,-0.124851,-0.0810445,-0.0289917,0.0380707,0.037117,0.0126648,-0.0155258,-0.0209045,-0.0658417,0.00743866,-9.97986,0.00808716,0.00404358,0.00476837,-0.293312,0.0476456,-0.0821686,0.00946045,-0.194855
2,2,10.0097,-0.000305176,0.00183105,-2.42531,0.0553758,-0.0729268,0.0556539,0.0712755,-0.0913154,0.146539,-0.124546,-0.0813497,-0.0383377,0.0362778,0.0358963,0.0136566,-0.0200272,-0.0181198,-0.0744629,0.00339508,-9.97986,0.000419617,0.0025177,0.00797272,-0.272598,0.0522614,-0.0751495,0.00705719,-0.191231
2,3,10.0097,-0.000610352,-0.000457764,-2.42562,0.0572069,-0.073232,0.0547383,0.0706652,-0.0916206,0.146234,-0.124241,-0.0810445,-0.0186157,0.0383759,0.0395966,0.0167084,-0.0154877,-0.0177002,-0.0712585,-0.00839233,-9.97986,-0.00938416,0.00225067,0.0181198,-0.283241,0.046463,-0.0737762,0.0111771,-0.19249
2,4,10.0097,0,-0.0012207,-2.42562,0.0562914,-0.0735371,0.0556539,0.0706652,-0.090705,0.147455,-0.124241,-0.0813497,-0.00335693,0.0400162,0.040741,0.0162506,-0.00988007,-0.0146866,-0.0776291,-0.010643,-9.97986,-0.0338364,0.00259399,0.0259781,-0.30304,0.0560379,-0.0775909,0.0113297,-0.187302
2,5,10.0097,-0.000915527,-0.00167847,-2.42653,0.0559862,-0.0744527,0.0532125,0.0648668,-0.0900947,0.145624,-0.124241,-0.0822652,0.0556183,0.0367355,0.0388718,0.0182724,-0.00965118,-0.0143433,-0.0783157,-0.0082016,-9.97986,-0.0643158,0.00202179,0.042572,-0.304604,0.050621,-0.0835419,0.0122833,-0.179672
2,6,10.0097,0.000305176,-0.000305176,-2.42592,0.0559862,-0.075063,0.0544332,0.0624254,-0.0916206,0.146234,-0.126377,-0.0819601,0.138054,0.0386429,0.0353241,0.0185776,-0.00144958,-0.0161362,-0.0741196,-0.00541687,-9.97986,-0.0745392,0.000839233,0.0574493,-0.308189,0.044632,-0.0778961,0.0113297,-0.177536
2,7,10.0097,0.0012207,-0.000915527,-2.42684,0.0547655,-0.0747579,0.0547383,0.0676134,-0.0925361,0.146234,-0.124851,-0.0831808,0.145454,0.034256,0.0334549,0.017395,0.00537872,-0.0171661,-0.079422,-0.00804901,-9.97986,-0.079689,0.00118256,0.0704575,-0.316315,0.0469208,-0.0693512,0.0115585,-0.169983
2,8,10.0097,0.00183105,-0.000305176,-2.42684,0.0553758,-0.073232,0.054128,0.072191,-0.0943672,0.145318,-0.125156,-0.0834859,0.116196,0.030899,0.031929,0.0175476,0.0101471,-0.021019,-0.0827789,-0.00740051,-9.97986,-0.0985718,-0.0037384,0.0865173,-0.321541,0.0444412,-0.063324,0.0126648,-0.159569
2,9,10.0097,0.000610352,-0.000762939,-2.42867,0.055681,-0.0747579,0.0544332,0.075548,-0.0922309,0.144403,-0.126072,-0.0859274,0.0795746,0.0272369,0.0276184,0.0125504,0.0183105,-0.0191498,-0.08255,-0.00553131,-9.97986,-0.123138,-0.00656128,0.099411,-0.348053,0.0506592,-0.0615311,0.0141525,-0.150871
3,0,10.0097,-0.000915527,-0.00274658,-2.42928,0.0541551,-0.0744527,0.0535176,0.0718859,-0.094062,0.144098,-0.126987,-0.0868429,0.042305,0.0231934,0.0255203,0.0109482,0.0177765,-0.0218582,-0.0805283,-0.00728607,-9.97986,-0.122643,-0.00480652,0.112801,-0.385017,0.051918,-0.0599289,0.0144196,-0.142593
3,1,10.0097,0.000305176,-0.00183105,-2.42898,0.0538499,-0.0759786,0.0529073,0.07036,-0.0946723,0.145318,-0.128208,-0.0871481,0.0312042,0.0220108,0.0203323,0.0134277,0.0167084,-0.0225449,-0.0818253,0.00282288,-9.97986,-0.0796509,-0.00232697,0.124054,-0.398026,0.0418854,-0.0592422,0.0109863,-0.135574
3,2,10.0097,0.00244141,-0.00289917,-2.42867,0.0526292,-0.0753682,0.0532125,0.0700548,-0.0949775,0.144098,-0.127292,-0.0871481,0.026474,0.0215149,0.018425,0.0102234,0.0206757,-0.020752,-0.0827789,-0.00522614,-9.97986,-0.0216293,-0.00392914,0.129929,-0.42881,0.0349426,-0.057869,0.0124741,-0.122604
3,3,10.0097,-0.0012207,-0.00335693,-2.42959,0.0535448,-0.0765889,0.0519917,0.0706652,-0.0946723,0.142572,-0.127903,-0.0889791,0.0318909,0.0202942,0.0209045,0.00766754,0.021553,-0.0175858,-0.0791168,-0.000152588,-9.97986,0.0102997,-0.00244141,0.127831,-0.469818,0.0270844,-0.0540924,0.0088501,-0.112076
3,4,10.0097,0.000915527,-0.00411987,-2.42928,0.0532396,-0.0762837,0.0510762,0.0679186,-0.0949775,0.143487,-0.127598,-0.0874532,0.0502777,0.0175095,0.0161743,0.00881195,0.0230408,-0.0119019,-0.0771332,0.00282288,-9.97986,0.00617981,0.00114441,0.130692,-0.508156,0.0174332,-0.0361252,0.010376,-0.0993729
3,5,10.0097,0.00152588,-0.00396729,-2.42806,0.0544603,-0.0762837,0.0526021,0.0685289,-0.0946723,0.143487,-0.126377,-0.0865377,0.0436401,0.0180817,0.0128937,0.00846863,0.0201035,-0.00835419,-0.0812149,0.00793457,-9.97986,-0.0188828,-0.00385284,0.129318,-0.53772,-0.00148773,-0.0242615,0.0104523,-0.0902939
3,6,10.0097,0.000610352,-0.00259399,-2.42806,0.055681,-0.0747579,0.0516866,0.0694445,-0.0949775,0.143792,-0.126682,-0.0856222,0.0265121,0.022316,0.0136566,0.0107956,0.0246429,-0.010376,-0.0757599,0.0117874,-9.97986,-0.0260544,-0.00217438,0.131607,-0.55069,-0.0226212,-0.0164032,0.0107956,-0.080719
3,7,10.0097,0.0012207,-0.0012207,-2.42745,0.0538499,-0.0756734,0.0538228,0.0679186,-0.0931465,0.145013,-0.126987,-0.0847066,0.00602722,0.0240326,0.0148392,0.0119781,0.030365,-0.00637054,-0.0679016,0.011673,-9.97986,-0.0177383,-0.00507355,0.131226,-0.559425,-0.0294876,-0.0205612,0.0111008,-0.0683594
3,8,10.0097,0.000610352,-0.000915527,-2.42684,0.0550706,-0.0744527,0.0535176,0.0697496,-0.0931465,0.145013,-0.126072,-0.0844015,-0.0145721,0.0229645,0.0130081,0.0141144,0.0317764,-0.00797272,-0.0697327,0.0134659,-9.97986,-0.00473022,-0.00183105,0.123177,-0.562401,-0.0409698,-0.0284576,0.00892639,-0.0632095
3,9,10.0097,-0.0012207,-0.00167847,-2.42592,0.0562914,-0.0735371,0.0544332,0.0706652,-0.0931465,0.147455,-0.125766,-0.0837911,-0.0190353,0.026207,0.0122833,0.0119019,0.0364304,-0.00389099,-0.0669098,0.0136566,-9.97986,0.0148773,-0.00480652,0.0886917,-0.578194,-0.0424957,-0.0285339,0.00900269,-0.0521469
4,0,10.0097,0.000305176,-0.00106812,-2.42531,0.0562914,-0.0735371,0.0526021,0.0712755,-0.0928413,0.146234,-0.123935,-0.0813497,-0.0265503,0.025177,0.0153732,0.0101089,0.0315094,-0.00175476,-0.0639725,0.00980377,-9.97986,0.0357437,-0.00225067,0.0159454,-0.59269,-0.049324,-0.0265884,0.0161743,-0.0479507
4,1,10.0097,0.000305176,0,-2.42501,0.0553758,-0.0735371,0.0529073,0.072191,-0.0922309,0.147455,-0.124546,-0.0810445,-0.0282669,0.0263596,0.0166702,0.0138092,0.0365067,-0.00171661,-0.0642014,0.00522614,-9.97986,0.0563431,-0.000991821,-0.0423431,-0.587196,-0.0555801,-0.0230026,0.0123596,-0.0428009
4,2,10.0097,0,0.000915527,-2.42531,0.0547655,-0.0747579,0.0538228,0.0706652,-0.0919257,0.14776,-0.123935,-0.0810445,-0.0182724,0.0274277,0.0206375,0.016098,0.0305557,0.01297,-0.0692749,0.000228882,-9.97986,0.0576782,0.0030899,-0.070343,-0.572662,-0.0616074,-0.0185013,0.0128174,-0.0365448
4,3,10.0097,0.000610352,0.00106812,-2.4247,0.055681,-0.0738423,0.0550435,0.0718859,-0.0922309,0.147455,-0.12363,-0.0810445,-0.023613,0.0308228,0.0213242,0.0122452,0.0188828,0.0155258,-0.0629807,-0.00305176,-9.97986,0.0607681,0.000228882,-0.0840759,-0.557709,-0.0695419,-0.0157547,0.0152206,-0.0320435
4,4,10.0097,0.000305176,0.00167847,-2.42531,0.0565965,-0.073232,0.0556539,0.0728014,-0.090705,0.148675,-0.123325,-0.0810445,-0.0337982,0.0331879,0.0242615,0.0168228,0.0200653,0.0222778,-0.060463,-0.0062561,-9.97986,0.0680923,-0.00141144,-0.0741959,-0.53566,-0.0669098,-0.0163651,0.018158,-0.0292587
4,5,10.0097,0.000610352,0.00350952,-2.42623,0.0559862,-0.075063,0.0538228,0.0636461,-0.0928413,0.145929,-0.125156,-0.0807394,-0.0291443,0.0281906,0.026741,0.00991821,0.0103378,0.0273895,-0.0608063,-0.0100708,-9.97986,0.0862122,-0.00282288,-0.0561905,-0.494843,-0.0631332,-0.0254059,0.0217819,-0.0235367
4,6,10.0097,0.0012207,0.00350952,-2.4247,0.0562914,-0.0744527,0.0550435,0.0633409,-0.0928413,0.146234,-0.125156,-0.0816549,0.000610352,0.0328064,0.0228882,0.013504,0.00675201,0.0294876,-0.0559998,-0.00534058,-9.97986,0.0911713,-0.00267029,-0.0304794,-0.45723,-0.0525665,-0.017662,0.0195694,-0.0170898
4,7,10.0097,0.00152588,0.00320435,-2.42684,0.0559862,-0.075063,0.0553487,0.0694445,-0.0922309,0.147149,-0.126072,-0.0816549,0.0284958,0.0326538,0.0228119,0.00663757,0.00205994,0.0378418,-0.053215,-0.00549316,-9.97986,0.084877,-0.00534058,-0.0136948,-0.428734,-0.051651,-0.021019,0.0215149,-0.0117111
4,8,10.0097,0.000610352,0.00473022,-2.42623,0.0550706,-0.0726216,0.0529073,0.0737169,-0.0916206,0.144403,-0.125461,-0.0813497,0.0407791,0.0298309,0.0202942,0.0152969,-0.00415802,0.0469208,-0.0514603,0.00221252,-9.97986,0.0754166,-0.00484467,-0.0155258,-0.366554,-0.0472641,-0.0130844,0.0252914,-0.00713348
4,9,10.0097,0.000305176,0.00640869,-2.42776,0.0550706,-0.075063,0.0519917,0.0761583,-0.0931465,0.145013,-0.126072,-0.0822652,0.0367355,0.0330734,0.0208282,0.0132751,-0.00648499,0.0521469,-0.0484467,0.00766754,-9.97986,0.0496674,-0.00133514,-0.0279617,-0.294304,-0.0420761,-0.0152588,0.02388,0.00038147
5,0,10.0097,0.000610352,0.00671387,-2.42867,0.0541551,-0.0759786,0.050771,0.0694445,-0.0913154,0.144403,-0.126377,-0.0844015,0.0290298,0.027771,0.0218201,0.0144577,-0.00839233,0.0596619,-0.0424957,0.00850677,-9.97986,0.0130081,-0.00236511,-0.0334549,-0.227661,-0.0350571,-0.0182343,0.0238419,0.00419617
5,1,10.0097,0.000610352,0.00579834,-2.42867,0.0538499,-0.0765889,0.0535176,0.0682238,-0.0952827,0.143182,-0.127903,-0.0844015,0.00682831,0.0279236,0.0197601,0.0125122,-0.00926971,0.0670624,-0.0419235,0.00160217,-9.97986,-0.0259399,-0.00354767,-0.0463486,-0.165672,-0.0279236,-0.0217056,0.0227356,0.0110626
5,2,10.0097,-0.000305176,0.00595093,-2.42898,0.0535448,-0.0759786,0.0526021,0.0688341,-0.0949775,0.144098,-0.127598,-0.0844015,0.0031662,0.0251007,0.0177383,0.00873566,-0.00957489,0.07061,-0.0377655,0.0117493,-9.97986,-0.0611877,-0.000686646,-0.057373,-0.0905228,-0.0264359,-0.0263977,0.0234985,0.0161743
5,3,10.0097,0.00183105,0.00579834,-2.42837,0.0535448,-0.0762837,0.0510762,0.067003,-0.0946723,0.144098,-0.127903,-0.0847066,0.0111771,0.025177,0.0161743,0.00900269,-0.00644684,0.0743866,-0.038414,0.0133514,-9.97986,-0.0773239,-0.00411987,-0.0676727,-0.0276184,-0.0211716,-0.0249481,0.0236511,0.0206757
5,4,10.0097,0,0.00335693,-2.42867,0.0547655,-0.0756734,0.0522969,0.0673082,-0.094062,0.144403,-0.127598,-0.0859274,0.0146484,0.0255203,0.0191879,0.0102615,-0.0069046,0.0743103,-0.0314713,0.0156403,-9.97986,-0.0896072,-0.00289917,-0.0780487,0.00534058,-0.0143814,-0.0255966,0.0214386,0.022049
5,5,10.0097,0,0.00259399,-2.42898,0.0544603,-0.0759786,0.0529073,0.0679186,-0.0943672,0.143792,-0.127292,-0.0850118,0.0251007,0.0236511,0.0162125,0.0062561,-0.0030899,0.0836182,-0.0289154,0.0151062,-9.97986,-0.0849152,-0.00736237,-0.0734329,0.0284576,-0.0161743,-0.0233078,0.0226212,0.0312805
5,6,10.0097,0.0012207,0.00274658,-2.42837,0.0544603,-0.075063,0.0532125,0.0694445,-0.0928413,0.145013,-0.125766,-0.0844015,0.02491,0.0226593,0.0107574,0.0107193,0.000114441,0.0799561,-0.029335,0.0154495,-9.97986,-0.0678635,-0.00896454,-0.070343,0.0544357,-0.00671387,-0.0303268,0.016098,0.0280762
5,7,10.0097,0.00213623,0.00289917,-2.42806,0.0550706,-0.0747579,0.054128,0.0691393,-0.0934516,0.145013,-0.126377,-0.0834859,0.0242996,0.0231552,0.0115204,0.00915527,0.000953674,0.0826263,-0.0221252,0.0154877,-9.97986,-0.0465012,-0.00656128,-0.068779,0.0800705,0.0075531,-0.027504,0.015564,0.0325394
5,8,10.0097,-0.000305176,0,-2.42684,0.0559862,-0.0747579,0.0538228,0.0688341,-0.0925361,0.145013,-0.125156,-0.0847066,0.0208664,0.0237656,0.0137329,0.00720978,0.00480652,0.076561,-0.0179672,0.0166702,-9.97986,-0.025444,-0.0104904,-0.0531769,0.0566483,0.0122452,-0.0269318,0.01297,0.0334167
5,9,10.0097,-0.000305176,0,-2.42531,0.0541551,-0.0747579,0.0538228,0.0706652,-0.0928413,0.146539,-0.125766,-0.0831808,0.00495911,0.0259018,0.0140762,0.00854492,0.00843048,0.0733566,-0.0161743,0.0152206,-9.97986,0.00217438,-0.00274658,-0.0463486,0.0550079,0.0236893,-0.0362396,0.00736237,0.0357056
6,0,10.0097,0,0.00228882,-2.42531,0.0553758,-0.0744527,0.0535176,0.0718859,-0.0910102,0.146844,-0.123935,-0.0807394,-0.001297,0.0218201,0.0149918,0.00671387,0.00751495,0.0757599,-0.0127411,0.0141907,-9.97986,0.0335312,0.0018692,-0.0378036,0.0918579,0.0337601,-0.0339127,0.00980377,0.0385666
6,1,10.0097,-0.000305176,0.00274658,-2.42501,0.0562914,-0.0738423,0.0553487,0.0724962,-0.0916206,0.146844,-0.124546,-0.0804342,0.00217438,0.0235748,0.0111771,0.00556946,0.012207,0.0718307,-0.00591278,0.0186539,-9.97986,0.0600815,0.00110626,-0.0229263,0.126038,0.0393295,-0.0363541,0.000839233,0.0390244
6,2,10.0097,0.00183105,0.00411987,-2.42379,0.0559862,-0.0744527,0.0553487,0.0728014,-0.090705,0.146234,-0.124241,-0.080129,0.00862122,0.0226974,0.0122833,0.00896454,0.0146103,0.0732422,-0.00541687,0.020752,-9.97986,0.0878906,0.00118256,-0.0104141,0.184326,0.0399399,-0.0368118,0.00240326,0.0358963
6,3,10.0097,0,0.00320435,-2.4244,0.055681,-0.0735371,0.0553487,0.0724962,-0.0913154,0.147149,-0.124546,-0.0795187,0.00988007,0.0249481,0.0103378,0.00671387,0.0180435,0.0732803,0.00087738,0.0226974,-9.97986,0.104904,-0.00255585,-0.00171661,0.200119,0.0399017,-0.0374222,-0.00278473,0.0393295
6,4,10.0097,-0.000610352,-0.000457764,-2.4247,0.0569017,-0.0735371,0.0550435,0.0712755,-0.0919257,0.147149,-0.12363,-0.0816549,-0.00709534,0.0216675,0.013237,0.00556946,0.022583,0.0833511,0.00541687,0.0208282,-9.97986,0.108528,-0.00541687,0.0200272,0.175247,0.043869,-0.0327682,-0.00175476,0.0434113
6,5,10.0097,0,0.000305176,-2.42623,0.055681,-0.0753682,0.054128,0.0627306,-0.0928413,0.145624,-0.124546,-0.0816549,-0.00499725,0.025444,0.0111389,0.00797272,0.0246811,0.092392,0.00934601,0.0162125,-9.97986,0.100937,-0.00244141,0.0387573,0.18322,0.0382614,-0.036087,-0.00453949,0.0406647
6,6,10.0097,0.000305176,0.00213623,-2.4247,0.0569017,-0.0744527,0.0538228,0.0615099,-0.0928413,0.145624,-0.125766,-0.0813497,0.000686646,0.0297546,0.0133514,0.00797272,0.0279617,0.097084,0.0133514,0.0180817,-9.97986,0.0911331,0.000267029,0.0640488,0.218925,0.0336075,-0.0257492,-0.00461578,0.0395966
6,7,10.0097,0.000305176,0.00152588,-2.42623,0.0550706,-0.0744527,0.0544332,0.0691393,-0.0919257,0.146539,-0.125461,-0.0819601,0.0230789,0.0255203,0.0131989,0.00854492,0.0266266,0.0960541,0.0140762,0.0125885,-9.97986,0.0799561,-0.000839233,0.0831604,0.225601,0.0340652,-0.0285339,-0.00358582,0.0421143
6,8,10.0097,0.000610352,0.00228882,-2.42776,0.0547655,-0.0747579,0.0553487,0.0734117,-0.0916206,0.145318,-0.124851,-0.0831808,0.0340652,0.0276566,0.0157166,0.00747681,0.0293732,0.0981903,0.0187302,0.00881195,-9.97986,0.0679398,-0.000534058,0.110435,0.240479,0.0496292,-0.0310135,-0.00465393,0.0453568
6,9,10.0097,-0.000305176,0.00198364,-2.42806,0.0532396,-0.0753682,0.0547383,0.0752428,-0.0928413,0.144708,-0.126987,-0.0850118,0.0310135,0.0300598,0.013504,0.00629425,0.0293732,0.103798,0.0204086,0.0131989,-9.97986,0.0515366,-0.00526428,0.131874,0.255241,0.0654221,-0.0298691,-0.00370026,0.0469589
7,0,10.0097,0.000610352,0.000762939,-2.42837,0.0523241,-0.0762837,0.0535176,0.0700548,-0.0937568,0.145624,-0.128208,-0.085317,0.0403976,0.0289154,0.015831,0.0069046,0.0317764,0.10334,0.0212097,0.0136566,-9.97986,0.0391769,-0.00171661,0.150032,0.258026,0.0773239,-0.0253296,0.000419617,0.0528717
7,1,10.0097,-0.00213623,0.000152588,-2.42867,0.0547655,-0.075063,0.0519917,0.0679186,-0.0974189,0.144708,-0.125766,-0.0859274,0.0427246,0.0285339,0.0149918,0.00484467,0.0372696,0.0973511,0.0239944,0.0144196,-9.97986,0.0368881,0.000343323,0.15728,0.262604,0.0715256,-0.0242233,0.00358582,0.0517273
7,2,10.0097,-0.000610352,-0.000152588,-2.42898,0.0541551,-0.0759786,0.0532125,0.0691393,-0.0946723,0.144098,-0.127292,-0.0874532,0.0415802,0.0284958,0.0179672,0.00370026,0.037384,0.0926971,0.0192261,0.0177765,-9.97986,0.0196457,-0.000610352,0.172577,0.253143,0.0682831,-0.0255203,0.000686646,0.0558853
7,3,10.0097,0,-0.000305176,-2.42898,0.0532396,-0.0759786,0.0526021,0.0691393,-0.0946723,0.144098,-0.127292,-0.0862325,0.0386047,0.0266266,0.0131989,0.00846863,0.0345993,0.0945282,0.0239944,0.0182724,-9.97986,0.00484467,-0.00343323,0.178757,0.262489,0.064888,-0.0254059,0.000953674,0.0581741
7,4,10.0097,0.00244141,0.000457764,-2.42837,0.0526292,-0.0756734,0.0532125,0.0685289,-0.0928413,0.143182,-0.127598,-0.0865377,0.0300217,0.0311279,0.0163651,0.00816345,0.0394058,0.0882721,0.0255203,0.0213623,-9.97986,0.00473022,-0.0069809,0.199585,0.277443,0.0668716,-0.0322723,0.00629425,0.0584793
7,5,10.0097,0,-0.000305176,-2.42806,0.0544603,-0.0753682,0.0535176,0.0700548,-0.0943672,0.143182,-0.126987,-0.0865377,0.0227356,0.0288391,0.013504,0.00331879,0.0369263,0.0902557,0.0240326,0.0151062,-9.97986,-0.00377655,-0.00205994,0.219421,0.271416,0.0678253,-0.028038,0.00801086,0.0606918
7,6,10.0097,0.00152588,0,-2.42837,0.0550706,-0.0753682,0.0538228,0.0682238,-0.0937568,0.143792,-0.126987,-0.0856222,0.00999451,0.0322342,0.0147247,0.00202179,0.0397873,0.0878143,0.0285339,0.0245285,-9.97986,-0.0130463,-0.00282288,0.231667,0.284271,0.0695801,-0.0284195,0.0104523,0.0621796
7,7,10.0097,0.000610352,0.000457764,-2.42806,0.0544603,-0.0756734,0.0535176,0.0697496,-0.0937568,0.144098,-0.125766,-0.0856222,-0.001297,0.0331497,0.0178909,0.00717163,0.0383377,0.0864792,0.0283432,0.0212479,-9.97986,-0.00724792,-0.00411987,0.244942,0.277557,0.0669861,-0.0297546,0.0144196,0.0606918
7,8,10.0097,0,-0.000457764,-2.42653,0.0544603,-0.0753682,0.0538228,0.07036,-0.0925361,0.144708,-0.126377,-0.0840963,-0.0121307,0.0322342,0.0161743,0.0018692,0.0380325,0.083847,0.0243378,0.015831,-9.97986,0.0113678,-0.00793457,0.24929,0.261726,0.065155,-0.0295639,0.0141525,0.063858
7,9,10.0097,0.000610352,-0.00137329,-2.42623,0.0565965,-0.0744527,0.0550435,0.0694445,-0.0913154,0.146539,-0.123935,-0.0834859,-0.00854492,0.0331116,0.0153351,0.00610352,0.042572,0.0831604,0.0318527,0.0146866,-9.97986,0.0214005,-0.00640869,0.261993,0.244637,0.0656891,-0.0301743,0.0149155,0.0664902
8,0,10.0097,0.0012207,-0.00137329,-2.42562,0.055681,-0.0738423,0.0550435,0.0718859,-0.0931465,0.146234,-0.123935,-0.0819601,0.00274658,0.0362778,0.0161743,0.00869751,0.0476456,0.0854111,0.0283051,0.0184631,-9.97986,0.0234604,-0.0069809,0.271339,0.233841,0.0668335,-0.0338745,0.0171661,0.0639725
8,1,10.0097,0.0012207,-0.000610352,-2.42653,0.055681,-0.0741475,0.0544332,0.0715807,-0.0916206,0.145929,-0.125156,-0.0807394,0.017662,0.033989,0.0168991,0.00553131,0.0473022,0.0793076,0.0301361,0.022049,-9.97986,0.0224686,0.0019455,0.274048,0.225258,0.0675583,-0.0254822,0.0198746,0.0601196
8,2,10.0097,-0.000610352,-0.00137329,-2.42562,0.0550706,-0.0744527,0.0532125,0.0709703,-0.090705,0.145929,-0.125156,-0.0810445,0.0163651,0.0323868,0.0175858,0.00583649,0.0490189,0.0758743,0.0362015,0.0220108,-9.97986,0.0136948,-0.00267029,0.289841,0.212288,0.0611115,-0.0183868,0.0229645,0.05867
8,3,10.0097,-0.000915527,-0.00183105,-2.42562,0.0584276,-0.0735371,0.0544332,0.0715807,-0.0913154,0.146539,-0.124546,-0.0816549,0.0292587,0.0339508,0.0174332,0.00511169,0.0464249,0.074501,0.0429916,0.026741,-9.97986,0.00400543,-0.00576019,0.300102,0.188065,0.0608063,-0.00968933,0.0261688,0.0550842
8,4,10.0097,-0.000305176,-0.00244141,-2.4244,0.0569017,-0.0744527,0.0574849,0.0709703,-0.0913154,0.146234,-0.124241,-0.0822652,0.0322342,0.0325012,0.0221252,0.00644684,0.046196,0.0709152,0.042038,0.0316238,-9.97986,-0.0116348,-0.00606537,0.296936,0.153275,0.0564575,-0.00522614,0.0247192,0.0455093
8,5,10.0097,0.00152588,-0.00396729,-2.42776,0.0544603,-0.0738423,0.0532125,0.0621202,-0.0928413,0.145929,-0.12302,-0.0828756,0.0128174,0.0341415,0.0179291,0.00934601,0.0444412,0.063591,0.0462723,0.0263977,-9.97986,-0.0233459,-0.00236511,0.295753,0.113716,0.0585556,-0.00629425,0.0307465,0.0370026
8,6,10.0097,0.00183105,-0.00366211,-2.42531,0.0550706,-0.073232,0.0550435,0.0624254,-0.0937568,0.146844,-0.125461,-0.0822652,-0.0166702,0.0289917,0.0241852,0.00804901,0.0458527,0.0660324,0.0474548,0.0273132,-9.97986,-0.0285339,-0.00240326,0.287743,0.0895691,0.0585556,-0.00400543,0.0326538,0.0323868
8,7,10.0097,0.000610352,-0.00259399,-2.42684,0.0553758,-0.0744527,0.0550435,0.0682238,-0.0922309,0.146234,-0.125156,-0.0834859,-0.0114059,0.0282669,0.0226593,0.00423431,0.0449753,0.0612259,0.0447464,0.0261307,-9.97986,-0.0279999,-0.0018692,0.275803,0.0615692,0.0582886,-0.000648499,0.0344086,0.0228882
8,8,10.0097,0.00183105,-0.00274658,-2.42745,0.0559862,-0.0744527,0.0544332,0.0746324,-0.0916206,0.145624,-0.125766,-0.0840963,0.00972748,0.0299072,0.0192261,0.00701904,0.0428009,0.0564194,0.0496292,0.0238419,-9.97986,-0.0205231,-0.00728607,0.262337,0.0329971,0.0597763,0.000686646,0.0311661,0.0196838
8,9,10.0097,-0.000305176,-0.00106812,-2.42776,0.0535448,-0.075063,0.0529073,0.077379,-0.0931465,0.143792,-0.126072,-0.085317,0.0201797,0.0248337,0.0157547,0.00984192,0.0460434,0.0495148,0.0490189,0.0264359,-9.97986,-0.015564,-0.00171661,0.243149,0.0118637,0.0595856,0,0.0301743,0.0124359
9,0,10.0097,-0.000610352,-0.00213623,-2.42898,0.0547655,-0.0759786,0.0516866,0.0718859,-0.0946723,0.144708,-0.125766,-0.0868429,0.00946045,0.0281906,0.015564,0.00953674,0.0453949,0.0524902,0.0567627,0.0311661,-9.97986,0.000419617,-0.00473022,0.213318,-0.0191498,0.0598145,0.00167847,0.0265503,0.00465393
9,1,10.0097,0.000305176,-0.00213623,-2.42776,0.0535448,-0.0759786,0.0522969,0.0709703,-0.0943672,0.144098,-0.126682,-0.0862325,0.000305176,0.0288773,0.0156784,0.00537872,0.0447845,0.0458908,0.0583649,0.0314331,-9.97986,0.03479,-0.00213623,0.188751,-0.0344467,0.0592804,0.00324249,0.0228882,0.00526428
9,2,10.0097,0.00152588,-0.00183105,-2.42928,0.0535448,-0.0762837,0.0516866,0.0691393,-0.0961982,0.143182,-0.127292,-0.0880636,0.00495911,0.026474,0.0152206,0.00614166,0.0423431,0.0424576,0.0548935,0.028038,-9.97986,0.0550461,-0.00640869,0.159645,-0.0465012,0.0490189,7.62939e-005,0.0191116,-0.00087738
9,3,10.0097,0.00152588,-0.0012207,-2.42959,0.0535448,-0.0759786,0.0519917,0.0691393,-0.0955879,0.142877,-0.127598,-0.0880636,0.0082016,0.0314713,0.0185013,0.00858307,0.0448608,0.0426865,0.0605011,0.0289154,-9.97986,0.0671005,-0.00263214,0.135078,-0.0522614,0.0448227,-0.000801086,0.0242996,0.000267029
9,4,10.0097,0.000610352,-0.00137329,-2.42898,0.0532396,-0.0759786,0.0519917,0.0682238,-0.0952827,0.143792,-0.127292,-0.0871481,0.00991821,0.0288773,0.0154877,0.00659943,0.0410461,0.0354767,0.055809,0.0274658,-9.97986,0.0503922,-0.00873566,0.1017,-0.0636292,0.0421906,-0.00434875,0.0163651,-0.00465393
9,5,10.0097,0.000305176,-0.000915527,-2.42837,0.0547655,-0.0753682,0.0519917,0.0679186,-0.0949775,0.145013,-0.127598,-0.0859274,0.0197601,0.0308609,0.0183487,0.00797272,0.0370789,0.034256,0.0600052,0.0245285,-9.97986,0.0300598,-0.00179291,0.0806427,-0.0701141,0.0497437,-0.000343323,0.0146103,-0.00675201
9,6,10.0097,0,-0.00152588,-2.42837,0.055681,-0.0762837,0.0538228,0.0688341,-0.0937568,0.144403,-0.126072,-0.0859274,0.0144958,0.0278473,0.0185776,0.00427246,0.0370026,0.0323105,0.0637817,0.0278091,-9.97986,0.0120926,-0.00244141,0.0585175,-0.08461,0.0509644,0.00358582,0.0125122,-0.00621796
9,7,10.0097,0.0012207,-0.000457764,-2.42745,0.0547655,-0.075063,0.0519917,0.0694445,-0.0931465,0.144098,-0.126072,-0.0856222,0.00141144,0.028038,0.0173187,0.00389099,0.0378799,0.0269318,0.0617218,0.0230789,-9.97986,-0.00102997,0.000648499,0.0362015,-0.0872803,0.0514984,0.000801086,0.0104141,-0.00701904
9,8,10.0097,-0.000305176,-0.000152588,-2.42776,0.0553758,-0.075063,0.0526021,0.0694445,-0.0952827,0.144708,-0.125766,-0.0837911,-0.0188446,0.0292587,0.0203323,0.0103378,0.040741,0.0274277,0.0635529,0.0212097,-9.97986,-0.0359726,0.00270844,0.0165176,-0.0894165,0.055809,0.00526428,0.0122452,-0.00514984
9,9,10.0097,-0.000610352,0.000305176,-2.42562,0.055681,-0.0738423,0.054128,0.0679186,-0.0919257,0.147149,-0.124241,-0.0831808,-0.0210571,0.0270844,0.0202179,0.0122452,0.0384521,0.0229645,0.0657654,0.0172424,-9.97986,-0.0484848,0.000343323,0.00305176,-0.0895309,0.0528717,0.0044632,0.00953674,-0.0050354
10,0,10.0097,0.00244141,0.00106812,-2.42409,0.0569017,-0.0738423,0.0556539,0.0709703,-0.0937568,0.146539,-0.124241,-0.0810445,-0.0183105,0.02285,0.0163651,0.00549316,0.0350952,0.0214386,0.0654984,0.0130844,-9.97986,-0.0477982,-0.000343323,-0.00114441,-0.0744629,0.0595474,0.0019455,0.00862122,-0.00598907
10,1,10.0097,0.0012207,0.00198364,-2.42562,0.0553758,-0.0744527,0.054128,0.0709703,-0.090705,0.14776,-0.12363,-0.0798238,-0.0333405,0.0271988,0.0183868,0.0111771,0.0366592,0.0214386,0.0594711,0.0186157,-9.97986,-0.032196,-0.00617981,-0.0149918,-0.0534439,0.0551224,-0.00267029,0.00888824,-0.00499725
10,2,10.0097,-0.000610352,0.00198364,-2.42501,0.0562914,-0.0741475,0.0547383,0.0706652,-0.0922309,0.146234,-0.123935,-0.0798238,-0.0396729,0.0229645,0.0178528,0.0094223,0.0410843,0.0196838,0.0645828,0.0198746,-9.97986,-0.0250244,0.00171661,-0.019722,-0.0340652,0.0564194,-0.00530243,0.00736237,-0.00347137
10,3,10.0097,-0.000305176,0.00137329,-2.42562,0.0562914,-0.0744527,0.0550435,0.0718859,-0.0916206,0.14776,-0.124241,-0.0807394,-0.0501251,0.0225449,0.0159454,0.0101471,0.0373459,0.016861,0.0646973,0.0257111,-9.97986,-0.0163269,0.00148773,-0.0281143,-0.0215149,0.0579071,-0.00858307,0.00865936,-0.000152588
10,4,10.0097,0.00244141,0.00167847,-2.42409,0.0562914,-0.0738423,0.0550435,0.0709703,-0.0916206,0.146539,-0.12302,-0.0813497,-0.0600433,0.0234985,0.0143814,0.00915527,0.0323105,0.0159454,0.0656509,0.0233459,-9.97986,0.00576019,0.000953674,-0.0296783,-0.0124741,0.0562286,-0.00682831,0.00900269,0.00137329
10,5,10.0097,0.00152588,-0.000457764,-2.42623,0.055681,-0.073232,0.0547383,0.0645616,-0.0925361,0.146539,-0.125766,-0.0825704,-0.0653076,0.0232315,0.0193024,0.0143433,0.0357437,0.0147629,0.0614548,0.0164795,-9.97986,0.00793457,0.00286102,-0.0365067,-0.0118256,0.0566483,-0.00881195,0.00526428,0.000305176
10,6,10.0097,-0.000610352,0.000457764,-2.42684,0.0544603,-0.0741475,0.0547383,0.0627306,-0.0931465,0.145318,-0.126377,-0.0825704,-0.0377655,0.0226593,0.0198746,0.0151443,0.0341034,0.00839233,0.062294,0.014801,-9.97986,0.0152969,-0.00221252,-0.031929,-0.00648499,0.0560379,-0.013237,0.00675201,0.00217438
10,7,10.0097,-0.000305176,0.000457764,-2.42623,0.0544603,-0.0747579,0.0538228,0.0712755,-0.0916206,0.146234,-0.124851,-0.0822652,0.0297165,0.0185776,0.0136948,0.00980377,0.0322723,0.00854492,0.0658035,0.0179672,-9.97986,0.0495148,-0.00667572,-0.030098,-0.00980377,0.0561523,-0.0127792,0.00675201,0.00610352
10,8,10.0097,0.000915527,0.000915527,-2.42653,0.0541551,-0.075063,0.0532125,0.075548,-0.0925361,0.144403,-0.124546,-0.0822652,0.0571442,0.0159836,0.0151825,0.00965118,0.0363159,0.00217438,0.0669479,0.0223541,-9.97986,0.0557327,-0.00377655,-0.0258255,-0.00774384,0.0585938,-0.00656128,0.00511169,0.00888824
10,9,10.0097,0.00213623,0.00183105,-2.42837,0.0550706,-0.075063,0.0526021,0.0758531,-0.0943672,0.143792,-0.125461,-0.085317,0.0279999,0.0215149,0.0205612,0.00873566,0.0336456,-0.01297,0.0654984,0.0232315,-9.97986,0.0549698,0.0025177,-0.0233078,0.00392914,0.0562668,7.62939e-005,0.00614166,0.00740051
11,0,10.0097,-0.00183105,0.000915527,-2.42806,0.0544603,-0.0762837,0.0529073,0.0718859,-0.0931465,0.143487,-0.126072,-0.0868429,0.0163651,0.0203705,0.0200272,0.0131989,0.0323105,-0.0235367,0.067215,0.0231934,-9.97986,0.0473785,0.00724792,-0.0285721,0.0127792,0.0622177,0.0189209,0.0115204,0.00865936
11,1,10.0097,0.00213623,0.00152588,-2.42837,0.0547655,-0.0759786,0.054128,0.07036,-0.0946723,0.144098,-0.126987,-0.0862325,0.0299835,0.0187302,0.022316,0.0107956,0.0360489,-0.0344467,0.0709152,0.022316,-9.97986,0.033226,-0.000953674,-0.0344467,0.030098,0.0650406,0.0290298,0.00789642,0.0115204
11,2,10.0097,0.00152588,0.000915527,-2.42959,0.0547655,-0.0759786,0.0516866,0.07036,-0.094062,0.143487,-0.127292,-0.0856222,0.0562668,0.0201797,0.0200272,0.0124359,0.035553,-0.038414,0.0691986,0.0148773,-9.97986,0.0238419,0.00087738,-0.0282288,0.0432587,0.0738144,0.0336456,0.01091,0.0137329
11,3,10.0097,0.000610352,0.000610352,-2.42867,0.0550706,-0.0756734,0.0526021,0.0691393,-0.0946723,0.142877,-0.126987,-0.0862325,0.0710297,0.0243378,0.0199127,0.0146866,0.0337982,-0.0451279,0.0751495,0.0166321,-9.97986,0.0141144,-0.00228882,-0.0337601,0.0547028,0.0802994,0.0333405,0.0110245,0.0139618
11,4,10.0097,0,0.00106812,-2.42898,0.0535448,-0.0762837,0.0516866,0.0682238,-0.0952827,0.143792,-0.127292,-0.0865377,0.0595856,0.0214005,0.0164032,0.0123596,0.0296021,-0.0539398,0.0770569,0.0143433,-9.97986,0.00774384,0.00190735,-0.0313187,0.0691986,0.0885773,0.0398636,0.00759125,0.0192642
11,5,10.0097,0.0012207,0.000457764,-2.42806,0.0538499,-0.0756734,0.0526021,0.0682238,-0.0931465,0.143487,-0.127598,-0.0865377,0.045166,0.0172806,0.0193405,0.0110626,0.0320816,-0.0589371,0.0728989,0.0195313,-9.97986,-0.0101089,-0.000267029,-0.0300598,0.0738907,0.0942993,0.0403976,0.0146866,0.0207901
11,6,10.0097,0,0,-2.42837,0.0544603,-0.0753682,0.0522969,0.0700548,-0.0934516,0.144708,-0.126682,-0.0844015,0.0285339,0.0151825,0.014534,0.00644684,0.0347519,-0.0583649,0.0706863,0.0209045,-9.97986,-0.0196838,-0.00408173,-0.0357819,0.0761032,0.0927734,0.0379181,0.0122452,0.0225067
11,7,10.0097,0.00213623,0.000610352,-2.42776,0.0559862,-0.0753682,0.0526021,0.0694445,-0.0934516,0.143487,-0.126377,-0.0847066,0.0427628,0.0160217,0.0140381,0.00968933,0.0291824,-0.0621414,0.0730515,0.0239944,-9.97986,-0.0162506,-0.00408173,-0.0404739,0.0806046,0.0985718,0.0386429,0.0152969,0.0225449
11,8,10.0097,0.000915527,0.000457764,-2.42684,0.0547655,-0.0744527,0.0535176,0.0694445,-0.0952827,0.145624,-0.125461,-0.0840963,0.0380707,0.0164413,0.016098,0.0112534,0.0272369,-0.0657272,0.0665283,0.0247955,-9.97986,-0.01194,-0.00484467,-0.0444794,0.0765991,0.100594,0.0365829,0.0185394,0.0239563
11,9,10.0097,0.000610352,0.000305176,-2.42592,0.0565965,-0.075063,0.0535176,0.0694445,-0.0928413,0.145013,-0.125156,-0.0825704,-0.00801086,0.0188065,0.0175095,0.0107193,0.0290298,-0.069046,0.0644684,0.0277328,-9.97986,-0.0158691,-0.00675201,-0.0457764,0.0850677,0.106125,0.0254822,0.0168991,0.0244141
12,0,10.0097,-0.000610352,0.000305176,-2.42501,0.0562914,-0.0744527,0.0550435,0.0694445,-0.0919257,0.146234,-0.12363,-0.0819601,-0.0326538,0.0218964,0.019722,0.0151062,0.027504,-0.0672913,0.0584412,0.0302505,-9.97986,-0.0214005,0.00415802,-0.0469589,0.0846481,0.10704,0.0264359,0.0180817,0.0234985
12,1,10.0097,0,-0.000305176,-2.42592,0.0562914,-0.0747579,0.0535176,0.0712755,-0.0919257,0.14776,-0.124546,-0.0804342,-0.0318909,0.0235367,0.0209045,0.0121689,0.0288391,-0.0703049,0.0518799,0.0259399,-9.97986,-0.0241852,0.000457764,-0.0476837,0.0846481,0.106735,0.021553,0.0202179,0.02491
12,2,10.0097,0.00183105,0.000152588,-2.42531,0.0562914,-0.0729268,0.0550435,0.0715807,-0.0919257,0.146844,-0.125156,-0.0816549,-0.0178909,0.0242233,0.0220871,0.0117111,0.0235748,-0.0704575,0.0500488,0.015831,-9.97986,-0.0130463,0.00240326,-0.0506592,0.0908661,0.108566,0.0211334,0.0225449,0.0250244
12,3,10.0097,0.000305176,0.000305176,-2.4244,0.055681,-0.0744527,0.0544332,0.0724962,-0.0894843,0.147455,-0.123935,-0.0807394,-0.0193405,0.0254059,0.0259781,0.0169754,0.0240326,-0.0670242,0.0535202,0.0107574,-9.97986,0.0167465,0.00419617,-0.0513077,0.0899124,0.114975,0.0283432,0.0205994,0.0273132
12,4,10.0097,-0.000305176,-0.000457764,-2.42501,0.0572069,-0.0744527,0.0544332,0.0718859,-0.0925361,0.145929,-0.122715,-0.0807394,-0.0134659,0.0296021,0.0241089,0.0180817,0.0239182,-0.0647736,0.0486755,0.00343323,-9.97986,0.0584793,0.00114441,-0.0463104,0.0892639,0.117874,0.0191116,0.0207138,0.0287628
12,5,10.0097,-0.000915527,-0.000762939,-2.42653,0.0569017,-0.0738423,0.0550435,0.0648668,-0.0922309,0.146844,-0.125156,-0.0825704,-0.00644684,0.0315094,0.02388,0.0177765,0.0223923,-0.0625992,0.0432968,0.000343323,-9.97986,0.0808716,0.00263214,-0.0495529,0.0842285,0.124664,0.020752,0.0205994,0.0272751
12,6,10.0097,0,-0.00106812,-2.42562,0.0559862,-0.0747579,0.0535176,0.0633409,-0.0928413,0.146234,-0.125461,-0.0828756,-0.0423813,0.0304413,0.0244141,0.0167084,0.0241852,-0.0589371,0.0389862,-0.00583649,-9.97986,0.0741196,0.00354767,-0.0460052,0.0717926,0.125732,0.020752,0.0242615,0.0307465
12,7,10.0097,0.000610352,0,-2.42562,0.0553758,-0.0738423,0.0556539,0.0682238,-0.0922309,0.145624,-0.125461,-0.0831808,-0.0639343,0.026474,0.020752,0.0154877,0.020752,-0.0556946,0.0340271,-0.00347137,-9.97986,0.0640488,0.00167847,-0.0422668,0.0703812,0.123634,0.0165558,0.0256729,0.0325012
12,8,10.0097,0.00244141,-0.000152588,-2.42714,0.0553758,-0.0744527,0.0532125,0.0749376,-0.0922309,0.144708,-0.125156,-0.0840963,0.01091,0.0210571,0.0210571,0.0168228,0.0188828,-0.0555038,0.0257492,0.00324249,-9.97986,0.0435257,0.00225067,-0.0399017,0.0728226,0.124474,0.02491,0.0225067,0.0313187
12,9,10.0097,0.00152588,0.000305176,-2.42776,0.0550706,-0.0756734,0.0532125,0.0770738,-0.0937568,0.143487,-0.126682,-0.085317,0.10746,0.0220871,0.0205612,0.0152969,0.0205231,-0.0550079,0.0218964,0.00400543,-9.97986,0.0247192,0.00328064,-0.0363541,0.0654221,0.126839,0.0271225,0.0238419,0.0282669
13,0,10.0097,0.000305176,-0.000305176,-2.42898,0.0535448,-0.0747579,0.0535176,0.07036,-0.094062,0.144098,-0.126377,-0.0865377,0.11692,0.0206757,0.0208282,0.013504,0.0183487,-0.0466156,0.0188065,0.00896454,-9.97986,0.00671387,-0.0019455,-0.0291061,0.0597,0.123482,0.0244141,0.0235367,0.0317383
13,1,10.0097,0.000305176,-0.000457764,-2.42928,0.0541551,-0.0753682,0.0544332,0.0691393,-0.0946723,0.143487,-0.127598,-0.0862325,0.0818634,0.019722,0.0150681,0.0106812,0.0222015,-0.0463486,0.0119781,0.01091,-9.97986,-0.0117493,-0.0030899,-0.0304794,0.0605011,0.119514,0.0258636,0.0252151,0.0324631
13,2,10.0097,0,-0.000457764,-2.4302,0.0547655,-0.0762837,0.0529073,0.0694445,-0.0949775,0.142572,-0.127903,-0.0859274,0.0531387,0.0152206,0.0121689,0.0101852,0.0233078,-0.0450134,0.000419617,0.0111771,-9.97986,-0.0166321,0.00270844,-0.02388,0.0592422,0.119705,0.0373077,0.027771,0.0311279
13,3,10.0097,0.00183105,-0.000610352,-2.42928,0.0538499,-0.0756734,0.0526021,0.0691393,-0.095893,0.142877,-0.126987,-0.0868429,0.0252533,0.00858307,0.00888824,0.00968933,0.0173187,-0.042038,-0.00610352,0.01297,-9.97986,-0.00358582,0.00167847,-0.0261307,0.0601196,0.121078,0.0341797,0.02491,0.0306702
13,4,10.0097,-0.000305176,-0.000457764,-2.42867,0.0538499,-0.0762837,0.0529073,0.0691393,-0.0955879,0.144403,-0.128208,-0.0871481,0.00492096,0.00926971,0.0123978,0.00999451,0.0223923,-0.0395203,-0.0105286,0.00907898,-9.97986,0.0147247,0.00202179,-0.019455,0.0582886,0.121498,0.0246048,0.0243378,0.0309753
13,5,10.0097,0.000305176,-0.00106812,-2.42837,0.0547655,-0.0756734,0.0532125,0.0682238,-0.0943672,0.143792,-0.127598,-0.0859274,-0.00389099,0.0112152,0.0082016,0.0111008,0.0196075,-0.0375366,-0.00793457,0.00843048,-9.97986,0.0234985,-0.00179291,-0.0166321,0.059166,0.122757,0.0122452,0.0256348,0.0310135
13,6,10.0097,0.000915527,0,-2.42806,0.0544603,-0.0756734,0.0529073,0.0691393,-0.0946723,0.143182,-0.127292,-0.0859274,-0.0201035,0.0131607,0.00556946,0.0111771,0.0164413,-0.0312042,-0.0136948,0.00930786,-9.97986,0.0218964,0.00118256,-0.0183105,0.0656509,0.120659,0.0109863,0.0239944,0.0273895
13,7,10.0097,-0.000305176,0.000762939,-2.42776,0.0553758,-0.075063,0.054128,0.07036,-0.0937568,0.146234,-0.126377,-0.0840963,-0.0411987,0.00835419,0.00953674,0.00930786,0.0234222,-0.0304794,-0.0162888,0.00911713,-9.97986,0.00549316,-0.00282288,-0.0102997,0.0653076,0.122528,0.0123596,0.0218582,0.0283432
13,8,10.0097,-0.000305176,0.000305176,-2.42684,0.0547655,-0.0744527,0.054128,0.0706652,-0.0922309,0.145318,-0.126072,-0.0834859,-0.0354767,0.00782013,0.0069046,0.0107956,0.0172424,-0.0331879,-0.0138474,0.0110245,-9.97986,-0.00423431,0.000686646,-0.00511169,0.0722885,0.122414,0.0191879,0.0214005,0.0260162
13,9,10.0097,0.00152588,0.0012207,-2.42562,0.0565965,-0.0744527,0.0538228,0.0709703,-0.0928413,0.145318,-0.125461,-0.0816549,-0.0259399,0.00801086,0.0139236,0.0114441,0.0152588,-0.0271225,-0.0175095,0.0192261,-9.97986,-0.000610352,0.00339508,-0.00450134,0.0785065,0.124474,0.0294876,0.0205231,0.0278473
14,0,10.0097,0.00396729,0.0012207,-2.42531,0.0569017,-0.073232,0.0544332,0.0718859,-0.0913154,0.145929,-0.123935,-0.0819601,-0.0115585,0.00953674,0.0108337,0.00961304,0.0157166,-0.0302124,-0.019455,0.0183868,-9.97986,0.027504,-0.00675201,-0.00232697,0.0844574,0.122681,0.0330353,0.0162888,0.0246429
14,1,10.0097,0.000610352,0.000610352,-2.42501,0.0569017,-0.0735371,0.0544332,0.0718859,-0.0903999,0.146844,-0.124546,-0.0810445,0.0118637,0.0179291,0.0185013,0.0118256,0.0203705,-0.0296402,-0.0248337,0.023613,-9.97986,0.0524521,-0.00301361,0.001297,0.0936508,0.125351,0.0352859,0.0190353,0.0267792
14,2,10.0097,0.00183105,0.000152588,-2.4247,0.055681,-0.0741475,0.0550435,0.0761583,-0.0913154,0.148675,-0.125156,-0.0810445,0.0323868,0.0185394,0.0142288,0.00938416,0.0153351,-0.0214005,-0.0282669,0.0153732,-9.97986,0.0628662,-0.00545502,-0.00148773,0.0910187,0.119743,0.025444,0.0151443,0.0247955
14,3,10.0097,-0.000610352,0.00106812,-2.42501,0.0565965,-0.075063,0.0544332,0.0718859,-0.0903999,0.147149,-0.12302,-0.0810445,0.0504684,0.0226974,0.0188065,0.0105667,0.0177765,-0.0170898,-0.0302124,0.0157928,-9.97986,0.0592804,-0.000228882,-0.000991821,0.0925446,0.109024,0.0332642,0.013237,0.0251389
14,4,10.0097,-0.000915527,0,-2.42592,0.055681,-0.0738423,0.0544332,0.0712755,-0.0910102,0.146844,-0.12363,-0.0804342,0.0580597,0.0236511,0.0175858,0.014534,0.019455,-0.0141525,-0.023613,0.0148773,-9.97986,0.0617218,0.00202179,-0.00507355,0.0993347,0.106773,0.0375366,0.0141144,0.0273514
14,5,10.0097,0,0,-2.42592,0.0559862,-0.0738423,0.0544332,0.0627306,-0.0931465,0.14837,-0.124851,-0.0822652,0.0505447,0.0254822,0.018959,0.0164032,0.014534,-0.0133133,-0.0259018,0.0100708,-9.97986,0.0675583,-0.00038147,-0.00118256,0.09758,0.100479,0.0457764,0.00476837,0.0295258
14,6,10.0097,0.000610352,-0.000305176,-2.42653,0.0559862,-0.0735371,0.054128,0.0630358,-0.0934516,0.145318,-0.125156,-0.0816549,0.0453949,0.031929,0.0228882,0.019455,0.0137329,-0.00427246,-0.0269699,0.01091,-9.97986,0.0703812,-0.00358582,-0.00289917,0.0988388,0.0921631,0.0432205,0.00881195,0.0270844
14,7,10.0097,0.000305176,0.000610352,-2.42653,0.0562914,-0.075063,0.0544332,0.0679186,-0.0913154,0.145013,-0.124851,-0.0834859,0.0404739,0.0286102,0.0252533,0.0141144,0.0133133,-0.0117874,-0.0267792,0.0103378,-9.97986,0.060463,-0.00522614,-0.00587463,0.0997925,0.0848389,0.0440598,0.0094223,0.0259781
14,8,10.0097,-0.000610352,0.00106812,-2.42714,0.0569017,-0.0756734,0.0544332,0.0752428,-0.0919257,0.145013,-0.125156,-0.0831808,0.0327682,0.0296021,0.027771,0.0152588,0.0163269,-0.0105286,-0.018692,0.0102997,-9.97986,0.0518036,-0.00648499,-0.00370026,0.104561,0.0773621,0.0343704,0.00667572,0.0279617
14,9,10.0097,0.000610352,0.000915527,-2.42806,0.0547655,-0.0762837,0.054128,0.077379,-0.0931465,0.144098,-0.126987,-0.0837911,0.0305176,0.0309753,0.0291061,0.0158691,0.017662,-0.00736237,-0.0153351,0.0122833,-9.97986,0.0420761,0.000228882,-0.00389099,0.106239,0.0725174,0.0257492,0.0108337,0.0230408
15,0,10.0097,0.00213623,0,-2.42959,0.0526292,-0.0759786,0.0519917,0.0712755,-0.0946723,0.145013,-0.127598,-0.0862325,0.01091,0.0296402,0.0242233,0.0149918,0.0118256,-0.00621796,-0.0110245,0.0187683,-9.97986,0.0252151,0.00419617,-0.00511169,0.105667,0.0664139,0.0138474,0.00965118,0.0253296
15,1,10.0097,0.000305176,0,-2.42928,0.0532396,-0.0744527,0.0529073,0.0691393,-0.0949775,0.143487,-0.126072,-0.0868429,-0.0173569,0.0268173,0.0262451,0.015564,0.021286,-0.00286102,-0.00900269,0.0239563,-9.97986,0.00534058,0.00656128,-0.0063324,0.102844,0.0625992,0.0165558,0.00804901,0.0231171
15,2,10.0097,0.000305176,0.000152588,-2.43081,0.0544603,-0.075063,0.0526021,0.0694445,-0.0937568,0.144403,-0.126682,-0.0862325,-0.0271606,0.0296783,0.0189972,0.0199509,0.0120163,-0.00408173,-0.0088501,0.0214767,-9.97986,-0.016098,0.00541687,-0.013504,0.102043,0.0585175,0.016098,0.0109863,0.0218201
15,3,10.0097,0.000305176,-0.000457764,-2.42837,0.0535448,-0.0762837,0.0529073,0.0694445,-0.0946723,0.142877,-0.128818,-0.0874532,-0.0157547,0.0310516,0.0226593,0.0169373,0.0137329,-0.00556946,-0.00862122,0.0137711,-9.97986,-0.0174332,0.00530243,-0.00999451,0.0948334,0.0550461,0.0230789,0.0050354,0.0187302
15,4,10.0097,0.00244141,-0.000152588,-2.42928,0.0535448,-0.0762837,0.0519917,0.0688341,-0.0937568,0.143487,-0.127598,-0.0871481,0.0102615,0.0286865,0.0247574,0.0150299,0.0130081,0.00247955,-0.00724792,0.0132751,-9.97986,-0.00553131,0.00160217,-0.0140381,0.0947571,0.0566864,0.031929,0.00659943,0.0199127
15,5,10.0097,0.000610352,-0.000610352,-2.42714,0.0550706,-0.0753682,0.0538228,0.0688341,-0.0952827,0.144098,-0.126682,-0.0859274,0.0263977,0.0304413,0.0239944,0.0167084,0.0109863,0.00339508,-0.0123215,0.00907898,-9.97986,0.0225449,0.00404358,-0.0159073,0.0963974,0.0595856,0.0291443,0.00881195,0.0198364
15,6,10.0097,-0.000305176,0.000457764,-2.42653,0.0538499,-0.0753682,0.0538228,0.0728014,-0.0934516,0.144403,-0.126072,-0.085317,0.0411224,0.0260925,0.0217438,0.0181198,0.0103378,-0.00209808,-0.00518799,0.0128555,-9.97986,0.0519562,0.010376,-0.0124359,0.0972366,0.0576782,0.031662,0.00602722,0.0213623
15,7,10.0097,0.000610352,0.000610352,-2.42837,0.0538499,-0.075063,0.0538228,0.0709703,-0.0934516,0.145318,-0.126682,-0.0840963,0.0462723,0.0255203,0.0229645,0.0164032,0.0138092,0.00362396,-0.00141144,0.0123596,-9.97986,0.0713348,0.0062561,-0.0185013,0.0973892,0.0535583,0.0317383,0.0146484,0.0239182
15,8,10.0097,0.00152588,0.000610352,-2.42806,0.0550706,-0.075063,0.0535176,0.0694445,-0.0931465,0.145624,-0.125766,-0.0831808,0.0356293,0.023613,0.0200653,0.017395,0.00957489,0.00190735,-0.00526428,0.0133514,-9.97986,0.0845718,0.00583649,-0.0180435,0.0988388,0.0534821,0.0357437,0.0112152,0.0218964
15,9,10.0097,0.00183105,0.000305176,-2.42653,0.0553758,-0.0735371,0.0547383,0.0688341,-0.0943672,0.145013,-0.125156,-0.0828756,0.0182343,0.0248337,0.022316,0.0143051,0.00629425,0.0056076,-0.0124359,0.00720978,-9.97986,0.0771332,-0.00736237,-0.0180054,0.102768,0.0459671,0.0448608,0.0134277,0.0192642
16,0,10.0097,0.00183105,-0.000152588,-2.42684,0.0559862,-0.0747579,0.0547383,0.0706652,-0.0928413,0.146844,-0.125156,-0.0819601,0.00473022,0.0229645,0.0193405,0.0110626,0.00423431,0.00282288,-0.0154114,0.00717163,-9.97986,0.0542068,-0.0157928,-0.0196075,0.096283,0.0394058,0.044136,0.0156021,0.0188446
16,1,10.0097,0.00305176,-0.000457764,-2.42562,0.0569017,-0.0735371,0.0547383,0.0709703,-0.0916206,0.146844,-0.123935,-0.0810445,0.00305176,0.026207,0.0257111,0.0132751,0.00576019,0.00595093,-0.0194931,0.0183105,-9.97986,0.0260925,-0.0135803,-0.0135803,0.100822,0.0363922,0.0373459,0.0168991,0.0247574
16,2,10.0097,-0.000610352,-0.000305176,-2.42501,0.0562914,-0.0729268,0.0547383,0.07036,-0.0925361,0.145318,-0.124241,-0.0813497,0.000152588,0.02285,0.0206375,0.0116348,0.00358582,0.00408173,-0.0190735,0.0195694,-9.97986,0.00656128,-0.00270844,-0.019455,0.0950241,0.031929,0.029335,0.0156784,0.0283813
16,3,10.0097,0.000305176,0,-2.4247,0.0575121,-0.073232,0.0553487,0.0691393,-0.0913154,0.146234,-0.123935,-0.0804342,0.000190735,0.0247192,0.022316,0.0155258,0.0075531,0.00644684,-0.0210953,0.0252151,-9.97986,-0.00610352,0.0119781,-0.0150681,0.0940704,0.0278854,0.0244904,0.0153351,0.0251007
16,4,10.0097,0.000305176,-0.000152588,-2.42501,0.0562914,-0.0735371,0.0550435,0.0718859,-0.0919257,0.145929,-0.123935,-0.0804342,0.00507355,0.0257492,0.0219727,0.0129318,0.00736237,0.00865936,-0.0214005,0.0242615,-9.97986,-0.0280762,0.0111389,-0.015831,0.0888062,0.0148392,0.0259781,0.0164032,0.0321198
16,5,10.0097,0.000305176,-0.000762939,-2.42562,0.0569017,-0.0726216,0.054128,0.0621202,-0.0928413,0.146539,-0.125156,-0.0813497,0.00717163,0.0272369,0.025177,0.0169373,0.00980377,0.0094986,-0.0204086,0.0218964,-9.97986,-0.0374603,0.00759125,-0.0161362,0.0786591,0.00530243,0.0198746,0.0136566,0.0296402
16,6,10.0097,0,-0.00106812,-2.42592,0.0553758,-0.0756734,0.0547383,0.0612047,-0.0919257,0.145624,-0.125461,-0.0804342,0.00965118,0.0256348,0.0194168,0.0125122,0.00522614,0.00785828,-0.0196457,0.018692,-9.97986,-0.0485229,-0.00160217,-0.0143814,0.0790024,-0.00427246,0.0204086,0.0136185,0.0239563
16,7,10.0097,0.00457764,-0.000457764,-2.42745,0.0550706,-0.0741475,0.054128,0.0700548,-0.0916206,0.144708,-0.126377,-0.0834859,0.0108337,0.0291824,0.0268936,0.0185776,0.00598907,0.0161362,-0.0088501,0.015564,-9.97986,-0.0502396,0.00614166,-0.0136948,0.0614166,-0.0100327,0.0261688,0.0159836,0.0269318
16,8,10.0097,0.00244141,0,-2.42653,0.0547655,-0.0768941,0.0535176,0.0749376,-0.0919257,0.146234,-0.125156,-0.0828756,0.00354767,0.0276566,0.0252151,0.0156403,0.00644684,0.013237,-0.00549316,0.0106812,-9.97986,-0.0360489,0.00209808,-0.0144196,0.057869,-0.00793457,0.0162888,0.0153732,0.0265503
16,9,10.0097,-0.000610352,0.000305176,-2.42806,0.0538499,-0.0744527,0.0532125,0.0767687,-0.0928413,0.145013,-0.125766,-0.085317,0.0044632,0.0212097,0.0237274,0.016861,0.0110626,0.016861,0.00331879,0.0150299,-9.97986,0.00240326,0,-0.0123596,0.0576782,-0.00587463,0.0109863,0.0125885,0.0258255
17,0,10.0097,0.00305176,0,-2.43111,0.0538499,-0.0756734,0.0529073,0.0718859,-0.094062,0.143182,-0.126987,-0.0859274,0.017128,0.021553,0.0238419,0.0128937,0.00850677,0.0159073,0.0149155,0.0183105,-9.97986,0.0384903,0.00507355,-0.0131989,0.0514603,-0.00259399,-0.00106812,0.0136185,0.0265884
17,1,10.0097,0.000305176,-0.000152588,-2.42989,0.0532396,-0.0747579,0.0535176,0.0697496,-0.0946723,0.142572,-0.126987,-0.0859274,0.00762939,0.0289154,0.0217438,0.0143433,0.00701904,0.0191498,0.0150299,0.0160599,-9.97986,0.0622177,0.00198364,-0.0125885,0.0517654,-0.00896454,-0.00812531,0.0157547,0.0224686
17,2,10.0097,0.00152588,-0.000610352,-2.42898,0.0541551,-0.075063,0.0529073,0.07036,-0.0943672,0.143487,-0.126072,-0.0868429,0.00205994,0.0243378,0.0204086,0.0125504,0.00999451,0.0174332,0.00167847,0.0232697,-9.97986,0.0665665,-0.00858307,-0.0140762,0.0520706,-0.0208282,-0.000915527,0.0109863,0.017662
17,3,10.0097,0.000915527,-0.000915527,-2.43172,0.0535448,-0.0756734,0.0513814,0.0688341,-0.0946723,0.143792,-0.127292,-0.0874532,0.0019455,0.0291824,0.0243378,0.0141144,0.00663757,0.0220108,-0.00038147,0.0205231,-9.97986,0.0537491,-0.0283051,-0.0124741,0.0495148,-0.0203323,-0.00389099,0.00961304,0.0174332
17,4,10.0097,0,-0.000610352,-2.42959,0.0529344,-0.0762837,0.0519917,0.067003,-0.0946723,0.143182,-0.127903,-0.0871481,0.00682831,0.0240707,0.0297165,0.0130081,0.00804901,0.0213242,3.8147e-005,0.0236511,-9.97986,0.0217438,-0.0201035,-0.0094223,0.04776,-0.0173569,-0.000572205,0.0149536,0.0212479
17,5,10.0097,-0.000915527,-0.000762939,-2.42837,0.0550706,-0.0747579,0.0532125,0.0682238,-0.0946723,0.143792,-0.127292,-0.0877584,0.0208282,0.0263596,0.0262833,0.0141907,0.0131607,0.0217056,0.00404358,0.0218964,-9.97986,0.00324249,0.00450134,-0.00579834,0.044632,-0.0200272,0.00244141,0.00602722,0.0281525
17,6,10.0097,0.000610352,-0.000457764,-2.42745,0.0550706,-0.0759786,0.0522969,0.0685289,-0.0934516,0.145013,-0.126072,-0.0847066,0.0243759,0.02491,0.0258255,0.0149536,0.0137711,0.0260162,0.0113297,0.0198364,-9.97986,-0.0038147,0.0130463,-0.00484467,0.0394058,-0.014534,0.00736237,0.00869751,0.0321579
17,7,10.0097,0.000915527,0,-2.42806,0.0550706,-0.0747579,0.0526021,0.0712755,-0.0943672,0.144098,-0.126377,-0.0844015,0.0278854,0.0246048,0.0226212,0.0188828,0.0148392,0.0215912,0.0165176,0.0224304,-9.97986,-0.0019455,-7.62939e-005,0.00209808,0.0343704,-0.00808716,0.00782013,0.00701904,0.0333405
17,8,10.0097,0.000305176,0.000610352,-2.42745,0.055681,-0.0741475,0.0535176,0.0694445,-0.0931465,0.145013,-0.125766,-0.0834859,0.0161743,0.0278473,0.0254059,0.0120544,0.0182724,0.0288391,0.018158,0.0151825,-9.97986,0.00160217,0.000305176,0.00228882,0.0337601,-0.000534058,0.00797272,0.0102997,0.0360489
17,9,10.0097,0.000305176,0,-2.42531,0.0553758,-0.0735371,0.0538228,0.07036,-0.0894843,0.145929,-0.124851,-0.0834859,0.0186539,0.0231171,0.0278473,0.0167084,0.0193405,0.025444,0.0134659,0.0195313,-9.97986,0.00171661,0.00606537,0.00232697,0.0305557,0.00938416,0.0100708,0.00968933,0.0412369
18,0,10.0097,0.00183105,-0.00137329,-2.42623,0.0550706,-0.0747579,0.0535176,0.0712755,-0.0937568,0.146539,-0.124241,-0.0819601,0.0294113,0.0253296,0.0256348,0.0148773,0.0201035,0.0240707,0.0112152,0.0156021,-9.97986,-0.00240326,0.00270844,0.00240326,0.0278854,0.00598907,0.00434875,0.0087738,0.0317001
18,1,10.0097,0.000610352,-0.000457764,-2.42531,0.055681,-0.0735371,0.0544332,0.0715807,-0.0919257,0.146844,-0.124241,-0.0819601,0.0211334,0.0232315,0.0236893,0.0100708,0.0216293,0.0241089,0.0117874,0.0154877,-9.97986,-0.0139618,-0.00846863,-0.0012207,0.0280762,0.00614166,0.00453949,0.00919342,0.0296783
18,2,10.0097,0.00183105,0.000305176,-2.42318,0.0559862,-0.075063,0.0535176,0.0706652,-0.0916206,0.146539,-0.124546,-0.0792135,0.0176239,0.0217438,0.0208664,0.0114059,0.0187302,0.0244904,0.00965118,0.0202942,-9.97986,-0.0303268,-0.0219727,-0.000686646,0.0296402,0.0063324,0.000801086,0.00965118,0.0220108
18,3,10.0097,-0.000915527,0.000152588,-2.42623,0.0559862,-0.0738423,0.0556539,0.0706652,-0.0919257,0.146234,-0.12363,-0.0804342,0.0103378,0.0239563,0.0212479,0.0118256,0.0179291,0.0243378,0.0186157,0.0219345,-9.97986,-0.0441742,-0.0196838,0.000572205,0.0282669,0.00637054,-0.00137329,0.00720978,0.0201416
18,4,10.0097,0.00183105,-0.000610352,-2.42562,0.0559862,-0.0741475,0.0550435,0.0697496,-0.0934516,0.145929,-0.124546,-0.080129,-0.0127411,0.0198746,0.0185394,0.0102615,0.0114822,0.0304794,0.0419617,0.0276947,-9.97986,-0.0471878,-0.0106812,0.00087738,0.0231171,0.000991821,-0.00442505,0.00717163,0.00907898
18,5,10.0097,0.000610352,-0.000762939,-2.42714,0.0553758,-0.0735371,0.0544332,0.0633409,-0.0946723,0.146539,-0.124851,-0.0816549,-0.0180054,0.0167084,0.0204086,0.0127792,0.0100708,0.0262833,0.0512695,0.030365,-9.97986,-0.0311279,-0.00358582,0.0018692,0.0206375,0.0104904,-0.00225067,0.00953674,0.00587463
18,6,10.0097,0.000610352,-0.0012207,-2.42653,0.0550706,-0.0735371,0.0550435,0.0621202,-0.0937568,0.146234,-0.125156,-0.0819601,-0.017662,0.0179291,0.0226212,0.0128555,0.0094986,0.0254059,0.0481033,0.0328064,-9.97986,-0.0019455,-0.00362396,-0.00114441,0.0207138,0.0175095,-0.0031662,0.0114441,0.00865936
18,7,10.0097,-0.000610352,0.000305176,-2.42562,0.0553758,-0.0753682,0.0550435,0.0685289,-0.0922309,0.146234,-0.125156,-0.0825704,-0.0229645,0.0182724,0.0212479,0.0107956,0.0125885,0.0265884,0.0379944,0.0308609,-9.97986,0.0227737,0.011673,0.00225067,0.0115585,0.0146484,-0.00156403,0.00713348,0.0125885
18,8,10.0097,0.000915527,-0.000610352,-2.42714,0.055681,-0.0747579,0.0535176,0.0752428,-0.0931465,0.145929,-0.124851,-0.0831808,-0.0237274,0.0180817,0.02388,0.0140762,0.0100327,0.0299835,0.0225449,0.0301743,-9.97986,0.0358582,0.017662,0.00282288,0.00461578,0.00793457,-0.00179291,0.0107574,0.0143433
18,9,10.0097,-0.000305176,-0.000152588,-2.42898,0.0535448,-0.0756734,0.0535176,0.075548,-0.0922309,0.143182,-0.126072,-0.085317,-0.025177,0.0218582,0.024147,0.0118256,0.0119019,0.0312424,0.0125504,0.0272751,-9.97986,0.0452042,0.0187683,-0.00038147,-0.0112534,-0.00396729,0.00335693,0.014267,0.0141525
19,0,10.0097,0.000610352,-0.00106812,-2.42898,0.0541551,-0.075063,0.0522969,0.0715807,-0.0943672,0.144403,-0.126072,-0.0865377,-0.0470734,0.0253677,0.0270081,0.0152969,0.0157928,0.0353622,0.00930786,0.0165558,-9.97986,0.0308609,0.0140762,-0.00400543,-0.0250626,0.000953674,0.001297,0.0119019,0.0150681
19,1,10.0097,0.000305176,-0.00183105,-2.42837,0.0535448,-0.0762837,0.0516866,0.0697496,-0.0934516,0.144708,-0.127292,-0.0862325,-0.0501251,0.0268936,0.0285339,0.0141907,0.0141525,0.0348663,0.0247574,0.0135422,-9.97986,0.0118256,0.00854492,0.000114441,-0.033989,0.00549316,0.00450134,0.0131607,0.0107574
19,2,10.0097,0.0012207,-0.000915527,-2.42867,0.0541551,-0.0762837,0.0529073,0.0694445,-0.0946723,0.143487,-0.126682,-0.0862325,-0.00473022,0.0299454,0.0289154,0.0181961,0.0113297,0.0382233,0.0473022,0.0117493,-9.97986,0.001297,0.0112915,0.00362396,-0.0315475,0.0179672,0.00347137,0.0133514,0.00984192
19,3,10.0097,0.000610352,-0.000915527,-2.42898,0.0538499,-0.0762837,0.0529073,0.07036,-0.094062,0.144098,-0.127903,-0.0877584,0.00732422,0.0271988,0.0298691,0.0172806,0.0088501,0.0352859,0.0665283,0.0100708,-9.97986,-0.0221634,0.00961304,0.00339508,-0.0354004,0.031395,0.00679016,0.0110245,0.00938416
19,4,10.0097,-0.000610352,-0.000305176,-2.42837,0.0541551,-0.0753682,0.0532125,0.0682238,-0.0949775,0.143792,-0.127292,-0.085317,-0.00888824,0.0282288,0.0240326,0.0201035,0.014534,0.0390244,0.075264,0.013237,-9.97986,-0.036087,0.0101471,0.00881195,-0.0314331,0.0391388,0.00476837,0.013237,0.0131226
19,5,10.0097,0.000610352,-0.000305176,-2.42776,0.0538499,-0.0738423,0.0522969,0.0691393,-0.094062,0.144708,-0.127598,-0.0862325,0.00164032,0.0251007,0.0286865,0.0183868,0.0159073,0.0427246,0.066452,0.0165939,-9.97986,-0.0422668,0.00740051,0.0139999,-0.0281525,0.0474167,0.00591278,0.0147247,0.0114441
19,6,10.0097,-0.000610352,-0.000915527,-2.42714,0.0544603,-0.0747579,0.0532125,0.0688341,-0.0943672,0.144098,-0.125766,-0.0850118,0.0302505,0.018692,0.0205612,0.0118637,0.0167465,0.0310898,0.056076,0.021553,-9.97986,-0.0606918,0.00213623,0.00736237,-0.0326538,0.0386429,-0.00701904,0.00854492,-0.0112152
19,7,10.0097,0.00183105,0.000457764,-2.42684,0.0553758,-0.075063,0.0532125,0.0694445,-0.0928413,0.145318,-0.125156,-0.0837911,0.0428009,0.0239944,0.0184631,0.017395,0.0202179,0.0379562,0.0574493,0.0356674,-9.97986,-0.0540924,0.00255585,0.0139999,-0.029335,0.0446701,-0.000495911,0.0158691,-0.00621796
19,8,10.0097,0.000915527,-0.000610352,-2.42592,0.0559862,-0.0747579,0.0538228,0.0697496,-0.0931465,0.143792,-0.126072,-0.0840963,0.0326157,0.0163651,0.0183868,0.0139999,0.0178909,0.0378036,0.0550842,0.0379562,-9.97986,-0.0413132,0.00205994,0.00938416,-0.0368118,0.0430298,-0.00930786,0.00999451,-0.00541687
19,9,10.0097,0,0.000152588,-2.42623,0.055681,-0.0756734,0.0544332,0.0709703,-0.0922309,0.145318,-0.125766,-0.0831808,0.0234604,0.017395,0.0175095,0.0106049,0.0221252,0.0433731,0.0471878,0.0368118,-9.97986,-0.0170135,-0.00366211,0.0130081,-0.0441742,0.051651,-0.00907898,0.0128174,0.00217438
20,0,10.0097,0.0012207,-0.000762939,-2.42592,0.0559862,-0.0741475,0.0538228,0.0706652,-0.090705,0.145929,-0.122104,-0.0822652,0.0258636,0.0114822,0.0176239,0.0115967,0.0208664,0.0355911,0.0501633,0.0322342,-9.97986,0.000953674,0.00102997,0.0112915,-0.0558472,0.0530243,-0.0133133,0.0157547,0.00564575
20,1,10.0097,0.00152588,-0.000457764,-2.42348,0.0569017,-0.0729268,0.0544332,0.0728014,-0.0910102,0.148065,-0.123325,-0.0816549,0.0191116,0.0148392,0.0157166,0.013504,0.0168991,0.0401688,0.0609589,0.0283813,-9.97986,0.00675201,0.000686646,0.00648499,-0.0650787,0.0482559,-0.0189972,0.0123978,0.0150299
20,2,10.0097,-0.000915527,0,-2.42501,0.0553758,-0.0744527,0.0547383,0.0712755,-0.0903999,0.145929,-0.124546,-0.0816549,0.0222015,0.0149155,0.0133133,0.0101089,0.0198746,0.0371933,0.0718307,0.0323105,-9.97986,0.0371933,0.000801086,0.0107956,-0.0625229,0.0381851,-0.0211334,0.00984192,0.0174713
20,3,10.0097,0.0012207,0.000152588,-2.42531,0.0587328,-0.0726216,0.0544332,0.0724962,-0.0922309,0.148065,-0.123935,-0.0804342,0.0337601,0.0126266,0.0123215,0.0117111,0.0189209,0.0380707,0.087204,0.0284958,-9.97986,0.0589752,-0.00228882,0.00400543,-0.0523376,0.0310135,-0.0214767,0.00839233,0.0189972
20,4,10.0097,0,0.000915527,-2.42776,0.055681,-0.0726216,0.054128,0.072191,-0.0919257,0.146539,-0.124241,-0.0807394,0.0189972,0.0161362,0.0165558,0.0132751,0.0139618,0.0349045,0.115967,0.0119019,-9.97986,0.0610733,0.00133514,0.00301361,-0.0474167,0.0217819,-0.0325012,0.00564575,0.0220108
20,5,10.0097,0.000610352,0.000305176,-2.42501,0.055681,-0.0741475,0.0550435,0.0627306,-0.0922309,0.145318,-0.124241,-0.0816549,0.0126648,0.019989,0.018158,0.0124741,0.0171661,0.037384,0.136681,0.0134659,-9.97986,0.0593567,-0.0031662,0.000228882,-0.0363922,0.0177002,-0.0404739,0.00434875,0.022583
20,6,10.0097,0.000610352,-0.000457764,-2.42745,0.0553758,-0.0753682,0.0544332,0.0621202,-0.0928413,0.146844,-0.125156,-0.0795187,0.0225449,0.0226974,0.0213242,0.0131607,0.0153351,0.0329208,0.138092,0.0212097,-9.97986,0.0402451,-0.0056839,0.00312805,-0.0336075,0.0112152,-0.0472641,0.00484467,0.0192261
20,7,10.0097,0,0.000152588,-2.42501,0.0553758,-0.0744527,0.0544332,0.0676134,-0.0922309,0.146539,-0.125156,-0.0825704,0.0128555,0.0166702,0.0182724,0.0135422,0.016861,0.0336456,0.128059,0.0276184,-9.97986,0.0331116,-0.00347137,0.00629425,-0.0432968,0.0137329,-0.04673,0.00339508,0.0144577
20,8,10.0097,0.000610352,0.000152588,-2.42592,0.0550706,-0.0747579,0.0526021,0.0737169,-0.0922309,0.145624,-0.125156,-0.0834859,0.00789642,0.0195694,0.0131226,0.00812531,0.0147629,0.0361633,0.0932693,0.0307465,-9.97986,0.0375748,-0.00530243,0.00495911,-0.0434875,0.00621796,-0.0475693,0.00530243,0.0104523
20,9,10.0097,-0.0012207,0.000305176,-2.42867,0.0541551,-0.075063,0.0538228,0.0770738,-0.0928413,0.144098,-0.126682,-0.085317,0.0144958,0.0164795,0.00831604,0.00854492,0.0141144,0.0328064,0.0592804,0.0366974,-9.97986,0.0395966,-0.00640869,0.00782013,-0.0500488,-0.0044632,-0.0557327,0.00347137,0.00839233
21,0,10.0097,-0.00274658,-0.000610352,-2.42898,0.0535448,-0.0759786,0.0526021,0.0724962,-0.0931465,0.143487,-0.126682,-0.0868429,0.0327682,0.0174332,0.0094223,0.0114441,0.0167084,0.0304031,0.0276184,0.0392532,-9.97986,0.0531006,-0.0063324,0.00423431,-0.0564957,0.00301361,-0.0542068,0.00232697,0.010643
21,1,10.0097,0.0012207,-0.000610352,-2.42928,0.0541551,-0.075063,0.0526021,0.0697496,-0.0949775,0.144403,-0.126682,-0.0865377,0.0304413,0.0217056,0.0180435,0.00747681,0.0143433,0.0308609,0.0012207,0.0322723,-9.97986,0.0564194,-0.000762939,0.00473022,-0.0547409,0.00450134,-0.0426102,0.0012207,0.00865936
21,2,10.0097,-0.000610352,-0.000305176,-2.42898,0.0532396,-0.0756734,0.0526021,0.0700548,-0.0946723,0.144403,-0.126682,-0.0865377,0.0262833,0.0172043,0.0146484,0.00785828,0.0189972,0.0286484,-0.0192642,0.0263596,-9.97986,0.0669098,0.000343323,0.00934601,-0.0619507,0.0111389,-0.0255966,0.00553131,0.0056076
21,3,10.0097,0.000610352,-0.000610352,-2.42959,0.0544603,-0.0759786,0.0519917,0.0697496,-0.0952827,0.144098,-0.126987,-0.0874532,0.0356293,0.0232315,0.0247192,0.00797272,0.0236893,0.0270844,-0.0293732,0.0231171,-9.97986,0.0653839,0.00190735,0.0161743,-0.0624084,0.0127411,-0.0138092,0.00541687,0.00732422
21,4,10.0097,-0.00152588,-0.000762939,-2.42989,0.0538499,-0.075063,0.0529073,0.0666979,-0.0965034,0.143487,-0.127598,-0.0865377,0.0274277,0.0244904,0.0224304,0.0101471,0.0189972,0.0243378,-0.0278091,0.0249481,-9.97986,0.0569916,0.00190735,0.0193405,-0.0601196,0.0104141,-0.0087738,0.00656128,0.00728607
21,5,10.0097,0,-0.000457764,-2.42745,0.0535448,-0.0768941,0.0522969,0.0679186,-0.0937568,0.144098,-0.126987,-0.0859274,-0.0241089,0.0261688,0.0243378,0.00450134,0.01091,0.0230026,-0.0265503,0.0308609,-9.97986,0.0421143,0.00144958,0.0188065,-0.0554276,0.00629425,-0.001297,0.00572205,0.0107193
21,6,10.0097,0.000915527,0.000152588,-2.42745,0.0550706,-0.0753682,0.0522969,0.0691393,-0.094062,0.143792,-0.126072,-0.085317,-0.0487137,0.0274658,0.0254059,0.00873566,0.00572205,0.0209808,-0.0143433,0.0364685,-9.97986,0.0313568,-0.0037384,0.0187302,-0.0537491,0.0124359,-0.0108337,0.00823975,0.00576019
21,7,10.0097,0,0.000610352,-2.42745,0.0541551,-0.0744527,0.0535176,0.0697496,-0.0922309,0.144098,-0.125461,-0.0850118,-0.0315094,0.0250244,0.024147,0.00686646,0.00873566,0.0195313,-0.00419617,0.0310516,-9.97986,0.0208282,0.00286102,0.015564,-0.0476837,0.0056839,-0.0271225,0.00694275,0.00431061
21,8,10.0097,0.000305176,0.00106812,-2.42653,0.0550706,-0.075063,0.0532125,0.0682238,-0.0925361,0.145318,-0.124851,-0.0831808,-0.0129318,0.0274658,0.0279236,0.00667572,0.00507355,0.0152588,0.00717163,0.0244904,-9.97986,0.0238037,0.00480652,0.0165176,-0.0341797,-0.00148773,-0.0271606,0.00442505,0.00545502
21,9,10.0097,0.000305176,0.00152588,-2.42714,0.0559862,-0.0738423,0.0538228,0.07036,-0.0934516,0.145624,-0.126072,-0.0831808,-0.0121689,0.0301361,0.0270081,0.00732422,0.00701904,0.0132751,0.0274658,0.0207901,-9.97986,0.0227356,0.00476837,0.0151825,-0.0153732,-0.0127029,-0.0182343,0.00671387,0.00740051
22,0,10.0097,-0.000610352,0.00183105,-2.4247,0.0559862,-0.0735371,0.0538228,0.07036,-0.0928413,0.145624,-0.124851,-0.0816549,0.00118256,0.0290298,0.031929,0.0110245,0.0110245,0.00896454,0.0317383,0.0168991,-9.97986,0.0130844,-0.00537872,0.0136948,-0.000495911,-0.0158691,-0.0194168,0.0119781,0.00415802
22,1,10.0097,0.000610352,0.000762939,-2.42531,0.0559862,-0.0744527,0.054128,0.0706652,-0.0916206,0.146539,-0.124241,-0.0819601,0.00442505,0.0307083,0.0330734,0.00850677,0.00881195,0.0082016,0.0170517,0.013504,-9.97986,-0.000343323,-0.0043869,0.00766754,0.00556946,-0.0185394,-0.0149155,0.0128555,0.00396729
22,2,10.0097,0.000915527,0.000915527,-2.4244,0.0569017,-0.0741475,0.0556539,0.0688341,-0.0922309,0.146539,-0.125156,-0.0810445,-0.0268936,0.0363541,0.0317001,0.00926971,0.0134277,0.00812531,-0.00907898,0.0118637,-9.97986,-0.0194168,-0.00133514,0.00114441,0.00862122,-0.0233459,-0.0142288,0.0151825,0.00663757
22,3,10.0097,-0.000610352,0,-2.42379,0.0562914,-0.073232,0.0544332,0.0682238,-0.0916206,0.146844,-0.124241,-0.0807394,-0.0481796,0.0388718,0.0340652,0.0107193,0.0223541,0.0113678,-0.0294113,0.0025177,-9.97986,-0.0676346,-0.00286102,0.00408173,0.00904083,-0.0317764,-0.0170517,0.0148773,0.00839233
22,4,10.0097,0.000305176,-0.000305176,-2.42501,0.0559862,-0.0738423,0.0550435,0.07036,-0.0910102,0.14776,-0.124851,-0.0810445,-0.0267792,0.0350571,0.0293732,0.0136948,0.0263214,0.0116348,-0.0334549,-0.00362396,-9.97986,-0.119247,-0.00434875,-0.0025177,0.00900269,-0.0363159,-0.0166702,0.0164032,0.00747681
22,5,10.0097,0,-0.000305176,-2.42531,0.0562914,-0.0747579,0.0538228,0.0624254,-0.0925361,0.146234,-0.124546,-0.0822652,-0.00732422,0.0300598,0.0271988,0.00705719,0.0283432,0.0111389,-0.0467682,0.0111389,-9.97986,-0.132713,-0.00526428,0.0019455,0.00431061,-0.0455856,-0.0226593,0.0149918,0.00888824
22,6,10.0097,0.00183105,-0.0012207,-2.42684,0.0553758,-0.0747579,0.0544332,0.0618151,-0.0922309,0.145013,-0.124241,-0.0819601,-0.0121689,0.0287247,0.0242615,0.0102997,0.0268555,0.0121689,-0.0511169,0.0122452,-9.97986,-0.122185,0.000114441,0.00831604,-0.00495911,-0.046196,-0.0349426,0.0159073,0.00808716
22,7,10.0097,0.00274658,-0.000610352,-2.42562,0.0547655,-0.0753682,0.0535176,0.0685289,-0.0922309,0.144708,-0.126072,-0.0831808,-0.000991821,0.0204086,0.0279617,0.0109863,0.0329971,0.0103378,-0.0455475,0.00564575,-9.97986,-0.082283,-0.000114441,0.0151825,-0.00835419,-0.0456238,-0.0446701,0.019455,0.00968933
22,8,10.0097,0.0012207,0.000152588,-2.42592,0.0544603,-0.075063,0.0532125,0.0749376,-0.0925361,0.146539,-0.125156,-0.0837911,0.00782013,0.0206757,0.0156021,0.00736237,0.0362396,0.0139236,-0.0330353,0.00259399,-9.97986,-0.0315857,-0.00232697,0.0166702,-0.00980377,-0.0385284,-0.0436783,0.0170517,0.0115204
22,9,10.0097,0.0012207,0.00106812,-2.42806,0.0538499,-0.075063,0.0522969,0.0782946,-0.0931465,0.145013,-0.125156,-0.0847066,0.0263977,0.0184631,0.0173187,0.0062561,0.0337601,0.0138474,-0.00644684,-0.00621796,-9.97986,-0.00465393,-0.0043869,0.0144577,-0.0152969,-0.0369644,-0.0466537,0.0154495,0.00766754
23,0,10.0097,0.000610352,-0.000305176,-2.42867,0.0541551,-0.075063,0.0526021,0.0734117,-0.0931465,0.143792,-0.126682,-0.0871481,0.074501,0.0204849,0.0154114,0.00888824,0.0328445,0.0207901,0.0112915,-0.00667572,-9.97986,0.00656128,-0.00473022,0.00583649,-0.017395,-0.0378799,-0.0361633,0.0151062,0.0043869
23,1,10.0097,0.00244141,-0.000762939,-2.42898,0.0532396,-0.075063,0.0526021,0.0694445,-0.0949775,0.143487,-0.126987,-0.0862325,0.101929,0.0125885,0.00839233,0.00846863,0.0286865,0.0219345,0.0161362,-0.0127792,-9.97986,0.00743866,-0.00808716,-0.00793457,-0.0261688,-0.0385666,-0.0286102,0.01297,-0.000648499
23,2,10.0097,0.000610352,-0.000610352,-2.42745,0.0547655,-0.0768941,0.0529073,0.0700548,-0.0952827,0.143487,-0.127292,-0.0865377,0.101509,0.0117111,0.00789642,0.00919342,0.0243378,0.030899,0.0150681,-0.0107956,-9.97986,0.0056839,-0.00225067,-0.0149918,-0.0225067,-0.03685,-0.0233459,0.00930786,-0.00694275
23,3,10.0097,0.00152588,0.000457764,-2.42837,0.0535448,-0.0759786,0.0519917,0.0679186,-0.0952827,0.141656,-0.127598,-0.0868429,0.0911713,0.00705719,0.00583649,0.00667572,0.013504,0.0275421,0.0178528,-0.0075531,-9.97986,0.00473022,0.000228882,-0.0151825,-0.00572205,-0.0302124,-0.0292206,0.00774384,-0.00934601
23,4,10.0097,0.000305176,0.00259399,-2.42837,0.0532396,-0.0756734,0.0519917,0.0679186,-0.09925,0.143487,-0.126377,-0.0868429,0.0505066,0.00797272,0.00343323,0.00652313,0.0108719,0.0279617,0.00671387,-0.00286102,-9.97986,0.00652313,-0.00530243,-0.0130081,0.0282669,-0.0286865,-0.0335312,0.00991821,-0.00507355
23,5,10.0097,-0.0012207,0.00228882,-2.42837,0.0538499,-0.0762837,0.0516866,0.0688341,-0.0943672,0.143792,-0.126682,-0.0850118,-0.000572205,0.00900269,0.00392914,0.00972748,0.0105667,0.0266266,-0.0201416,0.00331879,-9.97986,0.0215149,-0.00659943,-0.0144577,0.0531006,-0.018959,-0.0344086,0.0131989,-0.00347137
23,6,10.0097,0.00183105,0.00259399,-2.42776,0.055681,-0.0753682,0.0532125,0.0700548,-0.094062,0.144098,-0.125156,-0.0850118,-0.0162888,0.00862122,0.00400543,0.00946045,0.00709534,0.0200653,-0.025177,0.0111389,-9.97986,0.0506973,-0.00377655,-0.0204468,0.0836182,-0.00984192,-0.0340652,0.0193787,-0.00835419
23,7,10.0097,0.0012207,0.00183105,-2.42806,0.0553758,-0.075063,0.0538228,0.0712755,-0.0946723,0.145318,-0.124851,-0.0831808,-0.0282288,0.00492096,0.00114441,0.00717163,0.0126648,0.0261688,-0.0109482,0.0144958,-9.97986,0.0809479,-0.000915527,-0.0238037,0.111656,-0.00488281,-0.0293732,0.0208282,-0.0112915
23,8,10.0097,0.00152588,0.00274658,-2.42653,0.055681,-0.0756734,0.0538228,0.0724962,-0.0937568,0.144708,-0.126682,-0.0825704,-0.0309372,0.00621796,0.00267029,0.00526428,0.0198364,0.0234222,0.00240326,0.0154114,-9.97986,0.126228,-0.00442505,-0.0207901,0.136108,0.00038147,-0.0224304,0.0251007,-0.0137711
23,9,10.0097,0.000915527,0.00152588,-2.42562,0.0565965,-0.0735371,0.0529073,0.0724962,-0.0931465,0.146539,-0.125156,-0.0825704,-0.0294113,0.00915527,0.00354767,0.00694275,0.0300217,0.0235748,0.016098,0.0172043,-9.97986,0.175018,-0.00930786,-0.0157928,0.147438,-0.0115204,-0.0297165,0.021019,-0.0197983
24,0,10.0097,0,0.0012207,-2.42501,0.0559862,-0.073232,0.0550435,0.0718859,-0.0894843,0.146539,-0.12363,-0.0813497,-0.0331116,0.00762939,0.00579834,0.0069046,0.0296021,0.0193787,0.0156403,0.0156403,-9.97986,0.208015,-0.00930786,-0.0115204,0.15213,-0.0245285,-0.0411987,0.0152969,-0.0100708
24,1,10.0097,0,0.0012207,-2.4244,0.0565965,-0.0744527,0.0550435,0.0709703,-0.0922309,0.146539,-0.123935,-0.0807394,-0.0272369,0.0111771,0.0038147,0.00587463,0.0423813,0.0136566,0.00869751,0.015831,-9.97986,0.223465,-0.00396729,-0.00934601,0.159988,-0.0444412,-0.0433731,0.0148773,-0.000534058
24,2,10.0097,0.000610352,0.00106812,-2.42531,0.0538499,-0.0735371,0.0553487,0.0734117,-0.0913154,0.147455,-0.123935,-0.0813497,0.00968933,0.0102997,0.00839233,0.0128937,0.0406265,0.0178528,-0.000495911,0.0185776,-9.97986,0.225945,0.000648499,0.000839233,0.170059,-0.0634003,-0.0577545,0.0137711,0.0107956
24,3,10.0097,0.00152588,0.00137329,-2.42501,0.0565965,-0.073232,0.0562642,0.0715807,-0.0925361,0.145624,-0.124241,-0.0804342,0.0699997,0.0144577,0.00827789,0.00839233,0.0274277,0.0150681,-0.00827789,0.0258255,-9.97986,0.202103,0.00671387,0.0173187,0.183258,-0.0655746,-0.0614548,0.0185394,0.0101471
24,4,10.0097,0.000610352,0.00152588,-2.42531,0.0553758,-0.0744527,0.055959,0.0709703,-0.0913154,0.147149,-0.12363,-0.0810445,0.115852,0.0101471,0.0115967,0.00858307,0.021019,0.0202179,0.00648499,0.0317764,-9.97986,0.159798,0.00118256,0.0231171,0.192184,-0.0550461,-0.0554276,0.0139999,0.00801086
24,5,10.0097,0.00152588,0.000610352,-2.42592,0.0581224,-0.0744527,0.0538228,0.0633409,-0.0931465,0.146539,-0.124546,-0.0819601,0.120811,0.0147629,0.0112915,0.00392914,0.0166702,0.0191116,0.0289917,0.0332642,-9.97986,0.112152,-0.0106812,0.027504,0.205727,-0.0603104,-0.053215,0.0127792,-0.00549316
24,6,10.0097,0.00213623,0.0012207,-2.42592,0.0562914,-0.0738423,0.054128,0.0621202,-0.0934516,0.145013,-0.125156,-0.0819601,0.112877,0.019455,0.0189209,0.0109482,0.0127029,0.0173187,0.0528717,0.0294113,-9.97986,0.0767136,-0.0130081,0.0372314,0.223083,-0.063324,-0.0460815,0.0167084,-0.00476837
24,7,10.0097,0.00244141,0.00167847,-2.42592,0.055681,-0.0744527,0.0538228,0.0679186,-0.0922309,0.145318,-0.124851,-0.0822652,0.0796509,0.0242233,0.0239944,0.00518799,0.00614166,0.0127411,0.0693893,0.0274277,-9.97986,0.057106,-0.0188446,0.0410461,0.241776,-0.0802612,-0.0508118,0.0130844,-0.00907898
24,8,10.0097,0.0012207,0.00259399,-2.42623,0.0544603,-0.0753682,0.0553487,0.0737169,-0.0916206,0.146234,-0.125156,-0.0831808,0.0706482,0.0246811,0.0272751,0.0125122,0.0101089,0.0201416,0.0708389,0.0287628,-9.97986,0.0404358,0.00114441,0.0464249,0.254059,-0.0840759,-0.0421906,0.0163269,-0.0160217
24,9,10.0097,0.000915527,0.000762939,-2.42806,0.0541551,-0.075063,0.0529073,0.0740221,-0.0937568,0.144708,-0.126072,-0.0850118,0.0622177,0.0268555,0.0309753,0.00991821,0.0181961,0.0190353,0.0574112,0.0312042,-9.97986,0.0220108,-0.00232697,0.0542068,0.261078,-0.0815582,-0.0353622,0.0154495,-0.0189209
25,0,10.0097,-0.000305176,0.000457764,-2.42928,0.0532396,-0.0753682,0.0526021,0.0694445,-0.0955879,0.144098,-0.126987,-0.0856222,0.0133133,0.0286484,0.034523,0.0152588,0.0194931,0.016098,0.0408173,0.0241089,-9.97986,0.0161743,-0.0118637,0.0595474,0.261841,-0.0680542,-0.0295258,0.0204468,-0.0268936
25,1,10.0097,0.0012207,0.000457764,-2.42989,0.0532396,-0.0756734,0.0526021,0.0685289,-0.0952827,0.144403,-0.127292,-0.0859274,-0.0618362,0.0296783,0.0341034,0.0154877,0.0255966,0.0234222,0.0365448,0.019455,-9.97986,0.0147629,-0.00576019,0.0624084,0.266571,-0.0632858,-0.0233459,0.020752,-0.0189972
25,2,10.0097,0.0012207,-0.000915527,-2.42745,0.0550706,-0.0756734,0.0526021,0.0688341,-0.0961982,0.143792,-0.126377,-0.0847066,-0.123825,0.0273895,0.0324631,0.0124741,0.0278091,0.0166321,0.0325012,0.0153351,-9.97986,0.0173187,-0.00534058,0.0675583,0.268478,-0.0692368,-0.0231934,0.0238419,-0.0195313
25,3,10.0097,0.00183105,-0.000762939,-2.42928,0.0532396,-0.0768941,0.0516866,0.0694445,-0.0952827,0.145318,-0.127598,-0.0868429,-0.0878525,0.0239182,0.0331879,0.0167084,0.0234604,0.0251389,0.0233459,0.0141525,-9.97986,0.0113297,-0.00583649,0.0715637,0.255966,-0.0632858,-0.0276947,0.0234985,-0.0243378
25,4,10.0097,0.0012207,-0.000610352,-2.42898,0.0544603,-0.0756734,0.0510762,0.0694445,-0.0934516,0.142877,-0.126682,-0.0874532,-0.0167465,0.0202942,0.0263977,0.010643,0.0286484,0.026207,0.0397491,0.0260925,-9.97986,0.00419617,0.00392914,0.076561,0.251999,-0.0709915,-0.0248337,0.0289917,-0.0228882
25,5,10.0097,0.00213623,-0.00106812,-2.42714,0.0544603,-0.0753682,0.0532125,0.0694445,-0.0934516,0.144403,-0.127903,-0.0859274,-0.00629425,0.0217056,0.0269318,0.0138855,0.017128,0.0264359,0.0732803,0.0307083,-9.97986,-0.00999451,-0.000801086,0.0798416,0.252113,-0.0777054,-0.0230408,0.0311279,-0.014801
25,6,10.0097,0.000915527,0,-2.42745,0.0547655,-0.0747579,0.0532125,0.0697496,-0.0913154,0.145013,-0.126377,-0.0850118,0.037117,0.0217056,0.0264359,0.0173569,0.0234222,0.0288391,0.0931168,0.0354004,-9.97986,-0.0226974,-0.00236511,0.0805664,0.252342,-0.0669861,-0.017128,0.0307846,-0.00644684
25,7,10.0097,0.000610352,-0.000762939,-2.42684,0.0553758,-0.0753682,0.0538228,0.07036,-0.0937568,0.144098,-0.125766,-0.0850118,0.0774002,0.0150299,0.0207901,0.00968933,0.0382996,0.0221634,0.0753021,0.0430298,-9.97986,-0.0268173,0.00720978,0.0818634,0.252533,-0.0699997,-0.0217438,0.0357056,-0.0240326
25,8,10.0097,0.000610352,-0.000305176,-2.42592,0.0553758,-0.075063,0.0532125,0.0688341,-0.0931465,0.142877,-0.126682,-0.0840963,0.056839,0.0137711,0.0202179,0.0104141,0.0311661,0.0164795,0.0639343,0.050087,-9.97986,-0.0347137,0.0131607,0.0788116,0.244064,-0.0828552,-0.0246048,0.042572,-0.0426102
25,9,10.0097,-0.000305176,-0.000457764,-2.42592,0.0553758,-0.0753682,0.0547383,0.0688341,-0.0931465,0.145624,-0.125156,-0.0825704,-0.00106812,0.0159073,0.0197601,0.00961304,0.0246048,0.0196838,0.0409698,0.0523376,-9.97986,-0.0608063,0.016098,0.0785446,0.234413,-0.0998306,-0.00984192,0.0432587,-0.039711
26,0,10.0097,-0.000305176,-0.00106812,-2.42562,0.0578172,-0.0735371,0.0550435,0.0700548,-0.0931465,0.146234,-0.125156,-0.0816549,-0.0590515,0.0138092,0.0185394,0.00843048,0.0197601,0.0143433,0.0212097,0.0590134,-9.97986,-0.0764465,0.00968933,0.0728607,0.221252,-0.110092,-0.00148773,0.0463867,-0.0280762
26,1,10.0097,0.000305176,-0.000457764,-2.4247,0.0572069,-0.0741475,0.0544332,0.0694445,-0.0916206,0.145318,-0.124241,-0.0816549,-0.102425,0.0133896,0.0149155,0.0127792,0.0103378,0.0209427,0.00511169,0.0514221,-9.97986,-0.0718307,-0.001297,0.0636673,0.215683,-0.12207,0.000152588,0.0476837,-0.00484467
26,2,10.0097,-0.000305176,0,-2.42592,0.0562914,-0.0735371,0.0544332,0.0712755,-0.0922309,0.145624,-0.125156,-0.0810445,-0.0847626,0.0150681,0.0115204,0.0122833,0.00656128,0.0250244,-0.000534058,0.0491333,-9.97986,-0.077095,0.00152588,0.0493622,0.208969,-0.12291,0.00682831,0.0499725,0.0151062
26,3,10.0097,0.000305176,-0.000152588,-2.42623,0.0550706,-0.0738423,0.054128,0.0728014,-0.088874,0.149591,-0.124546,-0.0804342,-0.0267029,0.0156784,0.0142288,0.0104523,0.00469208,0.0270462,0.000724792,0.0431824,-9.97986,-0.0654221,0.0019455,0.0434494,0.206909,-0.126495,0.0157928,0.0449753,0.0281906
26,4,10.0097,0.00183105,0.000305176,-2.42562,0.0562914,-0.0735371,0.0547383,0.0718859,-0.0922309,0.146234,-0.124851,-0.0819601,0.0271988,0.014267,0.0120926,0.0120163,0.00385284,0.0271988,0.00583649,0.0395966,-9.97986,-0.0365829,7.62939e-005,0.0409698,0.196838,-0.132942,0.0195313,0.043335,0.033493
26,5,10.0097,0.0012207,-0.00106812,-2.42623,0.0559862,-0.0741475,0.0538228,0.0645616,-0.0928413,0.145624,-0.125156,-0.0822652,0.0534821,0.0159836,0.0105667,0.0125122,0.00217438,0.0274277,0.0191116,0.030365,-9.97986,-0.0131989,0.00171661,0.0369644,0.192566,-0.12825,0.02388,0.045166,0.0338745
26,6,10.0097,0.00152588,-0.00137329,-2.42653,0.0559862,-0.0738423,0.054128,0.0630358,-0.0922309,0.14776,-0.126072,-0.0825704,0.0977325,0.0223923,0.018158,0.0149536,-3.8147e-005,0.0269318,0.0227356,0.0165939,-9.97986,0.0144196,0.00511169,0.0360107,0.187416,-0.123978,0.0210571,0.042305,0.0231171
26,7,10.0097,0.000610352,-0.000762939,-2.42623,0.0550706,-0.0741475,0.054128,0.0700548,-0.0937568,0.145013,-0.124546,-0.0828756,0.132751,0.0229645,0.0195313,0.0147247,-0.000114441,0.0265503,0.0216293,0.00724792,-9.97986,0.0405884,0.00751495,0.0356293,0.183525,-0.121803,0.0205994,0.045929,0.00270844
26,8,10.0097,0.00152588,0.000457764,-2.42684,0.0572069,-0.0756734,0.0538228,0.0752428,-0.0919257,0.146539,-0.126072,-0.0840963,0.128822,0.0252914,0.0180054,0.0151825,0.00263214,0.0286865,0.0190353,-0.00190735,-9.97986,0.0482941,0.00827789,0.0348663,0.175285,-0.12207,0.034523,0.0506592,-0.0221634
26,9,10.0097,0.0012207,0.000762939,-2.42837,0.0550706,-0.075063,0.0538228,0.075548,-0.0931465,0.145013,-0.126072,-0.085317,0.117912,0.0281143,0.0191498,0.0191116,0.0202179,0.0326538,0.0147247,-0.00110626,-9.97986,0.0358963,0.00267029,0.0395966,0.176697,-0.112495,0.0445557,0.0492477,-0.0189972
27,0,10.0097,0.00274658,-0.000152588,-2.42928,0.0538499,-0.0744527,0.0529073,0.07036,-0.0946723,0.145013,-0.126072,-0.0856222,0.0654984,0.0231934,0.0149155,0.0214386,0.0341415,0.0337601,0.0273514,0.0166702,-9.97986,0.0205231,-0.00713348,0.0413895,0.175018,-0.105362,0.0478363,0.0453186,-0.00293732
27,1,10.0097,0.000915527,-0.000305176,-2.42867,0.0529344,-0.0759786,0.0513814,0.0679186,-0.0943672,0.144708,-0.127598,-0.0859274,0.0274658,0.0224304,0.00995636,0.0139999,0.0498962,0.0292587,0.0364304,0.0279999,-9.97986,0.0117493,-0.00335693,0.0434875,0.177612,-0.104408,0.0517654,0.0497437,-0.00450134
27,2,10.0097,-0.00183105,0.000305176,-2.42959,0.0538499,-0.0759786,0.0519917,0.0676134,-0.095893,0.142877,-0.126987,-0.085317,-0.00793457,0.0222778,0.00774384,0.0165176,0.0682068,0.0329208,0.0326157,0.0381851,-9.97986,0.0127411,-0.00198364,0.0486374,0.186768,-0.0947571,0.0469208,0.0498962,-0.0102997
27,3,10.0097,-0.00244141,0.000152588,-2.43081,0.0541551,-0.0768941,0.0516866,0.0657823,-0.095893,0.145013,-0.127292,-0.0868429,-0.0500107,0.0193787,0.00598907,0.013237,0.0686646,0.026741,0.0236511,0.0405121,-9.97986,-0.0138855,0.00419617,0.0416183,0.198936,-0.0819016,0.0419617,0.0521851,0.00511169
27,4,10.0097,0.000610352,0.000610352,-2.42898,0.0541551,-0.0762837,0.0526021,0.0679186,-0.0946723,0.145013,-0.126682,-0.085317,-0.0556183,0.017662,0.00450134,0.0149155,0.0760651,0.0329971,0.0172043,0.0475693,-9.97986,-0.053215,0.000991821,0.0477219,0.205345,-0.0875854,0.0414658,0.0470352,0.0409698
27,5,10.0097,0.00152588,0,-2.42745,0.0547655,-0.0759786,0.0516866,0.0679186,-0.0937568,0.145013,-0.126682,-0.0862325,-0.0550842,0.0157166,0.00831604,0.0139236,0.0757217,0.0350952,0.00736237,0.0489044,-9.97986,-0.056572,0.000686646,0.0369644,0.19928,-0.0805664,0.0428391,0.0468063,0.0722122
27,6,10.0097,0.000915527,0.000762939,-2.42806,0.0553758,-0.0753682,0.0526021,0.0679186,-0.0943672,0.145929,-0.126987,-0.0847066,-0.0574875,0.0206757,0.00370026,0.0143433,0.0804901,0.0405884,0.00965118,0.0431442,-9.97986,-0.0321579,0.00164032,0.0255203,0.202293,-0.0821686,0.0452042,0.0428772,0.0945282
27,7,10.0097,0.00152588,-0.000457764,-2.42745,0.0544603,-0.0759786,0.0529073,0.0697496,-0.0943672,0.143792,-0.124241,-0.0844015,-0.0606537,0.0173187,0.00343323,0.0115204,0.0783157,0.0436783,0.0159454,0.0400925,-9.97986,-0.0063324,-0.0056839,0.0159836,0.199776,-0.0884247,0.0501251,0.0282669,0.107956
27,8,10.0097,0.00152588,0.000152588,-2.42684,0.0550706,-0.0747579,0.0535176,0.0700548,-0.0931465,0.143792,-0.125461,-0.0834859,-0.0785065,0.0194168,0.00621796,0.00968933,0.0768661,0.0518417,0.0334549,0.0393295,-9.97986,0.0130844,0.00198364,0.0170517,0.199966,-0.0813293,0.0455856,0.0229645,0.0884628
27,9,10.0097,0.0012207,0.000762939,-2.42531,0.0559862,-0.0729268,0.0556539,0.0712755,-0.0925361,0.145624,-0.125461,-0.0825704,-0.0792694,0.0144958,0.00087738,0.00991821,0.0642776,0.0481033,0.0515366,0.0345993,-9.97986,0.0402832,-0.00637054,0.0267029,0.19516,-0.0871277,0.0428009,0.0153351,0.0498962
28,0,10.0097,0.000915527,0.000915527,-2.4244,0.055681,-0.0756734,0.0547383,0.0715807,-0.0910102,0.145929,-0.125156,-0.0816549,-0.065918,0.0203323,0.00648499,0.0114441,0.0504303,0.0572968,0.0670242,0.0372314,-9.97986,0.0749207,-0.00312805,0.0404739,0.205269,-0.095787,0.0535965,0.0128555,0.0350571
28,1,10.0097,0.000915527,0.000915527,-2.42501,0.0590379,-0.073232,0.0550435,0.07036,-0.0922309,0.146539,-0.124241,-0.0804342,-0.079155,0.0229645,0.0100708,0.0146103,0.0344849,0.0588226,0.0671387,0.0246429,-9.97986,0.0718689,0.000114441,0.0564957,0.214691,-0.0975418,0.0493622,0.0128555,0.0479507
28,2,10.0097,0.00213623,0.000762939,-2.42592,0.0559862,-0.0741475,0.0547383,0.0709703,-0.0919257,0.146844,-0.124851,-0.0810445,-0.0561142,0.0235748,0.0133133,0.0101852,0.0195313,0.0605011,0.0460052,0.0296021,-9.97986,0.0644302,0.00534058,0.0784683,0.23037,-0.109444,0.043602,0.00995636,0.0689697
28,3,10.0097,0.000915527,0.00137329,-2.4244,0.0565965,-0.0729268,0.0553487,0.0712755,-0.0916206,0.146844,-0.123325,-0.0804342,-0.0196457,0.0272751,0.0175858,0.0143814,-0.00602722,0.0720978,0.0392151,0.0299072,-9.97986,0.0491714,0.00320435,0.10128,0.240211,-0.126877,0.0296021,0.00839233,0.0997162
28,4,10.0097,0.0012207,0.000457764,-2.4244,0.0569017,-0.0735371,0.0556539,0.0706652,-0.0922309,0.145929,-0.12363,-0.080129,0.0200653,0.0291824,0.0184631,0.0140762,-0.0224304,0.0725174,0.0370026,0.0215912,-9.97986,0.032692,0.00221252,0.116196,0.247307,-0.145416,0.0239944,0.00892639,0.113182
28,5,10.0097,0.000305176,0.000152588,-2.42592,0.0565965,-0.0726216,0.0550435,0.0645616,-0.0928413,0.145624,-0.124851,-0.0822652,0.0783539,0.0315857,0.0220108,0.0128174,-0.038147,0.0727844,0.0337982,0.0094986,-9.97986,0.0199509,0.00495911,0.136948,0.245857,-0.158463,0.0268173,0.0121307,0.117416
28,6,10.0097,0.00152588,0,-2.42653,0.0547655,-0.0747579,0.054128,0.0633409,-0.0928413,0.146234,-0.125156,-0.0822652,0.119095,0.0339508,0.0238419,0.0125122,-0.0440979,0.0774765,0.0392914,0.018158,-9.97986,-0.00366211,0.00175476,0.152359,0.246468,-0.17498,0.0275803,0.010643,0.111694
28,7,10.0097,-0.000305176,0.000915527,-2.42592,0.0553758,-0.0738423,0.0550435,0.067003,-0.0925361,0.143792,-0.124851,-0.0828756,0.088768,0.0334549,0.0254059,0.0136185,-0.0595856,0.0819397,0.0413895,0.0279999,-9.97986,-0.0356293,0.00038147,0.169716,0.255737,-0.191841,0.0244904,0.00854492,0.0963974
28,8,10.0097,0.000915527,0.0012207,-2.42562,0.0559862,-0.0741475,0.054128,0.0734117,-0.0934516,0.145013,-0.124851,-0.0834859,0.0347137,0.0334167,0.0292587,0.00923157,-0.073204,0.0831223,0.0484467,0.0266266,-9.97986,-0.0674438,-0.000686646,0.178757,0.263405,-0.218773,0.0241089,0.0111389,0.085907
28,9,10.0097,0,0.00106812,-2.42867,0.0550706,-0.0759786,0.0526021,0.0743273,-0.0949775,0.144708,-0.125461,-0.0847066,-0.00797272,0.0364304,0.0232697,0.0118256,-0.0777817,0.0824356,0.0737762,0.0212479,-9.97986,-0.0965881,-0.000534058,0.190125,0.263138,-0.257492,0.022049,0.0119019,0.0769424
29,0,10.0097,0.000305176,0.000152588,-2.42867,0.0529344,-0.0759786,0.0538228,0.07036,-0.094062,0.142572,-0.126987,-0.0856222,-0.0736618,0.0297928,0.019722,0.00888824,-0.0703812,0.080719,0.102425,0.00740051,-9.97986,-0.101318,-0.00114441,0.205421,0.262985,-0.283699,0.0186157,0.0179291,0.0625229
29,1,10.0097,0.000305176,-0.000305176,-2.42867,0.0535448,-0.0759786,0.0535176,0.0706652,-0.0943672,0.143487,-0.126072,-0.0856222,-0.0952148,0.0292969,0.0233459,0.00686646,-0.0671387,0.0727081,0.133247,-0.00255585,-9.97986,-0.0407791,-0.00400543,0.211906,0.258064,-0.283241,0.0125504,0.0243378,0.0267029
29,2,10.0097,0.000305176,-0.000915527,-2.42959,0.0538499,-0.0753682,0.0526021,0.0712755,-0.0946723,0.143487,-0.126682,-0.0877584,-0.0939178,0.0286102,0.020752,0.00595093,-0.0593948,0.0683975,0.147629,0.00495911,-9.97986,0.0325394,-0.00511169,0.221024,0.24189,-0.264015,0.0131607,0.0300598,0.00553131
29,3,10.0097,-0.000915527,-0.00152588,-2.42928,0.0544603,-0.0762837,0.0516866,0.0706652,-0.0946723,0.143182,-0.127598,-0.0877584,-0.0839996,0.0284195,0.0204849,0.00709534,-0.0572205,0.0645828,0.151978,0.0123978,-9.97986,0.0731659,-0.00328064,0.223846,0.228233,-0.248985,0.00831604,0.0419998,0.00289917
29,4,10.0097,-0.000305176,-0.00244141,-2.42959,0.0544603,-0.0765889,0.0513814,0.0700548,-0.0931465,0.143792,-0.128208,-0.0871481,-0.025177,0.0273514,0.0168991,0.00724792,-0.0378418,0.0503159,0.156593,0.0191116,-9.97986,0.0896072,-0.00240326,0.203247,0.214729,-0.236893,0.00232697,0.0522614,0.0138855
29,5,10.0097,-0.0012207,-0.00106812,-2.42898,0.0541551,-0.0753682,0.0532125,0.0682238,-0.0934516,0.143792,-0.126682,-0.0868429,0.019989,0.0185013,0.0138855,0.00812531,-0.0172424,0.0288391,0.148849,0.0264359,-9.97986,0.0688934,-0.00411987,0.16571,0.200119,-0.231781,-0.00205994,0.0625229,0.0297165
29,6,10.0097,0,-0.00106812,-2.42714,0.0559862,-0.0753682,0.0516866,0.0688341,-0.0931465,0.145013,-0.126987,-0.0862325,0.0429535,0.022316,0.0152588,0.00751495,-0.023613,0.00774384,0.130081,0.0251007,-9.97986,0.0233841,-0.0087738,0.127411,0.186272,-0.21904,0.00228882,0.0683594,0.0429153
29,7,10.0097,0,-0.00259399,-2.42745,0.0562914,-0.0756734,0.0529073,0.0709703,-0.0928413,0.145013,-0.126072,-0.085317,0.105858,0.0169373,0.0169754,0.00213623,-0.037384,0.00267029,0.123024,0.0205612,-9.97986,-0.0201035,-0.00415802,0.0717545,0.151138,-0.209122,0.00843048,0.068512,0.0361633
29,8,10.0097,0.000610352,-0.00305176,-2.42714,0.0544603,-0.0741475,0.0513814,0.0697496,-0.0916206,0.145318,-0.126072,-0.085317,0.136108,0.0190735,0.017662,0.00190735,-0.051384,-0.00301361,0.126152,0.00911713,-9.97986,-0.0348282,-0.00511169,0.0187683,0.122185,-0.193405,-0.00118256,0.0580978,0.0122833
29,9,10.0097,-0.000610352,-0.00289917,-2.42653,0.0562914,-0.075063,0.0526021,0.07036,-0.0925361,0.146844,-0.125156,-0.0813497,0.134468,0.018959,0.0214005,0.00797272,-0.0588989,-0.0192261,0.148201,-0.0139999,-9.97986,-0.0282288,-0.00583649,-0.042572,0.0960159,-0.147743,-0.00431061,0.0550079,-0.0126648
30,0,10.0097,-0.000915527,-0.00183105,-2.42592,0.0562914,-0.073232,0.0532125,0.0706652,-0.0919257,0.146234,-0.124546,-0.0819601,0.142746,0.0235367,0.0183868,0.00534058,-0.0485992,-0.0228119,0.174446,-0.0204086,-9.97986,0.00995636,-0.0100708,-0.0953293,0.0785828,-0.112114,-0.00175476,0.0499344,-0.0190353
30,1,10.0097,0.000305176,-0.00244141,-2.42623,0.0562914,-0.0747579,0.0529073,0.07036,-0.0910102,0.146539,-0.124546,-0.0822652,0.116463,0.0207138,0.01091,0.00892639,-0.0483704,-0.0288391,0.195198,-0.0174332,-9.97986,0.0370789,-0.00442505,-0.14904,0.0554276,-0.0902176,-0.00869751,0.0435257,-0.0219727
30,2,10.0097,-0.000915527,-0.00289917,-2.42592,0.0569017,-0.0723164,0.0538228,0.0706652,-0.0919257,0.146844,-0.12363,-0.0813497,0.0832748,0.0145721,0.00774384,0.00789642,-0.0266266,-0.0405121,0.190964,-0.0050354,-9.97986,0.0197601,-0.01091,-0.178642,0.0187302,-0.0735092,-0.00347137,0.0367355,-0.0189972
30,3,10.0097,-0.00183105,-0.00274658,-2.42531,0.0569017,-0.0747579,0.0532125,0.0706652,-0.0910102,0.147149,-0.124241,-0.0819601,0.0879288,0.0107574,0.00770569,0.00766754,-0.0146103,-0.03582,0.165482,0.00759125,-9.97986,0.0286865,-0.00526428,-0.187683,-0.00991821,-0.0500488,0.000190735,0.0286102,-0.01297
30,4,10.0097,0.00152588,-0.00213623,-2.42501,0.0565965,-0.0741475,0.0535176,0.0715807,-0.0928413,0.147455,-0.124546,-0.0813497,0.112457,0.00671387,0.00461578,0.00801086,-0.00431061,-0.0379562,0.128021,0.0337601,-9.97986,0.0369263,-0.00747681,-0.190964,-0.0479507,-0.0283432,-0.00171661,0.0187683,-0.00953674
30,5,10.0097,0.000305176,-0.00366211,-2.42623,0.0572069,-0.0744527,0.0544332,0.0654772,-0.0919257,0.146539,-0.125461,-0.0831808,0.106621,0.00450134,0.00682831,0.0056076,0.020752,-0.0413895,0.0851822,0.0624084,-9.97986,0.0374222,-0.00453949,-0.178146,-0.088768,-0.00995636,-0.00648499,0.0271225,-0.00621796
30,6,10.0097,-0.00183105,-0.00427246,-2.42592,0.055681,-0.0744527,0.0550435,0.0633409,-0.0916206,0.145929,-0.125461,-0.0828756,0.0775909,0.00675201,0.0105667,0.00621796,0.0371933,-0.0486374,0.0440979,0.0585556,-9.97986,0.0561142,-0.00671387,-0.168762,-0.125885,0.015564,-0.00801086,0.031929,0.00659943
30,7,10.0097,0,-0.00396729,-2.42653,0.0550706,-0.0744527,0.054128,0.0682238,-0.0937568,0.145929,-0.126072,-0.0837911,0.0259018,0.00736237,0.00465393,0.00431061,0.042305,-0.0542831,0.0219727,0.0587463,-9.97986,0.0571823,-0.00915527,-0.156746,-0.172501,0.0451279,-0.0104904,0.0418472,0.0242233
30,8,10.0097,0.000610352,-0.00427246,-2.42684,0.0550706,-0.0744527,0.054128,0.0728014,-0.0922309,0.146539,-0.125461,-0.0850118,-0.0268555,0.00259399,0.00423431,0.00156403,0.0682068,-0.0621414,0.0087738,0.0640488,-9.97986,0.0431061,-0.00686646,-0.148544,-0.223312,0.0637436,-0.0127411,0.0468445,0.0551224
30,9,10.0097,0.000915527,-0.00335693,-2.42928,0.0550706,-0.075063,0.0532125,0.0749376,-0.0934516,0.147149,-0.126377,-0.0868429,-0.0667953,0.00762939,0.0102997,0.00793457,0.102654,-0.0667572,0.0291443,0.0424957,-9.97986,0.0385284,0.00297546,-0.128403,-0.259094,0.0838089,-0.0115204,0.0551605,0.0791168
31,0,10.0097,0.00213623,-0.00442505,-2.42806,0.0550706,-0.0747579,0.054128,0.07036,-0.0937568,0.145624,-0.126377,-0.0859274,-0.0991821,0.0088501,0.0165939,0.0127029,0.105972,-0.0780487,0.0621796,0.0299835,-9.97986,0.0705719,0.00385284,-0.101204,-0.303802,0.0905609,-0.00926971,0.062027,0.0894928
31,1,10.0097,0.000305176,-0.00442505,-2.42867,0.0535448,-0.0753682,0.0538228,0.0700548,-0.0934516,0.144098,-0.126072,-0.0880636,-0.111542,0.0183487,0.0233078,0.0136185,0.113869,-0.0924301,0.0738525,0.0185013,-9.97986,0.0923538,0.00579834,-0.0678635,-0.346947,0.0914001,-0.00637054,0.0685501,0.101242
31,2,10.0097,-0.000305176,-0.00411987,-2.42928,0.0550706,-0.0768941,0.0538228,0.0718859,-0.0934516,0.141656,-0.127598,-0.0871481,-0.0823593,0.0173187,0.0190735,0.015831,0.126495,-0.0836182,0.0740433,-0.00133514,-9.97986,0.103722,0.00415802,-0.0440598,-0.385742,0.101433,-0.000686646,0.0798035,0.112686
31,3,10.0097,-0.000305176,-0.00442505,-2.42989,0.0535448,-0.0762837,0.0522969,0.0682238,-0.0931465,0.144098,-0.127598,-0.0883688,0.00434875,0.0140381,0.0206375,0.0137711,0.124588,-0.0826263,0.0579834,-0.0249863,-9.97986,0.126762,0.00377655,-0.0244141,-0.419006,0.108185,0.00331879,0.0911331,0.121651
31,4,10.0097,0,-0.00457764,-2.42867,0.0535448,-0.075063,0.0516866,0.0691393,-0.0946723,0.143487,-0.127598,-0.0877584,0.0566864,0.0156403,0.0210953,0.0117874,0.147171,-0.0777435,0.0393295,-0.0366974,-9.97986,0.126839,-0.00350952,-0.0164032,-0.454559,0.116768,0.0156403,0.0971603,0.107994
31,5,10.0097,0.00152588,-0.00396729,-2.42806,0.0541551,-0.0753682,0.0529073,0.0685289,-0.0946723,0.145318,-0.126682,-0.0871481,0.0235367,0.0149918,0.0214386,0.013237,0.185585,-0.0685883,0.0247955,-0.0140762,-9.97986,0.111008,0.0025177,-0.0166702,-0.485306,0.124512,0.0205994,0.102577,0.0910187
31,6,10.0097,0.000915527,-0.00335693,-2.42776,0.0550706,-0.0753682,0.0529073,0.0691393,-0.0934516,0.144403,-0.125766,-0.0862325,-0.0151825,0.0156021,0.0162888,0.0132751,0.201302,-0.0558472,0.0215912,0.0101089,-9.97986,0.0866318,0.000762939,-0.0127029,-0.520782,0.126801,0.0232697,0.107155,0.103569
31,7,10.0097,0.000610352,-0.00213623,-2.42837,0.0550706,-0.0735371,0.0547383,0.0685289,-0.0943672,0.145013,-0.126072,-0.0850118,-0.063324,0.0109863,0.0188065,0.0130844,0.213737,-0.053215,0.0190353,0.0192261,-9.97986,0.0489807,-0.00167847,-0.00499725,-0.535812,0.136681,0.0199127,0.112839,0.103874
31,8,10.0097,-0.00244141,-0.000915527,-2.42592,0.0550706,-0.0741475,0.0535176,0.0688341,-0.094062,0.147149,-0.125461,-0.0844015,-0.123978,0.0120926,0.0161362,0.0164795,0.205688,-0.054512,0.0101852,0.0240707,-9.97986,0.0175476,-0.00209808,-0.01091,-0.533714,0.15007,0.00988007,0.118332,0.0858307
31,9,10.0097,0.000305176,-0.000152588,-2.42653,0.0562914,-0.0735371,0.0544332,0.0709703,-0.0919257,0.148065,-0.124851,-0.0825704,-0.132484,0.0134277,0.0186539,0.0151443,0.180893,-0.0528336,0.00762939,0.0216675,-9.97986,0.00137329,-0.00144958,-0.0226974,-0.526733,0.162659,0.000915527,0.121498,0.0960159
32,0,10.0097,0,0.000305176,-2.42653,0.0559862,-0.0753682,0.054128,0.0712755,-0.0913154,0.146844,-0.124851,-0.0816549,-0.0870895,0.0187683,0.0222778,0.0164795,0.153885,-0.0422668,0.0100708,0.0107956,-9.97986,-0.00461578,-0.00461578,-0.0501633,-0.5299,0.170898,-0.00938416,0.120125,0.115623
32,1,10.0097,0.000305176,0,-2.4247,0.0550706,-0.0744527,0.0538228,0.0715807,-0.0903999,0.145929,-0.124241,-0.0822652,-0.0300598,0.0188446,0.0285721,0.0134659,0.101395,-0.0392151,0.00923157,0.00759125,-9.97986,0.00102997,0.00152588,-0.072403,-0.528412,0.189476,-0.0143814,0.114441,0.0848389
32,2,10.0097,0.000305176,0.000457764,-2.42562,0.0559862,-0.073232,0.054128,0.072191,-0.0922309,0.146234,-0.123935,-0.0813497,0.000610352,0.0240326,0.0220108,0.0196075,0.0260925,-0.0335312,0.0012207,0.00492096,-9.97986,0.00770569,-0.00335693,-0.0857162,-0.535316,0.203934,-0.0141907,0.108337,0.0371552
32,3,10.0097,0.000305176,-0.000305176,-2.4247,0.0562914,-0.0747579,0.0535176,0.0718859,-0.0900947,0.146234,-0.124241,-0.0804342,-0.00602722,0.0177765,0.0254822,0.0174713,-0.0395966,-0.0343704,-0.0101471,3.8147e-005,-9.97986,0.0102997,-0.00213623,-0.105629,-0.538864,0.21347,-0.00480652,0.098114,0.0146103
32,4,10.0097,0.0012207,-0.000305176,-2.42409,0.0562914,-0.073232,0.0535176,0.0731066,-0.0894843,0.146539,-0.124851,-0.0813497,0.0716019,0.0230408,0.0277328,0.0193787,-0.0802612,-0.0450516,-0.0243378,0.00114441,-9.97986,0.00839233,0.000228882,-0.12825,-0.543251,0.219498,-0.000305176,0.0860977,0.0120544
32,5,10.0097,0.0012207,-0.000762939,-2.42653,0.0562914,-0.0753682,0.0535176,0.0654772,-0.090705,0.146844,-0.124546,-0.0828756,0.149307,0.0222397,0.0261307,0.0195313,-0.0983429,-0.0471878,-0.0382233,0.00648499,-9.97986,0.00328064,-0.00564575,-0.147591,-0.552139,0.236702,-0.00537872,0.0782394,0.0348282
32,6,10.0097,0.00305176,-0.000762939,-2.42531,0.055681,-0.0717061,0.054128,0.0621202,-0.090705,0.146539,-0.126377,-0.0831808,0.131149,0.0260162,0.0242996,0.0170135,-0.0865555,-0.0373459,-0.0353622,0.0174332,-9.97986,-0.00427246,-0.00202179,-0.199623,-0.549622,0.259285,-0.00213623,0.0798798,0.0769043
32,7,10.0097,-0.000610352,-0.000610352,-2.42714,0.055681,-0.0744527,0.0538228,0.0673082,-0.0919257,0.147149,-0.126072,-0.0825704,0.110703,0.0214386,0.022583,0.0193405,-0.068779,-0.0296021,-0.0400543,0.0306702,-9.97986,-0.0163269,-0.00583649,-0.259972,-0.557594,0.284081,-0.00404358,0.080452,0.0746155
32,8,10.0097,0.00152588,-0.00137329,-2.42684,0.055681,-0.0747579,0.054128,0.0731066,-0.0928413,0.145929,-0.124546,-0.0834859,0.0827408,0.0200272,0.0174332,0.014267,-0.0605774,-0.0287247,-0.0299835,0.037117,-9.97986,-0.0424194,-0.00591278,-0.266037,-0.570107,0.291405,0.00167847,0.0704575,0.0592041
32,9,10.0097,-0.000610352,0,-2.42867,0.0541551,-0.0744527,0.054128,0.0743273,-0.0937568,0.145013,-0.126377,-0.0850118,0.039444,0.0187683,0.013504,0.0145721,-0.0578308,-0.0299835,-0.0231934,0.0366974,-9.97986,-0.0495529,-0.00370026,-0.220947,-0.575294,0.298195,0.000686646,0.0571442,0.0521469
33,0,10.0097,-0.000305176,-0.000610352,-2.42928,0.0538499,-0.0759786,0.0532125,0.0697496,-0.0955879,0.142572,-0.128208,-0.0850118,-0.0306702,0.0223541,0.0107193,0.0165558,-0.0699997,-0.0434875,-0.0211334,0.0234222,-9.97986,-0.0722122,-0.00770569,-0.170746,-0.583153,0.319595,-0.00663757,0.0457382,0.0296783
33,1,10.0097,-0.0012207,-0.0012207,-2.42776,0.0538499,-0.075063,0.0535176,0.0685289,-0.0937568,0.142572,-0.127598,-0.0868429,-0.0508118,0.022049,0.00648499,0.017128,-0.0742722,-0.0549316,-0.0121307,0.0185013,-9.97986,-0.0960922,-0.0104904,-0.115509,-0.595474,0.324554,-0.0133133,0.0301743,0.00461578
33,2,10.0097,0.000610352,-0.00152588,-2.42867,0.0547655,-0.0753682,0.0529073,0.0700548,-0.094062,0.143487,-0.127598,-0.0865377,0.029335,0.0184631,0.00831604,0.0133514,-0.0681305,-0.0577927,-0.00648499,0.022049,-9.97986,-0.0968552,-0.00564575,-0.0772476,-0.608482,0.330467,-0.00907898,0.0270462,-0.0233078
33,3,10.0097,0,-0.00213623,-2.42867,0.0535448,-0.0759786,0.0535176,0.07036,-0.0934516,0.144403,-0.128208,-0.0874532,0.111465,0.0196457,0.00732422,0.0117874,-0.049057,-0.056572,-0.0082016,0.0162125,-9.97986,-0.074234,-0.00358582,-0.059967,-0.631638,0.370674,-0.00114441,0.0126648,-0.0527573
33,4,10.0097,0.0012207,-0.00183105,-2.42806,0.0538499,-0.0762837,0.0532125,0.0694445,-0.0946723,0.143487,-0.127598,-0.0874532,0.136833,0.0278854,0.00801086,0.0148773,-0.0369644,-0.0284195,-0.00766754,0.00717163,-9.97986,-0.0230789,0.0025177,-0.0527191,-0.642471,0.378494,0.00148773,0.0147247,-0.0741959
33,5,10.0097,0.000610352,-0.00213623,-2.42867,0.0541551,-0.0747579,0.0529073,0.0688341,-0.0952827,0.143792,-0.127292,-0.0874532,0.0881195,0.0251007,0.00537872,0.0119781,-0.0315475,-0.0101852,-0.0018692,0.00804901,-9.97986,0.0112534,-0.000610352,-0.0571442,-0.659561,0.364037,0.0012207,0.00812531,-0.120468
33,6,10.0097,-0.00152588,-0.00183105,-2.42776,0.0544603,-0.075063,0.0532125,0.0700548,-0.0943672,0.143792,-0.126377,-0.0856222,0.0468826,0.0284576,0.00244141,0.0177002,-0.030632,0.00480652,0.00648499,0.0202942,-9.97986,0.0316238,0.00171661,-0.0674057,-0.669785,0.354881,0.00865936,0.00160217,-0.143394
33,7,10.0097,0.000610352,-0.000915527,-2.42776,0.0547655,-0.073232,0.0526021,0.0688341,-0.0943672,0.145318,-0.125461,-0.0847066,0.0304413,0.0328827,0.0056076,0.0200272,-0.0309372,0.00263214,0.0124741,0.0217819,-9.97986,0.0247955,-0.000114441,-0.0819778,-0.681877,0.340157,0.0127411,-0.00881195,-0.130157
33,8,10.0097,0.0012207,-0.000762939,-2.42837,0.0547655,-0.0753682,0.0535176,0.0685289,-0.0943672,0.145318,-0.125461,-0.0837911,-0.0127411,0.031929,0.00720978,0.0174713,-0.0279999,0,0.0165176,0.0143814,-9.97986,-0.0148773,-0.00869751,-0.0939941,-0.685425,0.319862,0.019455,-0.010376,-0.110474
33,9,10.0097,-0.0012207,0.000152588,-2.42562,0.0559862,-0.0738423,0.0526021,0.067003,-0.0943672,0.144403,-0.125156,-0.0834859,-0.0558472,0.0350952,0.00869751,0.0200272,-0.0270081,-0.00114441,0.0162506,0.0056839,-9.97986,-0.0597763,-0.0170898,-0.0938416,-0.68264,0.285072,0.0204849,-0.0186157,-0.108185
34,0,10.0097,-0.000915527,0.000915527,-2.42531,0.0562914,-0.0741475,0.0547383,0.0691393,-0.0925361,0.145318,-0.124851,-0.0816549,-0.0856781,0.0394058,0.00976563,0.0175095,-0.0265121,0.0107574,0.0141525,-0.00595093,-9.97986,-0.0981522,-0.0167465,-0.086174,-0.668945,0.256577,0.0208282,-0.0331116,-0.0952911
34,1,10.0097,0.000915527,0.00137329,-2.4244,0.0559862,-0.0726216,0.0550435,0.07036,-0.0922309,0.146234,-0.124241,-0.0804342,-0.0786591,0.0376129,0.00846863,0.0172806,-0.0263977,0.0257492,0.0101471,-0.00988007,-9.97986,-0.10994,-0.0191498,-0.0841904,-0.639648,0.221596,0.0126266,-0.0487518,-0.0979996
34,2,10.0097,0.000915527,0.00350952,-2.4247,0.055681,-0.0744527,0.0556539,0.0724962,-0.0916206,0.143792,-0.123935,-0.080129,-0.0760651,0.0414276,0.0088501,0.0212479,-0.0105667,0.0335312,0.0130844,7.62939e-005,-9.97986,-0.0915146,-0.0188446,-0.0875854,-0.600586,0.179825,0.00926971,-0.0532532,-0.100937
34,3,10.0097,0.000610352,0.00396729,-2.42531,0.0575121,-0.0741475,0.0556539,0.072191,-0.0916206,0.146234,-0.12363,-0.0789083,-0.07061,0.0388718,0.00278473,0.0191879,0.0199509,0.033493,0.0136948,0.00999451,-9.97986,-0.0666046,-0.0038147,-0.0917435,-0.551262,0.146942,0.00236511,-0.0587463,-0.113907
34,4,10.0097,-0.0012207,0.00473022,-2.42562,0.0578172,-0.0744527,0.0547383,0.0709703,-0.0900947,0.145624,-0.12363,-0.0789083,-0.0338745,0.0375366,0.00835419,0.0174332,0.0479126,0.036087,0.0171661,0.0189972,-9.97986,-0.044899,-0.00442505,-0.0997925,-0.489922,0.122337,0.00247955,-0.0670242,-0.108337
34,5,10.0097,0.000915527,0.0038147,-2.42623,0.0562914,-0.0741475,0.054128,0.0660875,-0.0943672,0.145929,-0.125156,-0.080129,-0.0607681,0.0350952,0.00270844,0.0180817,0.0553894,0.0381851,0.0165939,0.0266647,-9.97986,-0.0127411,-0.0192261,-0.111694,-0.440636,0.0954056,-0.00469208,-0.0747299,-0.0880432
34,6,10.0097,0.000610352,0.00366211,-2.42623,0.0562914,-0.0741475,0.0532125,0.0639513,-0.0931465,0.145318,-0.126072,-0.0807394,-0.0826645,0.0325394,0.00385284,0.0156403,0.0648117,0.0428772,0.0175476,0.030899,-9.97986,0.0145721,-0.0247574,-0.14225,-0.396461,0.0738525,-0.0106049,-0.0802612,-0.0615692
34,7,10.0097,0.00305176,0.00411987,-2.42653,0.0553758,-0.0735371,0.0532125,0.0688341,-0.0928413,0.145929,-0.125156,-0.0816549,-0.0882721,0.0352478,-0.000457764,0.014267,0.091629,0.0461197,0.0217438,0.037117,-9.97986,0.0343704,-0.0383377,-0.167542,-0.3582,0.0472641,-0.0170517,-0.0850677,-0.0421524
34,8,10.0097,0.000915527,0.00457764,-2.42684,0.0569017,-0.0738423,0.054128,0.0761583,-0.0922309,0.145624,-0.124851,-0.0822652,-0.0679779,0.0328827,0.0038147,0.01091,0.113297,0.0530243,0.0255966,0.0350189,-9.97986,0.0498581,-0.0395203,-0.181274,-0.309792,0.0191116,-0.016861,-0.0908279,-0.0337601
34,9,10.0097,0.00152588,0.00427246,-2.42837,0.0547655,-0.0747579,0.0522969,0.0764635,-0.094062,0.143182,-0.126377,-0.0837911,-0.0196838,0.0405502,0.0116348,0.0105286,0.123024,0.054245,0.0281143,0.0327301,-9.97986,0.0601196,-0.0350952,-0.180016,-0.270538,-0.00881195,-0.0147629,-0.0877762,-0.0484467
35,0,10.0097,0.000610352,0.0038147,-2.42745,0.0523241,-0.0759786,0.0535176,0.0715807,-0.0952827,0.142877,-0.126682,-0.0847066,-0.000305176,0.0440598,0.0156021,0.0143051,0.115051,0.0495148,0.0381851,0.0272369,-9.97986,0.053215,0.00591278,-0.157967,-0.231895,-0.0305176,-0.0163269,-0.0926971,-0.0693893
35,1,10.0097,0.0012207,0.00366211,-2.42928,0.0541551,-0.0756734,0.0538228,0.0724962,-0.0946723,0.142877,-0.127598,-0.0859274,0.0298691,0.0510406,0.0211716,0.0196075,0.0964355,0.0409698,0.0410461,0.0163651,-9.97986,0.0352859,0.0211334,-0.134621,-0.198097,-0.0508881,-0.00774384,-0.092659,-0.0759125
35,2,10.0097,-0.000915527,0.00320435,-2.42806,0.0538499,-0.0759786,0.0532125,0.07036,-0.0931465,0.143792,-0.126377,-0.0856222,0.0798798,0.0539398,0.0238419,0.0193024,0.0794601,0.0330353,0.0427246,0.0187683,-9.97986,0.0467682,0.0101471,-0.101051,-0.164032,-0.0694656,-0.00923157,-0.0891113,-0.0841522
35,3,10.0097,-0.000610352,0.00289917,-2.42776,0.0535448,-0.0762837,0.0529073,0.0694445,-0.0949775,0.142572,-0.127598,-0.0862325,0.0737762,0.0553131,0.0282669,0.0159454,0.0643539,0.0222397,0.0511551,0.0117874,-9.97986,0.0794983,0.0115967,-0.0642014,-0.128136,-0.0853348,-0.0104904,-0.0823212,-0.102844
35,4,10.0097,0,0.00274658,-2.42898,0.0532396,-0.0771993,0.0526021,0.0691393,-0.0943672,0.142267,-0.126987,-0.0862325,0.0727081,0.0572205,0.0296021,0.019722,0.0699615,0.0146103,0.0448608,0.0166702,-9.97986,0.0888443,0.0145721,-0.053978,-0.108871,-0.0960159,-0.011673,-0.0775909,-0.104103
35,5,10.0097,0.000610352,0.00274658,-2.42898,0.0544603,-0.0759786,0.0532125,0.0685289,-0.0946723,0.144403,-0.127292,-0.0847066,0.0626373,0.0600433,0.0341034,0.019455,0.0934219,0.00526428,0.0464249,0.00488281,-9.97986,0.0531769,0.0109863,-0.0374222,-0.0755692,-0.0973892,-0.014267,-0.0659561,-0.0947571
35,6,10.0097,0.000305176,0.00335693,-2.42867,0.0541551,-0.0753682,0.0538228,0.0666979,-0.0949775,0.143792,-0.125461,-0.0850118,-0.0212479,0.0634766,0.0366211,0.0210571,0.107231,-0.001297,0.0452805,-0.0128174,-9.97986,0.00465393,0.0012207,-0.0207138,-0.0442505,-0.109825,-0.0201416,-0.0509644,-0.0964737
35,7,10.0097,0.00213623,0.00274658,-2.42653,0.0550706,-0.0744527,0.0529073,0.0657823,-0.095893,0.143792,-0.125156,-0.0840963,-0.114899,0.0682449,0.0374222,0.026474,0.149384,-0.00335693,0.039711,-0.0240326,-9.97986,-0.0521469,-0.0117493,-0.0232315,-0.017128,-0.123291,-0.0115585,-0.0427628,-0.107117
35,8,10.0097,0.000305176,0.00244141,-2.42653,0.0547655,-0.0744527,0.0529073,0.0657823,-0.0952827,0.144403,-0.126072,-0.0834859,-0.217476,0.0639725,0.0401306,0.02388,0.177994,-0.00938416,0.033989,-0.0376129,-9.97986,-0.140839,-0.00713348,-0.0298309,0.00354767,-0.124893,-0.0115204,-0.0317001,-0.100479
35,9,10.0097,0.00152588,0.00244141,-2.42531,0.0569017,-0.075063,0.0562642,0.0697496,-0.090705,0.147149,-0.124851,-0.0816549,-0.206642,0.0636673,0.0442886,0.0243378,0.182877,-0.0111771,0.0288391,-0.0415421,-9.97986,-0.204201,-0.00389099,-0.0174332,0.0204849,-0.124283,-0.0238037,-0.0156784,-0.0846863
36,0,10.0097,-0.0012207,0.00183105,-2.42562,0.0569017,-0.0744527,0.0550435,0.0734117,-0.0894843,0.147455,-0.124241,-0.0804342,-0.0325775,0.0571823,0.0384903,0.0265503,0.183296,-0.0128555,0.0262833,-0.0489807,-9.97986,-0.218086,-0.0111389,0.0145721,0.0489807,-0.116577,-0.0358963,-0.00164032,-0.0608063
36,1,10.0097,0.00183105,0.00244141,-2.42531,0.0559862,-0.0744527,0.055959,0.0734117,-0.088874,0.147149,-0.12363,-0.0804342,0.12394,0.0459671,0.0304794,0.0240326,0.171013,-0.0101089,0.0169373,-0.0339127,-9.97986,-0.177574,-0.0132751,0.0320435,0.068779,-0.118103,-0.0383377,-0.00816345,-0.0527191
36,2,10.0097,0.000610352,0.00305176,-2.42531,0.0565965,-0.0735371,0.0535176,0.0728014,-0.0897895,0.147455,-0.121799,-0.080129,0.214729,0.0360107,0.021553,0.0149155,0.134621,-0.00648499,0.0172806,-0.0111771,-9.97986,-0.134392,-0.0186539,0.0164795,0.0937271,-0.125008,-0.0405121,-0.010643,-0.0437546
36,3,10.0097,-0.000305176,0.00274658,-2.4247,0.0559862,-0.0741475,0.0532125,0.0724962,-0.0919257,0.147149,-0.124546,-0.0810445,0.23613,0.0296021,0.0158691,0.0146103,0.0931168,-0.00961304,0.0192642,0.00415802,-9.97986,-0.107574,-0.00247955,0.00156403,0.125504,-0.124054,-0.0440598,-0.00911713,-0.0244141
36,4,10.0097,0.000610352,0.00289917,-2.42592,0.0572069,-0.0744527,0.0538228,0.0697496,-0.090705,0.146844,-0.124546,-0.080129,0.185966,0.0278091,0.00968933,0.0110245,0.0517654,-0.01297,0.0130463,0.0131989,-9.97986,-0.0713348,0.0187302,0.0268173,0.154724,-0.111046,-0.0447083,-0.0111008,-0.0516891
36,5,10.0097,0.0012207,0.00274658,-2.42562,0.0562914,-0.0747579,0.0522969,0.0630358,-0.0931465,0.145013,-0.124851,-0.080129,0.104179,0.0239182,0.00774384,0.0141144,0.00228882,-0.00640869,0.000801086,0.0161362,-9.97986,-0.0321198,0.0363541,0.0457382,0.188103,-0.106735,-0.0463486,-0.00831604,-0.106163
36,6,10.0097,0.000915527,0.00335693,-2.42714,0.055681,-0.0741475,0.0544332,0.0624254,-0.094062,0.146844,-0.125461,-0.0810445,0.00576019,0.0240707,0.00541687,0.00831604,-0.0561905,-0.00404358,-0.0126648,0.0206375,-9.97986,-0.0258255,0.0394058,0.0534058,0.21637,-0.0944519,-0.0481796,-0.00118256,-0.108337
36,7,10.0097,-0.00213623,0.00335693,-2.42714,0.055681,-0.0744527,0.0544332,0.0694445,-0.0934516,0.146844,-0.124851,-0.0825704,-0.00907898,0.0216293,0.00141144,0.00926971,-0.0951767,0.000724792,-0.0216293,0.0250626,-9.97986,-0.0273895,0.0361633,0.0654221,0.246925,-0.0847244,-0.0547409,0.00934601,-0.0803375
36,8,10.0097,0,0.00366211,-2.42653,0.0553758,-0.0744527,0.0550435,0.0776842,-0.0922309,0.147149,-0.124241,-0.0828756,0.0378799,0.0139236,-0.00869751,0.00556946,-0.108566,0.00297546,-0.0351715,0.0245667,-9.97986,0.0163269,0.0339127,0.0814819,0.282974,-0.0906754,-0.0533676,0.014267,-0.0177765
36,9,10.0097,-0.000610352,0.00350952,-2.42898,0.0532396,-0.0753682,0.0538228,0.0801256,-0.0913154,0.146234,-0.126377,-0.0840963,0.0958252,0.0138855,-0.00545502,0.00896454,-0.126686,0.00209808,-0.0485229,0.0163651,-9.97986,0.111885,0.0252914,0.112953,0.306282,-0.0915527,-0.0528717,0.0183105,0.0466537
37,0,10.0097,0.000610352,0.000915527,-2.42867,0.0535448,-0.0759786,0.0526021,0.0737169,-0.0925361,0.145624,-0.126377,-0.0856222,0.165215,0.0185394,-0.000915527,0.010376,-0.136299,-0.0127411,-0.0466156,0.0130844,-9.97986,0.200233,0.0243378,0.143089,0.330925,-0.0775528,-0.0575256,0.0197983,0.0823212
37,1,10.0097,-0.000610352,0.00213623,-2.42867,0.0550706,-0.0762837,0.0532125,0.0706652,-0.0946723,0.144098,-0.126377,-0.0859274,0.14698,0.0195694,0.000991821,0.00976563,-0.128708,-0.038147,-0.0455093,0.0104904,-9.97986,0.280952,0.0196075,0.165291,0.344124,-0.0611877,-0.0610352,0.00862122,0.107803
37,2,10.0097,0.000610352,0.00167847,-2.42867,0.0544603,-0.0759786,0.054128,0.0700548,-0.0946723,0.144708,-0.127292,-0.0862325,0.0935364,0.0170898,0.00423431,0.00858307,-0.106087,-0.0577927,-0.0440216,0.0152969,-9.97986,0.327187,0.0102615,0.198631,0.368233,-0.0660706,-0.0567627,-0.000228882,0.114746
37,3,10.0097,0.000915527,0.00152588,-2.42806,0.0535448,-0.0762837,0.0510762,0.0679186,-0.0949775,0.143182,-0.128208,-0.0859274,0.0764847,0.0197601,0.00930786,0.0113297,-0.0688171,-0.0629807,-0.0606537,0.0190353,-9.97986,0.330315,0.0113678,0.213203,0.385895,-0.0785446,-0.062294,0.000801086,0.0968933
37,4,10.0097,0.000915527,0.00152588,-2.42928,0.0541551,-0.0765889,0.0532125,0.0663927,-0.0955879,0.142877,-0.126682,-0.0865377,-0.00682831,0.0283051,0.0147629,0.00671387,0.00164032,-0.0509262,-0.0782776,0.0183868,-9.97986,0.308495,0.0133514,0.218124,0.402336,-0.0966644,-0.0522614,-0.00328064,0.0522614
37,5,10.0097,0.000915527,0.00167847,-2.42837,0.0541551,-0.0744527,0.0538228,0.0657823,-0.0961982,0.142572,-0.126987,-0.0862325,-0.139427,0.0302887,0.0230408,0.0149155,0.0730515,-0.0323868,-0.0961685,0.00789642,-9.97986,0.252151,-0.00419617,0.230827,0.42202,-0.108795,-0.0442886,-0.00984192,-0.0383759
37,6,10.0097,0.000915527,0.0012207,-2.42806,0.0544603,-0.075063,0.0544332,0.0685289,-0.0946723,0.143182,-0.126987,-0.0840963,-0.190811,0.0359344,0.0279617,0.0108719,0.0991058,-0.0105667,-0.117149,0.000953674,-9.97986,0.187035,-0.0198746,0.239906,0.439186,-0.115013,-0.0347137,-0.0139236,-0.124931
37,7,10.0097,0.000915527,0.00137329,-2.42776,0.0547655,-0.0756734,0.0532125,0.0682238,-0.0928413,0.145624,-0.126987,-0.0847066,-0.161819,0.0353622,0.0344467,0.0126648,0.0971222,0.00286102,-0.125122,0.00980377,-9.97986,0.136642,-0.00526428,0.248604,0.454674,-0.124321,-0.0279999,-0.00938416,-0.099411
37,8,10.0097,0,0.00152588,-2.42592,0.0550706,-0.075063,0.0544332,0.0700548,-0.0931465,0.145013,-0.126072,-0.0837911,-0.104027,0.0392151,0.0354385,0.0140381,0.0654602,0.00785828,-0.12291,0.00202179,-9.97986,0.115356,-0.00450134,0.248947,0.470161,-0.130501,-0.021553,-0.0069809,-0.0160217
37,9,10.0097,0.0012207,0.00198364,-2.42531,0.0559862,-0.0747579,0.0535176,0.0712755,-0.0922309,0.145624,-0.124851,-0.0819601,-0.0314331,0.041008,0.0365067,0.0205612,-0.0154114,0.0166702,-0.11528,0.0069809,-9.97986,0.0970078,-0.0238419,0.246696,0.489082,-0.11795,-0.0230026,0.00587463,0.0301743
38,0,10.0097,-0.000305176,0.00228882,-2.42501,0.055681,-0.0738423,0.0550435,0.0697496,-0.0916206,0.14776,-0.124241,-0.0822652,-0.0294113,0.039444,0.0382233,0.0182343,-0.107117,0.0237656,-0.102615,0.0235748,-9.97986,0.0667191,-0.0325394,0.238113,0.515594,-0.0773239,-0.0229645,-0.00728607,0.0450134
38,1,10.0097,0.0012207,0.00183105,-2.42531,0.0562914,-0.0738423,0.0538228,0.0700548,-0.0910102,0.146844,-0.125461,-0.0807394,-0.05867,0.0434494,0.041008,0.0213242,-0.166321,0.0144196,-0.0954819,0.0182343,-9.97986,0.0208282,-0.00572205,0.209122,0.537033,-0.0518417,-0.0196838,-0.0118256,0.0248718
38,2,10.0097,0,0.00213623,-2.4244,0.0562914,-0.0729268,0.0547383,0.0694445,-0.0910102,0.146844,-0.125156,-0.0825704,-0.0542831,0.0458527,0.0469208,0.0150681,-0.214958,0.00377655,-0.09552,0.00751495,-9.97986,-0.0634003,0.0257492,0.168343,0.545387,-0.050087,-0.0214767,-0.00766754,-0.027771
38,3,10.0097,-0.00152588,0.00152588,-2.42562,0.0569017,-0.073232,0.0532125,0.0688341,-0.0919257,0.145624,-0.12363,-0.0807394,-0.0420761,0.0451279,0.0506973,0.0193787,-0.250702,0.00133514,-0.0876236,-7.62939e-005,-9.97986,-0.146599,0.0342941,0.130157,0.55027,-0.0415802,-0.0143051,0.00125885,-0.07061
38,4,10.0097,0.000610352,0.000610352,-2.4244,0.0575121,-0.0729268,0.0535176,0.0697496,-0.0913154,0.146234,-0.123325,-0.0795187,-0.0651932,0.0413513,0.0481033,0.0152969,-0.2705,0.00728607,-0.0768661,-0.0018692,-9.97986,-0.180206,0.0102615,0.086441,0.562935,-0.0318146,-0.0150681,-0.00473022,-0.088501
38,5,10.0097,0.000610352,0.000305176,-2.42531,0.0562914,-0.0747579,0.0535176,0.0636461,-0.0922309,0.145929,-0.124546,-0.0807394,-0.0648117,0.0424576,0.0396347,0.0151062,-0.251884,0.0123596,-0.0711823,-0.000114441,-9.97986,-0.167847,-0.00640869,0.04776,0.561562,-0.0245667,-0.0132751,-0.00488281,-0.0932693
38,6,10.0097,0.000610352,-0.000457764,-2.42501,0.0559862,-0.0747579,0.0532125,0.0694445,-0.0879585,0.14776,-0.126072,-0.0825704,0.130081,0.0367737,0.0406647,0.0140762,-0.221977,0.0156403,-0.0637054,0.0214386,-9.97986,-0.105629,-0.0466156,0.0137711,0.557861,0.0102234,-0.015564,0.00171661,-0.0749969
38,7,10.0097,0.00152588,-0.000610352,-2.42623,0.0565965,-0.0756734,0.0535176,0.0731066,-0.0894843,0.147149,-0.125766,-0.0834859,0.333939,0.0279617,0.0312424,0.0125122,-0.196915,0.0127411,-0.0549316,0.0386429,-9.97986,-0.0361252,-0.0437546,0.00793457,0.544853,0.0755692,-0.0185394,0.00862122,-0.0617981
38,8,10.0097,0.00183105,-0.000915527,-2.42745,0.0544603,-0.0744527,0.054128,0.0740221,-0.0916206,0.145013,-0.124851,-0.0834859,0.250587,0.0260925,0.0226212,0.0114441,-0.155296,-0.00553131,-0.0531006,0.0536728,-9.97986,-0.0162125,-0.0207138,0.0201035,0.530167,0.135307,-0.0253296,0.0144196,-0.052681
38,9,10.0097,0,-0.0012207,-2.42776,0.0550706,-0.0747579,0.0532125,0.0746324,-0.0946723,0.145013,-0.126072,-0.0856222,0.100021,0.0129318,0.0137711,0.00473022,-0.0926971,-0.0146866,-0.0564194,0.0466156,-9.97986,-0.0104904,-0.00709534,0.00232697,0.505714,0.174675,-0.0269699,0.0250244,-0.0394058
39,0,10.0097,0,-0.00213623,-2.42806,0.0541551,-0.0753682,0.0516866,0.0706652,-0.0946723,0.143792,-0.125156,-0.0868429,0.0396729,0.0138474,0.0103378,0.00869751,-0.0407028,-0.0263977,-0.0541687,0.030632,-9.97986,-0.00980377,0.0151062,-0.046463,0.481262,0.195618,-0.0194168,0.0205612,-0.0570679
39,1,10.0097,0.0012207,-0.00198364,-2.42928,0.0535448,-0.075063,0.0516866,0.0718859,-0.0946723,0.142877,-0.126682,-0.0868429,0.0629807,0.0100708,0.0134277,0.0088501,-0.0149918,-0.0312424,-0.054512,0.00782013,-9.97986,0.0411224,0.0134277,-0.0656891,0.460968,0.206566,-0.00347137,0.0131989,-0.0904083
39,2,10.0097,0,-0.00198364,-2.42837,0.0547655,-0.0765889,0.0516866,0.072191,-0.094062,0.145013,-0.126377,-0.0868429,0.100136,0.00904083,0.00873566,0.0102234,0.0550079,-0.0254822,-0.0492096,-0.00297546,-9.97986,0.161285,0.00980377,-0.0399399,0.435982,0.226364,0.00427246,0.00427246,-0.0984955
39,3,10.0097,0.00152588,-0.00259399,-2.42898,0.0535448,-0.0744527,0.0519917,0.0694445,-0.0937568,0.143487,-0.128513,-0.0871481,0.0971222,0.00915527,0.00537872,0.00759125,0.1474,-0.0139999,-0.0379562,0.0101471,-9.97986,0.195618,0.00553131,-0.0202942,0.416069,0.261383,0.0118256,-0.000610352,-0.0875092
39,4,10.0097,0.00183105,-0.00244141,-2.42989,0.0547655,-0.0765889,0.0532125,0.0688341,-0.0937568,0.142267,-0.127598,-0.0874532,0.131187,0.00694275,0.00617981,0.00473022,0.16922,0.000686646,-0.0262451,0.0240326,-9.97986,0.151215,-0.00453949,-0.00976563,0.404243,0.29808,0.00282288,-0.0135803,-0.103035
39,5,10.0097,-0.0012207,-0.00152588,-2.42837,0.0538499,-0.0765889,0.0516866,0.067003,-0.0946723,0.145318,-0.126682,-0.0874532,0.107689,0.00263214,0.00366211,0.00434875,0.141335,0.00988007,-0.0157166,0.0418472,-9.97986,0.0891495,-0.00640869,0.0031662,0.39196,0.33741,-0.0107956,-0.0163269,-0.0998306
39,6,10.0097,0.000305176,-0.000610352,-2.42837,0.0547655,-0.0747579,0.0526021,0.067003,-0.0943672,0.145013,-0.126987,-0.0859274,-0.0106049,-0.000953674,-0.00179291,-0.000610352,0.102234,0.0157928,-0.00900269,0.046463,-9.97986,0.00709534,0.00720978,0.0075531,0.391731,0.38578,-0.00396729,-0.019455,-0.0993347
39,7,10.0097,-0.000915527,-0.000152588,-2.42714,0.0550706,-0.075063,0.0538228,0.0688341,-0.0937568,0.144708,-0.126072,-0.0850118,-0.0646591,-0.000762939,-0.00087738,-0.00179291,0.0737381,0.0204086,-0.00785828,0.044632,-9.97986,-0.0596619,0.0115967,0.000953674,0.39402,0.432472,0.01091,-0.0156021,-0.148849
39,8,10.0097,-0.000610352,-0.000305176,-2.42653,0.055681,-0.0744527,0.0532125,0.0679186,-0.0922309,0.144708,-0.126377,-0.0837911,-0.0698853,0.00133514,0.00198364,0.000915527,0.064621,0.0248718,-0.00576019,0.0437546,-9.97986,-0.0997543,0.00499725,-0.00976563,0.38929,0.444527,0.0211334,-0.0106812,-0.211449
39,9,10.0097,0,-0.000610352,-2.42623,0.055681,-0.0744527,0.0532125,0.072191,-0.0910102,0.145624,-0.12363,-0.0828756,-0.062561,0.00850677,0.00740051,0.00465393,0.0621414,0.0387192,-0.00694275,0.0276184,-9.97986,-0.0790024,-0.00282288,-0.0310516,0.38475,0.435257,0.0358582,-0.00541687,-0.217934
40,0,10.0097,0.000915527,-0.000152588,-2.4244,0.0572069,-0.0744527,0.0544332,0.072191,-0.0894843,0.14776,-0.124851,-0.0822652,-0.0019455,0.0149536,0.00556946,0.00389099,0.074501,0.0547791,-0.0018692,0.0292587,-9.97986,-0.0144577,-0.00255585,-0.0598145,0.369186,0.428772,0.0512695,-0.00343323,-0.188103
40,1,10.0097,-0.000915527,-0.0012207,-2.4244,0.0562914,-0.0735371,0.0553487,0.0746324,-0.0903999,0.147455,-0.124546,-0.0813497,0.0937271,0.0119781,0.00598907,0.000686646,0.0759125,0.0502777,0.00247955,0.0492859,-9.97986,0.0352859,-0.00511169,-0.0838852,0.362167,0.458412,0.0704956,0.00915527,-0.149384
40,2,10.0097,0.000305176,-0.000610352,-2.42531,0.0569017,-0.0747579,0.0547383,0.0724962,-0.0903999,0.14776,-0.124546,-0.0819601,0.113144,0.0189209,0.00209808,-0.00038147,0.0680923,0.030365,0.0114059,0.0714111,-9.97986,0.0900269,0.00247955,-0.0628281,0.345726,0.492744,0.0656891,0.0211334,-0.123062
40,3,10.0097,0.00183105,-0.00152588,-2.42562,0.0553758,-0.0738423,0.0550435,0.0700548,-0.0910102,0.146844,-0.12302,-0.0822652,0.074501,0.0191116,0.00869751,0.00293732,0.063324,0.0209045,0.0153732,0.0881958,-9.97986,0.10891,-0.00167847,-0.0623322,0.321732,0.512619,0.0545502,0.0258255,-0.0896072
40,4,10.0097,0.00213623,-0.00167847,-2.4244,0.0565965,-0.0729268,0.0519917,0.0709703,-0.0910102,0.14776,-0.12363,-0.0816549,0.0402069,0.0209808,0.00896454,0.000305176,0.033493,0.0215912,0.019722,0.083313,-9.97986,0.0859833,0.000190735,-0.100937,0.303917,0.528145,0.043869,0.0257111,-0.0606155
40,5,10.0097,0.00152588,-0.00259399,-2.42684,0.0575121,-0.0738423,0.0556539,0.0621202,-0.0922309,0.147455,-0.126072,-0.0828756,0.0102234,0.0204468,0.00938416,0.00228882,-0.0168228,0.0244904,0.0216293,0.0734329,-9.97986,0.0698853,0.00537872,-0.119438,0.277214,0.533371,0.0449371,0.0346756,-0.0254822
40,6,10.0097,0.00183105,-0.00350952,-2.42592,0.055681,-0.075063,0.0513814,0.0621202,-0.0937568,0.145318,-0.124241,-0.0825704,0.00457764,0.0212479,0.0109863,-0.000228882,-0.0547028,0.0242615,0.02388,0.0678635,-9.97986,0.056076,0.00919342,-0.116348,0.255356,0.543785,0.0390625,0.0226593,-0.033493
