
Devices
1200
,,BP Load cell - Voltage,String Length - Voltage,Clutch Active - Voltage,#7 iPecs - Voltage,,,,,,,,,EMG 1-8 Left - Voltage,,,,,,,,Pylon Force - Voltage,EMG 9-16 Right - Voltage,,,,,,,,
Frame,Sub Frame,BP Load Cell,String Length,From Arduino Logic,A45,A135,A225,A315,S0,S90,S180,S270,ZSum,EMG 1 Glut Max,EMG 2 Glut Med,EMG 3 Biceps Femoris Long,EMG 4 Rectus Femoris,EMG 5 Vastus Medialis,EMG 6 Tib Ant,EMG 7 Med Gas,EMG 8 Soleus,Pylon volts,EMG 9 Glut Max,EMG 10 Glut Med,EMG 11 Biceps Femoris Long,EMG 12 Rectus Femoris,EMG 13 Vastus Medialis,EMG 14 Tib Ant,EMG 15 Med Gas,EMG 16 Soleus
,,V,V,V,V,V,V,V,V,V,V,V,V,V,V,V,V,V,V,V,V,V,V,V,V,V,V,V,V,V
1,0,10.0097,0.0012207,0.00549316,-2.4247,0.0562914,-0.0735371,0.0547383,0.0706652,-0.090705,0.146234,-0.124546,-0.0807394,0.0250626,-0.038681,-0.020752,0.00991821,0.0263596,-0.00564575,0.0343704,0.0479126,-9.97986,0.0672913,-0.00530243,0.0295258,-0.925407,0.0426865,-0.0160217,0.0661469,0.0018692
1,1,10.0097,0.0012207,0.00488281,-2.42623,0.055681,-0.075063,0.0550435,0.0712755,-0.0903999,0.14776,-0.124546,-0.0798238,0.017395,-0.0266266,-0.000991821,0.0425339,0.0257874,-0.00335693,0.031929,0.0531006,-9.97986,0.0606155,-0.0479889,0.0307846,-0.878677,0.0391006,-0.0262833,0.0669479,0.000457764
1,2,10.0097,-0.000305176,0.0050354,-2.42501,0.0572069,-0.0738423,0.0553487,0.0706652,-0.0913154,0.147149,-0.125461,-0.0795187,0.0157166,0.00915527,0.0254059,0.0808716,0.023613,0.00293732,0.0354767,0.0328064,-9.97986,0.0514603,-0.103111,0.0337982,-0.822144,0.0428391,-0.02388,0.0678253,-0.000267029
1,3,10.0097,0.000610352,0.00549316,-2.42501,0.0578172,-0.0738423,0.0547383,0.07036,-0.0919257,0.149286,-0.124546,-0.0786031,0.0196075,0.0296402,0.03479,0.0608063,0.0267029,0.0113297,0.0369263,0.00797272,-9.97986,0.0371552,-0.0744247,0.0388336,-0.762177,0.0416946,-0.0314331,0.069809,-0.000457764
1,4,10.0097,0.000610352,0.00564575,-2.42592,0.0572069,-0.0723164,0.055959,0.0697496,-0.0913154,0.147455,-0.123935,-0.0798238,0.01194,0.03582,0.0566864,0.0325775,0.0259781,0.0195313,0.0353622,-0.00179291,-9.97986,0.0288391,0.00614166,0.0407791,-0.69809,0.0407028,-0.0367737,0.0750351,-0.00114441
1,5,10.0097,0.00274658,0.00656128,-2.42531,0.0559862,-0.0735371,0.0553487,0.0706652,-0.0910102,0.145624,-0.123325,-0.0798238,0.00888824,0.0466156,0.0727081,0.0225449,0.0221634,0.0273514,0.0372696,0.0247574,-9.97986,0.0205612,0.0161743,0.0395584,-0.629501,0.0365448,-0.0316238,0.0720215,0.00301361
1,6,10.0097,0.00152588,0.00610352,-2.42623,0.0550706,-0.0747579,0.0550435,0.07036,-0.094062,0.145624,-0.125461,-0.0804342,0.00087738,0.0403595,0.0762177,0.0122833,0.0155258,0.0285339,0.0385666,0.057373,-9.97986,0.0175858,-0.00789642,0.0376129,-0.571098,0.0331879,-0.0202942,0.0707245,0.00148773
1,7,10.0097,0.000610352,0.0050354,-2.42653,0.0559862,-0.0741475,0.0532125,0.0691393,-0.0934516,0.145929,-0.124851,-0.0822652,0.00679016,0.0608444,0.0873566,0.0144577,0.0220108,0.0349808,0.0358963,0.0683975,-9.97986,0.00671387,-0.0214386,0.041008,-0.523643,0.0315094,-0.00968933,0.0674057,0.0038147
1,8,10.0097,0.000915527,0.00534058,-2.42623,0.0559862,-0.0762837,0.0535176,0.07036,-0.0928413,0.146844,-0.125766,-0.0825704,0.00850677,0.104485,0.103912,0.0191116,0.0238419,0.0440598,0.0367355,0.0638962,-9.97986,-0.00202179,-0.0262451,0.0383377,-0.462914,0.0243378,-0.00579834,0.0682068,0.00511169
1,9,10.0097,0.000610352,0.00640869,-2.42837,0.0544603,-0.0759786,0.0535176,0.0691393,-0.0919257,0.146539,-0.125766,-0.0819601,0.0141525,0.151443,0.104485,0.0200653,0.0220108,0.0521851,0.0355911,0.0667953,-9.97986,-0.0100708,-0.0417328,0.0402451,-0.395393,0.0242615,-0.00648499,0.0667953,0.00423431
2,0,10.0097,-0.000915527,0.00534058,-2.42745,0.0553758,-0.0762837,0.0526021,0.0685289,-0.0937568,0.143487,-0.126682,-0.0834859,0.0149155,0.1651,0.0906754,0.0197601,0.0199509,0.0498199,0.0360489,0.0744629,-9.97986,-0.0120163,-0.0437164,0.0402832,-0.332756,0.0187302,-0.0128555,0.067215,0.00778198
2,1,10.0097,0,0.00488281,-2.42867,0.0541551,-0.0753682,0.0522969,0.0685289,-0.0949775,0.144708,-0.127598,-0.0844015,0.00759125,0.143089,0.0641251,0.0147247,0.0252533,0.0495529,0.0394058,0.0711441,-9.97986,-0.0134277,-0.0126648,0.0425339,-0.288048,0.0166321,-0.0190735,0.0638199,0.00850677
2,2,10.0097,-0.000915527,0.0050354,-2.42928,0.0535448,-0.075063,0.0547383,0.0682238,-0.0946723,0.142877,-0.125766,-0.0862325,0.00652313,0.112762,0.00911713,0.0107574,0.0222397,0.0567627,0.0363541,0.0703049,-9.97986,-0.016098,-0.00400543,0.0462723,-0.250092,0.0152969,-0.0245285,0.0629044,0.0100708
2,3,10.0097,0.00152588,0.00411987,-2.42959,0.0538499,-0.0753682,0.0526021,0.0682238,-0.0931465,0.142267,-0.127598,-0.0850118,0.00896454,0.0534821,-0.0370789,0.00991821,0.0201797,0.0620651,0.0406647,0.0714874,-9.97986,-0.00888824,-0.0154877,0.0406647,-0.204926,0.0126266,-0.0190353,0.0579071,0.00968933
2,4,10.0097,-0.000915527,0.00335693,-2.42867,0.0535448,-0.0768941,0.0526021,0.0685289,-0.0937568,0.143487,-0.127292,-0.0856222,0.0131989,-0.0128937,-0.062027,0.00938416,0.0174713,0.0668716,0.044632,0.0424194,-9.97986,-0.00995636,-0.00453949,0.0370026,-0.169144,0.00915527,-0.0141907,0.0536728,0.0146866
2,5,10.0097,0.000305176,0.00259399,-2.42776,0.0538499,-0.075063,0.0532125,0.0688341,-0.0946723,0.143182,-0.126377,-0.0862325,0.0144196,-0.0069809,-0.0445938,0.00171661,0.0135803,0.0730896,0.0444794,-0.0245285,-9.97986,-0.0213623,0.0195694,0.0413895,-0.139999,0.00854492,-0.00404358,0.0494766,0.0157928
2,6,10.0097,0.00213623,0.00320435,-2.42806,0.0547655,-0.075063,0.0526021,0.0694445,-0.0934516,0.144403,-0.126682,-0.0847066,0.00831604,0.0252914,-0.0019455,-0.00389099,0.0113678,0.0775909,0.0392532,-0.0736237,-9.97986,-0.0335693,0.0012207,0.0350189,-0.103149,0.00202179,0.00411987,0.0474167,0.0138855
2,7,10.0097,0.00213623,0.00366211,-2.42776,0.0547655,-0.075063,0.0538228,0.0688341,-0.0937568,0.146539,-0.126682,-0.0837911,0.0104141,0.0821686,0.0524521,-0.00404358,0.0133133,0.080986,0.0375748,-0.0540543,-9.97986,-0.0285339,-0.0472641,0.0347137,-0.055809,-0.0031662,0.00247955,0.0434875,0.0113297
2,8,10.0097,0.00244141,0.00442505,-2.42684,0.0544603,-0.0744527,0.0532125,0.0700548,-0.0931465,0.144403,-0.125156,-0.0831808,0.0120163,0.103226,0.0803757,-0.00423431,0.0107574,0.0849533,0.0383759,0.0110245,-9.97986,-0.0273514,-0.0427246,0.0345612,-0.0146866,-0.00606537,0.000915527,0.0390244,0.0149918
2,9,10.0097,0.000305176,0.00442505,-2.42531,0.0559862,-0.0753682,0.0544332,0.07036,-0.0928413,0.145318,-0.126377,-0.0819601,0.00614166,0.0853348,0.0921631,-0.0111771,0.0104141,0.0841141,0.0388336,0.0310898,-9.97986,-0.0214005,-0.0162506,0.0408173,0.0324249,-0.00606537,-7.62939e-005,0.0362015,0.0195694
3,0,10.0097,0.000915527,0.00442505,-2.42562,0.0562914,-0.0738423,0.054128,0.0709703,-0.0919257,0.145624,-0.124546,-0.0807394,0.00652313,0.0761414,0.111427,-0.0118256,0.0134659,0.0822067,0.0336075,-0.0056076,-9.97986,-0.0172043,-0.0191116,0.0407791,0.0751877,-0.00286102,-0.00514984,0.033989,0.0219727
3,1,10.0097,0.0012207,0.00396729,-2.42501,0.0559862,-0.0741475,0.0544332,0.0709703,-0.0913154,0.146844,-0.124241,-0.0798238,0.00221252,0.0239944,0.117302,-0.00904083,0.00812531,0.0804901,0.0331879,-0.00968933,-9.97986,-0.00717163,-0.00728607,0.0403976,0.114937,-0.0031662,-0.00331879,0.0285721,0.0243378
3,2,10.0097,0.000915527,0.00488281,-2.42531,0.0562914,-0.0738423,0.0547383,0.0706652,-0.0928413,0.148065,-0.124241,-0.0798238,0.0111008,0.00297546,0.110359,-0.00602722,0.0143051,0.0798416,0.0345993,0.0664139,-9.97986,0.00450134,0.0114822,0.0393677,0.162506,0.00217438,-0.00732422,0.0270081,0.0279236
3,3,10.0097,0.00427246,0.00442505,-2.4247,0.0562914,-0.0738423,0.0538228,0.07036,-0.0931465,0.146539,-0.124241,-0.0807394,0.00545502,-0.00495911,0.110054,-0.00343323,0.00366211,0.0807571,0.0308609,0.174904,-9.97986,0.00839233,0.00476837,0.0370789,0.207291,-0.00522614,-0.00675201,0.0226212,0.0257874
3,4,10.0097,0.000610352,0.0050354,-2.4247,0.0575121,-0.0729268,0.0553487,0.0712755,-0.0910102,0.14776,-0.124241,-0.0795187,-0.00354767,0.0289536,0.0934601,0.00881195,0.00324249,0.0798416,0.0337601,0.211258,-9.97986,0.00736237,0.0180435,0.0389862,0.254745,-0.00648499,-0.00514984,0.0182343,0.0237274
3,5,10.0097,-0.00183105,0.00595093,-2.42379,0.0559862,-0.0735371,0.0550435,0.0715807,-0.090705,0.146234,-0.124546,-0.0795187,-0.0056076,0.0639725,0.0542831,0.0012207,0.001297,0.0782776,0.0265121,0.181847,-9.97986,0.012207,0.00953674,0.0376511,0.307503,-0.0123215,-0.000915527,0.0148392,0.0288773
3,6,10.0097,-0.000915527,0.00473022,-2.42501,0.055681,-0.0738423,0.0538228,0.07036,-0.0922309,0.145929,-0.125156,-0.0804342,-0.00167847,0.0538254,0.0336838,-0.00137329,-0.00411987,0.0740051,0.0226593,0.118713,-9.97986,0.0210571,0,0.0312424,0.342674,-0.0177002,-0.00228882,0.00350952,0.0264359
3,7,10.0097,0,0.00411987,-2.42623,0.055681,-0.075063,0.0535176,0.0697496,-0.0928413,0.146539,-0.125156,-0.0813497,0.00972748,0.0774002,0.0484848,0.00282288,-0.00564575,0.0710678,0.0179291,0.0474167,-9.97986,0.0156021,0.00305176,0.0344467,0.380745,-0.0189209,0.000953674,-0.00152588,0.0270844
3,8,10.0097,-0.0012207,0.00411987,-2.42653,0.0553758,-0.0756734,0.0544332,0.0718859,-0.0931465,0.145624,-0.125461,-0.0822652,0.00984192,0.0853729,0.0654221,0.00484467,-0.00328064,0.0690079,0.0250626,0.00305176,-9.97986,0.0183105,-0.0217438,0.0359344,0.420876,-0.0188446,0.00183105,-0.00617981,0.0281525
3,9,10.0097,-0.000610352,0.00411987,-2.42776,0.0544603,-0.0753682,0.0538228,0.0688341,-0.0928413,0.143792,-0.125766,-0.0831808,0.0110626,0.0346375,0.0628281,0.00663757,-0.00667572,0.0588226,0.0243378,-0.0352097,-9.97986,0.015564,-0.0269318,0.0397873,0.454102,-0.0141525,0.00957489,-0.00728607,0.0317383
4,0,10.0097,0.000305176,0.00396729,-2.42837,0.0538499,-0.075063,0.0522969,0.067003,-0.0931465,0.145013,-0.126682,-0.0847066,0.00995636,0.0256729,0.0692368,-0.010376,-0.00980377,0.0536728,0.0271988,-0.0367737,-9.97986,0.000495911,-0.0123215,0.0364304,0.491982,-0.0166321,0.016098,-0.0161743,0.0300598
4,1,10.0097,0.00274658,0.0038147,-2.42837,0.0529344,-0.0759786,0.0532125,0.0676134,-0.0943672,0.144708,-0.126377,-0.0844015,0.0163651,0.0537109,0.0859451,-0.0131607,-0.00484467,0.0458908,0.0317764,0.0186539,-9.97986,-0.00202179,0.00110626,0.0456238,0.538101,-0.0108337,0.0271606,-0.0163651,0.0340271
4,2,10.0097,0.000915527,0.00274658,-2.42806,0.0535448,-0.0771993,0.0519917,0.0682238,-0.0946723,0.143792,-0.127598,-0.0850118,0.00453949,0.0663376,0.0602341,-0.0177765,-0.0109863,0.0345612,0.0259018,0.0755692,-9.97986,-0.0107956,-0.0125885,0.0406647,0.57621,-0.0175858,0.0263214,-0.0310516,0.029335
4,3,10.0097,-0.000915527,0.0050354,-2.42837,0.0529344,-0.0756734,0.0526021,0.0682238,-0.0949775,0.142877,-0.127598,-0.085317,0.0200272,0.0435257,0.0290298,-0.000343323,-0.0102615,0.0284576,0.0354004,0.080452,-9.97986,-0.0131989,-7.62939e-005,0.0440598,0.618019,-0.00881195,0.0315475,-0.0257111,0.032959
4,4,10.0097,-0.00183105,0.00442505,-2.42959,0.0535448,-0.0747579,0.0526021,0.0688341,-0.094062,0.144708,-0.126987,-0.0847066,0.0237656,0.0450897,-0.00675201,-0.00804901,-0.00843048,0.0250244,0.0339508,0.0218964,-9.97986,-0.0128937,-0.00175476,0.0409317,0.669785,-0.0115967,0.0341034,-0.0289154,0.0312042
4,5,10.0097,-0.00183105,0.00396729,-2.42867,0.0538499,-0.0762837,0.0526021,0.0682238,-0.0928413,0.145318,-0.127598,-0.0850118,0.0282669,0.118904,-0.00926971,-0.000801086,-0.0082016,0.018959,0.0352478,-0.0213623,-9.97986,-0.00808716,-0.0115585,0.0382614,0.713692,-0.0127792,0.0379562,-0.0360107,0.0317383
4,6,10.0097,-0.000610352,0.00396729,-2.42867,0.0538499,-0.0753682,0.0529073,0.0685289,-0.0937568,0.142572,-0.126987,-0.085317,0.0294495,0.0794601,-0.0152206,-0.000419617,-0.0112534,0.0181198,0.0298309,-0.0379181,-9.97986,-7.62939e-005,-0.0313568,0.0410843,0.749016,-0.01194,0.0387192,-0.038414,0.0307846
4,7,10.0097,-0.000305176,0.00427246,-2.42745,0.0547655,-0.0753682,0.0535176,0.0694445,-0.094062,0.141961,-0.126072,-0.0831808,0.0193405,-0.00526428,-0.00850677,0.000915527,-0.0168228,0.0143051,0.0324249,-0.02491,-9.97986,0.0223923,-0.0234222,0.0372314,0.794067,-0.00934601,0.0307083,-0.0422668,0.032959
4,8,10.0097,0.000610352,0.00457764,-2.42745,0.0541551,-0.0753682,0.0532125,0.0697496,-0.0934516,0.143792,-0.126682,-0.0825704,0.014534,-0.039711,0.00148773,-0.0037384,-0.0124359,0.0108337,0.0337982,-0.0350952,-9.97986,0.0402069,-0.0146866,0.0416565,0.840874,-0.00659943,0.028038,-0.0486374,0.0309372
4,9,10.0097,-0.00244141,0.00457764,-2.42623,0.0550706,-0.0753682,0.0532125,0.07036,-0.0946723,0.143487,-0.126072,-0.0825704,0.0183868,-0.0968933,-0.0409698,-0.00892639,-0.0144577,0.0110626,0.0233841,-0.0704193,-9.97986,0.060463,-0.00415802,0.0365448,0.880966,-0.00423431,0.0241852,-0.0499725,0.0332642
5,0,10.0097,-0.00305176,0.00442505,-2.42531,0.0565965,-0.0735371,0.0556539,0.07036,-0.0928413,0.149591,-0.124546,-0.0810445,0.0167084,-0.114708,-0.0862122,-0.00694275,-0.0196457,0.00114441,0.0227737,-0.11158,-9.97986,0.0650787,0.0329208,0.0373459,0.917625,-0.00476837,0.0216675,-0.058136,0.0318146
5,1,10.0097,-0.000915527,0.00366211,-2.42501,0.0550706,-0.0738423,0.0550435,0.07036,-0.0913154,0.146234,-0.12363,-0.0807394,0.0127411,-0.0985718,-0.110588,-0.00892639,-0.0167084,0.000801086,0.0255585,-0.16964,-9.97986,0.0562668,0.0809479,0.0334549,0.953102,-0.000228882,0.0205994,-0.0654221,0.0374603
5,2,10.0097,0.0012207,0.00289917,-2.4247,0.0562914,-0.0738423,0.0553487,0.0700548,-0.0910102,0.14898,-0.125156,-0.0804342,0.0117111,-0.0415802,-0.102539,-0.019989,-0.0209045,-0.00087738,0.0301361,-0.212212,-9.97986,0.0540924,0.119896,0.034256,0.970421,0.00152588,0.0125504,-0.064621,0.0365448
5,3,10.0097,0.00152588,0.00183105,-2.4244,0.0569017,-0.0735371,0.0550435,0.0712755,-0.0928413,0.146539,-0.124241,-0.080129,0.00938416,0.0370026,-0.0803757,-0.00881195,-0.0223923,-0.00236511,0.0259781,-0.178604,-9.97986,0.0489426,0.0704575,0.0302887,0.981178,0.0038147,0.0167084,-0.0723648,0.037384
5,4,10.0097,0.000610352,0.000915527,-2.42653,0.0565965,-0.0741475,0.0547383,0.0700548,-0.0919257,0.145013,-0.124546,-0.0807394,0.0135422,-0.0204849,-0.100975,-0.00293732,-0.0217438,-0.00423431,0.0224304,-0.117912,-9.97986,0.0469208,0.0373077,0.0325012,0.991135,0.0075531,0.0211716,-0.0753403,0.0382233
5,5,10.0097,0.000610352,0.000762939,-2.42592,0.0572069,-0.0729268,0.0544332,0.072191,-0.0916206,0.146234,-0.124546,-0.0807394,0.00812531,-0.114288,-0.137558,0.00892639,-0.0244141,-0.0146484,0.0212097,-0.0718307,-9.97986,0.0559235,0.133743,0.032959,0.983963,0.0100708,0.0228882,-0.0818634,0.0416183
5,6,10.0097,0,-0.000457764,-2.42562,0.0541551,-0.0729268,0.0547383,0.07036,-0.0913154,0.145624,-0.124851,-0.0822652,0.00526428,-0.127182,-0.156212,0.00984192,-0.0262833,-0.0219727,0.0216293,-0.04673,-9.97986,0.0531387,0.145912,0.0281525,0.97374,0.00957489,0.0283432,-0.0875092,0.0408554
5,7,10.0097,0.000305176,0,-2.42684,0.0565965,-0.0744527,0.054128,0.0700548,-0.0928413,0.144708,-0.125156,-0.0837911,0.00995636,-0.142937,-0.159721,0.0123978,-0.0218201,-0.0168991,0.0216293,-0.0284958,-9.97986,0.0517654,-0.0173187,0.0299835,0.956383,0.0186539,0.0391769,-0.0902557,0.0408554
5,8,10.0097,0.000305176,-0.00167847,-2.42592,0.0550706,-0.0756734,0.0538228,0.0688341,-0.0919257,0.146539,-0.124851,-0.0840963,0.00915527,-0.144539,-0.131645,0.0136185,-0.0268936,-0.0191116,0.0149918,-0.0120163,-9.97986,0.049324,-0.115471,0.0256729,0.927238,0.0170135,0.0371933,-0.0912094,0.0439453
5,9,10.0097,0.000610352,-0.00259399,-2.42837,0.0538499,-0.075063,0.0544332,0.0697496,-0.0937568,0.143487,-0.124851,-0.0844015,0.0141525,-0.115623,-0.0898361,0.0127792,-0.0229645,-0.021019,0.0139999,-0.0069809,-9.97986,0.0529861,-0.0951385,0.0249481,0.896263,0.0205994,0.043602,-0.0816727,0.0425339
6,0,10.0097,0.00152588,-0.00457764,-2.42806,0.0544603,-0.0756734,0.0516866,0.0673082,-0.0952827,0.145318,-0.127598,-0.0868429,0.00564575,-0.0988007,-0.0577927,0.0101089,-0.0224686,-0.0213242,0.0146866,0.00377655,-9.97986,0.0481796,-0.108223,0.0234222,0.84816,0.0217438,0.0352097,-0.0750732,0.0417328
6,1,10.0097,0.000610352,-0.00457764,-2.42837,0.0541551,-0.0753682,0.0529073,0.0682238,-0.0943672,0.143792,-0.126987,-0.0877584,0.0107574,-0.067482,-0.0318527,0.0120163,-0.0218582,-0.0204086,0.0203323,0.0195313,-9.97986,0.0426483,-0.0690842,0.0234604,0.787888,0.0245667,0.0273514,-0.0709915,0.0392151
6,2,10.0097,0.00244141,-0.00671387,-2.42989,0.0532396,-0.0762837,0.0519917,0.0685289,-0.0934516,0.143792,-0.127903,-0.0880636,0.00938416,-0.0452042,-0.0169373,0.00843048,-0.0253677,-0.0223923,0.0302505,0.0380707,-9.97986,0.0376129,0.0156021,0.0195694,0.71476,0.0325394,0.0193787,-0.058403,0.0411606
6,3,10.0097,-0.000305176,-0.00717163,-2.42806,0.0544603,-0.0756734,0.0516866,0.0676134,-0.0961982,0.144098,-0.128513,-0.0883688,0.00614166,-0.0437546,-0.0094223,0.0117111,-0.0265121,-0.0257492,0.0290298,0.0421143,-9.97986,0.0299072,0.0320053,0.0125885,0.632553,0.0302124,0.0141907,-0.053215,0.0375366
6,4,10.0097,-0.000610352,-0.00793457,-2.42959,0.0538499,-0.0744527,0.0516866,0.0688341,-0.0946723,0.144403,-0.127903,-0.0889791,0.00724792,-0.0235367,0.00141144,0.02285,-0.0239563,-0.0249863,0.0305939,0.0438309,-9.97986,0.022049,0.0576401,0.00965118,0.557899,0.0341415,0.00507355,-0.0482178,0.0386429
6,5,10.0097,0.000305176,-0.00869751,-2.42867,0.0538499,-0.0762837,0.0526021,0.0685289,-0.0946723,0.143487,-0.128208,-0.0892843,0.0120926,0,0.0133896,0.0212479,-0.0223541,-0.0273132,0.0336075,0.0540161,-9.97986,0.0140381,0.042038,0.0121307,0.463028,0.0357819,0.00888824,-0.0394821,0.0351715
6,6,10.0097,0.000610352,-0.0088501,-2.42806,0.0547655,-0.075063,0.0529073,0.0694445,-0.0931465,0.144708,-0.127598,-0.0889791,0.0110245,0.0139618,0.0311279,0.0258636,-0.0259399,-0.0305557,0.0310135,0.0564194,-9.97986,0.00450134,-0.0103378,0.00816345,0.364456,0.0364685,0.00858307,-0.0341415,0.0350952
6,7,10.0097,0.000610352,-0.00900269,-2.42684,0.0547655,-0.0738423,0.0535176,0.07036,-0.0928413,0.143792,-0.125461,-0.0874532,0.0118637,0.019722,0.0434494,0.0281143,-0.0279236,-0.0315857,0.0353241,0.0661087,-9.97986,0.00293732,-0.0208282,0.0102997,0.271416,0.0389481,0.0030899,-0.0260544,0.0392532
6,8,10.0097,0.000915527,-0.00961304,-2.42745,0.0535448,-0.0744527,0.0529073,0.0688341,-0.0934516,0.145624,-0.126377,-0.0865377,0.00911713,0.0336075,0.0514603,0.0231934,-0.0365067,-0.0359726,0.0315857,0.0756073,-9.97986,0.0043869,-0.012207,0.00747681,0.171585,0.0456619,0.0043869,-0.0166321,0.0365829
6,9,10.0097,0.000305176,-0.00762939,-2.42684,0.0550706,-0.075063,0.054128,0.0697496,-0.0922309,0.14776,-0.125766,-0.0859274,0.0102997,0.0640106,0.0562668,0.0231934,-0.0388336,-0.0370026,0.0229645,0.0648499,-9.97986,0.01194,0.0105286,0.00385284,0.0868607,0.044632,0.00778198,-0.00892639,0.0331497
7,0,10.0097,0.0012207,-0.00762939,-2.42531,0.0562914,-0.0735371,0.0553487,0.0712755,-0.0916206,0.14837,-0.124241,-0.0840963,0.00999451,0.0842285,0.0639343,0.0265121,-0.0394821,-0.0384903,0.0144196,0.0579453,-9.97986,0.00362396,0.00549316,0.00804901,0.0043869,0.043869,0.00167847,-0.00999451,0.0338364
7,1,10.0097,0.000915527,-0.00732422,-2.42501,0.055681,-0.073232,0.0556539,0.0712755,-0.0922309,0.145624,-0.124546,-0.0831808,0.0103378,0.0747681,0.0712967,0.0267792,-0.0398636,-0.039444,0.00896454,0.0825882,-9.97986,0.00484467,-0.0211334,0.00774384,-0.0646591,0.0485992,-0.00114441,0.00247955,0.033226
7,2,10.0097,0.0012207,-0.00656128,-2.4244,0.0559862,-0.0744527,0.054128,0.0715807,-0.0913154,0.148065,-0.122715,-0.0825704,0.00850677,0.0681686,0.0815201,0.0303268,-0.0374603,-0.042038,0.00988007,0.126381,-9.97986,0.00259399,-0.0094223,0.00984192,-0.116768,0.0543976,0.00366211,0.00770569,0.0333786
7,3,10.0097,0.00244141,-0.00457764,-2.4247,0.0569017,-0.0729268,0.0550435,0.0709703,-0.0922309,0.146844,-0.12363,-0.0822652,0.00915527,0.0740433,0.0950241,0.0257111,-0.0395966,-0.0406265,0.00862122,0.145798,-9.97986,-0.00144958,-0.00904083,0.00751495,-0.165291,0.0562668,-0.00152588,0.0131226,0.0357437
7,4,10.0097,0.00213623,-0.00366211,-2.42562,0.0565965,-0.0741475,0.0562642,0.0724962,-0.0910102,0.146234,-0.12363,-0.0819601,0.00724792,0.084877,0.110207,0.0253296,-0.0372314,-0.0424194,0.0104141,0.156174,-9.97986,-0.00946045,-0.0357437,0.015831,-0.204887,0.0531769,-0.00225067,0.0166321,0.0328827
7,5,10.0097,0.000915527,-0.00396729,-2.42501,0.0565965,-0.0744527,0.0553487,0.072191,-0.0910102,0.146234,-0.12302,-0.0816549,0.00400543,0.0989532,0.116997,0.0318909,-0.0247192,-0.0450516,0.0193787,0.163345,-9.97986,-0.00972748,-0.061264,0.0147629,-0.23407,0.0561523,-0.00839233,0.0199127,0.033493
7,6,10.0097,0,-0.00289917,-2.42623,0.0565965,-0.0729268,0.054128,0.0709703,-0.0931465,0.147455,-0.125461,-0.0822652,0.00350952,0.116425,0.129395,0.0256729,-0.0292587,-0.0413895,0.0164032,0.14122,-9.97986,-0.0117493,-0.0971222,0.016861,-0.254784,0.0531769,-0.000228882,0.0296402,0.0349045
7,7,10.0097,0.000915527,-0.00167847,-2.42653,0.0565965,-0.0744527,0.0544332,0.0700548,-0.0928413,0.143792,-0.126072,-0.0834859,0.00545502,0.141449,0.140305,0.0263596,-0.0257492,-0.0458145,0.0151825,0.107002,-9.97986,-0.0152206,-0.0854492,0.0208664,-0.260773,0.0518417,-0.000724792,0.0411606,0.0320816
7,8,10.0097,0.000305176,-0.000915527,-2.42684,0.0553758,-0.0744527,0.0535176,0.0706652,-0.0922309,0.147149,-0.125766,-0.0831808,0.00648499,0.176125,0.149841,0.0211334,-0.0245285,-0.0457764,0.0217056,0.0826263,-9.97986,-0.0219727,-0.0549316,0.0226974,-0.261688,0.0499725,-0.00125885,0.0423431,0.0287247
7,9,10.0097,-0.00152588,-0.000305176,-2.42714,0.0550706,-0.0747579,0.0535176,0.07036,-0.0931465,0.144708,-0.126377,-0.0844015,0.0114441,0.197678,0.161018,0.0266266,-0.0276184,-0.0466919,0.0189209,0.0455856,-9.97986,-0.026207,-0.0336838,0.024147,-0.263557,0.0476074,0.00125885,0.0505066,0.0304794
8,0,10.0097,0.000305176,0.000152588,-2.42867,0.0532396,-0.0753682,0.0495503,0.0697496,-0.094062,0.145318,-0.126987,-0.0850118,0.0105286,0.23159,0.166512,0.0258255,-0.0225449,-0.0490189,0.0195694,0.00087738,-9.97986,-0.0318527,-0.00564575,0.022583,-0.255623,0.0456619,0.00587463,0.0571442,0.0289536
8,1,10.0097,-0.000305176,0.00167847,-2.42867,0.0532396,-0.0762837,0.0532125,0.0676134,-0.0946723,0.142877,-0.126987,-0.0847066,0.0144196,0.261955,0.153427,0.0200272,-0.0218964,-0.0518417,0.0296021,-0.0177383,-9.97986,-0.0341034,0.00366211,0.0331497,-0.235062,0.0408936,0.00976563,0.0587463,0.0337982
8,2,10.0097,-0.000305176,0.00152588,-2.42867,0.0547655,-0.075063,0.0516866,0.0697496,-0.0949775,0.142877,-0.126987,-0.0859274,0.0113297,0.2108,0.127411,0.00701904,-0.0144577,-0.0543594,0.0257492,-0.0229263,-9.97986,-0.0260544,0.0128555,0.0264359,-0.213737,0.0395203,0.00835419,0.0654221,0.0325775
8,3,10.0097,0,0.000915527,-2.42928,0.0547655,-0.0753682,0.0516866,0.0691393,-0.0955879,0.141656,-0.126682,-0.0856222,0.00793457,0.11116,0.0946045,0.00797272,-0.0150681,-0.0533295,0.0291824,-0.0603485,-9.97986,-0.0146103,0.0392914,0.0352097,-0.1894,0.0382996,3.8147e-005,0.0666428,0.0305557
8,4,10.0097,-0.000610352,0.00152588,-2.42745,0.0547655,-0.0765889,0.0522969,0.0691393,-0.0943672,0.141351,-0.127903,-0.0865377,0.00812531,0.051651,0.0656128,0.0133133,-0.0126648,-0.0520706,0.0296783,-0.0637054,-9.97986,-0.00743866,0.043602,0.0351715,-0.172882,0.0364304,0.00278473,0.0695038,0.0330353
8,5,10.0097,0,0.00152588,-2.42989,0.0541551,-0.0753682,0.0532125,0.0682238,-0.0946723,0.141961,-0.127598,-0.0874532,0.01091,0.0418472,0.0490189,0.01297,-0.00728607,-0.0565338,0.0309372,-0.057106,-9.97986,0.00682831,0.0325394,0.0400543,-0.155869,0.0373077,0.000915527,0.07267,0.0312805
8,6,10.0097,0.00152588,0.00198364,-2.42928,0.0541551,-0.0759786,0.054128,0.0682238,-0.094062,0.141656,-0.127292,-0.085317,0.0140381,0.00087738,0.015564,0.0141525,0.00267029,-0.0584412,0.035553,-0.0604248,-9.97986,0.0243378,0.0357056,0.0400543,-0.1371,0.0344467,0.0025177,0.0728607,0.0343704
8,7,10.0097,0,0.00213623,-2.42714,0.0547655,-0.0744527,0.0535176,0.07036,-0.0943672,0.142877,-0.126987,-0.0847066,0.00946045,-0.056076,-0.0238419,0.0178909,0.00583649,-0.0608063,0.0281143,-0.0473022,-9.97986,0.0292206,0.0401306,0.0462723,-0.115013,0.0363922,-0.00286102,0.0727463,0.0374985
8,8,10.0097,0,0.0012207,-2.42745,0.0553758,-0.0753682,0.0535176,0.0694445,-0.0922309,0.143792,-0.126682,-0.0847066,0.00507355,-0.0886154,-0.0953293,0.0174713,0.00663757,-0.069046,0.0288773,-0.0135422,-9.97986,0.0401306,0.0221634,0.0456238,-0.113602,0.0348663,-0.00514984,0.0697708,0.0370026
8,9,10.0097,0,0.000915527,-2.42653,0.0559862,-0.0747579,0.0547383,0.0694445,-0.0928413,0.144098,-0.126682,-0.0840963,0.00183105,-0.101624,-0.152931,0.0178146,0.0117493,-0.0704193,0.0291061,0.00835419,-9.97986,0.0384903,0.0228882,0.0478363,-0.100517,0.0331879,-0.0094223,0.06073,0.0358582
9,0,10.0097,-0.000305176,0.000610352,-2.42562,0.0562914,-0.0747579,0.0547383,0.0709703,-0.0922309,0.145929,-0.123935,-0.0819601,-0.00221252,-0.0888062,-0.128555,0.0159836,0.0126266,-0.0693512,0.0236893,-0.00362396,-9.97986,0.0310898,0.0400162,0.0468826,-0.0946426,0.031662,-0.0175476,0.055809,0.03479
9,1,10.0097,0.000305176,0.00106812,-2.42531,0.0553758,-0.0726216,0.0553487,0.0715807,-0.0919257,0.147455,-0.123935,-0.0807394,0.00457764,-0.0658798,-0.0815582,0.0150681,0.0172806,-0.0667953,0.0189209,-0.0125504,-9.97986,0.0251389,0.0469208,0.0471878,-0.0921249,0.0352097,-0.0165176,0.0525284,0.0412369
9,2,10.0097,0.000610352,0.000457764,-2.42592,0.0562914,-0.0738423,0.0550435,0.0706652,-0.0928413,0.147149,-0.124546,-0.0813497,0.0186539,-0.0551987,-0.0417328,0.0190735,0.0137329,-0.0671005,0.0187683,-0.0126648,-9.97986,0.0136185,0.044136,0.0435257,-0.0938034,0.0341797,-0.0229645,0.0506592,0.0363159
9,3,10.0097,0.0012207,-0.000610352,-2.42531,0.055681,-0.0747579,0.0547383,0.072191,-0.0919257,0.147455,-0.124241,-0.0816549,0.0219345,-0.0432968,-0.0214767,0.0205994,0.0189972,-0.0605011,0.0114441,-0.0238037,-9.97986,0.0156784,0.0507355,0.042305,-0.0969315,0.0347519,-0.014534,0.0445175,0.034523
9,4,10.0097,0.000610352,0.0012207,-2.42501,0.0569017,-0.0741475,0.055959,0.0709703,-0.0925361,0.146539,-0.12363,-0.0810445,0.0126266,-0.0481415,-0.0169754,0.0162888,0.0187683,-0.0560379,0.00968933,-0.0283051,-9.97986,0.0215149,0.070076,0.0431061,-0.0893402,0.030899,-0.0181198,0.0428391,0.0372314
9,5,10.0097,0.000305176,0.000610352,-2.42501,0.0575121,-0.0738423,0.0544332,0.0715807,-0.0913154,0.14837,-0.12363,-0.0804342,0.0118637,-0.0428772,-0.0192261,0.0180054,0.0201035,-0.053215,0.0069046,-0.00961304,-9.97986,0.0226974,0.0856018,0.0364304,-0.0767136,0.033989,-0.0191498,0.0387955,0.0374222
9,6,10.0097,0.000915527,0.0012207,-2.42623,0.0550706,-0.0741475,0.0544332,0.0706652,-0.0916206,0.146234,-0.124851,-0.0813497,0.0137711,-0.0154877,-0.0119781,0.0177383,0.0180435,-0.0450897,0.00579834,0.0019455,-9.97986,0.0248718,0.0226593,0.0379181,-0.0629044,0.0354767,-0.0132751,0.032692,0.0371933
9,7,10.0097,0.00183105,0.00198364,-2.42623,0.0547655,-0.0738423,0.0547383,0.07036,-0.0925361,0.145624,-0.125461,-0.0825704,0.00770569,-0.00377655,-0.000572205,0.0185013,0.0177002,-0.0393295,0.00736237,0.0115585,-9.97986,0.0196838,-0.0682831,0.0245667,-0.0416565,0.0331116,-0.0175095,0.0258255,0.0389862
9,8,10.0097,0,0.00167847,-2.42714,0.0550706,-0.0738423,0.0529073,0.0691393,-0.0943672,0.149286,-0.125156,-0.0822652,0.0118637,0.0104904,0.00038147,0.0128174,0.0247192,-0.0390625,-0.00038147,0.0156403,-9.97986,0.0242615,-0.0681686,0.0254059,-0.0149918,0.0368881,-0.0276184,0.0260162,0.0390625
9,9,10.0097,0.000610352,0.00289917,-2.42806,0.0535448,-0.0759786,0.0544332,0.0697496,-0.0931465,0.145624,-0.125766,-0.0828756,0.0122833,0.0139236,0.00717163,0.0181961,0.0168991,-0.0255966,-0.000648499,0.0195313,-9.97986,0.0231552,-0.0246429,0.0249481,0.0112915,0.0386429,-0.0302887,0.0252151,0.0419617
10,0,10.0097,0,0.00289917,-2.42837,0.0532396,-0.0771993,0.0532125,0.0691393,-0.0949775,0.142877,-0.126987,-0.0850118,0.0106049,0.0172806,0.0146866,0.0148392,0.0183105,-0.0207138,-0.00106812,0.0242615,-9.97986,0.0238037,-0.0131226,0.0142288,0.0417709,0.0391388,-0.0316238,0.0202942,0.0365448
10,1,10.0097,0.00152588,0.00259399,-2.42806,0.0547655,-0.0756734,0.0516866,0.0688341,-0.0934516,0.145624,-0.127292,-0.0859274,0.00991821,0.0175476,0.0172806,0.017128,0.0201797,-0.00720978,0.00427246,0.0267029,-9.97986,0.0247955,-0.00499725,0.00907898,0.0746155,0.0336456,-0.0243378,0.0115585,0.0317764
10,2,10.0097,0.00213623,0.00335693,-2.42837,0.0532396,-0.0762837,0.0532125,0.0691393,-0.094062,0.143792,-0.126377,-0.085317,0.0109482,0.0192261,0.0212479,0.0156021,0.0185013,0.00499725,-0.000572205,0.0310516,-9.97986,0.0229645,0.00583649,-0.00144958,0.104523,0.0299454,-0.0127411,0.0101089,0.030365
10,3,10.0097,0.0012207,0.00320435,-2.42928,0.0541551,-0.075063,0.0510762,0.0691393,-0.095893,0.143182,-0.126987,-0.085317,0.0139999,0.0272369,0.0298691,0.0156784,0.0197601,0.00991821,0.00778198,0.0302887,-9.97986,0.0204086,0.0175095,-0.00720978,0.137253,0.0263214,-0.0104904,0.00850677,0.0217819
10,4,10.0097,0.000915527,0.00198364,-2.42989,0.0538499,-0.0762837,0.0522969,0.0685289,-0.094062,0.143487,-0.127903,-0.0850118,0.0165939,0.0255203,0.0265884,0.0143051,0.0164413,0.0103378,0.00953674,0.0333405,-9.97986,0.0150681,0.0169754,-0.0133514,0.160217,0.0241089,-0.0112915,0.00232697,0.0158691
10,5,10.0097,0.00152588,0.00198364,-2.42898,0.0550706,-0.0762837,0.0516866,0.0679186,-0.0937568,0.143487,-0.126987,-0.0868429,0.0119019,0.0279236,0.0299072,0.0163651,0.0153351,0.0101089,0.0120163,0.033989,-9.97986,0.0165176,0.00133514,-0.0222397,0.181313,0.0188065,-0.0101852,-0.00343323,0.0127792
10,6,10.0097,0.000610352,0.000610352,-2.42837,0.0550706,-0.0756734,0.0529073,0.0685289,-0.094062,0.143487,-0.126987,-0.0862325,0.0130463,0.0339508,0.0319672,0.0151825,0.0168991,0.0115204,0.00694275,0.0368118,-9.97986,0.0138092,0.0202942,-0.030899,0.193939,0.0167465,-0.0169754,-0.00778198,0.00431061
10,7,10.0097,0.00274658,0.00152588,-2.42653,0.055681,-0.0747579,0.0535176,0.0691393,-0.0934516,0.144708,-0.126377,-0.0844015,0.00644684,0.0326157,0.0339508,0.0166702,0.0205612,0.0226593,0.0127792,0.0418472,-9.97986,0.0132751,0.0422668,-0.0410461,0.211143,0.0164795,-0.0185394,-0.014267,0.00492096
10,8,10.0097,0.0012207,0.00137329,-2.42776,0.0553758,-0.0744527,0.054128,0.07036,-0.0943672,0.146234,-0.125766,-0.0850118,0.00980377,0.0392532,0.0325012,0.0117493,0.0218582,0.0275803,0.0177002,0.0393677,-9.97986,0.0182724,0.0379562,-0.0437164,0.220757,0.0109863,-0.0109863,-0.0188446,-0.0019455
10,9,10.0097,0.000610352,0.00106812,-2.42684,0.0550706,-0.0747579,0.0538228,0.0697496,-0.0922309,0.145624,-0.126072,-0.0828756,0.0116348,0.0429535,0.0361252,0.0157547,0.0216675,0.0362396,0.0183105,0.0379181,-9.97986,0.0141525,0.030899,-0.0466919,0.228119,0.0113678,0.000343323,-0.0203705,0.00106812
11,0,10.0097,0.0012207,0.000762939,-2.42409,0.0572069,-0.0747579,0.054128,0.0718859,-0.0928413,0.146539,-0.124241,-0.0816549,0.0139618,0.0408554,0.0373459,0.0141525,0.0287628,0.0424957,0.025444,0.0394058,-9.97986,0.0164032,0.0159073,-0.0540924,0.230713,0.0107574,0.0185394,-0.0235367,0.00110626
11,1,10.0097,0.000610352,0.000762939,-2.42562,0.0562914,-0.0735371,0.0550435,0.072191,-0.0925361,0.147149,-0.124851,-0.0810445,0.0104141,0.0404358,0.0369263,0.0120163,0.0303268,0.0405502,0.0290298,0.0382996,-9.97986,0.00881195,0.0558853,-0.0548935,0.242577,0.0121307,0.0314713,-0.0216675,-0.00267029
11,2,10.0097,0,0.000762939,-2.42531,0.0565965,-0.0735371,0.0553487,0.0709703,-0.0910102,0.147455,-0.124241,-0.0813497,0.00804901,0.0444412,0.0381088,0.0141525,0.0312042,0.0562286,0.0275421,0.0365067,-9.97986,0.0118637,0.0947952,-0.0520325,0.250092,0.0127029,0.043602,-0.0191879,-0.0030899
11,3,10.0097,0.000915527,0.000457764,-2.4247,0.0565965,-0.0735371,0.0535176,0.0709703,-0.0925361,0.146234,-0.124241,-0.0810445,0.0111771,0.0444794,0.0336838,0.0111008,0.0352478,0.0624466,0.0296021,0.0397491,-9.97986,0.00740051,0.052948,-0.0546265,0.251656,0.0109863,0.0540924,-0.0270081,-0.00289917
11,4,10.0097,0.00152588,0.00152588,-2.42531,0.0562914,-0.0747579,0.054128,0.072191,-0.0922309,0.145929,-0.124241,-0.0807394,0.0157166,0.0437546,0.0379562,0.0134277,0.0308228,0.0699997,0.0317764,0.0347519,-9.97986,0.0125885,0.0291443,-0.0518036,0.259514,0.0112915,0.0484848,-0.0222015,-0.00205994
11,5,10.0097,0.00305176,0.000915527,-2.42409,0.055681,-0.0741475,0.054128,0.0709703,-0.0913154,0.14776,-0.124546,-0.0804342,0.00629425,0.0402832,0.0356293,0.0138474,0.0356674,0.0795746,0.0368881,0.0382996,-9.97986,0.0115585,0.0169373,-0.0499344,0.260887,0.0082016,0.0383759,-0.0222397,-0.00267029
11,6,10.0097,0.000610352,0.000610352,-2.42592,0.0553758,-0.0738423,0.054128,0.0706652,-0.0928413,0.145929,-0.123935,-0.0810445,0.00667572,0.0418854,0.0375748,0.00988007,0.0320816,0.0832748,0.0362015,0.033226,-9.97986,0.0101089,-0.0181198,-0.0421906,0.26989,0.00385284,0.0257492,-0.0236511,-0.001297
11,7,10.0097,0.000915527,0.00183105,-2.42623,0.055681,-0.0741475,0.0544332,0.0706652,-0.0928413,0.145624,-0.124851,-0.0825704,0.00205994,0.0410843,0.033226,0.0144577,0.0339508,0.0877762,0.0449753,0.0387955,-9.97986,0.0104904,-0.0462341,-0.0397491,0.282364,0.00762939,0.0164795,-0.0227737,0.00671387
11,8,10.0097,-0.000610352,0.0012207,-2.42745,0.0550706,-0.0738423,0.0547383,0.0697496,-0.0925361,0.146234,-0.126072,-0.0834859,0.00511169,0.0380707,0.0320816,0.01091,0.0323105,0.0903702,0.0430679,0.0365448,-9.97986,0.0143814,-0.0379181,-0.028038,0.297089,0.00362396,0.0162125,-0.0209808,0.0121307
11,9,10.0097,0.000610352,0.000915527,-2.42837,0.0559862,-0.0747579,0.054128,0.07036,-0.0928413,0.145013,-0.126682,-0.0837911,0.0112152,0.0346375,0.030632,0.0137711,0.0246429,0.0916672,0.0407028,0.031395,-9.97986,0.0100708,-0.0333023,-0.0038147,0.309486,0.0030899,0.0114059,-0.0206375,0.0126266
12,0,10.0097,-0.000915527,0.00152588,-2.42959,0.0550706,-0.0756734,0.054128,0.0691393,-0.0937568,0.143792,-0.127292,-0.0856222,0.0154495,0.0386429,0.0325394,0.00747681,0.0362778,0.0915909,0.0390625,0.0410461,-9.97986,0.0142288,-0.0260544,0.0402451,0.320053,0.00732422,0.0206375,-0.0147629,0.0186539
12,1,10.0097,0.000610352,0.000762939,-2.42837,0.0553758,-0.075063,0.054128,0.0688341,-0.0937568,0.144098,-0.126682,-0.0859274,0.0154495,0.0387955,0.0338364,0.01194,0.032959,0.0870132,0.0315094,0.0318527,-9.97986,0.00541687,-0.0250626,0.0899124,0.334969,0.0031662,0.0202179,-0.00988007,0.0242233
12,2,10.0097,0.000610352,0.000762939,-2.42684,0.0544603,-0.0759786,0.0529073,0.0688341,-0.0943672,0.145318,-0.127292,-0.085317,0.0144196,0.0395203,0.0278091,0.0138474,0.0312042,0.0899124,0.0292206,0.0403595,-9.97986,0.00869751,-0.0185776,0.125046,0.348701,0.00270844,0.019722,-0.010376,0.0284958
12,3,10.0097,0.000610352,0.00198364,-2.42928,0.0550706,-0.0753682,0.0526021,0.0682238,-0.094062,0.144098,-0.127292,-0.085317,0.0218201,0.0373459,0.026207,0.0114441,0.0292587,0.0882339,0.0282669,0.0360489,-9.97986,0.00823975,-0.0162888,0.144196,0.364418,0.00164032,0.0203323,-0.00766754,0.0356293
12,4,10.0097,0.00213623,0.00106812,-2.42989,0.0544603,-0.0756734,0.0529073,0.0691393,-0.0955879,0.144708,-0.126682,-0.0859274,0.0249481,0.0386047,0.0312424,0.0139618,0.0344467,0.0907135,0.0276566,0.0415421,-9.97986,0.00705719,-0.0109863,0.149498,0.380745,-0.00347137,0.0231171,-0.000114441,0.0399017
12,5,10.0097,0,0.00167847,-2.42837,0.0535448,-0.0762837,0.0526021,0.0679186,-0.0943672,0.143182,-0.127292,-0.0865377,0.0211716,0.0358582,0.0283813,0.0115585,0.0398636,0.0872803,0.0279236,0.0401306,-9.97986,0.0115204,-0.012207,0.150032,0.398827,-0.00038147,0.0169373,0.00732422,0.0481033
12,6,10.0097,0.00244141,0.000762939,-2.42837,0.0547655,-0.0753682,0.0529073,0.0697496,-0.0949775,0.144403,-0.126987,-0.0850118,0.00293732,0.0434875,0.026474,0.011673,0.0414276,0.0871277,0.0292969,0.0393677,-9.97986,0.0148773,-0.00999451,0.155373,0.409317,-0.00396729,0.0112534,0.0122452,0.0517273
12,7,10.0097,0.000915527,0.00106812,-2.42837,0.0550706,-0.075063,0.0529073,0.0697496,-0.094062,0.145013,-0.126987,-0.0850118,-0.00869751,0.0374603,0.0268555,0.0104141,0.0448608,0.0815201,0.0276947,0.0388336,-9.97986,0.0113678,-0.00854492,0.149002,0.425873,-0.0069809,0.000190735,0.0200653,0.0514603
12,8,10.0097,0.00183105,0.00167847,-2.42714,0.0538499,-0.0747579,0.0532125,0.0685289,-0.0913154,0.144708,-0.125461,-0.0844015,-0.0115967,0.0390244,0.0285339,0.0134277,0.0567627,0.0823212,0.0271606,0.0340652,-9.97986,0.00843048,-0.0109482,0.147018,0.439148,-0.00156403,-0.00183105,0.0295258,0.0606537
12,9,10.0097,-0.000610352,0.000762939,-2.42684,0.0562914,-0.0738423,0.0535176,0.0694445,-0.0931465,0.145929,-0.125461,-0.0828756,-0.0117111,0.0400925,0.0211334,0.0117874,0.0637817,0.0805664,0.0251389,0.0374222,-9.97986,0.0141144,-0.0175858,0.157127,0.448112,-0.00862122,-0.000114441,0.0387573,0.0621796
13,0,10.0097,0.000610352,0.0012207,-2.42562,0.0565965,-0.0747579,0.0547383,0.07036,-0.0916206,0.147455,-0.124546,-0.0813497,0.00106812,0.0391388,0.0263977,0.0124359,0.0761414,0.0771332,0.0261688,0.0329971,-9.97986,0.0109863,-0.0172424,0.176849,0.454597,0.000915527,-0.00148773,0.0428772,0.0728226
13,1,10.0097,0.000305176,0.000457764,-2.42501,0.055681,-0.0744527,0.054128,0.0709703,-0.0919257,0.147455,-0.124241,-0.0816549,0.00453949,0.0374985,0.0219345,0.0123215,0.087471,0.0751114,0.0269699,0.0200272,-9.97986,0.0214005,-0.0226593,0.208321,0.449181,0.00137329,0.00087738,0.0537491,0.0819397
13,2,10.0097,0.000915527,0.000152588,-2.42501,0.0559862,-0.0747579,0.055959,0.0706652,-0.0922309,0.146539,-0.124546,-0.0810445,0.00087738,0.0344467,0.0257492,0.0157928,0.0878143,0.0770187,0.0239563,0.0157928,-9.97986,0.0147629,-0.0273514,0.236664,0.446243,0.00232697,0.000228882,0.0595474,0.0998688
13,3,10.0097,0.000610352,-0.000152588,-2.4244,0.0559862,-0.0735371,0.0556539,0.0715807,-0.0913154,0.146539,-0.12363,-0.0807394,0.00102997,0.0381851,0.0227737,0.0135422,0.0893021,0.0756073,0.0211716,0.0218201,-9.97986,0.0109863,-0.0193024,0.269318,0.428734,-0.00213623,-0.00305176,0.0603485,0.111046
13,4,10.0097,0,-0.0012207,-2.4244,0.0565965,-0.0747579,0.0553487,0.0715807,-0.0916206,0.14776,-0.12363,-0.0816549,0.00965118,0.0374603,0.0244141,0.0135422,0.0942993,0.0759888,0.0189972,0.0202179,-9.97986,0.00854492,-0.0168991,0.289841,0.41523,0.00221252,-0.00343323,0.0627136,0.130959
13,5,10.0097,-0.000305176,-0.0012207,-2.42592,0.0559862,-0.0738423,0.0550435,0.0715807,-0.0916206,0.145929,-0.124546,-0.0807394,0.0309753,0.0353622,0.0206757,0.0174332,0.106812,0.0652695,0.0186157,0.0166702,-9.97986,0.00980377,-0.0207138,0.297737,0.402718,-0.00228882,-0.000228882,0.0730896,0.145645
13,6,10.0097,0,-0.00167847,-2.42531,0.0553758,-0.075063,0.0538228,0.07036,-0.0910102,0.146234,-0.126072,-0.0828756,0.0440598,0.0342178,0.0188828,0.0141525,0.105476,0.0643921,0.0167084,0.0165558,-9.97986,0.0117111,-0.0169373,0.293007,0.375595,0.000495911,-0.00453949,0.0745773,0.160065
13,7,10.0097,0.000305176,-0.00198364,-2.42653,0.0550706,-0.0756734,0.0544332,0.0697496,-0.0931465,0.144403,-0.124851,-0.0834859,0.0354004,0.0349808,0.0242996,0.0147629,0.112228,0.0590897,0.0169754,0.0131607,-9.97986,0.00919342,-0.0200272,0.281944,0.344238,-0.000305176,-0.00400543,0.0785828,0.169868
13,8,10.0097,0.00152588,-0.00289917,-2.42745,0.0553758,-0.0753682,0.0532125,0.0691393,-0.0946723,0.144708,-0.124851,-0.0837911,0.0389862,0.0333786,0.021019,0.0139618,0.104675,0.0468445,0.0134277,0.0157166,-9.97986,0.00320435,-0.0170898,0.26226,0.311203,-0.0044632,-0.0101471,0.0775909,0.178146
13,9,10.0097,0.00213623,-0.00244141,-2.42745,0.0547655,-0.075063,0.0532125,0.0694445,-0.0931465,0.145013,-0.125766,-0.0847066,0.0325394,0.0364304,0.0244522,0.0180817,0.109253,0.0383759,0.0153732,0.0212097,-9.97986,-0.000648499,-0.0126266,0.240479,0.280495,-0.00160217,-0.010643,0.0791931,0.180435
14,0,10.0097,-0.000915527,-0.00366211,-2.42806,0.0541551,-0.0759786,0.0513814,0.0639513,-0.0949775,0.143792,-0.126377,-0.0874532,0.00202179,0.0336456,0.0240326,0.0126266,0.103989,0.0219345,0.0109482,0.0276184,-9.97986,-0.0141144,-0.0166702,0.214958,0.240517,-0.00328064,-0.0181198,0.0741577,0.186157
14,1,10.0097,-0.000305176,-0.00396729,-2.42776,0.0526292,-0.0765889,0.0519917,0.0679186,-0.0937568,0.143792,-0.126987,-0.0871481,-0.0109863,0.0346756,0.021286,0.0112915,0.0962067,0.0069046,0.00732422,0.031929,-9.97986,-0.021019,-0.0250244,0.181427,0.201569,-0.00816345,-0.0190353,0.0747681,0.176773
14,2,10.0097,-0.000915527,-0.00411987,-2.42928,0.0538499,-0.0759786,0.0519917,0.0688341,-0.0949775,0.143487,-0.127598,-0.0874532,-0.0327301,0.0333405,0.0201035,0.00720978,0.0970459,0.000114441,0.0100708,0.0376892,-9.97986,-0.0219727,-0.021019,0.149727,0.167465,-0.00946045,-0.0152206,0.0764084,0.131531
14,3,10.0097,-0.000305176,-0.00305176,-2.42837,0.0538499,-0.0756734,0.0513814,0.0688341,-0.0946723,0.142572,-0.126682,-0.0874532,-0.0384521,0.0337219,0.0144577,0.0104141,0.0946426,-0.0166702,0.00312805,0.0420761,-9.97986,-0.0266647,-0.0170135,0.114708,0.13237,-0.00583649,-0.0169754,0.0748062,0.0794601
14,4,10.0097,0.000610352,-0.00473022,-2.42837,0.0535448,-0.0756734,0.0513814,0.0694445,-0.0937568,0.142877,-0.127292,-0.0880636,-0.0294876,0.0357056,0.0192261,0.0127792,0.090065,-0.0260925,0.00530243,0.0466156,-9.97986,-0.0140381,-0.0222778,0.0671768,0.109138,-0.0101471,-0.0154114,0.0746155,0.0365067
14,5,10.0097,0.000610352,-0.00289917,-2.42806,0.0541551,-0.0756734,0.0513814,0.0685289,-0.0946723,0.142572,-0.128513,-0.0883688,-0.0121689,0.0332642,0.0183487,0.0103378,0.088768,-0.0376511,0.00324249,0.0415802,-9.97986,0.00549316,-0.0208282,0.016861,0.0784302,-0.0107574,-0.0149536,0.0748825,-0.00461578
14,6,10.0097,-0.000610352,-0.00305176,-2.42776,0.0550706,-0.0756734,0.0519917,0.0697496,-0.0928413,0.142877,-0.126987,-0.0868429,-0.0094223,0.0318909,0.0250244,0.0127792,0.0885391,-0.0461578,0.00614166,0.0435257,-9.97986,0.00537872,-0.0236511,-0.0321198,0.0512695,-0.0112534,-0.016098,0.0751114,-0.0488663
14,7,10.0097,0.00152588,-0.00244141,-2.42776,0.0562914,-0.0747579,0.0516866,0.0700548,-0.0943672,0.143487,-0.126377,-0.0847066,-0.00389099,0.0328064,0.022049,0.0125885,0.0827408,-0.0612259,0.00431061,0.042038,-9.97986,0.0101471,-0.0231552,-0.0767136,0.0244904,-0.0147629,-0.022583,0.0766754,-0.0839615
14,8,10.0097,0.000915527,-0.00274658,-2.42867,0.0553758,-0.0744527,0.0519917,0.0694445,-0.0928413,0.144403,-0.125156,-0.0850118,0.0126648,0.0350571,0.0205612,0.0131607,0.0784683,-0.0728226,0.00610352,0.0400162,-9.97986,0.00663757,-0.0252533,-0.115166,-0.0126648,-0.0115204,-0.0223923,0.0736237,-0.116501
14,9,10.0097,-0.000305176,-0.00198364,-2.42592,0.0553758,-0.0738423,0.0532125,0.0694445,-0.0934516,0.143487,-0.126377,-0.0840963,0.0199127,0.0387192,0.0199509,0.0133514,0.0703812,-0.0868225,0.00591278,0.0374222,-9.97986,0.0105667,-0.028801,-0.144501,-0.0349426,-0.00530243,-0.0165939,0.0773621,-0.131645
15,0,10.0097,-0.00213623,-0.00305176,-2.42501,0.0562914,-0.0735371,0.0544332,0.0712755,-0.0922309,0.146539,-0.12363,-0.0825704,0.00789642,0.0368118,0.0235367,0.014534,0.0604248,-0.102348,0.00179291,0.0214767,-9.97986,-0.00179291,-0.0266266,-0.168915,-0.0675583,-0.00762939,-0.021019,0.0730133,-0.148811
15,1,10.0097,0.000610352,-0.0038147,-2.42867,0.0562914,-0.0744527,0.0544332,0.0706652,-0.090705,0.147149,-0.125156,-0.0822652,0.0160599,0.0366974,0.0283432,0.0187302,0.0553131,-0.118637,0.00732422,0.00320435,-9.97986,-0.00854492,-0.0232697,-0.172501,-0.10849,-0.010643,-0.014534,0.0743866,-0.158653
15,2,10.0097,0.0012207,-0.00366211,-2.4247,0.0562914,-0.0741475,0.054128,0.0706652,-0.0919257,0.146539,-0.124851,-0.0822652,0.0330353,0.042305,0.0309753,0.025177,0.049057,-0.133209,-0.0018692,-0.0019455,-9.97986,-0.0226974,-0.0249863,-0.181351,-0.143356,-0.0128174,-0.014534,0.0728607,-0.169258
15,3,10.0097,0.000610352,-0.00366211,-2.42562,0.0565965,-0.073232,0.0547383,0.0715807,-0.0916206,0.145929,-0.124546,-0.0822652,0.0278091,0.0451279,0.0323105,0.0203323,0.0499725,-0.142937,-0.00530243,-0.00793457,-9.97986,-0.0330734,-0.0279617,-0.186729,-0.186195,-0.011673,-0.0165176,0.0711441,-0.17334
15,4,10.0097,-0.000610352,-0.00350952,-2.42379,0.0578172,-0.0726216,0.0547383,0.07036,-0.090705,0.146844,-0.124241,-0.0819601,0.0328827,0.0376892,0.0281525,0.0205994,0.0507736,-0.151367,-0.000534058,-0.00980377,-9.97986,-0.0426483,-0.017128,-0.196571,-0.226059,-0.0120163,-0.0156784,0.0745773,-0.178146
15,5,10.0097,-0.000305176,-0.00396729,-2.42623,0.0565965,-0.0741475,0.054128,0.0731066,-0.0913154,0.147455,-0.123935,-0.0819601,0.0483322,0.0386047,0.0274658,0.0208282,0.0382233,-0.148048,-0.00793457,-0.014267,-9.97986,-0.0557327,-0.016098,-0.20752,-0.271339,-0.0104141,-0.016098,0.0745392,-0.180054
15,6,10.0097,0.000610352,-0.00350952,-2.42531,0.055681,-0.0747579,0.0529073,0.0697496,-0.0913154,0.145624,-0.123935,-0.0828756,0.0845718,0.0353241,0.0188065,0.0187683,0.0484848,-0.153008,-0.000915527,-0.0120926,-9.97986,-0.0611115,-0.019455,-0.225296,-0.312386,-0.00701904,-0.0134659,0.0709534,-0.180092
15,7,10.0097,0.000305176,-0.00427246,-2.42714,0.0544603,-0.0741475,0.0532125,0.07036,-0.0925361,0.145318,-0.124851,-0.0837911,0.109901,0.0281525,0.0158691,0.0198364,0.0585556,-0.141335,0.00247955,-0.0118637,-9.97986,-0.0617599,-0.0175476,-0.241737,-0.354729,-0.0094986,-0.0164413,0.0710297,-0.17952
15,8,10.0097,0.00152588,-0.00396729,-2.42592,0.0553758,-0.0747579,0.0529073,0.0700548,-0.0931465,0.146234,-0.125461,-0.0837911,0.0749588,0.0189209,0.0094986,0.014267,0.0660324,-0.133324,0.00385284,-0.011673,-9.97986,-0.0495911,-0.0237656,-0.259056,-0.396767,-0.00621796,-0.016861,0.0736618,-0.179138
15,9,10.0097,0.0012207,-0.00488281,-2.42653,0.055681,-0.0741475,0.0535176,0.0700548,-0.0937568,0.145318,-0.125461,-0.0847066,0.0229263,0.0162888,0.00431061,0.014267,0.0733566,-0.116959,0.00255585,-0.0116348,-9.97986,-0.0270844,-0.00720978,-0.281181,-0.435295,-0.00335693,-0.0173569,0.0673676,-0.172348
16,0,10.0097,0.000915527,-0.00366211,-2.42989,0.0541551,-0.0765889,0.0519917,0.0697496,-0.0946723,0.143182,-0.126987,-0.0874532,-0.00423431,0.0143051,-0.00492096,0.0106049,0.0748444,-0.0893784,0.00858307,-0.00705719,-9.97986,-0.018425,-0.00209808,-0.30571,-0.465775,-0.00335693,-0.0205612,0.0694656,-0.170822
16,1,10.0097,0.00274658,-0.00320435,-2.42837,0.0541551,-0.0759786,0.0516866,0.0676134,-0.0955879,0.144403,-0.127292,-0.0871481,-0.0309753,0.00671387,-0.0069809,0.00740051,0.0773621,-0.059433,0.00892639,-0.00473022,-9.97986,-0.0162888,-0.000915527,-0.318184,-0.498734,-0.001297,-0.015831,0.0718307,-0.166321
16,2,10.0097,0.0012207,-0.00274658,-2.42867,0.0535448,-0.0765889,0.0513814,0.0676134,-0.0946723,0.142877,-0.126682,-0.0874532,-0.046196,0.0037384,-0.0159454,0.00789642,0.0786209,-0.0322342,0.0101471,0.000114441,-9.97986,-0.0207901,0.00328064,-0.339088,-0.527,-0.00144958,-0.0208282,0.0682831,-0.158043
16,3,10.0097,0.000305176,-0.00274658,-2.42928,0.0538499,-0.0756734,0.0513814,0.0682238,-0.095893,0.144098,-0.126072,-0.0880636,-0.0496674,0.00366211,-0.0129318,0.00953674,0.0789642,-0.0256729,0.0138092,0.000839233,-9.97986,-0.0154877,0.00972748,-0.354996,-0.553513,0.00255585,-0.0182724,0.0674438,-0.156746
16,4,10.0097,-0.000305176,-0.00289917,-2.42867,0.0538499,-0.075063,0.0526021,0.0685289,-0.0928413,0.143182,-0.127292,-0.0874532,-0.0488281,0.00202179,-0.0151443,0.0069809,0.085144,-0.0157928,0.0162888,0.00331879,-9.97986,0.0163651,0.00423431,-0.367355,-0.575943,0.00331879,-0.0137329,0.0693512,-0.152092
16,5,10.0097,0.000305176,-0.00213623,-2.42898,0.0532396,-0.0778096,0.0513814,0.0691393,-0.0946723,0.143182,-0.127292,-0.0868429,-0.0415802,0.000953674,-0.0134277,0.00804901,0.0895309,-0.00701904,0.0117493,0.00709534,-9.97986,0.0557327,0.00957489,-0.369148,-0.588799,0.00587463,-0.0197601,0.0677872,-0.150375
16,6,10.0097,0.000305176,-0.00198364,-2.42684,0.0535448,-0.0753682,0.0513814,0.0700548,-0.094062,0.145013,-0.126377,-0.085317,-0.0124741,0.00144958,-0.0144196,0.0050354,0.0862122,0.00152588,0.0135803,0.0142288,-9.97986,0.0886536,0.0153351,-0.36808,-0.599098,0.00495911,-0.0208282,0.0689697,-0.142365
16,7,10.0097,0,-0.00198364,-2.42806,0.0544603,-0.0753682,0.0522969,0.0676134,-0.0937568,0.145013,-0.126987,-0.085317,0.00427246,0.000686646,-0.0156021,0.00339508,0.076561,0.00606537,0.010643,0.0145721,-9.97986,0.118141,0.0165939,-0.368843,-0.609818,0.00717163,-0.0271988,0.0669479,-0.136986
16,8,10.0097,0.0012207,-0.000610352,-2.42867,0.0553758,-0.0747579,0.0535176,0.0706652,-0.0925361,0.145013,-0.125766,-0.0840963,-0.0317383,0.00343323,-0.0125885,0.00553131,0.069809,0.00667572,0.0135803,0.019722,-9.97986,0.150719,0.0149155,-0.358582,-0.613441,0.00804901,-0.0274658,0.0652313,-0.133209
16,9,10.0097,0.000915527,0.000305176,-2.42562,0.0553758,-0.0738423,0.0544332,0.0700548,-0.0925361,0.146234,-0.125461,-0.0840963,-0.0555038,0.00328064,-0.0133133,0.00534058,0.059166,0.00991821,0.00968933,0.0247574,-9.97986,0.178719,0.0143051,-0.343666,-0.613861,0.00534058,-0.0214767,0.0589752,-0.132446
17,0,10.0097,-0.0012207,-0.000457764,-2.42531,0.0562914,-0.0741475,0.0562642,0.0712755,-0.0925361,0.146539,-0.124851,-0.0825704,-0.0516129,-0.00255585,-0.00888824,0.00282288,0.0381088,0.000495911,0.00804901,0.0272751,-9.97986,0.184326,0.0149155,-0.325508,-0.616074,0.00144958,-0.014534,0.0574112,-0.125122
17,1,10.0097,0.000305176,-0.000610352,-2.4244,0.0562914,-0.0744527,0.0556539,0.0697496,-0.0919257,0.146844,-0.124546,-0.0813497,-0.0379181,0.000991821,-0.00732422,0.00507355,0.0177765,0.00125885,0.00717163,0.0283051,-9.97986,0.15564,0.0166702,-0.310173,-0.618095,0.00347137,-0.0123215,0.0508499,-0.121918
17,2,10.0097,0.000610352,-0.000305176,-2.42531,0.0553758,-0.0735371,0.0565694,0.07036,-0.090705,0.145929,-0.124546,-0.0816549,-0.0139618,0.00480652,-0.00183105,0.00564575,0.00869751,-0.00511169,0.00419617,0.0240326,-9.97986,0.120201,0.0249863,-0.281944,-0.617638,-0.00282288,-0.00522614,0.0458527,-0.110168
17,3,10.0097,0,0.000610352,-2.42409,0.0569017,-0.0735371,0.0556539,0.0712755,-0.0900947,0.147455,-0.124241,-0.0804342,0.0223923,0.00255585,-0.000991821,0.00274658,-0.00476837,-0.0111008,0.0044632,0.0269699,-9.97986,0.105095,0.0178909,-0.259438,-0.616302,-0.00595093,0.00293732,0.0411606,-0.11055
17,4,10.0097,0,0.000152588,-2.42409,0.0559862,-0.0729268,0.055959,0.0715807,-0.0913154,0.145929,-0.12363,-0.0813497,0.0497055,0.00812531,0.00324249,0.00183105,-0.0223541,-0.0118637,-0.00125885,0.0237656,-9.97986,0.102844,0.0226212,-0.246544,-0.623589,-0.00564575,0.00209808,0.0357056,-0.110283
17,5,10.0097,0.0012207,0.000457764,-2.42714,0.0565965,-0.0735371,0.0556539,0.0712755,-0.0900947,0.147455,-0.12363,-0.0807394,0.0413513,0.0123596,0.00522614,0.00747681,-0.0299072,-0.0175858,0.00209808,0.0183868,-9.97986,0.120735,0.0326157,-0.225258,-0.618439,-0.00522614,0.00480652,0.0305176,-0.103073
17,6,10.0097,-0.00152588,0.000915527,-2.42623,0.0553758,-0.0744527,0.0550435,0.0697496,-0.0928413,0.145929,-0.124851,-0.0816549,0.0380325,0.0123215,0.00709534,0.00850677,-0.0333023,-0.0232697,-0.00404358,0.0154495,-9.97986,0.125122,0.0284576,-0.20813,-0.613823,-0.00778198,0.00709534,0.0299072,-0.10498
17,7,10.0097,-0.000610352,-0.000152588,-2.42745,0.0559862,-0.0735371,0.054128,0.0694445,-0.0925361,0.145624,-0.124851,-0.0822652,0.0511551,0.0177002,0.0122833,0.00652313,-0.0372696,-0.0279617,-0.00556946,0.0153351,-9.97986,0.137215,0.0236511,-0.18528,-0.606384,-0.00579834,0.0102997,0.0297928,-0.102196
17,8,10.0097,0.000915527,0.000762939,-2.42684,0.0550706,-0.0756734,0.054128,0.0706652,-0.0919257,0.147149,-0.124851,-0.0825704,0.0549698,0.0212479,0.014801,0.0106049,-0.0344086,-0.0303268,-0.0056076,0.0133514,-9.97986,0.132103,0.0222015,-0.167732,-0.599899,-0.00339508,0.0153732,0.0245285,-0.102806
17,9,10.0097,0.000610352,0.000762939,-2.42653,0.0550706,-0.0744527,0.0535176,0.0685289,-0.0934516,0.145929,-0.126377,-0.0840963,0.04776,0.0224686,0.0172424,0.0114059,-0.0259399,-0.0236893,-0.00823975,0.0125885,-9.97986,0.117378,0.0201416,-0.155144,-0.591888,-0.00389099,0.0191879,0.0263214,-0.0940704
18,0,10.0097,-0.000915527,0.000457764,-2.42928,0.0529344,-0.0744527,0.0538228,0.0676134,-0.0949775,0.143487,-0.126682,-0.0844015,0.0434875,0.0180054,0.0212097,0.0109863,-0.0183105,-0.0207138,-0.011673,0.0138855,-9.97986,0.0930023,0.0190735,-0.141716,-0.584297,-0.00488281,0.0114059,0.0242233,-0.0879669
18,1,10.0097,0.000610352,0,-2.42806,0.0547655,-0.0756734,0.054128,0.0688341,-0.0934516,0.145318,-0.126682,-0.0856222,0.0421143,0.0240326,0.0230408,0.0108719,-0.0152969,-0.0185394,-0.01091,0.019455,-9.97986,0.077095,0.0123978,-0.119629,-0.572586,-0.00347137,0.0118637,0.0221252,-0.0825119
18,2,10.0097,0.0012207,0.000457764,-2.42837,0.0547655,-0.075063,0.0532125,0.0697496,-0.0949775,0.143792,-0.128208,-0.0865377,0.0597763,0.0183487,0.021019,0.0110245,-0.0160217,-0.0128174,-0.0186157,0.0246048,-9.97986,0.0533676,0.0192642,-0.0897598,-0.55645,-0.00232697,0.0233459,0.02388,-0.0746918
18,3,10.0097,-0.000610352,0.000610352,-2.42898,0.0532396,-0.0756734,0.0519917,0.0685289,-0.0946723,0.144403,-0.127292,-0.0859274,0.0795364,0.0163651,0.016098,0.01091,-0.0126266,-0.0169373,-0.0143433,0.0282288,-9.97986,0.0505066,0.017662,-0.0671387,-0.537834,-0.00366211,0.0201416,0.0196838,-0.0678253
18,4,10.0097,0.0012207,0.00106812,-2.42928,0.0541551,-0.0759786,0.0526021,0.067003,-0.0949775,0.143487,-0.126682,-0.0868429,0.081749,0.0217056,0.0181961,0.00854492,-0.0131607,-0.017662,-0.0213242,0.0230026,-9.97986,0.0289536,0.0283051,-0.0440216,-0.516586,3.8147e-005,0.0236893,0.016098,-0.0606918
18,5,10.0097,0.000915527,0.000915527,-2.42928,0.0529344,-0.0756734,0.0519917,0.0673082,-0.0946723,0.143792,-0.127598,-0.0865377,0.0699615,0.0138092,0.0195694,0.00915527,-0.00747681,-0.014534,-0.0177765,0.0271606,-9.97986,0.00930786,0.0166321,-0.0310516,-0.496178,-0.00144958,0.0297928,0.00972748,-0.0619888
18,6,10.0097,0.000610352,0.00274658,-2.42776,0.0541551,-0.0747579,0.0529073,0.0685289,-0.0943672,0.144403,-0.126987,-0.085317,0.0511551,0.0203705,0.0200653,0.0075531,-0.00339508,-0.0222397,-0.0236893,0.0301361,-9.97986,-0.0101089,0.00328064,-0.00961304,-0.466309,0.00354767,0.0315094,0.00663757,-0.0588226
18,7,10.0097,0.00152588,0.00198364,-2.42867,0.0535448,-0.0759786,0.054128,0.0673082,-0.0934516,0.145318,-0.126072,-0.0837911,0.0339127,0.0139236,0.0209427,0.00274658,-0.000114441,-0.0183105,-0.0236511,0.0336456,-9.97986,-0.044632,0.0118637,0.00793457,-0.432816,0.0062561,0.0195694,0.0127029,-0.0535965
18,8,10.0097,-0.000610352,0.00335693,-2.42806,0.0547655,-0.0744527,0.0547383,0.0657823,-0.0931465,0.144403,-0.126377,-0.0834859,0.036087,0.0219727,0.0269318,0.00576019,0.000419617,-0.0115967,-0.0258255,0.0293732,-9.97986,-0.0549698,0.00904083,0.0284195,-0.403442,0.00801086,0.0172424,0.0104141,-0.0434113
18,9,10.0097,0.000305176,0.00259399,-2.42684,0.0559862,-0.0744527,0.054128,0.0694445,-0.0931465,0.145929,-0.124851,-0.0837911,0.0170898,0.0226593,0.0246048,0.00637054,-0.00038147,-0.0056076,-0.0266266,0.0255203,-9.97986,-0.0522995,0.000190735,0.0432587,-0.365219,0.0117874,0.010643,0.0104904,-0.0402451
19,0,10.0097,0.000610352,0.00320435,-2.42501,0.055681,-0.0729268,0.0565694,0.0709703,-0.0922309,0.146539,-0.124851,-0.0810445,-0.0030899,0.0235367,0.0274277,0.0102234,0.00396729,-0.0129318,-0.0271606,0.0186539,-9.97986,-0.0439072,0.00118256,0.0627899,-0.331726,0.0138474,0.00404358,0.013237,-0.0409698
19,1,10.0097,0.00213623,0.00366211,-2.42501,0.0569017,-0.0735371,0.0544332,0.0709703,-0.0919257,0.145929,-0.124546,-0.0813497,-0.0345993,0.0223541,0.027504,0.0104141,0.00278473,-0.00934601,-0.0243759,0.0127792,-9.97986,-0.0194168,0.0025177,0.0769043,-0.291443,0.0172806,-0.00415802,0.00980377,-0.0378418
19,2,10.0097,-0.000305176,0.0038147,-2.42501,0.0562914,-0.0741475,0.0535176,0.0697496,-0.0922309,0.146234,-0.124241,-0.0804342,-0.0873947,0.0211334,0.0307846,0.0101471,-0.000152588,-0.00911713,-0.0281906,0.00705719,-9.97986,-0.00240326,0.00793457,0.0894928,-0.255775,0.0136566,-0.0125122,0.00656128,-0.0304794
19,3,10.0097,0.000915527,0.0038147,-2.42501,0.0565965,-0.0735371,0.0544332,0.0700548,-0.0922309,0.146844,-0.124851,-0.080129,-0.118637,0.027504,0.03479,0.0141144,0.00541687,-0.00915527,-0.0250244,0.00976563,-9.97986,0.00343323,0.00659943,0.10601,-0.210304,0.0188065,-0.0149155,0.00507355,-0.0251389
19,4,10.0097,0.000305176,0.00396729,-2.42562,0.0562914,-0.073232,0.0556539,0.0715807,-0.0919257,0.14776,-0.123935,-0.0807394,-0.106735,0.0247955,0.0312042,0.012207,0.00587463,-0.00789642,-0.0273132,0.0153351,-9.97986,0.0141907,0.00488281,0.11734,-0.174675,0.0181961,-0.0203705,0.00923157,-0.0232315
19,5,10.0097,-0.0012207,0.00396729,-2.4247,0.0562914,-0.0738423,0.055959,0.0715807,-0.0900947,0.146844,-0.124851,-0.0798238,-0.0694656,0.0243378,0.0330734,0.00804901,0.0136185,-0.00576019,-0.026207,0.0162125,-9.97986,0.016098,0.00583649,0.132866,-0.127907,0.0227737,-0.0170135,0.0104523,-0.0162888
19,6,10.0097,-0.000915527,0.00396729,-2.42562,0.0565965,-0.0756734,0.0544332,0.0718859,-0.0903999,0.146234,-0.124851,-0.0810445,-0.0214767,0.0224686,0.0326538,0.0136185,0.0117111,-0.00701904,-0.022583,0.0159073,-9.97986,0.0175476,0.00137329,0.139275,-0.0873947,0.0187302,-0.0162506,0.0141144,-0.0147247
19,7,10.0097,0.000305176,0.00442505,-2.42623,0.0565965,-0.0744527,0.054128,0.07036,-0.0922309,0.145318,-0.125766,-0.0813497,0.0349045,0.0244904,0.0243378,0.0158691,0.0151825,-0.00423431,-0.0201035,0.0161362,-9.97986,0.0160599,0.00358582,0.152702,-0.043869,0.0217056,-0.0150681,0.0187683,-0.0127792
19,8,10.0097,-0.000915527,0.00427246,-2.42745,0.0553758,-0.0753682,0.0532125,0.07036,-0.0928413,0.144098,-0.125461,-0.0810445,0.0683594,0.0222015,0.0286484,0.0107574,0.0138092,-0.0038147,-0.0168228,0.0144958,-9.97986,0.0113297,-0.00160217,0.158958,-0.000419617,0.0233459,-0.0134659,0.0206375,-0.0130081
19,9,10.0097,0.0012207,0.00518799,-2.42898,0.0547655,-0.0756734,0.0547383,0.0700548,-0.0925361,0.145013,-0.126072,-0.0825704,0.0782776,0.0209808,0.0238037,0.0114441,0.0144958,0.00114441,-0.0216293,0.0162888,-9.97986,0.00682831,0.00297546,0.1688,0.0469208,0.0247574,-0.0115204,0.0270844,-0.0160599
20,0,10.0097,-0.000305176,0.00473022,-2.42959,0.0541551,-0.0747579,0.0526021,0.067003,-0.0946723,0.143792,-0.126072,-0.0850118,0.0481415,0.0172806,0.0164795,0.00324249,0.0131989,0.000839233,-0.0154877,0.020256,-9.97986,-0.00984192,-0.00701904,0.17189,0.0878525,0.0200653,-0.0112152,0.0336456,-0.0192261
20,1,10.0097,-0.000915527,0.00396729,-2.42837,0.0526292,-0.0756734,0.0529073,0.0691393,-0.0949775,0.143792,-0.127598,-0.0850118,0.0241852,0.0111008,0.0144196,0.00808716,0.0136566,-0.00118256,-0.0105286,0.020256,-9.97986,-0.00576019,-0.00656128,0.177345,0.143242,0.0199127,-0.012207,0.0431824,-0.0223923
20,2,10.0097,0.000305176,0.00457764,-2.42745,0.0538499,-0.0747579,0.0532125,0.0679186,-0.094062,0.143792,-0.126682,-0.0850118,0.0141907,0.0133133,0.0164795,0.00812531,0.0140762,-0.00572205,-0.00320435,0.0140762,-9.97986,-0.0123596,-0.00816345,0.181999,0.192299,0.0236893,-0.0110245,0.0547028,-0.0178146
20,3,10.0097,-0.000610352,0.00488281,-2.42776,0.0544603,-0.075063,0.0532125,0.0688341,-0.0946723,0.141656,-0.126682,-0.085317,0.0167084,0.00823975,0.0122452,0.00915527,0.0140762,-0.0101852,-0.00621796,0.0157928,-9.97986,-0.0151825,-0.00766754,0.180054,0.247078,0.0204086,-0.0123978,0.0596237,-0.0181198
20,4,10.0097,0.000305176,0.0050354,-2.42806,0.0538499,-0.0778096,0.0501607,0.0685289,-0.0949775,0.144708,-0.127292,-0.085317,0.0393295,0.0134277,0.0173569,0.0130081,0.0139618,-0.0107956,-0.00320435,0.018425,-9.97986,-0.0138474,-0.00541687,0.181656,0.304527,0.0201797,-0.01194,0.0625229,-0.0201416
20,5,10.0097,0,0.00473022,-2.42989,0.0541551,-0.0756734,0.0580953,0.0691393,-0.0946723,0.142572,-0.128513,-0.085317,0.0786209,0.0122833,0.019455,0.0128174,0.0183868,-0.00724792,-0.00125885,0.0125122,-9.97986,-0.0225449,-0.00591278,0.181351,0.356789,0.0186157,-0.0124359,0.0662231,-0.0179672
20,6,10.0097,0.0012207,0.00457764,-2.42867,0.0547655,-0.0747579,0.0516866,0.0694445,-0.0937568,0.143792,-0.126987,-0.0844015,0.0889587,0.0170898,0.0252914,0.0109863,0.0178909,-0.00606537,0.00205994,0.00106812,-9.97986,-0.0291061,-0.00839233,0.186958,0.415573,0.0176239,-0.0152206,0.0675201,-0.0214767
20,7,10.0097,0.000610352,0.0062561,-2.42714,0.0550706,-0.0756734,0.0535176,0.0688341,-0.0934516,0.143182,-0.126987,-0.0837911,0.091629,0.0153351,0.0199127,0.0115585,0.0177383,0.0037384,0.00221252,0.00247955,-9.97986,-0.0279999,-0.00637054,0.182686,0.478325,0.0195694,-0.0112915,0.0682068,-0.0244904
20,8,10.0097,-0.000610352,0.00579834,-2.42837,0.0553758,-0.0738423,0.0535176,0.0715807,-0.0934516,0.144708,-0.125461,-0.0828756,0.0856018,0.0100327,0.0154877,0.0173187,0.0167084,0.00637054,0.00240326,0.00377655,-9.97986,-0.00907898,-0.010376,0.174446,0.530243,0.0133133,-0.0124741,0.0669098,-0.0191879
20,9,10.0097,-0.000610352,0.0062561,-2.42684,0.055681,-0.075063,0.0526021,0.0709703,-0.0928413,0.145013,-0.125156,-0.0822652,0.0729752,0.00595093,0.0115585,0.0163651,0.021019,0.0168991,0.00778198,0.00289917,-9.97986,0.0163651,-0.0141144,0.168953,0.590515,0.0187302,-0.012207,0.0729752,-0.0183868
21,0,10.0097,0.00152588,0.00595093,-2.42562,0.0562914,-0.0735371,0.0544332,0.07036,-0.0925361,0.146539,-0.125156,-0.0795187,0.0396729,0.00461578,0.0109482,0.0106049,0.0204086,0.020752,0.0031662,0.00370026,-9.97986,0.0293732,-0.0155258,0.164642,0.649757,0.0238419,-0.0161743,0.0748825,-0.0196838
21,1,10.0097,0.000305176,0.00579834,-2.42531,0.0562914,-0.0747579,0.0532125,0.0709703,-0.0916206,0.146844,-0.123935,-0.0792135,0.00804901,0.00434875,0.00850677,0.0110245,0.0179672,0.0213242,-0.00133514,0.00614166,-9.97986,0.0357819,-0.0156021,0.153389,0.70385,0.0152588,-0.0135803,0.0775528,-0.02388
21,2,10.0097,0.000305176,0.00595093,-2.42531,0.0578172,-0.073232,0.0544332,0.0682238,-0.0931465,0.147149,-0.125156,-0.0792135,0.0019455,0.00537872,0.014267,0.0130081,0.0271988,0.0208282,-0.00484467,0.00320435,-9.97986,0.0575256,-0.0147629,0.147324,0.763168,0.0181961,-0.0131226,0.0790024,-0.0228119
21,3,10.0097,-0.000915527,0.00518799,-2.4247,0.0559862,-0.0738423,0.0544332,0.0712755,-0.0919257,0.146234,-0.123935,-0.0786031,-0.000686646,0.000724792,0.00984192,0.0130844,0.0274277,0.0121307,-0.00579834,0.0107193,-9.97986,0.0776291,-0.0259781,0.142708,0.816879,0.016098,-0.0127029,0.0820923,-0.0133896
21,4,10.0097,0.0012207,0.00610352,-2.42623,0.0559862,-0.0738423,0.0513814,0.07036,-0.0922309,0.145929,-0.124546,-0.080129,0.00289917,0.00606537,0.0122452,0.0173569,0.0299835,0.0128937,-0.00938416,0.0111008,-9.97986,0.0839615,-0.0218582,0.136414,0.866127,0.0165176,-0.0162125,0.0841904,-0.0139236
21,5,10.0097,0,0.00518799,-2.4244,0.0559862,-0.0747579,0.0547383,0.0731066,-0.0928413,0.145929,-0.124851,-0.0789083,0.00839233,0.00473022,0.0143433,0.0137711,0.0362396,0.00610352,-0.0115967,0.0197983,-9.97986,0.0715256,-0.0194931,0.126038,0.913239,0.0159454,-0.013504,0.0838089,-0.00648499
21,6,10.0097,0,0.00457764,-2.42745,0.0559862,-0.0726216,0.0529073,0.0700548,-0.0919257,0.146539,-0.124241,-0.0798238,0.0124359,0.00923157,0.0139618,0.0128174,0.0387192,-0.00267029,-0.0170135,0.019989,-9.97986,0.0536346,-0.0188446,0.122299,0.959663,0.0161743,-0.00995636,0.0910187,-0.00247955
21,7,10.0097,0.000610352,0.00396729,-2.42653,0.055681,-0.0747579,0.0538228,0.0712755,-0.0922309,0.146234,-0.125156,-0.0816549,0.0104904,0.00553131,0.0114822,0.00747681,0.0381851,-0.00205994,-0.0171661,0.0175095,-9.97986,0.0312805,-0.0251389,0.107994,0.990181,0.0137329,-0.0159836,0.0882339,-0.00175476
21,8,10.0097,0.00152588,0.00366211,-2.42623,0.0550706,-0.0747579,0.0535176,0.0676134,-0.0931465,0.144403,-0.124851,-0.0828756,0.00965118,0.00461578,0.0138092,0.0145721,0.0422668,-0.000114441,-0.0193024,0.0136566,-9.97986,0.023613,-0.022316,0.103188,1.02116,0.0160599,-0.014534,0.093956,-0.000152588
21,9,10.0097,0.000305176,0.00320435,-2.42776,0.0547655,-0.0744527,0.054128,0.0697496,-0.0937568,0.145929,-0.125766,-0.0840963,0.00198364,0.00923157,0.017662,0.013504,0.0432205,-0.00572205,-0.023613,0.0157547,-9.97986,0.0157166,-0.0185776,0.0963974,1.04298,0.0135422,-0.0167847,0.0934601,0.001297
22,0,10.0097,-0.00183105,0.00289917,-2.42898,0.0529344,-0.0753682,0.0522969,0.0679186,-0.0937568,0.143792,-0.126682,-0.0850118,-0.000648499,0.00793457,0.0168228,0.0136948,0.0429916,-0.0113678,-0.0236511,0.0139618,-9.97986,0.0127411,-0.0157547,0.0911713,1.05923,0.00762939,-0.0165176,0.0983429,0.0075531
22,1,10.0097,0,0.00152588,-2.42745,0.0547655,-0.0756734,0.0522969,0.0691393,-0.0949775,0.143792,-0.126072,-0.0862325,0.000267029,0.00976563,0.0196075,0.0109482,0.0483322,-0.0149536,-0.0221252,0.0178528,-9.97986,0.017662,-0.0134277,0.0859833,1.06369,0.00656128,-0.0165558,0.0935364,0.00953674
22,2,10.0097,0.0012207,0.000762939,-2.42867,0.0538499,-0.0759786,0.0522969,0.0676134,-0.0943672,0.144403,-0.127292,-0.0859274,-0.00648499,0.0130463,0.0186539,0.014534,0.0431824,-0.0146103,-0.0297928,0.0115204,-9.97986,0.0363159,-0.0190353,0.0787735,1.06422,0.00225067,-0.0224304,0.0911331,0.012207
22,3,10.0097,-0.000305176,-0.000305176,-2.42776,0.0529344,-0.0753682,0.0535176,0.0694445,-0.0955879,0.143487,-0.127292,-0.0868429,-0.00320435,0.0172806,0.0230026,0.014801,0.0445938,-0.0205231,-0.0320435,0.0167465,-9.97986,0.0564957,-0.0104523,0.0800705,1.05495,-0.00469208,-0.021553,0.0920486,0.0117874
22,4,10.0097,0.000305176,-0.00137329,-2.42806,0.0541551,-0.0762837,0.0526021,0.0691393,-0.0949775,0.144403,-0.126072,-0.0865377,0.0038147,0.0182724,0.0287247,0.0146103,0.0391769,-0.0196075,-0.0403214,0.013237,-9.97986,0.064888,-0.00827789,0.0731277,1.03516,-0.00331879,-0.0201035,0.0902939,0.0118256
22,5,10.0097,0.000305176,-0.00183105,-2.42898,0.0541551,-0.0762837,0.0522969,0.0679186,-0.095893,0.144403,-0.127598,-0.0874532,0.00720978,0.0226974,0.0235367,0.0112915,0.0426483,-0.0140762,-0.0373459,0.0107956,-9.97986,0.0542068,-0.0107193,0.071106,1.01326,-0.0125504,-0.0222778,0.08461,0.00659943
22,6,10.0097,0.000915527,-0.00320435,-2.4305,0.0538499,-0.0756734,0.054128,0.0688341,-0.0931465,0.144098,-0.127292,-0.0862325,0.0142288,0.0232315,0.0286102,0.00846863,0.0424576,-0.0191879,-0.037117,0.0144196,-9.97986,0.0389862,-0.00545502,0.0652695,0.979729,-0.0119781,-0.0233841,0.0823975,0.000343323
22,7,10.0097,0.000610352,-0.00305176,-2.42806,0.0544603,-0.075063,0.0529073,0.0685289,-0.0934516,0.144708,-0.126377,-0.0847066,0.00827789,0.0219345,0.0298309,0.0136566,0.0375748,-0.01091,-0.0327682,0.0109863,-9.97986,0.026207,-0.0082016,0.0654221,0.940094,-0.0111389,-0.0243378,0.0790024,-0.00904083
22,8,10.0097,0.00244141,-0.00335693,-2.42684,0.055681,-0.0747579,0.0544332,0.0700548,-0.0928413,0.144708,-0.126072,-0.0862325,0.00366211,0.0271988,0.0279999,0.0120544,0.0413895,-0.00854492,-0.0350189,0.0120544,-9.97986,0.0209427,-0.00549316,0.0576401,0.888863,-0.0154877,-0.02491,0.0738144,-0.0197983
22,9,10.0097,0.00152588,-0.00518799,-2.42684,0.0547655,-0.075063,0.0526021,0.0697496,-0.0931465,0.145318,-0.125156,-0.085317,0.00247955,0.0255966,0.0293732,0.0118256,0.0368881,0.00213623,-0.032196,0.00492096,-9.97986,0.0268936,-0.00488281,0.0492096,0.823631,-0.0218964,-0.0296402,0.0655365,-0.0284195
23,0,10.0097,0.00183105,-0.00671387,-2.42531,0.0572069,-0.0744527,0.0547383,0.0706652,-0.0910102,0.145624,-0.124851,-0.0837911,0.00320435,0.0252914,0.0245667,0.0152969,0.0406647,0.00888824,-0.0270844,0.00282288,-9.97986,0.0389099,-0.00553131,0.044899,0.746422,-0.0175095,-0.0291824,0.059166,-0.0353241
23,1,10.0097,-0.000305176,-0.00701904,-2.42379,0.0565965,-0.0729268,0.0550435,0.0706652,-0.0919257,0.145929,-0.124546,-0.0831808,0.00831604,0.0268936,0.0272751,0.0164413,0.0410461,0.00926971,-0.030098,0.00667572,-9.97986,0.0384903,-0.00808716,0.0447083,0.66925,-0.0135422,-0.0344086,0.0537491,-0.041008
23,2,10.0097,-0.000610352,-0.00747681,-2.42592,0.0562914,-0.0741475,0.0535176,0.0709703,-0.0922309,0.147149,-0.124851,-0.0828756,0.00221252,0.028801,0.026207,0.0144196,0.0413513,0.0104523,-0.0230789,0.00629425,-9.97986,0.0219727,-0.0115204,0.0405884,0.592346,-0.0112152,-0.0265121,0.045929,-0.0460815
23,3,10.0097,0.000915527,-0.00717163,-2.4244,0.0569017,-0.0738423,0.0547383,0.0697496,-0.0913154,0.145624,-0.123935,-0.0834859,-0.0147629,0.0287628,0.0307846,0.0136566,0.0403595,0.0122452,-0.02388,0.00743866,-9.97986,0.00179291,-0.0114441,0.0377655,0.513611,-0.00762939,-0.0285339,0.0376511,-0.0425339
23,4,10.0097,0.000610352,-0.00671387,-2.42531,0.0559862,-0.0735371,0.0544332,0.0691393,-0.0922309,0.145929,-0.124241,-0.0822652,-0.0287247,0.026207,0.0234222,0.0127411,0.0441742,0.0189972,-0.0156021,0.0118637,-9.97986,-0.01194,-0.00881195,0.0395966,0.439949,-0.00427246,-0.0317383,0.026741,-0.0457382
23,5,10.0097,0.000915527,-0.00717163,-2.42501,0.0569017,-0.0741475,0.0547383,0.07036,-0.0916206,0.146844,-0.123935,-0.0831808,-0.022049,0.0315475,0.0251007,0.0130844,0.0415039,0.0247574,-0.0170135,0.0175858,-9.97986,-0.0316238,-0.00331879,0.0327682,0.356522,0.00827789,-0.0296783,0.0170517,-0.0384521
23,6,10.0097,0.000610352,-0.00732422,-2.42562,0.0553758,-0.0747579,0.0547383,0.067003,-0.0925361,0.145624,-0.124241,-0.0847066,-0.02388,0.0302124,0.0267029,0.0132751,0.0443649,0.0321198,-0.00965118,0.0142288,-9.97986,-0.0465012,-0.00862122,0.0358582,0.278816,0.0159454,-0.0291443,0.00213623,-0.0281525
23,7,10.0097,0.000915527,-0.00747681,-2.42714,0.0565965,-0.0741475,0.054128,0.0691393,-0.0934516,0.146539,-0.125766,-0.0856222,-0.0248337,0.0259781,0.0296783,0.0135422,0.0419235,0.0354385,-0.000610352,0.0133133,-9.97986,-0.0532913,-0.00999451,0.0323486,0.206337,0.0221252,-0.0328827,-0.0102997,-0.0210571
23,8,10.0097,0.0012207,-0.00640869,-2.42714,0.0538499,-0.0741475,0.0544332,0.0691393,-0.0922309,0.145624,-0.125461,-0.0850118,-0.0214386,0.0299454,0.0268173,0.0114822,0.0370026,0.0437546,0.001297,0.0144577,-9.97986,-0.0489426,-0.0102234,0.0389862,0.139847,0.0320816,-0.0307846,-0.0231171,-0.0104141
23,9,10.0097,0.000610352,-0.00686646,-2.42684,0.0547655,-0.075063,0.0532125,0.0697496,-0.0925361,0.146234,-0.125461,-0.0868429,-0.0165939,0.0312424,0.0262451,0.0101852,0.0353622,0.0448608,0.00537872,0.014801,-9.97986,-0.0417328,0,0.0483704,0.0711441,0.0443268,-0.0318527,-0.0328445,0.00423431
24,0,10.0097,-0.000915527,-0.00701904,-2.42898,0.0544603,-0.075063,0.0544332,0.0688341,-0.0952827,0.144098,-0.126377,-0.0877584,-0.0276947,0.0294876,0.0263214,0.00854492,0.0362015,0.0486374,0.0113678,0.0119781,-9.97986,-0.0285721,0.00278473,0.0645828,0.00125885,0.053215,-0.0310898,-0.0437546,0.0152969
24,1,10.0097,0.00213623,-0.0062561,-2.42837,0.0529344,-0.0762837,0.0538228,0.0691393,-0.0943672,0.144098,-0.126987,-0.0877584,-0.0458145,0.0325775,0.0277328,0.0115585,0.0333023,0.0490952,0.0210571,0.0119781,-9.97986,-0.0139618,-0.00389099,0.0827026,-0.0605392,0.0653076,-0.0297928,-0.0601959,0.0366592
24,2,10.0097,0.0012207,-0.00686646,-2.42989,0.0535448,-0.0756734,0.0529073,0.0673082,-0.0955879,0.143182,-0.127292,-0.0880636,-0.0471878,0.0330353,0.0279999,0.013237,0.0299454,0.0630188,0.0316238,0.00816345,-9.97986,-0.0148392,0.00617981,0.102959,-0.126572,0.0738907,-0.0297546,-0.0733948,0.0449371
24,3,10.0097,0.0012207,-0.00549316,-2.42928,0.0541551,-0.075063,0.0538228,0.0691393,-0.0949775,0.143792,-0.127598,-0.0883688,-0.0342941,0.0321579,0.0325394,0.0116348,0.0281143,0.0676346,0.0426865,0.00495911,-9.97986,-0.0185776,0.00259399,0.126915,-0.182915,0.0775146,-0.0250626,-0.0821686,0.0609207
24,4,10.0097,0.000305176,-0.00579834,-2.42867,0.0538499,-0.0759786,0.0529073,0.0688341,-0.0949775,0.143792,-0.127903,-0.0886739,-0.0119781,0.0318909,0.0360489,0.010376,0.0250626,0.0772858,0.0551605,0.00968933,-9.97986,-0.0247955,0.000686646,0.151939,-0.232468,0.0885773,-0.0318909,-0.0965118,0.0800705
24,5,10.0097,0.00213623,-0.00518799,-2.42928,0.0553758,-0.0753682,0.0529073,0.0673082,-0.094062,0.143487,-0.127903,-0.0883688,0.00511169,0.0362778,0.030098,0.014801,0.0227737,0.0813675,0.0693512,0.0107193,-9.97986,-0.0304413,0.000953674,0.177574,-0.277214,0.0889969,-0.031395,-0.10601,0.0959015
24,6,10.0097,0.00244141,-0.00427246,-2.42684,0.0544603,-0.075063,0.054128,0.0691393,-0.094062,0.144403,-0.126377,-0.0877584,0.03479,0.0338745,0.0301743,0.0111008,0.0161743,0.0904083,0.0774002,0.0122833,-9.97986,-0.0389862,0.00152588,0.203667,-0.318794,0.0987625,-0.0296783,-0.114403,0.109367
24,7,10.0097,0.00152588,-0.00366211,-2.42714,0.0547655,-0.0747579,0.054128,0.0691393,-0.0931465,0.145013,-0.126377,-0.0859274,0.0608063,0.0348663,0.0334167,0.0107574,0.0205994,0.104294,0.0883865,0.0165558,-9.97986,-0.0450516,0.00236511,0.226936,-0.349312,0.0977707,-0.0294113,-0.121689,0.123482
24,8,10.0097,0,-0.00320435,-2.42684,0.0550706,-0.075063,0.0544332,0.0706652,-0.0943672,0.144708,-0.125461,-0.0850118,0.0448227,0.0316238,0.0335312,0.00724792,0.0148773,0.104523,0.0908279,0.0175858,-9.97986,-0.0582504,-0.00106812,0.246315,-0.381012,0.104218,-0.0179291,-0.134888,0.137367
24,9,10.0097,0.000610352,-0.00274658,-2.42592,0.0559862,-0.0744527,0.054128,0.0691393,-0.0925361,0.145929,-0.125461,-0.0844015,0.0362396,0.0303268,0.0282288,0.0136948,0.0197601,0.108337,0.086441,0.0223541,-9.97986,-0.0609207,-0.00377655,0.269814,-0.405273,0.103302,-0.0127792,-0.145378,0.149689
25,0,10.0097,-0.000610352,-0.00167847,-2.42592,0.0562914,-0.0744527,0.055959,0.0709703,-0.0928413,0.146234,-0.125156,-0.0828756,0.0466156,0.0304413,0.0334549,0.00743866,0.0157547,0.117683,0.0816345,0.0172424,-9.97986,-0.063591,-0.0031662,0.29007,-0.423813,0.102119,-0.00274658,-0.15419,0.16098
25,1,10.0097,0.000915527,-0.00152588,-2.42501,0.0559862,-0.0753682,0.0550435,0.0706652,-0.0903999,0.147149,-0.12363,-0.0819601,0.0477982,0.0312424,0.0318146,0.00869751,0.00461578,0.123978,0.0766373,0.018959,-9.97986,-0.0757599,-0.00450134,0.300865,-0.436783,0.107613,0.01194,-0.160522,0.169754
25,2,10.0097,0.000305176,-0.0012207,-2.42531,0.0553758,-0.0729268,0.0547383,0.0709703,-0.0919257,0.147455,-0.12363,-0.0810445,0.0654984,0.0341034,0.0318146,0.00896454,-0.00301361,0.134201,0.0636292,0.0154114,-9.97986,-0.0806808,0.00244141,0.318832,-0.449295,0.110855,0.0221252,-0.166893,0.179214
25,3,10.0097,0.000610352,-0.000610352,-2.42562,0.0569017,-0.073232,0.0547383,0.0718859,-0.0925361,0.147455,-0.12363,-0.0810445,0.0586319,0.0318527,0.03582,0.011673,-0.0114441,0.134888,0.0469971,0.00976563,-9.97986,-0.0805283,-0.00602722,0.320435,-0.451317,0.108795,0.0315475,-0.1791,0.183144
25,4,10.0097,-0.0012207,0,-2.4244,0.055681,-0.0744527,0.0538228,0.0712755,-0.0925361,0.146234,-0.12302,-0.0816549,0.0337601,0.0307846,0.0331497,0.01091,-0.0106812,0.134392,0.0287628,0.00934601,-9.97986,-0.0840378,-0.000648499,0.312347,-0.452309,0.105057,0.0366974,-0.188141,0.194397
25,5,10.0097,0.0012207,-0.000152588,-2.42531,0.0565965,-0.073232,0.054128,0.0715807,-0.0910102,0.147149,-0.124546,-0.0810445,0.039444,0.0292969,0.0261307,0.0117111,-0.0069046,0.142708,0.0463867,0.0126266,-9.97986,-0.0860596,-0.0031662,0.26947,-0.449524,0.10807,0.0388336,-0.192337,0.194244
25,6,10.0097,0,0.000457764,-2.42562,0.0565965,-0.0735371,0.0532125,0.0712755,-0.0919257,0.146234,-0.124241,-0.0816549,0.0378036,0.0293732,0.0333023,0.0140381,-0.00976563,0.144081,0.0661469,0.0164032,-9.97986,-0.0836945,-0.00156403,0.217934,-0.441284,0.108986,0.0473785,-0.194702,0.201569
25,7,10.0097,-0.000915527,0.000762939,-2.42562,0.0562914,-0.0747579,0.0526021,0.07036,-0.0910102,0.145318,-0.125156,-0.0828756,0.018158,0.0246429,0.0277328,0.00862122,-0.0224686,0.143013,0.0782776,0.0192642,-9.97986,-0.0802612,-0.00400543,0.170555,-0.431213,0.109215,0.0514221,-0.203972,0.208359
25,8,10.0097,0.000305176,0.000762939,-2.42806,0.055681,-0.0744527,0.0522969,0.07036,-0.0925361,0.145624,-0.125461,-0.0831808,0.0151825,0.0248718,0.026741,0.0100708,-0.0270462,0.139809,0.101395,0.0165558,-9.97986,-0.067215,-0.00579834,0.128899,-0.422668,0.110741,0.0457001,-0.207253,0.208282
25,9,10.0097,0.000915527,0.00137329,-2.42684,0.0547655,-0.075063,0.0519917,0.0694445,-0.094062,0.145624,-0.125461,-0.0837911,-0.0279617,0.0185013,0.0240707,0.0137329,-0.0306702,0.133286,0.135193,0.010643,-9.97986,-0.0523758,-0.00370026,0.0888062,-0.405006,0.114403,0.0482941,-0.209045,0.211639
26,0,10.0097,-0.000610352,0.00152588,-2.42745,0.0544603,-0.0756734,0.0526021,0.0700548,-0.095893,0.144708,-0.126987,-0.0859274,-0.0947189,0.0151443,0.0213242,0.0131226,-0.0415039,0.115929,0.161743,0.00411987,-9.97986,-0.0328064,-0.00717163,0.0543594,-0.388489,0.120239,0.0439835,-0.211563,0.212479
26,1,10.0097,0.00213623,0.00167847,-2.42928,0.0538499,-0.0753682,0.0516866,0.0691393,-0.0943672,0.143792,-0.128208,-0.0850118,-0.090332,0.0168228,0.0214005,0.0138092,-0.0388336,0.109749,0.186615,0.00873566,-9.97986,-0.00957489,-0.00518799,0.0274658,-0.366173,0.121231,0.0467682,-0.215797,0.214424
26,2,10.0097,0.00183105,0.00183105,-2.42928,0.0535448,-0.0747579,0.0519917,0.0706652,-0.0928413,0.144098,-0.127292,-0.0859274,-0.0189209,0.0161362,0.0196838,0.0150681,-0.0434494,0.102158,0.220184,0.00522614,-9.97986,0.0190353,-0.00240326,0.00225067,-0.341301,0.124626,0.0482559,-0.213966,0.215034
26,3,10.0097,0.000305176,0.00137329,-2.42989,0.0532396,-0.0768941,0.0519917,0.0691393,-0.0952827,0.144403,-0.127292,-0.0865377,0.0162125,0.015831,0.0185776,0.0141144,-0.0444031,0.101624,0.253181,0.000915527,-9.97986,0.0214767,-0.00213623,-0.0110626,-0.327301,0.111923,0.0444412,-0.206718,0.212402
26,4,10.0097,0.000915527,0.00152588,-2.42837,0.0535448,-0.0762837,0.0522969,0.0688341,-0.0946723,0.143182,-0.127292,-0.0859274,0.0210571,0.0146866,0.016861,0.01091,-0.0415421,0.0944519,0.280266,-0.000343323,-9.97986,0.0156021,-0.00156403,-0.0188828,-0.307655,0.11528,0.0431061,-0.197372,0.212746
26,5,10.0097,-0.000610352,0.00137329,-2.42867,0.0538499,-0.0762837,0.050771,0.0682238,-0.0946723,0.143182,-0.127292,-0.0871481,0.0198364,0.0133514,0.0110626,0.0168228,-0.0403976,0.0904846,0.286407,-0.0030899,-9.97986,0.000114441,0.00190735,-0.025177,-0.290413,0.113182,0.0468063,-0.187836,0.211983
26,6,10.0097,0.000915527,0.000762939,-2.42959,0.0532396,-0.0759786,0.0526021,0.0688341,-0.0943672,0.143792,-0.128513,-0.0850118,0.0102615,0.0137329,0.0167465,0.0183487,-0.0439072,0.0832748,0.289497,-0.00694275,-9.97986,-0.0173569,0.00553131,-0.020752,-0.277901,0.111923,0.0479889,-0.174522,0.210152
26,7,10.0097,0.000610352,0.00152588,-2.42592,0.0538499,-0.0747579,0.0538228,0.0691393,-0.0925361,0.145013,-0.126682,-0.0850118,-0.0201797,0.0150681,0.013504,0.0205612,-0.0423431,0.075531,0.30426,-0.00484467,-9.97986,-0.0321579,0.000572205,-0.0156784,-0.263481,0.104179,0.0588226,-0.163231,0.210419
26,8,10.0097,-0.0012207,0.00167847,-2.42714,0.0550706,-0.0747579,0.0538228,0.0700548,-0.094062,0.144403,-0.126072,-0.0837911,-0.0503159,0.0120926,0.0143051,0.0136566,-0.0439453,0.0753403,0.313377,-0.00385284,-9.97986,-0.0481796,-0.000762939,-0.021553,-0.250053,0.107841,0.0582123,-0.148201,0.207024
26,9,10.0097,0.0012207,0.00213623,-2.42653,0.0550706,-0.0735371,0.054128,0.07036,-0.0919257,0.145318,-0.125156,-0.0831808,-0.0352478,0.00774384,0.0114822,0.00976563,-0.0517654,0.0769043,0.310555,0.00450134,-9.97986,-0.0477982,-0.00286102,-0.0292206,-0.227623,0.110703,0.0547791,-0.13176,0.196114
27,0,10.0097,0,0.00183105,-2.42562,0.0559862,-0.0744527,0.0544332,0.072191,-0.0903999,0.145624,-0.124546,-0.0807394,0.00312805,0.00289917,0.00259399,0.0115204,-0.0502014,0.0701523,0.314827,0.0082016,-9.97986,-0.0379181,-0.00141144,-0.0390244,-0.213051,0.107651,0.0540543,-0.111771,0.191422
27,1,10.0097,0,0.00167847,-2.42501,0.0572069,-0.073232,0.0553487,0.0718859,-0.090705,0.146234,-0.124241,-0.0810445,0.0340652,-0.000267029,0.00110626,0.00946045,-0.052681,0.0710297,0.308075,0.0120163,-9.97986,-0.020752,-0.00362396,-0.0353622,-0.19249,0.10849,0.0582123,-0.0951385,0.189133
27,2,10.0097,0.00183105,0.00137329,-2.42562,0.055681,-0.0744527,0.0547383,0.072191,-0.0919257,0.147149,-0.123935,-0.0810445,0.027771,0.0037384,0.00133514,0.0094986,-0.0592804,0.0772858,0.304146,0.0120163,-9.97986,-0.00106812,-0.00152588,-0.037384,-0.171814,0.103912,0.052948,-0.0767136,0.187569
27,3,10.0097,-0.000610352,0.00106812,-2.42531,0.0569017,-0.073232,0.0547383,0.0706652,-0.0916206,0.14776,-0.123935,-0.0807394,0.011673,0.000724792,-0.00423431,0.00705719,-0.0618362,0.0865173,0.312271,0.0180435,-9.97986,0.0148773,-0.00518799,-0.0429535,-0.156441,0.10437,0.0537109,-0.0637436,0.185432
27,4,10.0097,-0.000915527,0.00183105,-2.42623,0.055681,-0.0741475,0.054128,0.0715807,-0.0922309,0.146234,-0.12363,-0.0798238,0.0141144,0.00419617,-0.00595093,0.00888824,-0.0671768,0.0920486,0.307198,0.0248337,-9.97986,0.0431824,-0.00434875,-0.0426102,-0.139923,0.102615,0.0595856,-0.0563049,0.1828
27,5,10.0097,-0.000610352,0.00167847,-2.4247,0.0578172,-0.073232,0.0550435,0.0724962,-0.0910102,0.145013,-0.124241,-0.0792135,0.000839233,0.00408173,-0.00709534,0.00732422,-0.0693512,0.0907516,0.297775,0.0226593,-9.97986,0.0908661,-0.000419617,-0.0449371,-0.114555,0.0964355,0.0653076,-0.043602,0.176964
27,6,10.0097,-0.000915527,0.00152588,-2.42562,0.0562914,-0.0738423,0.0550435,0.0718859,-0.0916206,0.145929,-0.124851,-0.0810445,0.010643,-0.000457764,-0.0117874,0.00873566,-0.0736237,0.0987625,0.280762,0.0204086,-9.97986,0.136299,0.000190735,-0.0466919,-0.0926971,0.0961304,0.0645065,-0.0329971,0.171051
27,7,10.0097,0.000610352,0.00183105,-2.42531,0.0547655,-0.0744527,0.0547383,0.0685289,-0.0916206,0.145013,-0.124851,-0.0831808,0.0210953,0.00118256,-0.0112152,0.00999451,-0.0773239,0.0993729,0.262337,0.0204849,-9.97986,0.170937,0.00240326,-0.0527573,-0.0793839,0.0878525,0.0657654,-0.0136948,0.1651
27,8,10.0097,0.000610352,0.00137329,-2.42653,0.0559862,-0.0738423,0.0538228,0.07036,-0.0934516,0.145318,-0.125766,-0.0822652,0.0130081,0.00343323,-0.0124741,0.00926971,-0.0796509,0.105019,0.234947,0.0262451,-9.97986,0.185623,0.00644684,-0.0589371,-0.0618744,0.0867462,0.0540924,-0.00190735,0.158501
27,9,10.0097,-0.000915527,0.00183105,-2.42776,0.0550706,-0.075063,0.0538228,0.0715807,-0.0922309,0.145318,-0.125461,-0.0837911,0.0249863,0.00190735,-0.00865936,0.00831604,-0.0838089,0.101471,0.207634,0.0225067,-9.97986,0.179863,0.00205994,-0.0614929,-0.0526428,0.107765,0.0584793,0.0100327,0.156479
28,0,10.0097,-0.000305176,0.000915527,-2.42745,0.0538499,-0.0753682,0.0532125,0.0691393,-0.0946723,0.144098,-0.127292,-0.085317,0.033493,0.0018692,-0.00606537,0.00759125,-0.0858307,0.099678,0.183792,0.0224686,-9.97986,0.171471,-0.00358582,-0.0707626,-0.0421906,0.0999069,0.053978,0.0152206,0.152588
28,1,10.0097,-0.000305176,0.0012207,-2.42837,0.0535448,-0.0762837,0.0529073,0.0682238,-0.0949775,0.143792,-0.127598,-0.0862325,0.0452042,0.00511169,-0.00671387,0.0171661,-0.0852966,0.0891876,0.158119,0.0163651,-9.97986,0.151596,-0.00602722,-0.0846863,-0.0259399,0.077858,0.0523758,0.0230789,0.143318
28,2,10.0097,0,0.00137329,-2.42928,0.0541551,-0.075063,0.0532125,0.0682238,-0.0949775,0.142877,-0.127292,-0.0856222,0.0350571,0.00705719,0.000686646,0.0168991,-0.0818634,0.0922394,0.135689,0.0127411,-9.97986,0.131645,-0.00793457,-0.0939941,-0.0112915,0.050354,0.0577927,0.0271606,0.133362
28,3,10.0097,0.0012207,0.000915527,-2.42959,0.0526292,-0.0759786,0.0526021,0.07036,-0.0949775,0.142572,-0.127598,-0.0859274,0.0206757,0.00778198,-0.00118256,0.0178146,-0.0816345,0.0785828,0.113335,0.00778198,-9.97986,0.119476,-0.00171661,-0.100212,-0.0019455,0.0296783,0.0597763,0.0318527,0.126419
28,4,10.0097,0,0.0012207,-2.42806,0.0532396,-0.0765889,0.0519917,0.0676134,-0.0961982,0.143792,-0.126987,-0.0865377,0.0161743,0.0175858,0.00881195,0.0115585,-0.0848007,0.0737762,0.0936127,0.0112534,-9.97986,0.110474,0.00537872,-0.0999832,0.0130081,0.0201797,0.0617218,0.0357819,0.120354
28,5,10.0097,-0.0012207,0.00106812,-2.43081,0.0535448,-0.0768941,0.0519917,0.0676134,-0.0952827,0.142572,-0.127292,-0.0859274,0.00293732,0.0178528,0.00724792,0.019722,-0.0851059,0.0702286,0.0720215,0.0113678,-9.97986,0.099411,0.00434875,-0.0996399,0.0333023,0.0111389,0.0567627,0.0374222,0.113602
28,6,10.0097,0,0.00167847,-2.42806,0.0544603,-0.0768941,0.0522969,0.0688341,-0.0937568,0.143792,-0.126682,-0.085317,0.00576019,0.0162506,0.0102615,0.0185394,-0.0806808,0.0600815,0.051651,0.0152206,-9.97986,0.0823975,-0.00480652,-0.104065,0.0533295,0.00892639,0.0598907,0.0381088,0.105782
28,7,10.0097,-0.000305176,0.00183105,-2.42806,0.0541551,-0.0759786,0.0532125,0.0666979,-0.0943672,0.144098,-0.126987,-0.0825704,0.00785828,0.0194931,0.0110245,0.015564,-0.0848389,0.056839,0.0339127,0.0167465,-9.97986,0.0596619,-0.0163269,-0.105209,0.0684357,-0.00221252,0.0576019,0.0358963,0.102425
28,8,10.0097,-0.000610352,0.000915527,-2.42898,0.0547655,-0.0756734,0.0532125,0.0700548,-0.0928413,0.145013,-0.126072,-0.0850118,0.0259781,0.0169754,0.0126648,0.0151825,-0.0810242,0.0621414,0.0158691,0.0289536,-9.97986,0.0476456,-0.0178528,-0.107994,0.0720596,-0.00347137,0.0517654,0.0283813,0.0984192
28,9,10.0097,0.00213623,0.00106812,-2.42745,0.055681,-0.0747579,0.0556539,0.0706652,-0.0934516,0.145013,-0.126377,-0.0831808,0.0498199,0.0178146,0.0127029,0.0172424,-0.0850296,0.0593567,0.000495911,0.0307083,-9.97986,0.0334549,-0.00526428,-0.110779,0.0744247,-0.014267,0.0460052,0.0271606,0.0876617
29,0,10.0097,0.000915527,0.000305176,-2.4244,0.0578172,-0.0729268,0.0535176,0.0706652,-0.0916206,0.145318,-0.124546,-0.0813497,0.030365,0.0169754,0.0156021,0.0163269,-0.082283,0.0575256,-0.0194931,0.0331116,-9.97986,0.0138474,0.00396729,-0.109596,0.068779,-0.0272751,0.0474548,0.0220108,0.0794601
29,1,10.0097,0.0012207,0.000152588,-2.42104,0.0559862,-0.0735371,0.0553487,0.0706652,-0.0913154,0.145318,-0.124241,-0.0804342,0.0030899,0.018692,0.0149536,0.0131607,-0.0768661,0.0576782,-0.0298309,0.0244522,-9.97986,0.00995636,-0.000801086,-0.113564,0.0785828,-0.033493,0.038147,0.019989,0.0710678
29,2,10.0097,0.000915527,0.000610352,-2.42592,0.055681,-0.073232,0.0544332,0.0694445,-0.0919257,0.146234,-0.125156,-0.0819601,-0.0050354,0.0175476,0.00907898,0.0113678,-0.0766373,0.0537491,-0.0363541,0.0300217,-9.97986,0.00637054,0.00957489,-0.123215,0.0886917,-0.0398254,0.0400543,0.018158,0.0680161
29,3,10.0097,-0.000610352,0.000610352,-2.42592,0.0572069,-0.073232,0.0550435,0.0715807,-0.0922309,0.146234,-0.123935,-0.0813497,-0.0222397,0.016861,0.0148773,0.00720978,-0.0683212,0.058403,-0.0440598,0.0360107,-9.97986,0.0258636,0.0194168,-0.121002,0.0953674,-0.0551605,0.0386047,0.0178146,0.0607681
29,4,10.0097,-0.000915527,0.000915527,-2.42409,0.0562914,-0.0738423,0.0550435,0.0718859,-0.0913154,0.147149,-0.124851,-0.0804342,-0.0301743,0.0204849,0.0138474,0.00637054,-0.066185,0.0585938,-0.0631714,0.037117,-9.97986,0.0437927,-0.00228882,-0.125427,0.102119,-0.0701141,0.0398636,0.021553,0.0505447
29,5,10.0097,0,0.00152588,-2.42501,0.0559862,-0.0726216,0.0547383,0.0758531,-0.090705,0.147149,-0.124546,-0.080129,-0.0198364,0.0190735,0.0139236,0.0107574,-0.059166,0.0601196,-0.070076,0.0333405,-9.97986,0.051651,-0.0114441,-0.130043,0.119629,-0.0864792,0.0287247,0.0247955,0.0442505
29,6,10.0097,0,0.00137329,-2.42623,0.055681,-0.0744527,0.0522969,0.0706652,-0.0919257,0.145624,-0.125766,-0.0819601,-0.00865936,0.0221252,0.0152588,0.00701904,-0.0571823,0.0604248,-0.0727463,0.0376129,-9.97986,0.0582886,0.0018692,-0.136871,0.134697,-0.101013,0.0273132,0.0275421,0.0346756
29,7,10.0097,-0.0012207,0.00213623,-2.42684,0.0550706,-0.0744527,0.0535176,0.0697496,-0.0931465,0.145624,-0.124851,-0.0813497,0.00663757,0.0235748,0.0211716,0.00816345,-0.0499344,0.0559235,-0.0820923,0.0381851,-9.97986,0.0641632,0.00228882,-0.142975,0.155945,-0.116386,0.0256348,0.0388336,0.0304413
29,8,10.0097,-0.000305176,0.000915527,-2.42684,0.0541551,-0.0747579,0.0526021,0.0706652,-0.0928413,0.145318,-0.124546,-0.0825704,0.0453568,0.0221252,0.0184631,0.0101852,-0.0497055,0.0561905,-0.0880051,0.0387955,-9.97986,0.0545883,-0.00339508,-0.147362,0.163269,-0.131035,0.0223541,0.0400543,0.0182724
29,9,10.0097,-0.00152588,0.0012207,-2.42684,0.0544603,-0.0759786,0.0535176,0.0694445,-0.0934516,0.143792,-0.126072,-0.0837911,0.0610352,0.0275803,0.0209427,0.00995636,-0.0442505,0.0577164,-0.0873947,0.0385666,-9.97986,0.0395584,0.000228882,-0.15007,0.168953,-0.14492,0.0146484,0.0519562,0.0119781
30,0,10.0097,-0.000915527,0.00137329,-2.42928,0.0538499,-0.0762837,0.0529073,0.0663927,-0.094062,0.143792,-0.128208,-0.0862325,0.0445938,0.0267792,0.0228119,0.00656128,-0.0416183,0.0566101,-0.0873947,0.0321198,-9.97986,0.0180435,0.00621796,-0.153885,0.180321,-0.152397,0.0158691,0.0571442,0.00354767
30,1,10.0097,0.000915527,0.000152588,-2.42837,0.0541551,-0.0753682,0.0519917,0.0676134,-0.0943672,0.143792,-0.126987,-0.0862325,0.0520706,0.0341034,0.0234604,0.00984192,-0.0337219,0.0488663,-0.089035,0.0317764,-9.97986,7.62939e-005,0.00759125,-0.14389,0.188599,-0.155716,0.0173569,0.0627136,-0.00419617
30,2,10.0097,0.000915527,0.00106812,-2.42867,0.0547655,-0.0762837,0.0529073,0.0682238,-0.0943672,0.144098,-0.127292,-0.0865377,0.0525665,0.0308228,0.0219345,0.0111008,-0.0286865,0.0447845,-0.092392,0.0280762,-9.97986,-0.00610352,0.0094986,-0.143776,0.204964,-0.156097,0.0143433,0.0756836,-0.01194
30,3,10.0097,0.0012207,0.00183105,-2.42837,0.0538499,-0.0759786,0.0529073,0.067003,-0.0946723,0.142877,-0.126377,-0.0856222,0.0352478,0.0315094,0.0191879,0.00499725,-0.0176239,0.0374985,-0.089035,0.0276566,-9.97986,-0.00320435,0.00919342,-0.144005,0.223389,-0.153313,0.0120926,0.0812149,-0.017128
30,4,10.0097,-0.000610352,0.000762939,-2.42806,0.0535448,-0.0759786,0.0522969,0.0685289,-0.094062,0.142572,-0.127292,-0.0868429,0.0105667,0.0297546,0.0248337,0.00553131,-0.0088501,0.0334167,-0.0889969,0.0279236,-9.97986,-0.0094223,0.00923157,-0.141983,0.233269,-0.151405,0.0129318,0.0931549,-0.0259781
30,5,10.0097,0.000610352,0.000457764,-2.4305,0.0547655,-0.0759786,0.0516866,0.0685289,-0.0943672,0.144098,-0.127598,-0.0859274,-0.00602722,0.0331116,0.030632,0.00610352,-0.00587463,0.0273132,-0.0833511,0.0295258,-9.97986,-0.0194931,0.00419617,-0.14595,0.238609,-0.150833,0.00637054,0.0963593,-0.0340652
30,6,10.0097,-0.00152588,0.000762939,-2.42806,0.0535448,-0.0759786,0.0526021,0.0679186,-0.0943672,0.143792,-0.126072,-0.0850118,-0.00602722,0.0350189,0.0279999,0.00766754,0.00343323,0.0209808,-0.0754929,0.0270844,-9.97986,-0.0255966,-0.00331879,-0.148582,0.259476,-0.14328,0.00461578,0.110321,-0.0383377
30,7,10.0097,0.000915527,0.00137329,-2.42714,0.0550706,-0.0756734,0.0526021,0.0694445,-0.0934516,0.144708,-0.126377,-0.0844015,0.00888824,0.0396729,0.0282669,0.00759125,0.00705719,0.0150299,-0.0684357,0.0193024,-9.97986,-0.0317764,0.000152588,-0.142403,0.266266,-0.142593,0.00717163,0.114403,-0.0453186
30,8,10.0097,0.000610352,0,-2.42653,0.055681,-0.075063,0.0538228,0.0697496,-0.0937568,0.146234,-0.125461,-0.0850118,0.00709534,0.0350952,0.0304413,0.0106049,0.0170898,0.00427246,-0.0580978,0.020256,-9.97986,-0.0153351,0.000343323,-0.130157,0.267487,-0.135612,-0.00514984,0.124474,-0.0535965
30,9,10.0097,0.000915527,0.000915527,-2.42623,0.0565965,-0.0738423,0.0547383,0.0709703,-0.0931465,0.144403,-0.125461,-0.0831808,-0.0167847,0.0333023,0.0218964,0.00644684,0.0226212,-0.00648499,-0.0507355,0.0281906,-9.97986,0.0163651,0.00255585,-0.111046,0.274467,-0.126648,-0.00228882,0.130157,-0.056076
31,0,10.0097,-0.000305176,0.00167847,-2.42623,0.0562914,-0.073232,0.0556539,0.0709703,-0.0916206,0.146234,-0.124851,-0.0813497,-0.0341415,0.0347519,0.0233078,0.00873566,0.030365,-0.00862122,-0.037384,0.0296783,-9.97986,0.0328445,0.000534058,-0.09758,0.296707,-0.116348,-0.00232697,0.137329,-0.059433
31,1,10.0097,0.0012207,0.00152588,-2.42501,0.0559862,-0.0729268,0.0553487,0.0715807,-0.0910102,0.147455,-0.123935,-0.0813497,-0.0216293,0.0349808,0.0217438,0.0108337,0.0362778,-0.0186539,-0.0247192,0.0349045,-9.97986,0.034256,-0.00328064,-0.0968552,0.307617,-0.105972,-0.00656128,0.137482,-0.0651169
31,2,10.0097,0.000305176,0.00198364,-2.42562,0.0562914,-0.0744527,0.0544332,0.072191,-0.0913154,0.146234,-0.124546,-0.0804342,-0.000724792,0.0317001,0.0194931,0.00427246,0.0400162,-0.0231552,-0.0183868,0.0348282,-9.97986,0.0303268,-0.00225067,-0.0999832,0.334129,-0.0920105,-0.0056839,0.13546,-0.0704193
31,3,10.0097,-0.000915527,0.00228882,-2.4247,0.0562914,-0.0741475,0.0550435,0.0728014,-0.090705,0.145318,-0.123325,-0.0807394,0.0257492,0.030632,0.019722,0.00679016,0.0475311,-0.0336075,0.000495911,0.0320816,-9.97986,0.0417328,-0.00183105,-0.0956345,0.348053,-0.0790405,-0.01194,0.143929,-0.0763321
31,4,10.0097,0.000610352,0.00198364,-2.42562,0.0569017,-0.073232,0.0562642,0.0715807,-0.0910102,0.146539,-0.124546,-0.0795187,0.0413132,0.0279236,0.0178528,0.00934601,0.0617599,-0.0441742,0.0105667,0.0276566,-9.97986,0.0524902,0.00286102,-0.0834274,0.36171,-0.0616074,-0.0182724,0.146027,-0.0803757
31,5,10.0097,0.000915527,0.00137329,-2.42531,0.0565965,-0.0738423,0.0562642,0.0706652,-0.0913154,0.146234,-0.124546,-0.0798238,0.0510025,0.0296402,0.0181198,0.00328064,0.0639725,-0.0504303,0.0292587,0.0254822,-9.97986,0.0608826,0.0019455,-0.0644302,0.373993,-0.0364685,-0.0311661,0.139656,-0.0812912
31,6,10.0097,0.0012207,0.0012207,-2.42501,0.0565965,-0.073232,0.0562642,0.0715807,-0.090705,0.146234,-0.125461,-0.0828756,0.0568771,0.031395,0.0183868,0.00770569,0.0676727,-0.0626755,0.0362015,0.0227356,-9.97986,0.0592041,0.00362396,-0.0471878,0.380325,-0.00751495,-0.030098,0.142136,-0.0852966
31,7,10.0097,0.000610352,0.00198364,-2.42623,0.0562914,-0.0756734,0.0535176,0.0709703,-0.0916206,0.146234,-0.125156,-0.0813497,0.0569916,0.0280762,0.0222015,0.0062561,0.074501,-0.0666428,0.047493,0.0187683,-9.97986,0.0581741,0.00179291,-0.0411224,0.406532,0.0174713,-0.0355911,0.143127,-0.0893021
31,8,10.0097,0.000610352,0.00320435,-2.42776,0.0550706,-0.0744527,0.054128,0.0697496,-0.0922309,0.145624,-0.124851,-0.0834859,0.0444031,0.0270462,0.0250626,0.00930786,0.0786209,-0.0759888,0.0566864,0.0179672,-9.97986,0.0516891,0.000801086,-0.0444412,0.429993,0.0323105,-0.0442886,0.135689,-0.0922394
31,9,10.0097,0.0012207,0.00228882,-2.42623,0.0550706,-0.0741475,0.054128,0.0694445,-0.0934516,0.145318,-0.125766,-0.0831808,0.0341797,0.034256,0.0218582,0.00888824,0.0872803,-0.0870132,0.071106,0.0200272,-9.97986,0.0392151,-0.00434875,-0.0380707,0.4533,0.0517273,-0.0452423,0.134735,-0.0935745
32,0,10.0097,-0.000915527,0.00183105,-2.42867,0.0541551,-0.0756734,0.0532125,0.0676134,-0.0952827,0.144403,-0.127598,-0.0850118,0.0244522,0.0318909,0.0199509,0.0062561,0.0889206,-0.0907516,0.0750351,0.0218201,-9.97986,0.0257492,-0.00385284,-0.0297165,0.465469,0.0570679,-0.0461578,0.130615,-0.0965118
32,1,10.0097,0.00183105,0.00106812,-2.42928,0.0544603,-0.0759786,0.0522969,0.0666979,-0.0955879,0.143487,-0.126682,-0.0856222,0.0302887,0.031662,0.0284195,0.00831604,0.0986099,-0.0996399,0.0812531,0.0244141,-9.97986,-0.00038147,-0.00423431,-0.0259781,0.471191,0.0518417,-0.0462341,0.126228,-0.0925446
32,2,10.0097,-0.000610352,0.000915527,-2.42898,0.0541551,-0.0738423,0.0532125,0.0682238,-0.0943672,0.144403,-0.127598,-0.0859274,0.0287247,0.031929,0.0258255,0.0104141,0.104637,-0.10334,0.0795364,0.0261307,-9.97986,-0.0138092,-0.00534058,-0.0251389,0.491142,0.0351715,-0.0466537,0.121346,-0.0953674
32,3,10.0097,0,0.00183105,-2.42898,0.0550706,-0.0759786,0.0522969,0.0676134,-0.0946723,0.145624,-0.126987,-0.0850118,0.0233841,0.0282669,0.0240326,0.00679016,0.10334,-0.110397,0.0831223,0.0252151,-9.97986,-0.0147629,-0.00419617,-0.00606537,0.520363,0.0238419,-0.0499725,0.11097,-0.0967407
32,4,10.0097,0.000305176,0.000762939,-2.42806,0.0538499,-0.0756734,0.0519917,0.0676134,-0.0943672,0.144098,-0.126987,-0.0865377,0.0271988,0.030365,0.0266266,0.00858307,0.107918,-0.112572,0.083313,0.0237274,-9.97986,-0.0191116,0.00137329,-0.00289917,0.523033,0.0148392,-0.0582886,0.105667,-0.0976181
32,5,10.0097,-0.0012207,-0.00106812,-2.42867,0.0538499,-0.0759786,0.0519917,0.0682238,-0.0965034,0.143487,-0.127292,-0.0871481,0.0264359,0.0259781,0.0294495,0.0082016,0.112038,-0.110474,0.0806427,0.0285721,-9.97986,-0.0205612,0.0012207,0.00301361,0.510712,0.00892639,-0.0624084,0.0989914,-0.09758
32,6,10.0097,0.000305176,-0.00152588,-2.42806,0.0547655,-0.075063,0.0532125,0.0694445,-0.0937568,0.143182,-0.126987,-0.085317,0.0031662,0.0281906,0.0275803,0.0069046,0.115852,-0.115013,0.0762177,0.0268936,-9.97986,-0.0177765,0.00534058,0.0198364,0.498009,0.0025177,-0.0611496,0.0941849,-0.0945282
32,7,10.0097,-0.000915527,0,-2.42684,0.0553758,-0.0756734,0.0532125,0.0688341,-0.0937568,0.144708,-0.126682,-0.0850118,-0.0396729,0.0342941,0.0312424,0.00854492,0.121346,-0.120773,0.0720978,0.0282288,-9.97986,-0.0289536,0.00213623,0.0127029,0.505829,-0.00850677,-0.0635529,0.087471,-0.0939941
32,8,10.0097,0,0.00106812,-2.42745,0.0547655,-0.0747579,0.0535176,0.0666979,-0.0952827,0.145318,-0.126072,-0.0831808,-0.0787354,0.0325394,0.0294113,0.0108719,0.127983,-0.115662,0.0666046,0.0247574,-9.97986,-0.037384,0.00865936,0.0162506,0.508728,-0.0231934,-0.0708008,0.0804901,-0.0968933
32,9,10.0097,0.000610352,-0.0012207,-2.42623,0.0547655,-0.0747579,0.0550435,0.07036,-0.0919257,0.145624,-0.124851,-0.0837911,-0.0919342,0.028801,0.0242615,0.0106049,0.125999,-0.117073,0.058403,0.0197983,-9.97986,-0.0457382,0.00461578,0.0117874,0.491409,-0.0364304,-0.080452,0.0759125,-0.0922012
33,0,10.0097,-0.000915527,-0.00213623,-2.42623,0.055681,-0.0747579,0.0547383,0.0709703,-0.0916206,0.146539,-0.125156,-0.0825704,-0.0550842,0.0363159,0.0264359,0.0106812,0.129356,-0.127563,0.0566864,0.0148392,-9.97986,-0.0481415,0.0050354,0.012207,0.451927,-0.0374985,-0.0855637,0.0673294,-0.0935364
33,1,10.0097,0.000305176,-0.00396729,-2.4247,0.0553758,-0.0738423,0.0532125,0.0718859,-0.0903999,0.147455,-0.124851,-0.0822652,-0.0152206,0.0362778,0.0286102,0.0118256,0.137825,-0.127296,0.0442886,0.0171661,-9.97986,-0.0458527,0.00488281,0.0140762,0.405235,-0.0375366,-0.0883865,0.0635147,-0.0925064
33,2,10.0097,0.000305176,-0.00595093,-2.42501,0.0562914,-0.0741475,0.0547383,0.0728014,-0.0919257,0.146234,-0.124241,-0.0819601,0.0257874,0.0356674,0.0302505,0.0149918,0.133514,-0.131187,0.0335693,0.0157547,-9.97986,-0.0497055,0.00247955,0.0127029,0.333748,-0.0444031,-0.087738,0.0594711,-0.0886154
33,3,10.0097,-0.00213623,-0.00656128,-2.42531,0.0569017,-0.0738423,0.0544332,0.0715807,-0.0913154,0.146539,-0.124851,-0.0828756,0.0337601,0.0346375,0.028038,0.0128174,0.138702,-0.132904,0.0175476,0.0138474,-9.97986,-0.0459671,0.00450134,0.00656128,0.258675,-0.0522232,-0.0769424,0.0524902,-0.0920105
33,4,10.0097,0.00152588,-0.00442505,-2.42501,0.0565965,-0.0735371,0.0544332,0.0718859,-0.0910102,0.147455,-0.12363,-0.0819601,0.0444794,0.0345612,0.0287628,0.0156403,0.144653,-0.136108,0.00595093,0.0165558,-9.97986,-0.0373459,-0.00179291,0.00553131,0.21637,-0.0538254,-0.0704956,0.0427628,-0.0893402
33,5,10.0097,-0.000610352,-0.00335693,-2.4244,0.0565965,-0.0735371,0.0535176,0.0712755,-0.090705,0.14776,-0.124851,-0.0822652,0.073967,0.0335693,0.0301361,0.0139999,0.146179,-0.14122,-0.00495911,0.0159073,-9.97986,-0.0326538,0.000152588,0.00988007,0.188065,-0.0504684,-0.0688934,0.0401688,-0.0905609
33,6,10.0097,0.00183105,-0.0038147,-2.42379,0.0559862,-0.0741475,0.0547383,0.0712755,-0.0931465,0.146539,-0.12363,-0.0831808,0.0857162,0.0365829,0.0316238,0.0129318,0.147591,-0.138054,-0.0193787,0.0174332,-9.97986,-0.0292206,0.00419617,0.0117493,0.141792,-0.0381851,-0.0641251,0.0355148,-0.0914001
33,7,10.0097,-0.000610352,-0.00564575,-2.42684,0.0559862,-0.0741475,0.054128,0.0700548,-0.0928413,0.145318,-0.124851,-0.0850118,0.0502777,0.0318909,0.0302887,0.0180054,0.155525,-0.141983,-0.032692,0.018158,-9.97986,-0.0342178,-0.0018692,0.0104523,0.0696182,-0.0239182,-0.0605774,0.0296021,-0.0910568
33,8,10.0097,-0.000610352,-0.00671387,-2.42623,0.0562914,-0.0753682,0.0535176,0.0679186,-0.094062,0.145318,-0.126072,-0.0840963,-0.00576019,0.0350952,0.0318527,0.0151825,0.147209,-0.141258,-0.0486374,0.0138092,-9.97986,-0.0516129,-0.00038147,0.0133896,-0.0115967,-0.0050354,-0.0538254,0.0210953,-0.0924683
33,9,10.0097,0.000610352,-0.00869751,-2.42745,0.0541551,-0.0756734,0.054128,0.0685289,-0.0937568,0.145624,-0.125766,-0.0871481,-0.0570679,0.0323486,0.0264359,0.0139999,0.144653,-0.138283,-0.0658417,0.0157928,-9.97986,-0.0727463,-0.00320435,0.00865936,-0.120201,0.00988007,-0.0525665,0.0171661,-0.0939941
34,0,10.0097,0.000305176,-0.0114441,-2.42806,0.0547655,-0.0765889,0.0516866,0.0688341,-0.0931465,0.143792,-0.127598,-0.0895895,-0.0563049,0.0322342,0.0269318,0.0114822,0.141258,-0.14492,-0.0769806,0.0105286,-9.97986,-0.0838852,-0.00347137,0.0137329,-0.245781,0.0244904,-0.0486374,0.010643,-0.0974274
34,1,10.0097,0,-0.00946045,-2.42959,0.0538499,-0.0753682,0.0532125,0.0688341,-0.0946723,0.142267,-0.127598,-0.0880636,-0.011673,0.0307465,0.0296402,0.0166702,0.136986,-0.141907,-0.0896072,0.00507355,-9.97986,-0.0793839,-0.00202179,0.0126266,-0.327721,0.0387955,-0.0390244,0.00606537,-0.10006
34,2,10.0097,-0.000915527,-0.00640869,-2.42592,0.0529344,-0.0747579,0.0532125,0.0691393,-0.0949775,0.143182,-0.126987,-0.0880636,0.00648499,0.0334549,0.030632,0.0195313,0.1297,-0.139313,-0.102654,-0.000495911,-9.97986,-0.0476456,-0.00324249,0.0224686,-0.366211,0.030098,-0.0351715,0.00415802,-0.102005
34,3,10.0097,0.000610352,-0.00778198,-2.42776,0.0532396,-0.0765889,0.0522969,0.0697496,-0.0949775,0.142877,-0.127292,-0.0892843,0.00160217,0.0299072,0.0289917,0.0165558,0.124435,-0.138817,-0.116692,-0.0132751,-9.97986,-0.00759125,-0.00213623,0.0146866,-0.453644,0.018692,-0.0302505,-0.00213623,-0.104752
34,4,10.0097,-0.000915527,-0.0100708,-2.42928,0.0535448,-0.0759786,0.0529073,0.0697496,-0.0949775,0.142572,-0.127598,-0.0886739,0.0113678,0.0304794,0.0235748,0.0184631,0.122108,-0.13298,-0.123863,-0.0104904,-9.97986,0.023613,-0.00221252,0.0167847,-0.557137,-0.0050354,-0.016098,-0.00953674,-0.104103
34,5,10.0097,0.00213623,-0.00930786,-2.42898,0.0541551,-0.0747579,0.0519917,0.0700548,-0.0949775,0.143487,-0.127903,-0.0895895,0.0263977,0.0307083,0.0306702,0.0221634,0.116119,-0.13031,-0.136566,-0.0087738,-9.97986,0.0478363,-0.00133514,0.0215912,-0.649452,-0.0275421,-0.0133514,-0.00648499,-0.10582
34,6,10.0097,0.000610352,-0.00839233,-2.42928,0.0553758,-0.0768941,0.0532125,0.0697496,-0.0949775,0.143182,-0.126987,-0.0874532,0.0255585,0.0261688,0.0224304,0.0156784,0.105476,-0.124893,-0.142975,-0.00591278,-9.97986,0.0588608,-0.00415802,0.0269318,-0.723419,-0.0462723,-0.00991821,-0.00835419,-0.107918
34,7,10.0097,0.000610352,-0.00671387,-2.42684,0.0547655,-0.075063,0.0529073,0.0700548,-0.0943672,0.143487,-0.126377,-0.0868429,0.0180054,0.0213623,0.0161362,0.0127029,0.0935745,-0.121384,-0.150414,0.00667572,-9.97986,0.0444794,-0.00335693,0.0320816,-0.782356,-0.0692749,-0.0069046,-0.00774384,-0.114594
34,8,10.0097,0.000915527,-0.00717163,-2.42898,0.055681,-0.0759786,0.0532125,0.0676134,-0.094062,0.144708,-0.126682,-0.0871481,-0.0123978,0.0234604,0.0205994,0.0150681,0.091629,-0.112801,-0.152931,0.0132751,-9.97986,0.0208282,-0.000305176,0.0395203,-0.856133,-0.0790405,0.000419617,-0.00701904,-0.11364
34,9,10.0097,0.00152588,-0.00778198,-2.42684,0.0553758,-0.0747579,0.0547383,0.0685289,-0.0919257,0.145624,-0.125766,-0.0865377,-0.0514603,0.0225067,0.0169373,0.00938416,0.0765991,-0.111465,-0.16037,0.0162506,-9.97986,-0.00221252,-0.00354767,0.0348663,-0.957909,-0.0790024,-0.0056839,-0.0101089,-0.119057
35,0,10.0097,0.000915527,-0.00869751,-2.42501,0.0559862,-0.0738423,0.0547383,0.0718859,-0.0913154,0.146234,-0.124241,-0.0837911,-0.0696182,0.0214005,0.01091,0.0172424,0.0686646,-0.102997,-0.161896,0.0189209,-9.97986,-0.0162506,-0.00190735,0.0369263,-1.04595,-0.075798,-0.0044632,-0.00904083,-0.123482
35,1,10.0097,0.000305176,-0.00640869,-2.42531,0.0569017,-0.0744527,0.0547383,0.0709703,-0.0919257,0.146844,-0.124241,-0.0828756,-0.067749,0.0154495,0.0152206,0.0122833,0.0670624,-0.1091,-0.164871,0.0200272,-9.97986,-0.0038147,-0.00385284,0.0440598,-1.08009,-0.0779343,-0.00473022,-0.0104141,-0.124054
35,2,10.0097,0.00152588,-0.00198364,-2.42531,0.0559862,-0.0735371,0.0553487,0.07036,-0.0928413,0.145624,-0.123325,-0.0816549,-0.0555038,0.0158691,0.00732422,0.0088501,0.0564194,-0.103035,-0.167961,0.0159454,-9.97986,0.00389099,-0.00469208,0.0446701,-1.08303,-0.0774384,-0.00465393,-0.0102234,-0.125961
35,3,10.0097,0.000915527,-0.00350952,-2.42592,0.0559862,-0.075063,0.0550435,0.0709703,-0.0910102,0.146844,-0.12363,-0.0819601,-0.037384,0.0157928,0.0075531,0.00980377,0.0510788,-0.0994492,-0.164108,0.0179291,-9.97986,0.00789642,-0.00202179,0.0484085,-1.10645,-0.0767136,-0.00572205,-0.00808716,-0.12413
35,4,10.0097,0.00152588,-0.00152588,-2.4244,0.0572069,-0.0735371,0.0547383,0.072191,-0.0900947,0.146234,-0.124851,-0.0810445,0.000343323,0.0196075,0.00904083,0.0115585,0.047493,-0.088768,-0.164757,0.015564,-9.97986,0.00995636,0.000114441,0.0534821,-1.11061,-0.069809,-0.00946045,-0.00717163,-0.119286
35,5,10.0097,0.000915527,-0.00213623,-2.42501,0.055681,-0.0729268,0.0544332,0.0728014,-0.0919257,0.145929,-0.124851,-0.0816549,0.0331497,0.0208282,0.00892639,0.0122833,0.0457382,-0.0753403,-0.159035,0.00865936,-9.97986,0.0159073,-0.00167847,0.052681,-1.13762,-0.0675583,-0.0109482,-0.0050354,-0.117226
35,6,10.0097,0.00152588,-0.00335693,-2.42562,0.0572069,-0.0747579,0.054128,0.0724962,-0.0916206,0.146539,-0.125156,-0.0831808,0.0576782,0.0173569,0.00919342,0.0125122,0.0405121,-0.0671387,-0.150337,0.00583649,-9.97986,0.0148773,7.62939e-005,0.0503922,-1.17619,-0.0615692,-0.0111008,-0.00221252,-0.115356
35,7,10.0097,0,-0.000915527,-2.42562,0.0553758,-0.0747579,0.0544332,0.07036,-0.0925361,0.146234,-0.125156,-0.0831808,0.0769043,0.0232697,0.0134659,0.0141907,0.0384521,-0.0625229,-0.145073,0.00846863,-9.97986,0.0165558,0.00152588,0.056839,-1.16848,-0.0612259,-0.00694275,-0.00213623,-0.105209
35,8,10.0097,0.00305176,0.00167847,-2.42714,0.0544603,-0.075063,0.0532125,0.0709703,-0.095893,0.146234,-0.125156,-0.0834859,0.0817108,0.0235748,0.00846863,0.0120926,0.0389099,-0.0548172,-0.13916,0.00812531,-9.97986,0.0311279,-0.00335693,0.0710297,-1.13304,-0.0596619,-0.00305176,-0.00102997,-0.101547
35,9,10.0097,0.0012207,0.00366211,-2.42776,0.0544603,-0.0747579,0.0535176,0.0700548,-0.0934516,0.145318,-0.125766,-0.0831808,0.0865173,0.0218964,0.00785828,0.0112915,0.0391388,-0.0508881,-0.131493,0.00087738,-9.97986,0.045433,-0.000228882,0.0798416,-1.09112,-0.0511169,-0.00225067,-0.00232697,-0.0940704
36,0,10.0097,0.00213623,0.00244141,-2.42867,0.0526292,-0.0744527,0.0538228,0.0694445,-0.0943672,0.144098,-0.126682,-0.0847066,0.0735474,0.0219345,0.00720978,0.0112152,0.0427246,-0.0434875,-0.123444,0.000305176,-9.97986,0.0646973,-0.00289917,0.0891113,-1.07418,-0.0294113,7.62939e-005,-0.00171661,-0.0857544
36,1,10.0097,0.00213623,0.000915527,-2.42898,0.0547655,-0.0753682,0.0532125,0.0694445,-0.0937568,0.145013,-0.126987,-0.085317,0.0548935,0.02388,0.0112152,0.0136185,0.044899,-0.0312424,-0.11528,-3.8147e-005,-9.97986,0.0872803,0.00370026,0.0998306,-1.06358,-0.0159454,-0.000267029,0.00137329,-0.0797272
36,2,10.0097,0.000610352,0.00198364,-2.42928,0.0532396,-0.0759786,0.0526021,0.0682238,-0.0922309,0.143182,-0.127598,-0.0862325,0.039444,0.0227356,0.0129318,0.0134659,0.0400543,-0.0248337,-0.0992203,0.00564575,-9.97986,0.0812912,0.00087738,0.103302,-1.04118,-0.0167847,-0.00198364,0.00267029,-0.0720978
36,3,10.0097,0.000915527,0.000915527,-2.42837,0.0541551,-0.0759786,0.0532125,0.0673082,-0.0955879,0.143792,-0.126987,-0.0862325,0.00812531,0.028038,0.0139999,0.0103378,0.0266266,-0.0107574,-0.087738,0.00740051,-9.97986,0.07061,0.00156403,0.110054,-1.03516,-0.0170898,-0.0135422,0.00118256,-0.0692749
36,4,10.0097,0,0.000915527,-2.42898,0.0529344,-0.0771993,0.0522969,0.067003,-0.094062,0.143792,-0.127598,-0.0865377,-0.0162506,0.02388,0.013237,0.0106812,0.00865936,0.000686646,-0.0766373,0.00507355,-9.97986,0.0468445,-0.00175476,0.112953,-1.02383,-0.0121689,-0.0176239,-0.00228882,-0.0627518
36,5,10.0097,0.000915527,0.000152588,-2.42928,0.0532396,-0.0762837,0.0519917,0.0685289,-0.0952827,0.141656,-0.127598,-0.0865377,-0.0211716,0.0263214,0.0102615,0.00816345,-0.00629425,0.0143814,-0.0711441,0.0082016,-9.97986,0.0325775,-0.000343323,0.118027,-1.00937,-0.0114059,-0.0152206,-0.000839233,-0.0572205
36,6,10.0097,0.00244141,0.000915527,-2.42928,0.0587328,-0.0741475,0.0532125,0.0691393,-0.094062,0.144708,-0.126682,-0.0850118,-0.0210953,0.0318527,0.014534,0.0115967,-0.0258636,0.0234985,-0.0561905,0.0082016,-9.97986,0.0564575,0.000839233,0.12867,-0.992813,-0.0126266,-0.0229645,0.000648499,-0.0471115
36,7,10.0097,0.0012207,0.0012207,-2.42684,0.0559862,-0.0759786,0.0532125,0.0709703,-0.0931465,0.144403,-0.126377,-0.0847066,-0.0162888,0.0270081,0.0101089,0.0088501,-0.0489807,0.0395584,-0.0445938,0.0111389,-9.97986,0.0738907,0.00343323,0.127602,-0.987244,-0.00770569,-0.0160217,0.000724792,-0.0400543
36,8,10.0097,0,0.000610352,-2.42806,0.055681,-0.075063,0.0532125,0.0706652,-0.0913154,0.145624,-0.125461,-0.0847066,-0.00255585,0.0241089,0.013504,0.00904083,-0.0666428,0.0576019,-0.0303268,0.0145721,-9.97986,0.0693512,0.00396729,0.132904,-0.990715,-0.00278473,-0.0154114,0.000190735,-0.0362396
36,9,10.0097,0.000305176,-0.00106812,-2.42714,0.0575121,-0.0753682,0.0529073,0.0706652,-0.0928413,0.145318,-0.125461,-0.0844015,0.0152206,0.0294876,0.0194168,0.00759125,-0.0878525,0.0712967,-0.0210953,0.0159836,-9.97986,0.0666046,0.00324249,0.137978,-1.01749,0.00087738,-0.00854492,0.0031662,-0.0266647
37,0,10.0097,0.00183105,-0.000610352,-2.42562,0.0565965,-0.0744527,0.0547383,0.07036,-0.0934516,0.145929,-0.125156,-0.0816549,0.0252914,0.0260925,0.0144577,0.00537872,-0.099144,0.085144,-0.00988007,0.0187683,-9.97986,0.0759888,0.00530243,0.131264,-1.02734,-0.00850677,-0.00171661,-0.00293732,-0.0176239
37,1,10.0097,0.000610352,-0.000457764,-2.42501,0.0565965,-0.0741475,0.0550435,0.0718859,-0.0928413,0.146539,-0.124851,-0.0810445,0.0254059,0.0263214,0.0206757,0.00736237,-0.121994,0.100784,-0.00453949,0.0102997,-9.97986,0.0738525,-0.00160217,0.132904,-1.02085,-0.00736237,0.00469208,-0.00164032,-0.0173187
37,2,10.0097,0.000915527,0.00183105,-2.42501,0.0578172,-0.0738423,0.054128,0.0706652,-0.090705,0.146539,-0.124851,-0.0810445,0.0273132,0.0331879,0.0195313,0.00549316,-0.130653,0.114326,0.00385284,0.0131989,-9.97986,0.0598907,-0.00179291,0.120773,-0.998116,-0.00267029,0.00305176,7.62939e-005,-0.0108337
37,3,10.0097,0.00274658,0.00259399,-2.42562,0.0581224,-0.0729268,0.0535176,0.0700548,-0.0919257,0.147149,-0.12363,-0.080129,0.0233078,0.03479,0.018692,0.00835419,-0.134697,0.129814,0.0177765,0.013504,-9.97986,0.044632,0.000457764,0.109711,-0.965538,-0.00892639,0.00213623,-0.000839233,-0.00526428
37,4,10.0097,0.000610352,0.0012207,-2.42379,0.0565965,-0.0747579,0.054128,0.0724962,-0.0937568,0.146539,-0.124851,-0.0804342,0.0231934,0.0314331,0.0178528,0.00778198,-0.132751,0.144691,0.0237656,0.0153732,-9.97986,0.0317001,-0.00705719,0.0945663,-0.95993,-0.00499725,0.00732422,-0.00385284,0.0018692
37,5,10.0097,-0.000610352,0.00106812,-2.42501,0.0569017,-0.0729268,0.0547383,0.0697496,-0.0916206,0.146234,-0.124546,-0.0810445,0.0152588,0.0301743,0.0233841,0.00476837,-0.130615,0.150948,0.0271988,0.0114441,-9.97986,0.0151443,-0.0127411,0.0827789,-0.95089,-0.00160217,0.0146103,-0.00511169,0.00915527
37,6,10.0097,0.000610352,0.00152588,-2.42592,0.055681,-0.0741475,0.0553487,0.0706652,-0.090705,0.146844,-0.124241,-0.080129,0.00892639,0.0336456,0.0247955,0.00663757,-0.125046,0.164108,0.0418472,0.0107193,-9.97986,-0.00427246,-0.00621796,0.0688171,-0.928268,0.00457764,0.0154495,-0.0038147,0.00999451
37,7,10.0097,0.0012207,0.00152588,-2.42745,0.0569017,-0.073232,0.0547383,0.0706652,-0.0925361,0.145013,-0.126987,-0.0822652,0.0157547,0.0343323,0.0246429,0.00183105,-0.123749,0.169182,0.0443268,0.0129318,-9.97986,-0.0154114,-0.00289917,0.0537491,-0.919685,0.00377655,0.0113297,-0.00957489,0.0148392
37,8,10.0097,-0.000915527,0.000762939,-2.42684,0.0550706,-0.0747579,0.0529073,0.0700548,-0.0931465,0.145013,-0.126072,-0.0831808,0.0203323,0.0322723,0.0182343,0.00514984,-0.122299,0.190697,0.0520325,0.015564,-9.97986,-0.0141144,-0.00350952,0.0411606,-0.922928,0.00370026,0.00255585,-0.00843048,0.0193405
37,9,10.0097,0.00152588,0.00137329,-2.42745,0.0538499,-0.0741475,0.0532125,0.0700548,-0.0937568,0.144708,-0.125461,-0.0831808,0.0186539,0.0346375,0.0259018,0.00339508,-0.11425,0.198555,0.055275,0.019989,-9.97986,0.0128555,-0.000457764,0.0353241,-0.903397,0.00038147,-0.000190735,-0.00686646,0.0199127
38,0,10.0097,0.000305176,0.00244141,-2.42928,0.0541551,-0.0759786,0.0529073,0.0691393,-0.0946723,0.143182,-0.127598,-0.085317,0.00843048,0.0308609,0.0219345,0.0037384,-0.105133,0.209122,0.0562668,0.013504,-9.97986,0.0391769,-0.00541687,0.0273132,-0.875244,-0.00553131,0.00209808,-0.00579834,0.0273895
38,1,10.0097,-0.0289917,0.00183105,-2.42898,0.0544603,-0.075063,0.0532125,0.0685289,-0.0952827,0.129144,-0.126987,-0.0859274,-0.000839233,0.0271606,0.0181198,0.000228882,-0.0986099,0.21492,0.0611496,0.0174332,-9.97986,0.0426865,-0.00228882,0.0258636,-0.85392,-0.00164032,-0.000419617,-0.00247955,0.028038
38,2,10.0097,-0.00274658,0.00289917,-2.42806,0.0547655,-0.0753682,0.0519917,0.0682238,-0.094062,0.138299,-0.128208,-0.0850118,-0.0062561,0.0287628,0.0186157,-0.00244141,-0.0953674,0.220871,0.0597382,0.0216675,-9.97986,0.0436783,-0.00190735,0.028801,-0.806236,-0.00312805,-0.000915527,-0.00576019,0.035553
38,3,10.0097,-0.000610352,0.00595093,-2.42867,0.0535448,-0.0759786,0.0519917,0.0679186,-0.0916206,0.141351,-0.127598,-0.0840963,0.000991821,0.0327301,0.0200653,0.000686646,-0.0900269,0.215721,0.0671387,0.0195694,-9.97986,0.0530243,-0.00385284,0.0317764,-0.71888,-0.000724792,-0.00419617,-0.000190735,0.0354385
38,4,10.0097,-0.000305176,0.00732422,-2.42959,0.0544603,-0.0768941,0.0522969,0.0688341,-0.0934516,0.143487,-0.127598,-0.0847066,0.00713348,0.0345993,0.0182343,0.00038147,-0.0792694,0.214195,0.0708389,0.0198746,-9.97986,0.0418472,-0.00213623,0.0413132,-0.628471,-0.000610352,-0.00530243,-3.8147e-005,0.0408936
38,5,10.0097,0.000610352,0.00762939,-2.42867,0.0538499,-0.0762837,0.0532125,0.0700548,-0.094062,0.143792,-0.127598,-0.0844015,0.00133514,0.0286865,0.0191116,0.00362396,-0.0710678,0.205879,0.072937,0.0183868,-9.97986,0.0422287,-0.00514984,0.0511169,-0.540466,0.00934601,-0.00785828,-0.00419617,0.0448608
38,6,10.0097,0.000305176,0.00823975,-2.42776,0.0547655,-0.0756734,0.0526021,0.0688341,-0.0934516,0.143792,-0.126682,-0.0825704,-0.00244141,0.0307083,0.0188828,0.000305176,-0.0654602,0.201111,0.0695038,0.0173569,-9.97986,0.0370407,-0.00274658,0.0621796,-0.457458,0.0127411,-0.0162888,-0.000114441,0.043335
38,7,10.0097,-0.000610352,0.00839233,-2.42745,0.0544603,-0.0756734,0.0535176,0.0700548,-0.0934516,0.144708,-0.126682,-0.0819601,-0.020256,0.0331497,0.0208282,0.00465393,-0.0549698,0.186844,0.0718307,0.0151062,-9.97986,0.0325775,0.00175476,0.0690079,-0.367317,0.0133514,-0.0127792,-0.00324249,0.0439835
38,8,10.0097,0.000305176,0.00900269,-2.42714,0.055681,-0.075063,0.0529073,0.0688341,-0.0931465,0.144403,-0.125766,-0.0813497,-0.0192261,0.0361252,0.0241852,0.00324249,-0.0465393,0.174713,0.0739288,0.00915527,-9.97986,0.0306702,-0.00297546,0.0733566,-0.275536,0.00137329,-0.0111389,0.000152588,0.0452805
38,9,10.0097,0.000305176,0.00793457,-2.42684,0.0550706,-0.0744527,0.0532125,0.0694445,-0.0928413,0.145318,-0.126072,-0.0807394,0.00541687,0.0328827,0.0239182,0.00629425,-0.041008,0.164719,0.0711823,0.00484467,-9.97986,0.0244904,-0.0030899,0.0755692,-0.201836,-0.00320435,-0.00991821,-0.00148773,0.0436783
39,0,10.0097,0.000305176,0.00701904,-2.4244,0.0569017,-0.0738423,0.054128,0.0700548,-0.0922309,0.145624,-0.124546,-0.0795187,0.0376892,0.0361633,0.0257874,0.00736237,-0.0345612,0.153694,0.0753784,0.00400543,-9.97986,0.0231934,-0.00331879,0.0814438,-0.139465,3.8147e-005,-0.0118256,-0.0025177,0.0418472
39,1,10.0097,0.000610352,0.00640869,-2.42562,0.055681,-0.0741475,0.0547383,0.0706652,-0.0913154,0.146234,-0.124851,-0.0804342,0.0300217,0.0337219,0.0239563,0.00934601,-0.0275803,0.141983,0.0785446,0.0112534,-9.97986,0.00972748,0.00213623,0.0844193,-0.0725937,0.00614166,-0.011673,0.00305176,0.0419235
39,2,10.0097,0.0012207,0.00717163,-2.42592,0.0569017,-0.0729268,0.0553487,0.07036,-0.0913154,0.146844,-0.123935,-0.0798238,0.0127792,0.030899,0.0201416,0.00362396,-0.0201035,0.133438,0.0815964,0.00896454,-9.97986,-0.0107956,-0.00564575,0.0795746,-0.00476837,0.0031662,-0.00732422,0.000839233,0.0352478
39,3,10.0097,0.000610352,0.00579834,-2.42592,0.0553758,-0.0744527,0.0544332,0.0706652,-0.0913154,0.146539,-0.124546,-0.0795187,0.0225067,0.0266647,0.0192261,0.00183105,-0.0106812,0.125008,0.0804138,0.0224686,-9.97986,-0.0234604,-0.00408173,0.0747681,0.0429916,3.8147e-005,-0.00854492,0.00339508,0.036087
39,4,10.0097,-0.0012207,0.00640869,-2.42562,0.055681,-0.0729268,0.054128,0.0688341,-0.0913154,0.146844,-0.124546,-0.0786031,0.0170898,0.028038,0.0185013,-0.000152588,-0.00335693,0.113754,0.0720978,0.0222778,-9.97986,-0.0327301,-0.00621796,0.0774765,0.114021,-0.00457764,-0.0125122,0.0018692,0.0302505
39,5,10.0097,-0.000610352,0.00808716,-2.4244,0.0569017,-0.0741475,0.054128,0.0706652,-0.0913154,0.146234,-0.12302,-0.0786031,0.0069046,0.0341034,0.0201797,0.00297546,-0.000991821,0.101891,0.0779343,0.0271988,-9.97986,-0.0376511,-0.00370026,0.0722122,0.196648,0.00385284,-0.00873566,0.00442505,0.0310898
39,6,10.0097,-0.000610352,0.00671387,-2.42531,0.0565965,-0.075063,0.0535176,0.0697496,-0.0922309,0.145929,-0.123935,-0.0804342,0.00614166,0.0245667,0.016098,0.0038147,0.0088501,0.0903702,0.0814438,0.0234985,-9.97986,-0.0440979,-0.00331879,0.0682068,0.253067,0.00679016,-0.00480652,0.00366211,0.0274658
39,7,10.0097,0.000305176,0.00488281,-2.42714,0.0559862,-0.0756734,0.0522969,0.07036,-0.0934516,0.145624,-0.126072,-0.0804342,0.0119019,0.0245667,0.0141144,0.00339508,0.00961304,0.0799561,0.0764465,0.0257492,-9.97986,-0.0365448,-0.00465393,0.0659943,0.288239,0.00858307,-0.00228882,0.000991821,0.0217819
39,8,10.0097,-0.000610352,0.00457764,-2.42745,0.055681,-0.075063,0.0532125,0.0700548,-0.0928413,0.145013,-0.126072,-0.0819601,0.00366211,0.0270844,0.0154495,0.00102997,0.0126648,0.0772095,0.0795746,0.0269318,-9.97986,-0.0257111,-0.00541687,0.0611496,0.324287,0.0110245,-0.00358582,-0.000114441,0.0234222
39,9,10.0097,-0.00152588,0.00259399,-2.42745,0.0535448,-0.0753682,0.054128,0.0691393,-0.094062,0.145624,-0.126072,-0.0831808,-0.0132751,0.0281143,0.0148392,0.0019455,0.0175476,0.0692368,0.0781631,0.0240707,-9.97986,-0.0203705,-0.00289917,0.0631714,0.335655,0.0107193,-0.0069046,-0.000305176,0.0236511
40,0,10.0097,-0.00152588,0.00213623,-2.42928,0.0541551,-0.0765889,0.0535176,0.0688341,-0.0937568,0.144098,-0.127598,-0.0862325,-0.0186157,0.0292587,0.0175476,0.00453949,0.0196838,0.0601196,0.0795746,0.0189209,-9.97986,-0.0181198,-0.00846863,0.0527191,0.34874,0.0112152,0.00183105,0.00110626,0.0182343
40,1,10.0097,0.0012207,0.00137329,-2.42959,0.0535448,-0.0744527,0.0516866,0.0688341,-0.0937568,0.143792,-0.125156,-0.0856222,-0.0209427,0.0239563,0.0109863,0.00102997,0.0170898,0.0479507,0.0778198,0.0172424,-9.97986,-0.0153351,-0.000610352,0.0495529,0.36438,0.0183868,-0.000724792,0.00297546,0.0136948
40,2,10.0097,-0.000305176,0.00198364,-2.42867,0.0538499,-0.0759786,0.0529073,0.0694445,-0.0946723,0.144403,-0.126377,-0.0850118,-0.0247192,0.0257111,0.00896454,0.00312805,0.0267029,0.0410461,0.0754166,0.0287247,-9.97986,-0.0275421,-0.0019455,0.04776,0.380707,0.0176239,-0.000534058,-0.00476837,0.00801086
40,3,10.0097,0.00152588,0.0012207,-2.42837,0.0535448,-0.0759786,0.0532125,0.0694445,-0.0968086,0.143182,-0.127598,-0.0856222,-0.0205612,0.0257111,0.0133514,0.00389099,0.029335,0.0352859,0.0708389,0.0294113,-9.97986,-0.0296783,-0.0050354,0.0469208,0.394936,0.0152969,0.00259399,-0.00343323,0.00362396
40,4,10.0097,-0.000610352,0.000152588,-2.42959,0.0535448,-0.0765889,0.0519917,0.0685289,-0.0943672,0.142877,-0.128513,-0.0856222,-0.00621796,0.0278091,0.0153732,0.00774384,0.030365,0.0341034,0.0707626,0.0299835,-9.97986,-0.0211716,-0.00679016,0.0497055,0.398712,0.0178909,0.000915527,-0.00244141,-0.00507355
40,5,10.0097,0.000305176,-0.000152588,-2.42898,0.0544603,-0.0753682,0.0526021,0.0691393,-0.0943672,0.143487,-0.126987,-0.0862325,0.00980377,0.0276566,0.014267,0.00812531,0.0363159,0.0298309,0.0635147,0.0281525,-9.97986,-0.0157928,-0.0104523,0.0556183,0.407791,0.0181198,0.000991821,-0.00411987,-0.00911713
40,6,10.0097,-0.000305176,0.00152588,-2.42837,0.055681,-0.0744527,0.0529073,0.0685289,-0.0931465,0.143792,-0.126072,-0.0859274,0.0133133,0.0299454,0.0131226,0.00553131,0.0402069,0.034523,0.0648499,0.0196838,-9.97986,-0.00648499,-0.00148773,0.0588608,0.424843,0.0168991,-0.00362396,-0.00274658,-0.0153351
