
Devices
1200
,,BP Load cell - Voltage,String Length - Voltage,Clutch Active - Voltage,#7 iPecs - Voltage,,,,,,,,,EMG 1-8 Left - Voltage,,,,,,,,Pylon Force - Voltage,EMG 9-16 Right - Voltage,,,,,,,,
Frame,Sub Frame,BP Load Cell,String Length,From Arduino Logic,A45,A135,A225,A315,S0,S90,S180,S270,ZSum,EMG 1 Glut Max,EMG 2 Glut Med,EMG 3 Biceps Femoris Long,EMG 4 Rectus Femoris,EMG 5 Vastus Medialis,EMG 6 Tib Ant,EMG 7 Med Gas,EMG 8 Soleus,Pylon volts,EMG 9 Glut Max,EMG 10 Glut Med,EMG 11 Biceps Femoris Long,EMG 12 Rectus Femoris,EMG 13 Vastus Medialis,EMG 14 Tib Ant,EMG 15 Med Gas,EMG 16 Soleus
,,V,V,V,V,V,V,V,V,V,V,V,V,V,V,V,V,V,V,V,V,V,V,V,V,V,V,V,V,V
1,0,10.0097,0.0012207,0,-2.42684,0.0544603,-0.0744527,0.0529073,0.0718859,-0.0943672,0.145013,-0.125766,-0.0847066,0.0112152,0.02285,0.0180054,0.0122833,0.0216675,0.0101471,0.0211334,0.0150299,-9.97986,0.0165939,-0.00297546,0.0131607,0.00740051,0.0172424,-0.00221252,0.018425,0.00694275
1,1,10.0097,-0.000915527,0.000305176,-2.42776,0.0535448,-0.0747579,0.0535176,0.0712755,-0.0946723,0.144708,-0.125461,-0.0847066,0.00640869,0.0245285,0.0165558,0.00854492,0.0162125,0.00640869,0.0176239,0.0151062,-9.97986,0.0138855,-0.00392914,0.0165939,0.00499725,0.0189209,0.000190735,0.0143814,0.00385284
1,2,10.0097,0.000915527,0,-2.42684,0.0550706,-0.0738423,0.0544332,0.0706652,-0.0934516,0.144403,-0.124851,-0.0844015,0.0123596,0.0225067,0.0217056,0.0115585,0.0125504,0.00930786,0.0207138,0.0172424,-9.97986,0.0149536,-0.00179291,0.0127411,0.00480652,0.0151825,-0.00106812,0.0146484,0.00476837
1,3,10.0097,0.0012207,-0.000305176,-2.42531,0.0553758,-0.0735371,0.0556539,0.0724962,-0.0913154,0.146844,-0.124851,-0.0822652,0.0112152,0.0235748,0.0192642,0.0149918,0.0191879,0.013237,0.0235367,0.0169754,-9.97986,0.0178146,-0.00141144,0.0165558,0.00637054,0.0178146,0.000915527,0.0159836,0.0075531
1,4,10.0097,0,0.000152588,-2.4247,0.0559862,-0.0747579,0.0556539,0.0724962,-0.0919257,0.145624,-0.124241,-0.0816549,0.0117111,0.0249481,0.0173187,0.0133514,0.019455,0.0133133,0.0232697,0.0257111,-9.97986,0.0241089,7.62939e-005,0.0152969,0.00728607,0.018692,0.00385284,0.0161362,0.00778198
1,5,10.0097,0.000610352,-0.000457764,-2.42714,0.0559862,-0.0738423,0.0532125,0.0572374,-0.0946723,0.145013,-0.126072,-0.0825704,0.0102234,0.0218582,0.0185394,0.00988007,0.0204086,0.0106812,0.0216675,0.0234985,-9.97986,0.0193787,-0.00522614,0.011673,0.00640869,0.0170135,-0.0038147,0.014534,0.00415802
1,6,8.4673,-0.000610352,-0.00244141,-2.42653,0.0562914,-0.075063,0.0526021,0.00383166,-0.0986396,0.145318,-0.128208,-0.0837911,0.0114441,0.0279617,0.0175095,0.015831,0.020752,0.0082016,0.025177,0.0299835,-9.97986,0.0222778,-0.00167847,0.0123215,0.00919342,0.0133896,-0.00106812,0.0168991,0.00957489
1,7,-0.454511,0.000305176,-0.00427246,-2.42562,0.0565965,-0.0747579,0.0544332,-0.00898572,-0.095893,0.147149,-0.129734,-0.0834859,0.00587463,0.019722,0.0181961,0.00995636,0.0182343,0.00858307,0.0218201,0.0279617,-9.97986,0.0237274,-0.00453949,0.0134277,0.00938416,0.0201797,-0.00331879,0.017662,0.00873566
1,8,-7.91301,0.000305176,-0.00442505,-2.42592,0.0578172,-0.075063,0.0544332,-0.0144789,-0.0971137,0.14776,-0.130039,-0.0816549,0.0116348,0.0242233,0.0187302,0.0140381,0.0184631,0.0101852,0.0193787,0.0209045,-9.97986,0.018425,-0.000495911,0.0114059,0.00659943,0.0197601,-0.00133514,0.0162888,0.00793457
1,9,-9.99003,0.0012207,-0.00259399,-2.42501,0.055681,-0.0723164,0.0556539,0.0181749,-0.090705,0.145929,-0.128818,-0.080129,0.00713348,0.0236511,0.0179291,0.0165558,0.0177002,0.0110626,0.0199509,0.0201035,-9.97986,0.0169754,-0.00110626,0.014534,0.00495911,0.013237,-0.00408173,0.017128,0.00732422
2,0,-9.99003,0.00152588,-0.00183105,-2.42531,0.055681,-0.0726216,0.0562642,0.0450304,-0.0910102,0.145318,-0.126072,-0.0816549,0.00610352,0.0200272,0.017662,0.0138092,0.0186539,0.00728607,0.0159073,0.017128,-9.97986,0.00888824,0.00190735,0.0129318,0.00709534,-0.00404358,-0.00423431,0.0179291,0.00576019
2,1,-9.99003,0.00244141,-0.000457764,-2.42531,0.0547655,-0.0741475,0.0553487,0.0578478,-0.0922309,0.145013,-0.127292,-0.0819601,0.00774384,0.0215912,0.0214005,0.0139236,0.017662,0.0121307,0.021019,0.0147629,-9.97986,0.0137711,-0.00118256,0.0168991,0.00675201,-0.00816345,-0.00411987,0.0130463,0.00709534
2,2,-9.99003,0.0012207,0.000915527,-2.42623,0.055681,-0.0735371,0.0556539,0.0843981,-0.0900947,0.145929,-0.124851,-0.0822652,0.0122452,0.0249481,0.0248337,0.0143814,0.0189972,0.0151825,0.0255585,0.0128555,-9.97986,0.0148773,0.00434875,0.0204468,0.0117493,0.0149918,0.00293732,0.0193024,0.0094223
2,3,-7.84099,0.00183105,0.00213623,-2.42562,0.0547655,-0.0744527,0.055959,0.13933,-0.0858222,0.145318,-0.121189,-0.0819601,0.0069046,0.0175858,0.0114059,0.0087738,0.0112534,0.00232697,0.015831,0.00679016,-9.97986,0.0025177,-0.00774384,0.00926971,0.00530243,0.0117111,-0.00747681,0.00934601,0.000152588
2,4,-0.172224,0.000305176,0.00442505,-2.42684,0.0541551,-0.0762837,0.0547383,0.150011,-0.0882636,0.145624,-0.121189,-0.0847066,0.0130463,0.0246048,0.0209045,0.0135422,0.0177765,0.0138092,0.0239182,0.0075531,-9.97986,0.0123596,0.000228882,0.0178146,0.00995636,0.0165558,-0.00209808,0.0204468,0.00846863
2,5,7.67385,0.0012207,0.00427246,-2.42867,0.0535448,-0.0753682,0.0538228,0.151232,-0.0897895,0.143487,-0.12241,-0.0865377,0.0088501,0.0193787,0.0216293,0.0131607,0.018959,0.00751495,0.0206375,0.011673,-9.97986,0.0136948,-0.00267029,0.0113678,0.00644684,0.0136566,-0.00667572,0.0154114,0.00522614
2,6,10.0097,0.000610352,0.0038147,-2.43233,0.0520189,-0.0762837,0.0513814,0.119188,-0.095893,0.143487,-0.125156,-0.0889791,0.00988007,0.0218201,0.0193787,0.0139999,0.0183105,0.0127029,0.0240326,0.0153732,-9.97986,0.0088501,0.00461578,0.0140762,0.00785828,0.0159836,-0.00408173,0.0131989,0.00549316
2,7,10.0097,-0.000915527,0.000915527,-2.42959,0.0535448,-0.0756734,0.0504659,0.0889757,-0.0965034,0.143792,-0.126682,-0.0886739,0.0140381,0.0253677,0.0175476,0.0128174,0.0165176,0.0126648,0.0248337,0.0179291,-9.97986,0.0102997,0.00141144,0.0172043,0.00827789,0.0154495,-0.000343323,0.0151443,0.00831604
2,8,10.0097,0.000915527,0,-2.42898,0.0544603,-0.0759786,0.050771,0.0779894,-0.0955879,0.143487,-0.126682,-0.0883688,0.00900269,0.0211334,0.0167847,0.0137329,0.0144196,0.0123978,0.025444,0.0193787,-9.97986,0.0104904,0.00358582,0.0133896,0.00896454,0.0154114,-0.00396729,0.0143051,0.00663757
2,9,10.0097,-0.000915527,-0.000305176,-2.42653,0.0544603,-0.075063,0.0532125,0.0740221,-0.0952827,0.144403,-0.126682,-0.0865377,0.00728607,0.0224304,0.0182343,0.0147629,0.0172043,0.0115204,0.0239182,0.0185013,-9.97986,0.0104523,-0.00289917,0.0135422,0.00564575,0.0139236,-0.00244141,0.0154114,0.00881195
3,0,10.0097,0.00152588,0.000305176,-2.42745,0.0553758,-0.075063,0.0538228,0.0712755,-0.0943672,0.143792,-0.125766,-0.0850118,0.0110626,0.0220871,0.0189972,0.0106049,0.0172806,0.0117111,0.0260162,0.019722,-9.97986,0.0130844,0.000572205,0.0154877,0.00656128,0.017128,-0.00125885,0.0165558,0.00724792
3,1,10.0097,0.000305176,-0.000610352,-2.42837,0.0559862,-0.0762837,0.0538228,0.0706652,-0.0922309,0.144708,-0.125461,-0.0840963,0.0108337,0.0271988,0.0137711,0.00923157,0.0180054,0.00907898,0.0229263,0.0154114,-9.97986,0.0139236,-0.000495911,0.0119781,0.00228882,0.0130081,-0.00244141,0.0127792,0.00659943
3,2,10.0097,-0.000305176,0.000152588,-2.42562,0.0565965,-0.0747579,0.0538228,0.0718859,-0.0922309,0.144708,-0.125461,-0.0831808,0.0105286,0.0194168,0.0198364,0.0119781,0.0141525,0.0118256,0.0219345,0.0196457,-9.97986,0.0160599,-0.00133514,0.0118637,0.00785828,0.0145721,-0.00137329,0.0136566,0.00461578
3,3,10.0097,0.00213623,-0.000152588,-2.42562,0.0553758,-0.0738423,0.0553487,0.0712755,-0.0919257,0.146539,-0.124241,-0.0810445,0.013237,0.0211716,0.0166702,0.0111008,0.01194,0.0114822,0.0232315,0.0196838,-9.97986,0.0146866,-0.00450134,0.0123215,0.00274658,0.0172806,-0.000267029,0.0171661,0.00873566
3,4,10.0097,-0.000305176,0.000305176,-2.42531,0.0569017,-0.0753682,0.0550435,0.0724962,-0.0910102,0.146539,-0.124241,-0.0804342,0.0118256,0.0198746,0.0179291,0.0119019,0.0144577,0.0137329,0.0227737,0.0229645,-9.97986,0.0222397,-0.00469208,0.0133514,0.0038147,0.0141907,0.00221252,0.0131989,0.00728607
3,5,10.0097,0.000915527,-0.000305176,-2.42745,0.0547655,-0.0744527,0.0519917,0.058153,-0.094062,0.146844,-0.126682,-0.0819601,0.0106049,0.0231552,0.0201797,0.010643,0.0188828,0.0131989,0.0210571,0.0287247,-9.97986,0.0242615,-0.00366211,0.00888824,0.00522614,0.0172043,-0.00320435,0.0154495,0.00896454
3,6,8.66841,-0.000610352,-0.00274658,-2.42776,0.0550706,-0.0747579,0.0510762,0.00688342,-0.0995551,0.145929,-0.129123,-0.0840963,0.0125885,0.0248337,0.0224304,0.0129318,0.0159836,0.0137711,0.021286,0.0276566,-9.97986,0.0217438,-0.00682831,0.0101471,0.00587463,0.0162506,-0.00392914,0.0165176,0.00801086
3,7,-0.160627,0.00183105,-0.00335693,-2.42623,0.0569017,-0.0744527,0.0529073,-0.00745984,-0.0961982,0.146234,-0.129429,-0.0819601,0.0159073,0.0206757,0.0201797,0.0108719,0.0265884,0.0121689,0.0230789,0.0273132,-9.97986,0.0222778,-0.00160217,0.0153351,0.00370026,0.0179672,-0.00720978,0.0187302,0.00865936
3,8,-7.71983,0.000915527,-0.00442505,-2.42623,0.0569017,-0.0726216,0.0522969,-0.0150892,-0.095893,0.14776,-0.129429,-0.0813497,0.0129318,0.0222397,0.0191879,0.00770569,0.0214767,0.0138092,0.02388,0.0229645,-9.97986,0.0167084,-0.000343323,0.0154495,0.00583649,0.0177002,-0.00671387,0.0156403,0.0056839
3,9,-9.99003,0.000610352,-0.00320435,-2.4244,0.055681,-0.0735371,0.054128,0.0169542,-0.0922309,0.146234,-0.128208,-0.080129,0.00961304,0.022316,0.0139999,0.0127792,0.017662,0.0115585,0.0215149,0.0273514,-9.97986,0.0190735,-0.00282288,0.0146484,0.0075531,0.00919342,-0.00320435,0.0143051,0.00614166
4,0,-9.99003,0.00274658,-0.00183105,-2.42592,0.0550706,-0.0744527,0.0568746,0.0438097,-0.0910102,0.146844,-0.126987,-0.0813497,0.0133896,0.0251389,0.0158691,0.0113678,0.0165176,0.0114441,0.0234985,0.0222778,-9.97986,0.017128,-0.00228882,0.0169754,0.00652313,-0.00774384,-0.000114441,0.0146103,0.00640869
4,1,-9.99003,0,-0.000305176,-2.42501,0.0559862,-0.0738423,0.0547383,0.0590685,-0.0910102,0.145929,-0.125156,-0.0822652,0.0105667,0.0230408,0.0203323,0.00926971,0.015564,0.0109863,0.0231171,0.0139999,-9.97986,0.0139236,-0.000305176,0.0123978,0.00736237,-0.00774384,-0.00320435,0.014534,0.0069809
4,2,-9.99003,0,0.000915527,-2.42562,0.0547655,-0.075063,0.0568746,0.0850084,-0.0885688,0.145929,-0.123325,-0.0819601,0.00610352,0.0198746,0.0168991,0.0136948,0.0149155,0.00980377,0.0212097,0.00892639,-9.97986,0.00785828,-0.00335693,0.0133514,0.00587463,0.00846863,-0.00518799,0.0134659,0.0063324
4,3,-7.79826,-0.000305176,0.00289917,-2.42562,0.0547655,-0.0753682,0.0556539,0.13933,-0.0855171,0.144708,-0.121799,-0.0819601,0.0101471,0.0267029,0.0190735,0.0124741,0.0199127,0.0128174,0.0231934,0.0138092,-9.97986,0.0143051,-0.00469208,0.0133514,0.00816345,0.0162125,-0.00110626,0.0170898,0.00659943
4,4,-0.07884,0.0012207,0.00366211,-2.42776,0.0541551,-0.0753682,0.054128,0.151232,-0.0870429,0.144708,-0.121799,-0.0834859,0.00743866,0.0202179,0.0194931,0.00839233,0.0137711,0.00797272,0.02285,0.00705719,-9.97986,0.0113678,0.00320435,0.0159836,0.0075531,0.0143814,-0.00137329,0.0154877,0.00614166
4,5,7.80355,-0.000305176,0.00457764,-2.42623,0.0547655,-0.0759786,0.0529073,0.150316,-0.0894843,0.144098,-0.121494,-0.0859274,0.0125504,0.0240326,0.018959,0.0161362,0.0149155,0.00984192,0.0233459,0.0109863,-9.97986,0.00408173,-0.00198364,0.0157928,0.0069809,0.0151825,-0.00141144,0.0123978,0.00606537
4,6,10.0097,-0.00213623,0.00335693,-2.4305,0.0517137,-0.0775044,0.0501607,0.118883,-0.0955879,0.143182,-0.124546,-0.0886739,0.0111389,0.0269318,0.0185013,0.014267,0.0178909,0.0131989,0.0244141,0.0167084,-9.97986,0.0127411,0.00141144,0.0128937,0.00339508,0.0134277,-0.00198364,0.0128174,0.00629425
4,7,10.0097,0.000610352,0.00106812,-2.43142,0.0541551,-0.0756734,0.050771,0.0871447,-0.0974189,0.143182,-0.126377,-0.0883688,0.0120163,0.0259018,0.0164413,0.0152969,0.0180817,0.0088501,0.0230026,0.0134277,-9.97986,0.00766754,-0.0019455,0.0135803,0.00675201,0.0182343,-0.00106812,0.0181198,0.00694275
4,8,10.0097,0.00152588,0.000457764,-2.42928,0.0535448,-0.0753682,0.0510762,0.0770738,-0.0961982,0.143182,-0.125766,-0.0877584,0.0123978,0.0198746,0.0154114,0.0128937,0.0149918,0.0135422,0.0206375,0.0152206,-9.97986,0.0150299,-7.62939e-005,0.00686646,0.00831604,0.0188828,0.000915527,0.0156403,0.00595093
4,9,10.0097,0,0,-2.42928,0.0547655,-0.0762837,0.0516866,0.0740221,-0.0943672,0.144708,-0.126377,-0.0859274,0.00988007,0.0269318,0.0222397,0.0141144,0.0230026,0.0104523,0.0199127,0.0177765,-9.97986,0.00961304,-0.00423431,0.0125885,0.00541687,0.0177765,0.00232697,0.0148773,0.00728607
5,0,10.0097,0.000915527,-0.000457764,-2.42745,0.0553758,-0.075063,0.0532125,0.0718859,-0.0946723,0.145318,-0.126072,-0.0847066,0.0110245,0.0270462,0.0203323,0.00946045,0.0190735,0.00835419,0.0209808,0.0163651,-9.97986,0.0183105,-0.000839233,0.017128,0.00774384,0.0177765,-0.000457764,0.0166702,0.00682831
5,1,10.0097,0.000610352,0,-2.42776,0.0541551,-0.075063,0.0526021,0.0709703,-0.0931465,0.145624,-0.126072,-0.0844015,0.00984192,0.02285,0.0164413,0.0149918,0.0200272,0.00751495,0.0223541,0.0198364,-9.97986,0.0145721,-0.00362396,0.0141525,0.00492096,0.0160599,0.00087738,0.0169373,0.00671387
5,2,10.0097,0,0.000152588,-2.42684,0.0553758,-0.0744527,0.054128,0.0712755,-0.0925361,0.145929,-0.125156,-0.0834859,0.0115967,0.0214386,0.0179291,0.0130463,0.0142288,0.0121307,0.0195313,0.0185394,-9.97986,0.0149155,-0.00293732,0.0146484,0.00530243,0.0172424,0.000648499,0.0167084,0.00759125
5,3,10.0097,-0.000305176,0.000305176,-2.4244,0.0553758,-0.075063,0.054128,0.07036,-0.0916206,0.147149,-0.124851,-0.0822652,0.0120163,0.0227356,0.0194168,0.0136948,0.0182724,0.0137711,0.0234222,0.0180054,-9.97986,0.0113297,0.000839233,0.0123215,0.00583649,0.0151825,0.00205994,0.0151062,0.00663757
5,4,10.0097,0.000915527,-0.000152588,-2.4247,0.0569017,-0.0738423,0.0550435,0.0718859,-0.0928413,0.14776,-0.123935,-0.0816549,0.0137329,0.021286,0.0188446,0.0112152,0.0195313,0.0136566,0.0189972,0.0212479,-9.97986,0.0153732,-0.00461578,0.01297,0.00534058,0.0175476,-0.0056076,0.0162888,0.00919342
5,5,10.0097,0.0012207,0.000457764,-2.42623,0.055681,-0.0738423,0.0538228,0.0563219,-0.0949775,0.145624,-0.125461,-0.0831808,0.0113678,0.0203323,0.0188446,0.0111389,0.0198746,0.0107193,0.0218582,0.0236511,-9.97986,0.0212479,-0.00125885,0.0136948,0.00572205,0.0193024,-0.00484467,0.0178146,0.0069046
5,6,8.46486,0.000610352,-0.00152588,-2.42714,0.0553758,-0.0753682,0.050771,0.00383166,-0.100165,0.145624,-0.129123,-0.0834859,0.0134659,0.0242996,0.0204086,0.00976563,0.0200272,0.0156403,0.0190353,0.0257492,-9.97986,0.0233459,-0.00370026,0.0165939,0.00228882,0.017395,-0.00682831,0.0143433,0.00720978
5,7,-0.487776,0.000610352,-0.00366211,-2.42531,0.0569017,-0.0747579,0.0538228,-0.00837537,-0.0971137,0.146234,-0.130039,-0.0822652,0.0108719,0.0224304,0.021553,0.0104904,0.0154114,0.0110626,0.0217056,0.0275803,-9.97986,0.0236511,-0.00427246,0.00957489,0.0069809,0.0170517,-0.00278473,0.0163269,0.00850677
5,8,-7.92521,0.0012207,-0.00427246,-2.4247,0.0562914,-0.0741475,0.0550435,-0.0153944,-0.0961982,0.145624,-0.130039,-0.0828756,0.0139618,0.0239944,0.0197983,0.00854492,0.0178146,0.0175476,0.0228119,0.0230026,-9.97986,0.0206757,0.00175476,0.0138855,0.00766754,0.0200653,-0.00541687,0.0153732,0.00984192
5,9,-9.99003,0.000305176,-0.00335693,-2.42531,0.0559862,-0.0735371,0.0547383,0.0190905,-0.0925361,0.146539,-0.126072,-0.080129,0.0104141,0.0230408,0.0173187,0.0107574,0.0198746,0.0123596,0.0215149,0.02491,-9.97986,0.0188065,-0.00156403,0.0147629,0.0075531,0.0104523,-0.00347137,0.013237,0.00648499
6,0,-9.99003,-0.000610352,-0.00152588,-2.42501,0.055681,-0.0753682,0.055959,0.0450304,-0.0900947,0.146234,-0.126072,-0.0807394,0.0101471,0.0224304,0.0177765,0.0137711,0.0174713,0.0157928,0.0232697,0.0198364,-9.97986,0.0151062,-0.00350952,0.0133896,0.00442505,-0.0109863,-0.00518799,0.0180817,0.00419617
6,1,-9.99003,0.000915527,0.000152588,-2.42623,0.0538499,-0.0747579,0.0550435,0.0584581,-0.0913154,0.146539,-0.125156,-0.0822652,0.00995636,0.0231552,0.0172043,0.00911713,0.0143051,0.0146103,0.0196075,0.0113297,-9.97986,0.00923157,-0.00358582,0.014801,0.010376,-0.00968933,-0.00225067,0.0154877,0.00602722
6,2,-9.99003,0.000610352,0.000152588,-2.42531,0.0550706,-0.0744527,0.0556539,0.0843981,-0.0882636,0.146234,-0.124241,-0.0831808,0.0075531,0.0239182,0.0201035,0.0130844,0.0175858,0.0127029,0.0247574,0.010376,-9.97986,0.00938416,0.000152588,0.0164795,0.00488281,0.0100708,-0.00114441,0.0172043,0.00606537
6,3,-8.09978,0.000610352,0.00259399,-2.42531,0.0541551,-0.0747579,0.0568746,0.138719,-0.0849067,0.145624,-0.121189,-0.0825704,0.00926971,0.0204086,0.0205994,0.0111771,0.018425,0.0111389,0.0207138,0.0110245,-9.97986,0.0103378,-0.00450134,0.0178528,0.00823975,0.0128555,-0.00522614,0.0154495,0.00492096
6,4,-0.247907,-0.00244141,0.00457764,-2.42684,0.0535448,-0.0753682,0.0550435,0.151232,-0.0873481,0.144098,-0.122104,-0.085317,0.00862122,0.0222778,0.021019,0.00846863,0.0118637,0.0126266,0.0215912,0.00808716,-9.97986,0.00923157,0.00350952,0.0123596,0.0127029,0.0158691,-0.00324249,0.0163651,0.00518799
6,5,7.66988,-0.000305176,0.00427246,-2.42776,0.0529344,-0.075063,0.0535176,0.152147,-0.0891792,0.144403,-0.121799,-0.0844015,0.00911713,0.0219727,0.0171661,0.0101471,0.0201416,0.00843048,0.0212097,0.00984192,-9.97986,0.0088501,-0.00263214,0.0147629,0.00835419,0.0157166,-0.0019455,0.0147629,0.00549316
6,6,10.0097,0.000610352,0.00366211,-2.43142,0.0526292,-0.0771993,0.0504659,0.118883,-0.0949775,0.142877,-0.124546,-0.0880636,0.0137329,0.0245667,0.0156021,0.0107574,0.0173187,0.0136948,0.0260162,0.0128555,-9.97986,0.0153351,0.00160217,0.0158691,0.00770569,0.0166702,-0.000724792,0.0175476,0.00610352
6,7,10.0097,0.000305176,0.000610352,-2.4305,0.0529344,-0.0771993,0.0501607,0.0889757,-0.0980293,0.144098,-0.126072,-0.0889791,0.00976563,0.0193405,0.0155258,0.010643,0.0173569,0.00785828,0.0263596,0.00961304,-9.97986,0.00804901,-0.000762939,0.0156403,0.00705719,0.0143814,-0.00347137,0.0126266,0.00137329
6,8,10.0097,0,0.000152588,-2.4305,0.0529344,-0.075063,0.0516866,0.0779894,-0.0949775,0.143182,-0.126072,-0.0874532,0.0100327,0.0218201,0.0162506,0.00831604,0.0172424,0.0113297,0.0218201,0.0183487,-9.97986,0.0148392,0.0043869,0.0150681,0.00896454,0.0149155,-0.000114441,0.0173569,0.00732422
6,9,10.0097,0.0012207,-0.000457764,-2.42867,0.0529344,-0.075063,0.0516866,0.0731066,-0.0946723,0.144403,-0.126072,-0.0862325,0.00946045,0.0209427,0.0188065,0.0106812,0.0180435,0.0111008,0.0237274,0.0206757,-9.97986,0.0114059,-0.00240326,0.0111008,0.00785828,0.0141144,-0.00392914,0.0165558,0.00530243
7,0,10.0097,0.000305176,-0.000152588,-2.42684,0.0547655,-0.0753682,0.0522969,0.072191,-0.0931465,0.145929,-0.124851,-0.085317,0.00888824,0.0259018,0.0173187,0.0100708,0.0200272,0.00843048,0.0263214,0.017128,-9.97986,0.0140381,-0.0025177,0.0152206,0.00652313,0.014267,-0.00217438,0.0134659,0.00400543
7,1,10.0097,0,0.000305176,-2.42776,0.0541551,-0.0756734,0.0519917,0.0715807,-0.0925361,0.144403,-0.126072,-0.0850118,0.0105667,0.0214767,0.0185394,0.00900269,0.0231171,0.0109863,0.0214386,0.0218582,-9.97986,0.0165558,-0.00133514,0.0161743,0.00495911,0.0185013,-0.0018692,0.0191116,0.0075531
7,2,10.0097,0.000610352,-0.000152588,-2.42592,0.0559862,-0.0747579,0.0529073,0.072191,-0.0922309,0.145318,-0.125766,-0.0844015,0.0102234,0.0248337,0.0159836,0.0117111,0.0173569,0.0120544,0.0240326,0.0191498,-9.97986,0.014534,-0.00419617,0.0128174,0.0123215,0.0186157,-0.00366211,0.0165176,0.00598907
7,3,10.0097,0.00183105,0.00106812,-2.42531,0.0562914,-0.0738423,0.0550435,0.0712755,-0.0903999,0.146844,-0.124241,-0.0810445,0.013504,0.0228119,0.0155258,0.0110245,0.017128,0.0134277,0.0266647,0.0200653,-9.97986,0.0123978,-0.000495911,0.0152588,0.00637054,0.0222778,-0.00236511,0.0179672,0.00782013
7,4,10.0097,-0.000610352,0.000152588,-2.4244,0.0565965,-0.0729268,0.0544332,0.0718859,-0.0916206,0.147455,-0.12302,-0.0816549,0.0144577,0.0235748,0.0201797,0.0133896,0.0192642,0.0102234,0.0232315,0.0249481,-9.97986,0.0164413,-0.00339508,0.0125122,0.00572205,0.0177383,-0.00671387,0.0147247,0.00522614
7,5,10.0097,-0.000610352,0.000305176,-2.42653,0.0559862,-0.0747579,0.0535176,0.0578478,-0.0952827,0.146539,-0.125766,-0.0825704,0.0141525,0.0242233,0.0203323,0.0110626,0.0171661,0.00793457,0.0213623,0.0244904,-9.97986,0.0227737,-0.00404358,0.017662,0.00659943,0.0195694,-0.00671387,0.0144196,0.00770569
7,6,8.51918,0.000305176,-0.00259399,-2.42745,0.0562914,-0.0747579,0.0510762,0.00505237,-0.0977241,0.146234,-0.129429,-0.0831808,0.0114822,0.0218582,0.0191879,0.00915527,0.0149536,0.0120163,0.0264359,0.0248718,-9.97986,0.0225067,-0.000572205,0.0152206,0.00812531,0.0210571,-0.00656128,0.0191498,0.00926971
7,7,-0.361738,0.00152588,-0.00366211,-2.42653,0.0575121,-0.0744527,0.0535176,-0.00807019,-0.0968086,0.147149,-0.129429,-0.0822652,0.0131989,0.0252533,0.0189209,0.0101089,0.0175476,0.00976563,0.0203705,0.0282669,-9.97986,0.0178528,-0.000457764,0.0120544,0.0101852,0.0188828,-0.00564575,0.0135803,0.00553131
7,8,-7.87517,0.000305176,-0.00473022,-2.42592,0.0572069,-0.0735371,0.0547383,-0.0156996,-0.0974189,0.147455,-0.130039,-0.0813497,0.00972748,0.0238419,0.0211334,0.010376,0.0166321,0.00553131,0.0247192,0.026474,-9.97986,0.0156784,-0.00343323,0.0131226,0.00358582,0.0161362,-0.00549316,0.0175476,0.00473022
7,9,-9.99003,-0.000610352,-0.00305176,-2.4247,0.0572069,-0.073232,0.0550435,0.0172594,-0.0919257,0.147149,-0.127903,-0.0798238,0.00980377,0.0224304,0.0193024,0.0087738,0.0168991,0.00400543,0.0227356,0.0264359,-9.97986,0.018959,-0.00343323,0.0155258,0.00556946,0.0094986,-0.00427246,0.0146103,0.00930786
8,0,-9.99003,0,-0.00106812,-2.42592,0.0553758,-0.0747579,0.0556539,0.0459459,-0.090705,0.146234,-0.127292,-0.0813497,0.00965118,0.0272369,0.0181961,0.0108337,0.01194,0.00652313,0.0248337,0.0199127,-9.97986,0.0152588,0.00183105,0.018425,0.00797272,-0.00743866,-0.00576019,0.0140762,0.00915527
8,1,-9.99003,0.000305176,-0.000610352,-2.42501,0.0553758,-0.0741475,0.0547383,0.0590685,-0.090705,0.145929,-0.127292,-0.0828756,0.0107956,0.0254059,0.0201797,0.0112152,0.01194,0.0104523,0.0241852,0.0152588,-9.97986,0.0159454,0.00225067,0.0172806,0.00843048,-0.00823975,-0.00457764,0.0138855,0.00545502
8,2,-9.99003,0.0012207,0.000152588,-2.42592,0.0550706,-0.0741475,0.0556539,0.0837877,-0.0891792,0.145624,-0.124546,-0.0819601,0.0119019,0.0224686,0.0188065,0.0115204,0.0156021,0.00999451,0.026741,0.00904083,-9.97986,0.0101471,0.00141144,0.0112152,0.00827789,0.0120163,-0.000648499,0.0117493,0.0044632
8,3,-7.93071,0.000610352,0.00305176,-2.42531,0.0553758,-0.0747579,0.0568746,0.139025,-0.0852119,0.145624,-0.121189,-0.0822652,0.00797272,0.0224686,0.0164032,0.00911713,0.0211334,0.0115967,0.0214005,0.0111771,-9.97986,0.00614166,0.0030899,0.0150681,0.0069046,0.016098,-0.00137329,0.0168991,0.00576019
8,4,-0.283918,0.0012207,0.00305176,-2.42714,0.0532396,-0.0759786,0.054128,0.150621,-0.0876533,0.143792,-0.120884,-0.0844015,0.0110626,0.0251389,0.0188065,0.0120163,0.0162506,0.00995636,0.0205231,0.00869751,-9.97986,0.00926971,0.00377655,0.0164795,0.00839233,0.0171661,-0.00259399,0.0131226,0.0056076
8,5,7.67873,0.000610352,0.00488281,-2.42776,0.0538499,-0.0768941,0.0529073,0.151842,-0.090705,0.142877,-0.121189,-0.085317,0.00904083,0.0234985,0.0175858,0.0141144,0.0165939,0.0134659,0.0257111,0.0117874,-9.97986,0.0114059,-0.00125885,0.0132751,0.00534058,0.0197983,-0.0069046,0.0187302,0.00801086
8,6,10.0097,-0.00152588,0.00320435,-2.43111,0.0547655,-0.0765889,0.0492452,0.118883,-0.0952827,0.142877,-0.125461,-0.0877584,0.0112152,0.0253296,0.0144577,0.00904083,0.0178146,0.00991821,0.0196457,0.0138855,-9.97986,0.01194,-0.00167847,0.014534,0.00782013,0.0167465,-0.00534058,0.0123215,0.00663757
8,7,10.0097,0.00305176,0.0012207,-2.4305,0.0535448,-0.0762837,0.0510762,0.0895861,-0.0974189,0.142572,-0.126072,-0.0883688,0.00816345,0.0258255,0.0157166,0.00934601,0.0144958,0.0135803,0.0225449,0.0124359,-9.97986,0.0161743,0.000839233,0.0167465,0.0101852,0.0183105,-0.00198364,0.0143433,0.00617981
8,8,10.0097,0.000915527,0.000457764,-2.42989,0.0535448,-0.0759786,0.0513814,0.0761583,-0.0955879,0.141961,-0.126682,-0.0871481,0.0113678,0.0260544,0.0197983,0.01194,0.0180054,0.00923157,0.0255966,0.0146866,-9.97986,0.0140762,-0.00259399,0.0140762,0.00785828,0.0128174,0.000724792,0.0161362,0.00492096
8,9,10.0097,0.0012207,-0.000457764,-2.42867,0.0535448,-0.0753682,0.0529073,0.0724962,-0.0949775,0.143182,-0.126987,-0.0865377,0.00923157,0.0256348,0.0179672,0.0094223,0.0187683,0.0114059,0.0258255,0.0144958,-9.97986,0.0196457,0.00190735,0.0128555,0.00919342,0.0145721,-0.00114441,0.0166702,0.00453949
9,0,10.0097,0,0.000152588,-2.42684,0.0541551,-0.0747579,0.0532125,0.072191,-0.0943672,0.145624,-0.126072,-0.0856222,0.0109863,0.0235748,0.0209808,0.0123215,0.0152206,0.00629425,0.0262451,0.0147247,-9.97986,0.0144958,-0.00110626,0.0165558,0.00732422,0.019722,-0.0031662,0.0183868,0.00789642
9,1,10.0097,0.000915527,0.000762939,-2.42714,0.0541551,-0.0756734,0.0535176,0.0706652,-0.094062,0.145013,-0.125156,-0.0844015,0.00934601,0.0297546,0.0146866,0.0107193,0.0177765,0.00556946,0.027504,0.0177383,-9.97986,0.0137329,0.0038147,0.0110626,0.0108337,0.0172424,-0.00118256,0.013237,0.00709534
9,2,10.0097,0.000610352,-0.000305176,-2.42684,0.0550706,-0.0744527,0.0544332,0.0700548,-0.0931465,0.145013,-0.124851,-0.0834859,0.0106812,0.0234604,0.018425,0.0104523,0.0204086,0.0144196,0.0231171,0.0149918,-9.97986,0.0146484,0.000534058,0.0105286,0.00366211,0.0167465,-0.00522614,0.0151062,0.00530243
9,3,10.0097,0.000305176,0.000305176,-2.42501,0.0559862,-0.0741475,0.0535176,0.0709703,-0.0925361,0.145929,-0.124546,-0.0819601,0.0136566,0.0258636,0.0217438,0.0130844,0.0189972,0.0120926,0.0244141,0.0170517,-9.97986,0.0152969,-0.00183105,0.0140381,0.0069809,0.0180054,-0.00343323,0.0170898,0.00507355
9,4,10.0097,0.00183105,-0.000457764,-2.4247,0.0562914,-0.0741475,0.0547383,0.072191,-0.090705,0.146539,-0.124241,-0.0816549,0.0130844,0.0249481,0.0229645,0.0117874,0.0209045,0.010643,0.0223541,0.0199509,-9.97986,0.0185776,-0.00240326,0.0152588,0.0111389,0.0173569,0.000839233,0.0178528,0.0069046
9,5,10.0097,0.000610352,-0.000152588,-2.42562,0.0553758,-0.0741475,0.0535176,0.0587633,-0.0946723,0.146844,-0.125461,-0.0831808,0.01091,0.0296402,0.019989,0.0136566,0.0204849,0.00926971,0.0214386,0.0252151,-9.97986,0.018158,-0.00247955,0.0144577,0.00988007,0.021286,-0.0031662,0.0164413,0.00514984
9,6,8.62508,0.000305176,-0.00183105,-2.42837,0.0562914,-0.0738423,0.0513814,0.00566272,-0.09925,0.146539,-0.128513,-0.0844015,0.0139618,0.0285339,0.0170898,0.0108719,0.0188446,0.00865936,0.0209045,0.0273514,-9.97986,0.0178146,-0.0043869,0.0135803,0.00915527,0.0199509,-0.00152588,0.0185394,0.00617981
9,7,-0.240888,0.000610352,-0.00366211,-2.42684,0.0559862,-0.073232,0.054128,-0.00837537,-0.0971137,0.145929,-0.129734,-0.0822652,0.0133514,0.0245285,0.0183105,0.0117874,0.019455,0.00915527,0.0201035,0.0264359,-9.97986,0.0221252,-0.00259399,0.0122452,0.00797272,0.0216675,-0.0056076,0.0133896,0.00766754
9,8,-7.70274,-0.000915527,-0.00396729,-2.42501,0.0562914,-0.0741475,0.055959,-0.0160048,-0.0961982,0.147455,-0.130039,-0.0807394,0.0119019,0.0203323,0.0186157,0.0126266,0.0203705,0.00965118,0.0257874,0.0253296,-9.97986,0.017662,-0.00331879,0.013504,0.00827789,0.021553,-0.00263214,0.0156784,0.00965118
9,9,-9.99003,0.00152588,-0.00305176,-2.42501,0.0565965,-0.0741475,0.0553487,0.0175646,-0.0913154,0.146234,-0.128208,-0.0807394,0.0130463,0.0267029,0.019455,0.00980377,0.0203705,0.00637054,0.0242615,0.0254822,-9.97986,0.0150299,-0.00301361,0.0161362,0.00736237,0.0147247,-0.0019455,0.0148392,0.0030899
10,0,-9.99003,0,-0.00183105,-2.42562,0.0541551,-0.0744527,0.0556539,0.0441149,-0.0910102,0.145929,-0.126072,-0.0819601,0.0112534,0.0259399,0.0177383,0.00881195,0.0172806,0.00923157,0.02285,0.0172424,-9.97986,0.0172424,-0.00335693,0.011673,0.00404358,-0.00591278,-0.00228882,0.0164032,0.00663757
10,1,-9.99003,0.000305176,-0.000610352,-2.42653,0.0553758,-0.0747579,0.0550435,0.0587633,-0.0913154,0.144708,-0.126377,-0.0822652,0.00968933,0.0278091,0.0198746,0.0113297,0.0193024,0.00907898,0.0243759,0.0122452,-9.97986,0.0111771,-0.00354767,0.0100327,0.00614166,-0.0126648,-0.00488281,0.0143814,0.00762939
10,2,-9.99003,-0.000305176,0.000305176,-2.42592,0.0550706,-0.0747579,0.0550435,0.0865343,-0.0885688,0.146539,-0.124241,-0.0822652,0.00816345,0.0226974,0.0169754,0.0113678,0.0112915,0.00682831,0.021019,0.00923157,-9.97986,0.00663757,-0.00270844,0.011673,0.00377655,0.0146866,-0.00171661,0.0133514,0.00553131
10,3,-7.57152,-0.000305176,0.00305176,-2.42653,0.0544603,-0.0753682,0.055959,0.139635,-0.0855171,0.145624,-0.121494,-0.0837911,0.0126648,0.0230789,0.0217056,0.0123596,0.0143051,0.0114822,0.022316,0.0104523,-9.97986,0.0087738,-0.00465393,0.0149918,0.00659943,0.0165939,-0.000572205,0.0172424,0.00537872
10,4,0.136309,0.00152588,0.00335693,-2.42837,0.0550706,-0.0759786,0.0550435,0.151232,-0.0873481,0.144098,-0.121189,-0.0844015,0.00778198,0.0230408,0.0204086,0.00785828,0.0159073,0.00785828,0.021553,0.0108719,-9.97986,0.00679016,0.000686646,0.0149918,0.00305176,0.0149918,-0.00274658,0.0146866,0.00602722
10,5,7.93996,0.000915527,0.00442505,-2.42776,0.0526292,-0.0771993,0.0526021,0.150926,-0.0897895,0.143792,-0.121799,-0.085317,0.00904083,0.0237656,0.0226212,0.0154495,0.00961304,0.0120926,0.0218582,0.0127411,-9.97986,0.00766754,-0.000915527,0.0114441,0.00541687,0.0130844,-0.00514984,0.014534,0.00419617
10,6,10.0097,-0.000915527,0.00289917,-2.4305,0.0523241,-0.0778096,0.0513814,0.117662,-0.095893,0.143182,-0.125156,-0.0880636,0.00770569,0.0247955,0.0181961,0.0100327,0.0166702,0.0100708,0.0226593,0.0118256,-9.97986,0.00984192,0.000686646,0.0145721,0.00576019,0.0149536,-0.00366211,0.013237,0.00354767
10,7,10.0097,0.00183105,0.00106812,-2.42989,0.0541551,-0.0765889,0.0504659,0.0886705,-0.0968086,0.142877,-0.126377,-0.0880636,0.00854492,0.0250244,0.0242615,0.0104904,0.0175476,0.0111008,0.0209045,0.0153351,-9.97986,0.0119019,-0.000228882,0.0130844,0.00556946,0.0146866,-0.000801086,0.0128937,0.00507355
10,8,10.0097,-0.000915527,0.000762939,-2.42989,0.0541551,-0.0747579,0.0516866,0.0779894,-0.0961982,0.143792,-0.127292,-0.0877584,0.0149536,0.0292587,0.0222015,0.0133896,0.0107956,0.012207,0.0177765,0.0152588,-9.97986,0.0114441,-7.62939e-005,0.00953674,0.0019455,0.0167847,-0.00198364,0.0173187,0.00675201
10,9,10.0097,0.000915527,0,-2.42837,0.0529344,-0.0756734,0.0516866,0.0728014,-0.0949775,0.144708,-0.126377,-0.0862325,0.011673,0.0301361,0.0229263,0.0153351,0.019722,0.00934601,0.0228119,0.0154877,-9.97986,0.0149155,-0.00114441,0.015831,0.00301361,0.0159454,0.000915527,0.0157166,0.0094986
11,0,10.0097,0.000305176,0,-2.42837,0.0559862,-0.0735371,0.0529073,0.0718859,-0.094062,0.145013,-0.126072,-0.0856222,0.0104904,0.018425,0.0157166,0.0136185,0.0154114,0.0110626,0.019722,0.0183487,-9.97986,0.0156021,-0.000534058,0.0169754,0.00812531,0.0157166,0.000991821,0.016861,0.00804901
11,1,10.0097,0,0.000152588,-2.42745,0.0550706,-0.075063,0.0526021,0.07036,-0.0934516,0.143792,-0.126682,-0.0844015,0.00850677,0.0181198,0.00770569,0.00968933,0.0172424,0.0112152,0.0208282,0.0179291,-9.97986,0.0142288,-0.00377655,0.0122452,0.00392914,0.0116348,-0.00343323,0.0152206,0.00606537
11,2,10.0097,0.00152588,0.000152588,-2.42562,0.055681,-0.075063,0.0532125,0.07036,-0.0928413,0.144098,-0.125461,-0.0828756,0.0127029,0.0204468,0.00858307,0.0143051,0.0187683,0.0105667,0.0217056,0.0169754,-9.97986,0.0167465,-0.0031662,0.0156784,0.00663757,0.0177383,-0.0018692,0.0179291,0.00804901
11,3,10.0097,0.000915527,0.000305176,-2.42562,0.055681,-0.0738423,0.0544332,0.0724962,-0.090705,0.146539,-0.124546,-0.0819601,0.0152588,0.0208282,0.00644684,0.0115967,0.0185013,0.0127411,0.0228882,0.0197601,-9.97986,0.0175476,-0.000801086,0.015564,0.00778198,0.0139236,0.000572205,0.017662,0.00652313
11,4,10.0097,0.0012207,0.000457764,-2.42562,0.0559862,-0.0735371,0.0550435,0.072191,-0.0913154,0.146234,-0.124546,-0.0816549,0.00915527,0.0188446,0.0102234,0.00946045,0.0164413,0.0102234,0.0206375,0.0170517,-9.97986,0.0188828,-0.00152588,0.0133133,0.00736237,0.0129318,-0.00782013,0.0154877,0.00640869
11,5,10.0097,0.000915527,0.000305176,-2.42501,0.0565965,-0.0738423,0.0538228,0.0593737,-0.0934516,0.146234,-0.126072,-0.0822652,0.0121307,0.0235748,0.018692,0.0102997,0.0152969,0.0104904,0.0199127,0.0271606,-9.97986,0.0230789,0.000457764,0.0159836,0.01091,0.0147247,-0.00389099,0.0175858,0.00640869
11,6,8.61836,0.000610352,-0.00213623,-2.42745,0.0562914,-0.0741475,0.0510762,0.00566272,-0.100471,0.145929,-0.129123,-0.0844015,0.0134659,0.021286,0.018425,0.0118637,0.0168228,0.00976563,0.0234604,0.0252914,-9.97986,0.0203323,-0.000152588,0.00766754,0.00793457,0.0165939,-0.00415802,0.0147247,0.0104904
11,7,-0.288801,-0.0012207,-0.00366211,-2.42562,0.0572069,-0.0729268,0.0526021,-0.00715467,-0.0952827,0.146844,-0.128513,-0.0816549,0.0113678,0.021019,0.0196075,0.0157928,0.019455,0.0109863,0.0211334,0.0244522,-9.97986,0.0226593,-0.00370026,0.0143814,0.00274658,0.0170898,-0.00305176,0.0174713,0.01091
11,8,-7.68535,0.000915527,-0.00457764,-2.42562,0.0559862,-0.0729268,0.0568746,-0.0144789,-0.0955879,0.147455,-0.129734,-0.0819601,0.0117493,0.02388,0.0194168,0.0122452,0.0194931,0.0102234,0.0218201,0.0223541,-9.97986,0.0206757,-0.00236511,0.0109482,0.00537872,0.0136948,-0.00343323,0.0121689,0.0056839
11,9,-9.99003,0.000610352,-0.00350952,-2.42531,0.0572069,-0.0720113,0.0562642,0.016649,-0.0925361,0.147455,-0.127903,-0.0813497,0.0127792,0.0209808,0.0182343,0.00892639,0.016098,0.00972748,0.0216293,0.0244904,-9.97986,0.0224304,-3.8147e-005,0.0124741,0.00385284,0.00946045,-0.000457764,0.0152206,0.00511169
12,0,-9.99003,0.00244141,-0.0012207,-2.42562,0.0562914,-0.0744527,0.0553487,0.0441149,-0.090705,0.146234,-0.126377,-0.0810445,0.0122452,0.0167465,0.0160217,0.0125504,0.0174332,0.0103378,0.0205231,0.0149536,-9.97986,0.0130463,-0.00255585,0.0050354,0.0088501,-0.00923157,-0.000343323,0.014801,0.0069046
12,1,-9.99003,0.00152588,0.000152588,-2.42562,0.0559862,-0.075063,0.054128,0.0578478,-0.090705,0.145624,-0.126377,-0.0828756,0.0087738,0.0209808,0.0173187,0.00865936,0.0165176,0.0101089,0.0211334,0.014801,-9.97986,0.00816345,0.00160217,0.0125504,0.00812531,-0.00747681,0,0.0150681,0.00469208
12,2,-9.99003,0.00244141,0.000610352,-2.42684,0.0544603,-0.0747579,0.0562642,0.0840929,-0.0894843,0.145929,-0.123325,-0.0825704,0.0106049,0.017395,0.0191498,0.0114441,0.0173187,0.0108337,0.0228882,0.00762939,-9.97986,0.013237,-0.000114441,0.0123596,0.00827789,0.0139236,-0.00370026,0.0139618,0.00537872
12,3,-7.92888,-0.000610352,0.00259399,-2.42623,0.0547655,-0.0753682,0.055959,0.138109,-0.0849067,0.144403,-0.120578,-0.0834859,0.00873566,0.0214005,0.020256,0.0138092,0.0192261,0.0144958,0.0233459,0.0128174,-9.97986,0.00617981,-0.00198364,0.00873566,0.00980377,0.0157166,0.00137329,0.0178909,0.00450134
12,4,-0.221967,0.000305176,0.00366211,-2.42837,0.0544603,-0.0753682,0.0550435,0.150011,-0.0873481,0.143792,-0.121799,-0.0840963,0.0104141,0.0260544,0.0176239,0.00946045,0.0156403,0.0105667,0.0222015,0.00907898,-9.97986,0.0120544,0.00110626,0.0163651,0.00751495,0.0126266,-0.00148773,0.0146866,0.00648499
12,5,7.81423,0.000915527,0.0050354,-2.42837,0.0526292,-0.0771993,0.0532125,0.151232,-0.090705,0.143487,-0.122104,-0.0850118,0.0123978,0.0246048,0.0206757,0.013237,0.0159454,0.0125504,0.0183487,0.00995636,-9.97986,0.0117874,0.00038147,0.00801086,0.00934601,0.0139236,-0.00228882,0.0133896,0.00816345
12,6,10.0097,0,0.00305176,-2.43081,0.0541551,-0.0775044,0.0495503,0.118883,-0.0974189,0.142267,-0.125156,-0.0886739,0.0113678,0.0282669,0.0144196,0.00995636,0.0177765,0.0106049,0.0191498,0.0117493,-9.97986,0.014534,-0.000915527,0.0151062,0.00541687,0.0155258,0.00087738,0.0170517,0.00534058
12,7,10.0097,0.000610352,0.00106812,-2.43203,0.0526292,-0.0765889,0.0504659,0.0874498,-0.0971137,0.143182,-0.127292,-0.0880636,0.00694275,0.021553,0.0163651,0.00923157,0.0160217,0.0157547,0.0209808,0.0173187,-9.97986,0.0141907,-0.0019455,0.0128174,0.00499725,0.0176239,-0.00087738,0.0143051,0.00583649
12,8,10.0097,-0.000610352,0.000457764,-2.42959,0.0538499,-0.0771993,0.0513814,0.077379,-0.095893,0.142877,-0.127292,-0.0880636,0.0105286,0.0226212,0.0190353,0.0144958,0.018425,0.00953674,0.018959,0.0125122,-9.97986,0.0146866,-0.000152588,0.0141144,0.00656128,0.0188065,-0.00530243,0.0152588,0.00370026
12,9,10.0097,0.000610352,0,-2.42898,0.0541551,-0.075063,0.0522969,0.0737169,-0.0955879,0.144403,-0.126072,-0.0859274,0.0100327,0.0246811,0.0177002,0.0104141,0.017662,0.01297,0.0163651,0.0139999,-9.97986,0.0188446,-0.000305176,0.0167465,0.00556946,0.0145721,-0.00495911,0.0170517,0.00457764
13,0,10.0097,-0.00152588,-0.000457764,-2.42806,0.0547655,-0.0747579,0.0532125,0.0718859,-0.0937568,0.144403,-0.126682,-0.0837911,0.0118637,0.0248337,0.0173187,0.0104523,0.0167847,0.0123215,0.0185013,0.0151443,-9.97986,0.0168228,0.00190735,0.0131226,0.00675201,0.0182724,-0.00141144,0.0167084,0.00610352
13,1,10.0097,-0.000915527,0.000305176,-2.42806,0.0553758,-0.0741475,0.0538228,0.0694445,-0.0946723,0.144403,-0.126377,-0.0850118,0.0113678,0.0225067,0.0208282,0.0151062,0.018692,0.0133896,0.0237656,0.0170135,-9.97986,0.013237,0.000495911,0.0122833,0.00427246,0.0157166,0.000991821,0.0138092,0.00534058
13,2,10.0097,0.000610352,-0.000305176,-2.42592,0.055681,-0.0744527,0.0550435,0.0718859,-0.0925361,0.145929,-0.125156,-0.0825704,0.00495911,0.0226593,0.0212097,0.0152969,0.0205994,0.0127029,0.0244522,0.0177383,-9.97986,0.017395,0.00244141,0.0144577,0.00244141,0.0154877,-0.00205994,0.0138092,0.00545502
13,3,10.0097,0.000610352,0.000610352,-2.4247,0.0565965,-0.0729268,0.0550435,0.0712755,-0.0916206,0.146844,-0.124241,-0.0816549,0.00816345,0.0247955,0.0217438,0.00953674,0.0146866,0.0116348,0.0196075,0.0183487,-9.97986,0.0144196,-0.00205994,0.015831,0.0056839,0.0145721,-0.00514984,0.0161362,0.00743866
13,4,10.0097,0.000610352,0.000305176,-2.4244,0.0562914,-0.0747579,0.0562642,0.0709703,-0.0925361,0.146539,-0.123935,-0.0810445,0.0120544,0.0224686,0.0148773,0.0151825,0.0143433,0.0106812,0.0194168,0.0226212,-9.97986,0.0149536,-0.00400543,0.0134277,0.00888824,0.0167847,0.00087738,0.0141907,0.00801086
13,5,10.0097,0.00183105,0.000152588,-2.42623,0.0553758,-0.0753682,0.054128,0.0578478,-0.094062,0.146844,-0.124851,-0.0819601,0.0131607,0.0283432,0.0161362,0.0115967,0.0176239,0.00965118,0.0200272,0.0278473,-9.97986,0.0235367,-0.00267029,0.0127792,0.00362396,0.0170517,-0.000724792,0.0159073,0.00839233
13,6,8.51552,-0.000915527,-0.00137329,-2.42806,0.0559862,-0.0735371,0.0519917,0.00505237,-0.0989448,0.145318,-0.129429,-0.0847066,0.0128555,0.0209427,0.0228882,0.0142288,0.0157166,0.00835419,0.0245285,0.0270844,-9.97986,0.0239944,0.00205994,0.0143051,0.00549316,0.0176239,-0.00110626,0.0172806,0.00846863
13,7,-0.402326,-0.000610352,-0.00366211,-2.42592,0.0565965,-0.0753682,0.0538228,-0.00745984,-0.0968086,0.14776,-0.130039,-0.0819601,0.0120926,0.0173569,0.0193024,0.0107956,0.018158,0.0109863,0.020256,0.0259018,-9.97986,0.0200653,-0.00492096,0.0126648,0.00495911,0.0153351,-0.0043869,0.0138855,0.00541687
13,8,-7.83122,0.00183105,-0.0038147,-2.42531,0.0559862,-0.0738423,0.0532125,-0.0153944,-0.0952827,0.146539,-0.130344,-0.0822652,0.0131989,0.0177002,0.0218201,0.0147629,0.0204086,0.00892639,0.0215912,0.0266266,-9.97986,0.0227737,-0.000801086,0.0128555,0.00736237,0.0172806,-0.00392914,0.0165558,0.00679016
13,9,-9.99003,0.00183105,-0.00289917,-2.42409,0.0565965,-0.075063,0.0556539,0.0178697,-0.0919257,0.147149,-0.127292,-0.0807394,0.0069046,0.0235748,0.0212097,0.0149536,0.0177765,0.0063324,0.021286,0.0188446,-9.97986,0.0175095,-0.00144958,0.0189972,0.00694275,0.00774384,-0.00507355,0.0152206,0.00591278
14,0,-9.99003,0.000305176,-0.00137329,-2.4247,0.0572069,-0.0744527,0.0556539,0.0450304,-0.090705,0.145624,-0.126682,-0.0813497,0.013504,0.0208664,0.019989,0.0114059,0.0144577,0.0113297,0.0217438,0.0146866,-9.97986,0.0137711,-0.000686646,0.0128937,0.00331879,-0.00919342,-0.00488281,0.0163269,0.00556946
14,1,-9.99003,0.000305176,-0.000305176,-2.42501,0.0553758,-0.0735371,0.0556539,0.0593737,-0.0913154,0.145318,-0.126072,-0.0828756,0.00919342,0.0200653,0.0170517,0.0101089,0.0166702,0.00724792,0.0211716,0.0163269,-9.97986,0.0115204,0.0019455,0.0120544,0.00545502,-0.00675201,-0.00198364,0.0164032,0.00347137
14,2,-9.99003,0,-0.000152588,-2.42592,0.055681,-0.0741475,0.0562642,0.0853136,-0.0879585,0.145929,-0.125461,-0.0816549,0.00732422,0.0185013,0.0163651,0.0124741,0.0154495,0.00644684,0.018158,0.0119019,-9.97986,0.0117111,0.000991821,0.0154114,0.00431061,0.00888824,-0.0012207,0.0167847,0.00797272
14,3,-7.93437,-0.000305176,0.00320435,-2.42562,0.0547655,-0.0744527,0.0562642,0.137804,-0.0852119,0.145624,-0.121494,-0.0831808,0.011673,0.0242615,0.0195694,0.0135803,0.0187302,0.00865936,0.0184631,0.00980377,-9.97986,0.00778198,-0.000762939,0.0136948,0.00617981,0.0138092,-0.00331879,0.0178528,0.00736237
14,4,-0.255842,0.0012207,0.0038147,-2.42776,0.0550706,-0.0753682,0.0547383,0.149401,-0.0885688,0.144708,-0.119663,-0.0847066,0.0161362,0.0255585,0.0211334,0.0139236,0.0178528,0.0171661,0.0258255,0.0152588,-9.97986,0.0124741,0.00148773,0.0176239,0.00919342,0.0177002,0.00141144,0.020752,0.00999451
14,5,7.57131,0.0012207,0.00335693,-2.42867,0.0541551,-0.0753682,0.0532125,0.150926,-0.0894843,0.144098,-0.121799,-0.085317,0.00675201,0.016861,0.0169373,0.00770569,0.0175476,0.00595093,0.0187683,0.00858307,-9.97986,0.00740051,-0.00278473,0.00804901,0.00576019,0.010643,-0.00934601,0.0139236,0.00110626
14,6,10.0097,0,0.00350952,-2.43142,0.0526292,-0.075063,0.0501607,0.120104,-0.0952827,0.143182,-0.125766,-0.0883688,0.0147629,0.0242233,0.0200272,0.00934601,0.0164795,0.013237,0.024147,0.014267,-9.97986,0.0104141,-0.00156403,0.0172043,0.00972748,0.0179672,0.00217438,0.0218964,0.00953674
14,7,10.0097,0.0012207,0.0012207,-2.43081,0.0538499,-0.0756734,0.050771,0.0889757,-0.0971137,0.143487,-0.126682,-0.0883688,0.00888824,0.0185776,0.0177383,0.00926971,0.013237,0.00713348,0.0215149,0.0141525,-9.97986,0.0100708,-0.0037384,0.0121307,0.00232697,0.0159073,-0.00293732,0.0191879,0.00530243
14,8,10.0097,0.000610352,0.000610352,-2.42898,0.0538499,-0.0759786,0.050771,0.0779894,-0.0961982,0.143182,-0.127903,-0.0877584,0.0128174,0.0215149,0.018158,0.0124741,0.0231171,0.0104141,0.025177,0.0164413,-9.97986,0.0160217,-0.00087738,0.0119019,0.00831604,0.0157166,-0.00396729,0.0167084,0.00858307
14,9,10.0097,0.00183105,-0.000457764,-2.42959,0.0535448,-0.0753682,0.0529073,0.0737169,-0.0949775,0.144098,-0.126987,-0.0862325,0.0116348,0.0221634,0.0182724,0.0104904,0.0183105,0.0107193,0.0224304,0.0159454,-9.97986,0.0167084,0.00236511,0.0113678,0.00579834,0.0151825,-0.00244141,0.0182724,0.00648499
15,0,10.0097,0.0012207,-0.000152588,-2.42745,0.0535448,-0.0747579,0.0535176,0.0712755,-0.0937568,0.145624,-0.126072,-0.0847066,0.00900269,0.0213623,0.0216293,0.0087738,0.0148392,0.00926971,0.0219345,0.0177002,-9.97986,0.0144577,-0.00301361,0.0121307,0.00614166,0.0156403,0.00156403,0.0190353,0.00919342
15,1,10.0097,-0.000305176,0.000152588,-2.42776,0.0532396,-0.075063,0.0532125,0.0712755,-0.0937568,0.144098,-0.126072,-0.0844015,0.0113297,0.0221634,0.0209808,0.00720978,0.0141144,0.00843048,0.0212479,0.0189972,-9.97986,0.0112915,-0.000839233,0.01297,0.00339508,0.0156021,3.8147e-005,0.0159454,0.00724792
15,2,10.0097,0,0.000305176,-2.42745,0.0559862,-0.0741475,0.0544332,0.0712755,-0.0931465,0.145318,-0.125766,-0.0840963,0.0130463,0.0238037,0.0168228,0.0133896,0.0174713,0.00511169,0.0209427,0.0192261,-9.97986,0.0189209,0.000610352,0.0154495,0.0038147,0.0168991,-0.00236511,0.0130081,0.00553131
15,3,10.0097,-0.000305176,0.000305176,-2.42501,0.0544603,-0.0735371,0.0547383,0.0715807,-0.0910102,0.146844,-0.124851,-0.0819601,0.00995636,0.0262833,0.0233459,0.0106812,0.0183487,0.00514984,0.0234604,0.0183868,-9.97986,0.0157928,-0.00377655,0.0134659,0.00553131,0.0165176,-0.00301361,0.0164413,0.00740051
15,4,10.0097,0.000305176,0.000457764,-2.4247,0.0569017,-0.0735371,0.054128,0.0715807,-0.0925361,0.146539,-0.12302,-0.0819601,0.0156784,0.0237656,0.0207138,0.00782013,0.014801,0.00675201,0.0193787,0.0220108,-9.97986,0.0178528,0.00144958,0.0154877,0.00858307,0.018959,-0.00404358,0.0153732,0.0094986
15,5,10.0097,0.000610352,0.000610352,-2.42714,0.0562914,-0.0744527,0.0538228,0.0590685,-0.094062,0.145318,-0.124546,-0.0810445,0.0157928,0.0226593,0.0193405,0.00961304,0.0193405,0.0115585,0.0236511,0.0235367,-9.97986,0.0181961,0.00198364,0.0165558,0.00465393,0.0168228,-0.00530243,0.016098,0.0094223
15,6,8.70351,0.000610352,-0.00167847,-2.42653,0.0559862,-0.0735371,0.0519917,0.00627307,-0.0989448,0.146234,-0.129429,-0.085317,0.0153732,0.0232697,0.0183105,0.00759125,0.0160599,0.0125885,0.0205612,0.0305176,-9.97986,0.0218582,-0.000267029,0.0117874,0.0056839,0.0157928,-0.00171661,0.0156403,0.00896454
15,7,-0.282087,0,-0.00411987,-2.42592,0.0569017,-0.0738423,0.0535176,-0.00684949,-0.095893,0.147455,-0.130039,-0.0810445,0.013504,0.0244141,0.0179291,0.0133896,0.0191498,0.00675201,0.0230789,0.0271606,-9.97986,0.0208664,-0.00255585,0.0149155,0.0088501,0.0190735,-0.00118256,0.014267,0.00694275
15,8,-7.70518,0.000305176,-0.00366211,-2.42562,0.0572069,-0.0738423,0.0547383,-0.0166151,-0.0955879,0.146844,-0.130954,-0.0825704,0.0111771,0.019455,0.0214767,0.0150299,0.0182343,0.010643,0.0217056,0.0239944,-9.97986,0.018425,-0.00225067,0.0118256,0.00812531,0.017662,-0.000610352,0.0181961,0.00587463
15,9,-9.99003,0.000915527,-0.00289917,-2.42501,0.0562914,-0.073232,0.0565694,0.014818,-0.0922309,0.145318,-0.128208,-0.0804342,0.0159454,0.0191116,0.0209808,0.0101471,0.00972748,0.00965118,0.0233459,0.0244904,-9.97986,0.0181961,0.00350952,0.0150681,0.00865936,0.011673,-0.00301361,0.0152969,0.00793457
16,0,-9.99003,0.000915527,-0.00152588,-2.4247,0.0562914,-0.0744527,0.0565694,0.04442,-0.0910102,0.147149,-0.126072,-0.0804342,0.01194,0.0200653,0.0181961,0.0115585,0.0151443,0.00602722,0.0206757,0.0169373,-9.97986,0.0148773,-0.000152588,0.0100708,0.00614166,-0.00743866,-0.00102997,0.0150299,0.00686646
16,1,-9.99003,-0.000915527,-0.000152588,-2.42592,0.0550706,-0.0741475,0.0550435,0.0587633,-0.0922309,0.144403,-0.126377,-0.0819601,0.00934601,0.0230789,0.017662,0.0120544,0.0193024,0.00850677,0.0250626,0.0149918,-9.97986,0.0094223,-0.000839233,0.0132751,0.0063324,-0.00617981,-0.00144958,0.0150299,0.00614166
16,2,-9.99003,0.000305176,0.000305176,-2.42562,0.055681,-0.0747579,0.0556539,0.0840929,-0.0894843,0.145624,-0.123935,-0.0822652,0.0121689,0.0194168,0.0169754,0.00843048,0.0173187,0.0115967,0.024147,0.0121689,-9.97986,0.0094986,0.00370026,0.0164413,0.00907898,0.0133896,0.001297,0.0173187,0.00717163
16,3,-8.06773,-0.000915527,0.00228882,-2.42592,0.0553758,-0.0753682,0.0571797,0.138109,-0.0849067,0.144708,-0.12241,-0.0822652,0.00591278,0.0173569,0.0188446,0.00988007,0.0149918,0.0087738,0.0197983,0.00659943,-9.97986,0.00518799,-0.00164032,0.0155258,0.00606537,0.0205231,-0.000305176,0.0151062,0.00553131
16,4,-0.333662,0.0012207,0.00335693,-2.42745,0.0541551,-0.075063,0.054128,0.150316,-0.0879585,0.145318,-0.121494,-0.0847066,0.0102615,0.0198746,0.0214767,0.0192261,0.0188065,0.00595093,0.0278091,0.014267,-9.97986,0.00900269,-0.000724792,0.0191116,0.00946045,0.014534,0.00347137,0.0152969,0.00682831
16,5,7.70955,-0.0012207,0.00442505,-2.42898,0.0532396,-0.0765889,0.0526021,0.150926,-0.0910102,0.144403,-0.12241,-0.0859274,0.0131989,0.0251007,0.0203323,0.0100708,0.0156784,0.0125885,0.0233459,0.0123978,-9.97986,0.00621796,0.00137329,0.0130081,0.00541687,0.0209427,-0.00141144,0.0143433,0.00576019
16,6,10.0097,0,0.0038147,-2.42989,0.0535448,-0.0762837,0.0513814,0.119188,-0.095893,0.142267,-0.124851,-0.0886739,0.0115585,0.0196075,0.0184631,0.0104523,0.0154877,0.0075531,0.0234222,0.0124741,-9.97986,0.0149918,0.00102997,0.0156021,0.00804901,0.0152206,-0.00301361,0.0110245,0.00732422
16,7,10.0097,0.000305176,0.000305176,-2.42989,0.0535448,-0.0759786,0.050771,0.0901964,-0.0974189,0.144403,-0.127903,-0.0886739,0.00679016,0.0212479,0.0204086,0.0115204,0.018158,0.00720978,0.0245667,0.0141144,-9.97986,0.0139236,-0.00164032,0.0130844,0.0102997,0.0117111,0.000343323,0.014534,0.00522614
16,8,10.0097,-0.000305176,0.000305176,-2.42898,0.0547655,-0.0762837,0.050771,0.0782946,-0.095893,0.142877,-0.127292,-0.0877584,0.0115967,0.0231934,0.0199127,0.0130081,0.0185013,0.00911713,0.0242615,0.0141525,-9.97986,0.0094223,-0.0012207,0.0148392,0.0037384,0.0149155,0.000228882,0.0190735,0.00488281
16,9,10.0097,0.000610352,-0.000457764,-2.42745,0.0544603,-0.0756734,0.0516866,0.0743273,-0.0949775,0.143792,-0.125766,-0.085317,0.00968933,0.0174332,0.0169373,0.01194,0.0176239,0.00656128,0.0242996,0.0172424,-9.97986,0.0130844,-0.00247955,0.0144196,0.00389099,0.0134659,0.00278473,0.0128555,0.00282288
17,0,10.0097,0.000610352,0.000152588,-2.42714,0.0547655,-0.0753682,0.0532125,0.072191,-0.094062,0.144098,-0.127292,-0.085317,0.00747681,0.0180054,0.0192642,0.0119781,0.0193024,0.00808716,0.0227356,0.0174713,-9.97986,0.0141144,-0.00743866,0.0139618,0.00938416,0.0172043,-0.001297,0.0138855,0.00606537
17,1,10.0097,0.0012207,0.000457764,-2.42714,0.0535448,-0.0738423,0.0538228,0.07036,-0.0931465,0.145624,-0.125766,-0.0844015,0.00778198,0.0248718,0.0174332,0.0136185,0.0165939,0.00896454,0.0214005,0.0192642,-9.97986,0.0121689,-0.00362396,0.0126648,0.00682831,0.0165558,-0.000762939,0.0160599,0.00762939
17,2,10.0097,-0.000915527,0,-2.42684,0.0544603,-0.0744527,0.0532125,0.0712755,-0.0931465,0.145929,-0.125156,-0.0837911,0.0134659,0.0221252,0.0235748,0.00953674,0.0162506,0.0118256,0.0228119,0.0136185,-9.97986,0.0129318,-0.0043869,0.0149155,0.00801086,0.0165176,-0.00602722,0.01297,0.00598907
17,3,10.0097,0.000915527,0.000305176,-2.42531,0.0559862,-0.0744527,0.054128,0.0715807,-0.0916206,0.146539,-0.124851,-0.0810445,0.0144577,0.0225067,0.0166702,0.0133514,0.0179672,0.0123978,0.0218201,0.0151825,-9.97986,0.017128,-0.000686646,0.0175095,0.00778198,0.0188828,0.00087738,0.0179291,0.00694275
17,4,10.0097,0.000610352,0.000152588,-2.42531,0.0559862,-0.0744527,0.0550435,0.0709703,-0.0919257,0.146539,-0.124241,-0.0819601,0.0137329,0.0232697,0.0195694,0.0143051,0.0178909,0.00904083,0.0234222,0.0224304,-9.97986,0.0211334,-0.00453949,0.015831,0.00442505,0.0196457,0.00102997,0.0155258,0.00728607
17,5,10.0097,0.000610352,-0.000610352,-2.42592,0.0565965,-0.073232,0.0532125,0.0560167,-0.0961982,0.143792,-0.125766,-0.0816549,0.0123596,0.0212479,0.0193024,0.0110626,0.0154495,0.0111389,0.0214005,0.0249863,-9.97986,0.0195313,0.0031662,0.0149536,0.00556946,0.0193787,-0.00495911,0.0150681,0.00549316
17,6,8.40566,-0.000305176,-0.00259399,-2.42867,0.055681,-0.075063,0.0513814,0.00505237,-0.09925,0.146539,-0.128513,-0.0831808,0.00915527,0.0196457,0.0196838,0.0101471,0.0174713,0.0113297,0.0204468,0.0289536,-9.97986,0.0221252,0.000228882,0.0164413,0.00617981,0.020256,-0.00686646,0.0172043,0.00492096
17,7,-0.462751,0.000915527,-0.00411987,-2.42592,0.0559862,-0.0723164,0.0535176,-0.00807019,-0.0971137,0.14776,-0.129429,-0.0822652,0.0140762,0.0204086,0.0183105,0.0111771,0.0164032,0.00782013,0.0219345,0.0249481,-9.97986,0.0262451,0.00205994,0.0146866,0.0050354,0.0163269,-0.00530243,0.0151443,0.00816345
17,8,-7.85808,0.000610352,-0.00411987,-2.42501,0.0565965,-0.0741475,0.054128,-0.0138685,-0.095893,0.146234,-0.129734,-0.0813497,0.00904083,0.0224686,0.0197983,0.013504,0.0149155,0.0122833,0.0221634,0.0211716,-9.97986,0.018959,-0.00530243,0.0143814,0.00682831,0.0192261,-0.00205994,0.0192642,0.00579834
17,9,-9.99003,0.000305176,-0.00289917,-2.42409,0.0562914,-0.0738423,0.0562642,0.0172594,-0.0922309,0.145318,-0.128818,-0.0804342,0.0111389,0.0214767,0.0180435,0.0106812,0.0186157,0.00907898,0.0201035,0.0254822,-9.97986,0.0146866,0.00106812,0.0183105,0.0031662,0.0108337,-0.00217438,0.0180817,0.00720978
18,0,-9.99003,0.000305176,-0.00152588,-2.42592,0.055681,-0.073232,0.0562642,0.0450304,-0.0916206,0.145624,-0.126377,-0.0822652,0.010643,0.0225067,0.0179291,0.0111771,0.0180817,0.0117874,0.0218582,0.018959,-9.97986,0.0141907,-0.00228882,0.0144196,0.00511169,-0.0069809,-0.00484467,0.0152969,0.0105667
18,1,-9.99003,0.000915527,-0.000457764,-2.42623,0.0553758,-0.0741475,0.0562642,0.059984,-0.0910102,0.146234,-0.126072,-0.0822652,0.00839233,0.0164413,0.0166321,0.0125122,0.0144196,0.0117111,0.0214386,0.0134659,-9.97986,0.0100708,0.00144958,0.014534,0.00274658,-0.010643,-0.00305176,0.0193787,0.00591278
18,2,-9.99003,0.000915527,0.000152588,-2.42531,0.0550706,-0.0747579,0.0562642,0.0831774,-0.088874,0.145013,-0.124546,-0.0834859,0.00480652,0.0242615,0.0201416,0.0152969,0.0199127,0.0127411,0.0203705,0.0113678,-9.97986,0.00534058,-0.00125885,0.0162125,0.00717163,0.01297,-0.00286102,0.0196838,0.00770569
18,3,-8.18095,0.000610352,0.00305176,-2.42531,0.0553758,-0.0744527,0.0556539,0.136278,-0.0852119,0.145013,-0.12241,-0.0828756,0.00946045,0.0239944,0.0195694,0.0122833,0.0151825,0.0118637,0.0218201,0.0136185,-9.97986,0.0106812,0.000953674,0.018158,0.00675201,0.0138474,-0.00595093,0.0142288,0.00511169
18,4,-0.533552,0.00152588,0.00427246,-2.42745,0.0535448,-0.0762837,0.0562642,0.148485,-0.0870429,0.144098,-0.121799,-0.0850118,0.0075531,0.0239182,0.0164032,0.0140762,0.014801,0.00732422,0.025444,0.00869751,-9.97986,0.0146484,0.00110626,0.0183868,0.00396729,0.0154495,-0.00534058,0.019455,0.00602722
18,5,7.38912,-0.0012207,0.00427246,-2.42806,0.0547655,-0.0768941,0.0522969,0.152757,-0.0897895,0.144098,-0.121189,-0.0856222,0.0123215,0.0238419,0.0186157,0.0140762,0.020256,0.00930786,0.0193787,0.0112152,-9.97986,0.00896454,0.00396729,0.0149536,0.00587463,0.0147247,-0.00450134,0.0186157,0.00434875
18,6,10.0097,0.000305176,0.00335693,-2.43081,0.0532396,-0.0781148,0.0501607,0.122545,-0.0946723,0.141961,-0.124546,-0.0880636,0.00694275,0.0259399,0.018158,0.0105286,0.017395,0.010643,0.0213623,0.0106812,-9.97986,0.0154495,-0.00450134,0.0118256,0.0069809,0.0148773,-0.00419617,0.0157547,0.00576019
18,7,10.0097,-0.000305176,0.000305176,-2.4302,0.0547655,-0.0765889,0.0501607,0.0883654,-0.0971137,0.142572,-0.126072,-0.0880636,0.00759125,0.0217438,0.0204086,0.00762939,0.0157166,0.00930786,0.0154495,0.0100327,-9.97986,0.00988007,-0.00408173,0.0138092,0.00827789,0.015831,-0.00274658,0.0164032,0.00404358
18,8,10.0097,0,0.000305176,-2.42989,0.055681,-0.0765889,0.050771,0.0776842,-0.095893,0.142572,-0.127292,-0.0880636,0.0121307,0.0274658,0.0222397,0.00991821,0.0221252,0.00812531,0.0205612,0.0185394,-9.97986,0.0148392,-0.000457764,0.0151443,0.00469208,0.0182343,-0.00167847,0.0170898,0.00534058
18,9,10.0097,0.000610352,-0.000152588,-2.42776,0.0544603,-0.0756734,0.0526021,0.0731066,-0.0946723,0.143792,-0.126377,-0.0871481,0.0094986,0.0273514,0.0157166,0.00995636,0.0183105,0.0119781,0.0226974,0.0130463,-9.97986,0.0130081,-0.000648499,0.0148773,0.000419617,0.0123596,0.000801086,0.0152588,0.00679016
19,0,10.0097,-0.000915527,-0.000152588,-2.42806,0.0538499,-0.075063,0.0532125,0.0709703,-0.0934516,0.144098,-0.125461,-0.0856222,0.0108337,0.02388,0.0214386,0.0146103,0.020256,0.0143051,0.0256729,0.0170898,-9.97986,0.0142288,-0.00278473,0.0151443,0.00514984,0.015831,-0.00331879,0.018959,0.00583649
19,1,10.0097,-0.0012207,0.000305176,-2.42653,0.0550706,-0.0753682,0.0538228,0.0709703,-0.0934516,0.146844,-0.125156,-0.0844015,0.0102234,0.0241089,0.0185776,0.0108337,0.0175095,0.00846863,0.0201797,0.0153732,-9.97986,0.016098,-0.00362396,0.0137711,0.0069046,0.0159836,0.00209808,0.0178909,0.00591278
19,2,10.0097,0,0.000915527,-2.42714,0.0559862,-0.0744527,0.0529073,0.0709703,-0.0916206,0.145624,-0.125461,-0.0834859,0.0056076,0.0290298,0.0179672,0.0137329,0.0187302,0.0101852,0.026741,0.0205612,-9.97986,0.00976563,0.000572205,0.0121307,0.0056839,0.0187302,-0.000839233,0.0149536,0.00766754
19,3,10.0097,0.000610352,0.000305176,-2.42592,0.0569017,-0.0738423,0.0526021,0.0709703,-0.0916206,0.146234,-0.124851,-0.0813497,0.00907898,0.0274658,0.0179672,0.013237,0.0170517,0.0118256,0.0228882,0.0211334,-9.97986,0.011673,-0.00289917,0.0162506,0.00988007,0.0147247,-0.00320435,0.0193787,0.0056076
19,4,10.0097,0.000610352,0.000610352,-2.42501,0.0553758,-0.0729268,0.0544332,0.0697496,-0.0913154,0.145929,-0.123935,-0.0807394,0.0117493,0.0262451,0.0185394,0.0118256,0.0202179,0.0094986,0.0234604,0.0242615,-9.97986,0.0191879,-0.00350952,0.0138855,0.00576019,0.0157547,-0.00164032,0.0139236,0.00637054
19,5,10.0097,0.0012207,0.000305176,-2.42714,0.055681,-0.075063,0.0535176,0.059984,-0.094062,0.146539,-0.125461,-0.0831808,0.012207,0.0254822,0.0206375,0.0112915,0.0211716,0.0111771,0.016098,0.0283051,-9.97986,0.0208664,-0.00484467,0.011673,0.00511169,0.0178528,-0.00480652,0.0139999,0.00648499
19,6,8.70992,-0.000915527,-0.00213623,-2.42714,0.0562914,-0.075063,0.0513814,0.00535754,-0.0986396,0.146234,-0.129123,-0.0837911,0.0127029,0.0237274,0.0191116,0.0125885,0.018692,0.0101471,0.0209808,0.0276184,-9.97986,0.0201797,-0.00305176,0.016861,0.00648499,0.0206757,-0.00720978,0.0140762,0.0102615
19,7,-0.355634,0,-0.00335693,-2.42531,0.0547655,-0.0747579,0.0532125,-0.00990125,-0.0974189,0.146539,-0.127903,-0.0813497,0.0110626,0.0274658,0.020256,0.0118637,0.0217819,0.0138855,0.0247955,0.0289917,-9.97986,0.0252151,-0.00362396,0.0142288,0.00541687,0.0159454,-0.00385284,0.015564,0.00610352
19,8,-7.82664,-0.0012207,-0.00442505,-2.42562,0.0565965,-0.0738423,0.0550435,-0.0135634,-0.0961982,0.146844,-0.129734,-0.080129,0.0140762,0.0273895,0.0154495,0.0104141,0.0212097,0.0143814,0.0222015,0.0234222,-9.97986,0.0130844,-0.00392914,0.0150681,0.00671387,0.0177765,-0.000648499,0.0152206,0.00724792
19,9,-9.99003,0.000610352,-0.00305176,-2.4244,0.0569017,-0.0738423,0.0544332,0.0163439,-0.0931465,0.146234,-0.129123,-0.080129,0.0123978,0.02491,0.0136566,0.0111771,0.0191498,0.0113678,0.0226974,0.0206375,-9.97986,0.0190353,-0.00366211,0.0138474,0.00537872,0.0120544,-0.00484467,0.0158691,0.00976563
20,0,-9.99003,0.000305176,-0.00213623,-2.4247,0.0550706,-0.0729268,0.0556539,0.04442,-0.090705,0.144708,-0.126987,-0.0819601,0.0134277,0.0265884,0.0138474,0.0117493,0.0174713,0.0114441,0.0230789,0.0154114,-9.97986,0.0160599,0.00263214,0.0164032,0.00514984,-0.0102997,-0.001297,0.0149918,0.00679016
20,1,-9.99003,0.00152588,0,-2.42623,0.0550706,-0.0744527,0.0544332,0.0590685,-0.0897895,0.145929,-0.125766,-0.0816549,0.00911713,0.0225449,0.0167465,0.0127411,0.0185013,0.0120926,0.0195313,0.0187683,-9.97986,0.0131989,-0.000419617,0.0148773,0.00598907,-0.00946045,-0.00331879,0.0120926,0.00873566
20,2,-9.99003,-0.000305176,0.000762939,-2.42501,0.0550706,-0.0753682,0.0562642,0.082567,-0.0882636,0.145318,-0.124546,-0.0825704,0.00709534,0.0218964,0.0154877,0.011673,0.0148773,0.0142288,0.0204468,0.00526428,-9.97986,0.0094986,-0.00137329,0.0174332,0.0063324,0.010643,-3.8147e-005,0.0165558,0.0075531
20,3,-8.19957,0.0012207,0.00244141,-2.42592,0.0550706,-0.0744527,0.0574849,0.136278,-0.0849067,0.144098,-0.121799,-0.0822652,0.00961304,0.0218964,0.0180817,0.00667572,0.0156784,0.00953674,0.0198364,0.0108719,-9.97986,0.00488281,-0.00118256,0.0139236,0.00766754,0.0177002,-0.0031662,0.0130081,0.00461578
20,4,-0.52226,-0.000305176,0.00427246,-2.42714,0.0541551,-0.0753682,0.0550435,0.148485,-0.0873481,0.144098,-0.121799,-0.0847066,0.0108337,0.0251007,0.0172043,0.0112534,0.0156784,0.0138855,0.0202942,0.0112534,-9.97986,0.0112152,-0.00213623,0.0147247,0.00858307,0.0233078,-0.00312805,0.0157928,0.00648499
20,5,7.33296,-0.000305176,0.00442505,-2.42928,0.0520189,-0.0759786,0.054128,0.150011,-0.0894843,0.143487,-0.121494,-0.0862325,0.0140381,0.0217056,0.0158691,0.00839233,0.0153351,0.00770569,0.0226593,0.00972748,-9.97986,0.00923157,0.0019455,0.0184631,0.00614166,0.0160217,-0.00415802,0.0131226,0.00350952
20,6,10.0097,-0.000305176,0.00350952,-2.4305,0.0523241,-0.0759786,0.0516866,0.123766,-0.0961982,0.142877,-0.124546,-0.0886739,0.00709534,0.0196457,0.0209808,0.0110626,0.0180817,0.00953674,0.0193024,0.0159836,-9.97986,0.0143433,0.00244141,0.0164795,0.00938416,0.0171661,-0.0018692,0.0159454,0.00431061
20,7,10.0097,0,0.00106812,-2.4302,0.0547655,-0.0768941,0.050771,0.0889757,-0.0974189,0.143487,-0.126682,-0.0877584,0.0107574,0.0208282,0.0160217,0.00930786,0.0152588,0.00766754,0.0235748,0.0141907,-9.97986,0.0162506,-0.00423431,0.0148392,0.00804901,0.0173569,0.000724792,0.0163651,0.00499725
20,8,10.0097,0.00183105,0.000152588,-2.43111,0.0529344,-0.0765889,0.0501607,0.0767687,-0.0965034,0.143792,-0.126377,-0.0886739,0.00869751,0.0221252,0.0170135,0.00862122,0.0173569,0.0139236,0.0218201,0.014801,-9.97986,0.0172043,0.000534058,0.0143814,0.00988007,0.0139236,-0.000343323,0.0175858,0.00766754
20,9,10.0097,0.000915527,0,-2.42867,0.0544603,-0.0753682,0.0529073,0.0734117,-0.0952827,0.144403,-0.126072,-0.085317,0.0101852,0.0199127,0.0177383,0.00976563,0.0168228,0.00946045,0.0191498,0.0135422,-9.97986,0.0125885,-0.00274658,0.0124359,0.0069809,0.0169754,0.00137329,0.0175476,0.00324249
21,0,10.0097,0.000610352,0.000152588,-2.42714,0.0538499,-0.0753682,0.0519917,0.072191,-0.0934516,0.144098,-0.126072,-0.0837911,0.0138855,0.0234222,0.0177002,0.0101852,0.0154495,0.00904083,0.019722,0.0154495,-9.97986,0.0198364,-0.00137329,0.0140381,0.00629425,0.0153732,-0.000419617,0.0138092,0.0069809
21,1,10.0097,0.00213623,0,-2.42684,0.0553758,-0.0759786,0.0522969,0.0694445,-0.0931465,0.145013,-0.127598,-0.0847066,0.0126266,0.0255966,0.0160217,0.012207,0.0145721,0.00595093,0.0192261,0.0170135,-9.97986,0.0161362,-0.00148773,0.0178528,0.00293732,0.0176239,-0.00160217,0.0173569,0.00621796
21,2,10.0097,0.00152588,0.000915527,-2.42714,0.055681,-0.0729268,0.0547383,0.0709703,-0.0931465,0.147149,-0.125461,-0.0834859,0.00991821,0.0241852,0.0180054,0.0117874,0.0172043,0.0100327,0.0229645,0.0168991,-9.97986,0.0157547,-0.00305176,0.0144196,0.00530243,0.0200272,-0.0038147,0.0176239,0.00816345
21,3,10.0097,-0.000305176,0.000152588,-2.4244,0.0565965,-0.0738423,0.054128,0.0728014,-0.0922309,0.146234,-0.123325,-0.0819601,0.0128174,0.0221634,0.018692,0.00988007,0.0111771,0.00766754,0.0202179,0.0156784,-9.97986,0.0153732,-0.00301361,0.0134277,0.00988007,0.0151443,-0.0025177,0.0146866,0.00465393
21,4,10.0097,0.000305176,0.000610352,-2.42501,0.0572069,-0.0735371,0.0544332,0.0712755,-0.0916206,0.145624,-0.124546,-0.0819601,0.0146866,0.02491,0.0209045,0.0131607,0.0180435,0.0107193,0.0265884,0.0252151,-9.97986,0.0199127,-0.00289917,0.0152206,0.00705719,0.0166702,-0.00144958,0.0191116,0.00766754
21,5,10.0097,0.000915527,0.000305176,-2.42623,0.0565965,-0.0747579,0.0538228,0.0572374,-0.0952827,0.145929,-0.126072,-0.0831808,0.0123596,0.021019,0.017128,0.0107193,0.015831,0.0113678,0.0256348,0.0292206,-9.97986,0.0258255,-0.00526428,0.0107193,0.00869751,0.0191879,-0.00106812,0.0150681,0.0100327
21,6,8.5143,0.000610352,-0.00244141,-2.42684,0.0553758,-0.0741475,0.0519917,0.00627307,-0.09925,0.145318,-0.128818,-0.0844015,0.00827789,0.0227356,0.0222397,0.0125885,0.0204086,0.0129318,0.0256348,0.0310898,-9.97986,0.024147,0.000572205,0.0171661,0.00804901,0.0135803,-0.0037384,0.0154495,0.00473022
21,7,-0.378523,0.000915527,-0.00350952,-2.42562,0.0565965,-0.0735371,0.0532125,-0.00990125,-0.0968086,0.146234,-0.129429,-0.0828756,0.0108719,0.0203323,0.0192642,0.013504,0.0126266,0.00827789,0.0215149,0.0281143,-9.97986,0.020256,0.00328064,0.0123596,0.00751495,0.0173187,-0.00228882,0.0165176,0.0069046
21,8,-7.92186,-0.000915527,-0.00411987,-2.42531,0.0565965,-0.0744527,0.0544332,-0.0135634,-0.095893,0.145929,-0.129429,-0.0813497,0.0154877,0.0250626,0.0207138,0.0149155,0.0178909,0.0107193,0.0208664,0.0266266,-9.97986,0.0209045,-0.00259399,0.0101852,0.00907898,0.015564,-0.00366211,0.0154495,0.0107574
21,9,-9.99003,-0.000305176,-0.00274658,-2.4247,0.0553758,-0.0741475,0.055959,0.0172594,-0.0922309,0.147149,-0.127292,-0.0807394,0.0113678,0.0236893,0.0193024,0.0125122,0.0190735,0.00999451,0.0190353,0.0245285,-9.97986,0.0187683,-0.00133514,0.0123978,0.0106812,0.0145721,-0.00221252,0.0127411,0.00816345
22,0,-9.99003,0,-0.00167847,-2.42409,0.0559862,-0.0744527,0.0556539,0.0465563,-0.0900947,0.146539,-0.127598,-0.0819601,0.00930786,0.0251389,0.0183487,0.0134277,0.0247192,0.00968933,0.0170898,0.0157547,-9.97986,0.0193405,-0.00469208,0.0148392,0.0069809,-0.0030899,-0.00423431,0.015564,0.00476837
22,1,-9.99003,0.00213623,-0.000762939,-2.42623,0.0562914,-0.0744527,0.0544332,0.0587633,-0.0916206,0.144708,-0.126377,-0.0825704,0.00930786,0.02388,0.0206375,0.0102997,0.0195694,0.0113678,0.0212479,0.0149536,-9.97986,0.0162125,-0.00144958,0.0130844,0.00862122,-0.0101852,-0.00366211,0.0148392,0.00469208
22,2,-9.99003,0.000305176,0.000305176,-2.42653,0.0553758,-0.0753682,0.0556539,0.0813463,-0.0894843,0.146234,-0.126072,-0.0831808,0.00659943,0.0242615,0.0196838,0.0138092,0.0150681,0.00583649,0.021019,0.0134277,-9.97986,0.012207,0.00614166,0.0131607,0.00278473,0.0117111,-0.00198364,0.0164413,0.00720978
22,3,-8.33934,0.0012207,0.00289917,-2.42562,0.0538499,-0.073232,0.0568746,0.137193,-0.0867378,0.142572,-0.121189,-0.0822652,0.0088501,0.021286,0.0201797,0.0165558,0.0146866,0.00930786,0.0191498,0.00713348,-9.97986,0.0110626,-0.00255585,0.0141144,0.0104904,0.0175476,-0.00267029,0.0139999,0.00732422
22,4,-0.580244,-0.000305176,0.00335693,-2.42806,0.0541551,-0.0753682,0.0550435,0.150011,-0.0882636,0.143792,-0.121189,-0.0847066,0.0062561,0.0205612,0.018692,0.0124741,0.0175095,0.0107956,0.0216675,0.010643,-9.97986,0.0104141,-3.8147e-005,0.013237,0.00614166,0.0167847,0.00190735,0.0157166,0.00442505
22,5,7.31038,0.000610352,0.00473022,-2.42898,0.0541551,-0.0759786,0.0535176,0.150316,-0.0891792,0.141656,-0.122104,-0.0862325,0.0094223,0.026207,0.0180054,0.0148392,0.0177002,0.00926971,0.0215149,0.0112152,-9.97986,0.0139999,0.00263214,0.0140381,0.00995636,0.0170135,-0.00377655,0.014801,0.00770569
22,6,10.0097,-0.000915527,0.00335693,-2.4305,0.0526292,-0.0762837,0.050771,0.122545,-0.0961982,0.142572,-0.125461,-0.0883688,0.0105667,0.0223541,0.018425,0.00602722,0.0204086,0.0104141,0.0226974,0.0125885,-9.97986,0.0127411,-0.00190735,0.0153351,0.00415802,0.0144196,-0.00102997,0.0147629,0.00667572
22,7,10.0097,-0.000305176,0.0012207,-2.42989,0.0541551,-0.0759786,0.0501607,0.0905016,-0.0974189,0.143487,-0.126072,-0.0889791,0.0115204,0.0252533,0.0214767,0.0144958,0.0183868,0.0118256,0.0228882,0.013504,-9.97986,0.00823975,0.000686646,0.0148392,0.00473022,0.016861,-0.00114441,0.01297,0.00411987
22,8,10.0097,-0.000305176,0.000152588,-2.43142,0.0541551,-0.0765889,0.050771,0.0776842,-0.0955879,0.142572,-0.126987,-0.0871481,0.0101471,0.0224304,0.021019,0.0136185,0.0193405,0.0125122,0.0221634,0.0173187,-9.97986,0.0094223,0.00190735,0.0149918,0.0094223,0.0175476,-0.000534058,0.017395,0.00743866
22,9,10.0097,-0.000610352,-0.000457764,-2.42928,0.0553758,-0.0768941,0.0519917,0.0731066,-0.0949775,0.144708,-0.125766,-0.0859274,0.00831604,0.0199509,0.0182724,0.0120926,0.0172806,0.0139618,0.0182724,0.014267,-9.97986,0.0125885,-0.000152588,0.0128555,0.00976563,0.0166321,0.00038147,0.0139618,0.00606537
23,0,10.0097,-0.000915527,-0.000915527,-2.42714,0.0547655,-0.0747579,0.0532125,0.0724962,-0.0937568,0.144708,-0.126987,-0.0847066,0.00564575,0.0221252,0.0177002,0.00740051,0.0170898,0.0109863,0.0212097,0.0180817,-9.97986,0.0151062,0.00270844,0.0120544,0.00736237,0.0180817,0.00152588,0.0131989,0.00659943
23,1,10.0097,-0.0012207,0.000305176,-2.42653,0.0553758,-0.075063,0.0538228,0.0706652,-0.0937568,0.143792,-0.126072,-0.0847066,0.0103378,0.0228882,0.0194168,0.0126648,0.0177765,0.00972748,0.0161362,0.0220871,-9.97986,0.0131607,0.000419617,0.0127411,0.00835419,0.0189972,-0.000305176,0.0148773,0.00740051
23,2,10.0097,0.000610352,0.000457764,-2.42684,0.0562914,-0.075063,0.0529073,0.0718859,-0.0931465,0.145318,-0.126072,-0.0828756,0.00984192,0.0185013,0.0191879,0.00980377,0.0154495,0.00896454,0.0202942,0.021553,-9.97986,0.0180817,0.00198364,0.0130081,0.0075531,0.0172043,-0.00171661,0.0152588,0.00534058
23,3,10.0097,0.000610352,0.000152588,-2.4244,0.0569017,-0.0738423,0.0553487,0.0724962,-0.0910102,0.146539,-0.123935,-0.0819601,0.0106812,0.02285,0.0172806,0.0147629,0.0186157,0.0110245,0.0233078,0.020752,-9.97986,0.0175095,0,0.0153732,0.0063324,0.0190735,-0.00221252,0.0175476,0.00862122
23,4,10.0097,0.000915527,0.000152588,-2.42531,0.0562914,-0.0747579,0.0562642,0.0724962,-0.0913154,0.147455,-0.124546,-0.0816549,0.0156784,0.0201416,0.0223923,0.0109482,0.0204849,0.00835419,0.0220871,0.0248337,-9.97986,0.0207138,0.00244141,0.0146484,0.0156021,0.0186157,0.00301361,0.0189209,0.00770569
23,5,10.0097,0.000305176,0,-2.42684,0.055681,-0.0738423,0.0544332,0.0578478,-0.0949775,0.145013,-0.125156,-0.0816549,0.0122833,0.0175476,0.0177765,0.00839233,0.0165176,0.00873566,0.0178146,0.0271988,-9.97986,0.0198746,-0.00385284,0.0117111,0.00453949,0.0178146,-0.000495911,0.0144577,0.00614166
23,6,8.66872,0.00305176,-0.00228882,-2.42684,0.0565965,-0.0741475,0.0526021,0.00596789,-0.0986396,0.145318,-0.128513,-0.0837911,0.00984192,0.0252151,0.0209045,0.0094986,0.0191116,0.0114822,0.0234604,0.0328064,-9.97986,0.0214767,0.00125885,0.0137711,0.00587463,0.0199127,-0.00320435,0.0166321,0.00881195
23,7,-0.307111,0,-0.00350952,-2.42653,0.0572069,-0.0726216,0.054128,-0.00715467,-0.0968086,0.148065,-0.128818,-0.0822652,0.0117493,0.0232315,0.0221634,0.00694275,0.0157547,0.00663757,0.0175476,0.0241089,-9.97986,0.0177765,-0.00617981,0.0134659,0.00606537,0.0179672,-0.00148773,0.0165939,0.00911713
23,8,-7.75462,-0.00274658,-0.0050354,-2.42379,0.0578172,-0.0738423,0.054128,-0.0153944,-0.095893,0.146844,-0.129734,-0.0822652,0.0137329,0.0229263,0.0157547,0.00972748,0.014534,0.00774384,0.0170898,0.0238037,-9.97986,0.0167084,-0.00328064,0.0141144,0.00343323,0.0188828,-0.00183105,0.0152588,0.00350952
23,9,-9.99003,0.000915527,-0.00274658,-2.4247,0.0572069,-0.0735371,0.0556539,0.0157335,-0.0922309,0.145318,-0.127903,-0.0813497,0.0133133,0.0237274,0.0168228,0.00549316,0.0172424,0.00492096,0.0188446,0.0231934,-9.97986,0.0179672,-0.00389099,0.0100327,0.00492096,0.0112534,-0.00179291,0.0180054,0.00919342
24,0,-9.99003,0.000305176,-0.00152588,-2.42501,0.0565965,-0.0735371,0.0556539,0.04442,-0.0903999,0.145624,-0.127292,-0.0813497,0.0107574,0.0237274,0.0165176,0.00984192,0.0148392,0.0117493,0.019455,0.0183868,-9.97986,0.0131607,-0.00133514,0.0100708,0.00617981,-0.00862122,-0.00679016,0.014267,0.00541687
24,1,-9.99003,0.000305176,-0.000457764,-2.42623,0.0553758,-0.0756734,0.0544332,0.0590685,-0.0919257,0.144403,-0.125461,-0.0819601,0.0127029,0.0276566,0.0174713,0.0123596,0.0146103,0.00965118,0.0212097,0.0140381,-9.97986,0.0159073,-0.00087738,0.0144577,0.00850677,-0.00946045,-0.00236511,0.0161362,0.00507355
24,2,-9.99003,0.00213623,0.000457764,-2.4247,0.0562914,-0.0744527,0.0547383,0.0850084,-0.0879585,0.146844,-0.125156,-0.0816549,0.0114822,0.0206757,0.0157928,0.00553131,0.0151825,0.00679016,0.0213623,0.0102997,-9.97986,0.00961304,-0.000190735,0.0130463,0.00553131,0.0118637,-0.00205994,0.0133896,0.00740051
24,3,-8.0717,0.00152588,0.00335693,-2.42653,0.0547655,-0.0744527,0.0574849,0.136278,-0.0855171,0.145318,-0.12241,-0.0828756,0.0102615,0.0211334,0.0175476,0.00858307,0.0152206,0.0030899,0.0181198,0.0120926,-9.97986,0.00976563,-0.00335693,0.0188446,0.00328064,0.0138092,-0.00350952,0.0153732,0.0069046
24,4,-0.361738,0.000610352,0.00320435,-2.42684,0.0547655,-0.0744527,0.0553487,0.149401,-0.0870429,0.144098,-0.120273,-0.0844015,0.00747681,0.0222778,0.014534,0.0143433,0.0174713,0.00839233,0.0201797,0.00968933,-9.97986,0.0038147,-0.00282288,0.0150299,0.00236511,0.0144577,-0.00427246,0.0169754,0.00431061
24,5,7.56642,0.000305176,0.00488281,-2.42989,0.0541551,-0.0747579,0.0547383,0.152757,-0.0903999,0.144403,-0.121494,-0.085317,0.00801086,0.02285,0.013237,0.00938416,0.0146103,0.00911713,0.0206375,0.0125504,-9.97986,0.00759125,0.00156403,0.0133514,0.00701904,0.0196075,-0.00301361,0.0154877,0.00736237
24,6,10.0097,-0.000610352,0.0038147,-2.43111,0.0529344,-0.0765889,0.050771,0.120409,-0.0961982,0.142877,-0.123935,-0.0883688,0.0105667,0.0225067,0.0166702,0.0146484,0.0160599,0.0107574,0.0193405,0.0128937,-9.97986,0.0107193,0.00114441,0.0138855,0.00518799,0.0134659,-0.00247955,0.0175476,0.00534058
24,7,10.0097,0.0012207,0.000762939,-2.42959,0.0535448,-0.0762837,0.050771,0.0880602,-0.0977241,0.142572,-0.126072,-0.0883688,0.00965118,0.0245285,0.0169754,0.00740051,0.0157547,0.0104523,0.0214005,0.0164413,-9.97986,0.0112152,0.000457764,0.0152206,0.00926971,0.0173569,-0.00240326,0.0175095,0.00652313
24,8,10.0097,0.000610352,-0.000152588,-2.42959,0.0538499,-0.0756734,0.0519917,0.0779894,-0.0965034,0.144403,-0.126987,-0.0880636,0.0133514,0.0261688,0.0127411,0.0108719,0.0161362,0.0133896,0.0151062,0.0170135,-9.97986,0.0150681,0.00118256,0.0134277,0.0102997,0.0217438,-0.00576019,0.0151825,0.00679016
24,9,10.0097,0.00152588,-0.000457764,-2.42867,0.0541551,-0.0756734,0.0526021,0.0724962,-0.0943672,0.144098,-0.125766,-0.0868429,0.0128174,0.025177,0.0186157,0.0141907,0.0188446,0.00377655,0.0170898,0.014801,-9.97986,0.0121307,-0.00133514,0.0164413,0.00865936,0.018959,-0.000457764,0.016861,0.00770569
25,0,10.0097,0.00152588,-0.000457764,-2.42684,0.0550706,-0.0759786,0.0529073,0.0718859,-0.0937568,0.143487,-0.127292,-0.0850118,0.0120926,0.0257111,0.0200272,0.0107574,0.0167465,0.00968933,0.0212097,0.0152969,-9.97986,0.0127411,0.000762939,0.0144196,0.00720978,0.015564,-0.00171661,0.015831,0.00869751
25,1,10.0097,0.000915527,0.000762939,-2.42684,0.0559862,-0.075063,0.0538228,0.0712755,-0.0934516,0.145624,-0.125766,-0.0834859,0.0075531,0.0218201,0.0200272,0.0141525,0.0166702,0.0120163,0.0197601,0.0154114,-9.97986,0.0144196,-0.00270844,0.0130463,0.00865936,0.017128,-0.00545502,0.0160599,0.00652313
25,2,10.0097,0.00213623,0,-2.42684,0.0553758,-0.075063,0.0522969,0.0706652,-0.0925361,0.145318,-0.126072,-0.0834859,0.00846863,0.0213623,0.0196075,0.0159073,0.0117874,0.0146866,0.0217438,0.0139999,-9.97986,0.0177383,-0.000839233,0.0142288,0.00343323,0.0157547,3.8147e-005,0.0164413,0.00488281
25,3,10.0097,0.000915527,0.000152588,-2.42501,0.0559862,-0.0756734,0.0535176,0.0709703,-0.0925361,0.146844,-0.123935,-0.0816549,0.00988007,0.0233841,0.0168228,0.00965118,0.0163651,0.00656128,0.0239563,0.0209808,-9.97986,0.0164795,-0.00102997,0.0139236,0.00972748,0.0175858,-0.000572205,0.0183868,0.00648499
25,4,10.0097,0,0.000305176,-2.42562,0.0559862,-0.0744527,0.0547383,0.0728014,-0.0913154,0.145929,-0.125156,-0.0813497,0.0117111,0.0234604,0.017662,0.0120926,0.0161362,0.012207,0.0210953,0.021286,-9.97986,0.0201035,-0.00301361,0.01297,0.00740051,0.0155258,-0.000419617,0.0157928,0.00778198
25,5,10.0097,0.0012207,0.000152588,-2.42653,0.0559862,-0.0741475,0.0532125,0.059984,-0.0946723,0.146844,-0.125766,-0.0816549,0.01194,0.0243759,0.0198364,0.0117874,0.0164795,0.0113297,0.0235748,0.0291824,-9.97986,0.0169373,-0.00423431,0.0128555,0.00968933,0.0212479,-0.00255585,0.0170135,0.00694275
25,6,8.8033,-0.000610352,-0.00244141,-2.42745,0.0547655,-0.0747579,0.0519917,0.00505237,-0.09925,0.146539,-0.128513,-0.0831808,0.0117111,0.0240326,0.0194168,0.00988007,0.018692,0.00999451,0.0238419,0.0297928,-9.97986,0.0194168,-0.00473022,0.0104904,0.00656128,0.0192261,-0.00579834,0.0143814,0.00476837
25,7,-0.133466,-0.000610352,-0.00427246,-2.42562,0.0569017,-0.0738423,0.0544332,-0.00715467,-0.0971137,0.146844,-0.128818,-0.0819601,0.0125122,0.0231552,0.0191879,0.01297,0.0157547,0.0112915,0.0252914,0.0247955,-9.97986,0.0242996,-0.00370026,0.01091,0.00999451,0.0183487,-0.00579834,0.0143433,0.00648499
25,8,-7.48332,-0.000610352,-0.00473022,-2.42592,0.0569017,-0.0741475,0.0532125,-0.0144789,-0.095893,0.147149,-0.130649,-0.0813497,0.0150681,0.0250626,0.0212097,0.0113297,0.0168228,0.00923157,0.0209808,0.0212479,-9.97986,0.019722,0.00213623,0.0140762,0.00904083,0.0177765,-0.0031662,0.0172806,0.00709534
25,9,-9.99003,0.000610352,-0.00274658,-2.4247,0.0575121,-0.0735371,0.055959,0.0160387,-0.0916206,0.147455,-0.128208,-0.0813497,0.0130081,0.0240707,0.0157547,0.0112534,0.0159073,0.00953674,0.0215149,0.0204849,-9.97986,0.019455,-0.000572205,0.00957489,0.00640869,0.0154877,-0.00404358,0.0158691,0.00469208
26,0,-9.99003,0.000915527,-0.00152588,-2.42501,0.0553758,-0.0744527,0.0556539,0.0428942,-0.0916206,0.146539,-0.126987,-0.0804342,0.0141525,0.0244522,0.0176239,0.0151443,0.0176239,0.0112534,0.0237274,0.0190735,-9.97986,0.0185013,0.00202179,0.0149536,0.00782013,-0.00385284,-0.00179291,0.017128,0.00583649
26,1,-9.99003,0.000305176,-0.000305176,-2.42623,0.055681,-0.0747579,0.0547383,0.0590685,-0.0910102,0.146539,-0.126072,-0.0807394,0.00930786,0.0215149,0.0150299,0.00930786,0.0139618,0.00770569,0.0218582,0.0122452,-9.97986,0.0127792,0.00087738,0.0113678,0.00896454,-0.00793457,-0.00331879,0.0134277,0.00831604
26,2,-9.99003,0,0.000915527,-2.42592,0.0550706,-0.075063,0.0550435,0.0859239,-0.0891792,0.146539,-0.125156,-0.0828756,0.0110245,0.0225449,0.0157166,0.0128174,0.0135803,0.0111008,0.0261688,0.0114441,-9.97986,0.00473022,-0.000419617,0.0113297,0.00873566,0.0131989,-0.00473022,0.0160599,0.00473022
26,3,-7.82145,0.0012207,0.00305176,-2.42623,0.0544603,-0.0753682,0.0571797,0.138414,-0.0852119,0.145013,-0.120884,-0.0822652,0.00938416,0.0240707,0.017662,0.0146484,0.014801,0.0122833,0.0276566,0.0108719,-9.97986,0.0107574,0.00175476,0.0138474,0.00740051,0.0154877,-0.00602722,0.0121307,0.00587463
26,4,-0.0501535,0.000610352,0.00411987,-2.42684,0.0535448,-0.0756734,0.0547383,0.149095,-0.0870429,0.142877,-0.120884,-0.0850118,0.0119019,0.0232697,0.0137329,0.01091,0.0152206,0.0113297,0.0236893,0.00808716,-9.97986,0.00961304,0.00312805,0.0121307,0.00289917,0.0155258,-0.00392914,0.015564,0.00713348
26,5,7.92562,-0.000305176,0.00427246,-2.42867,0.0535448,-0.0753682,0.0529073,0.151232,-0.0894843,0.144098,-0.121189,-0.0859274,0.0101089,0.0222778,0.0156021,0.0127411,0.0159073,0.0126648,0.0261688,0.01297,-9.97986,0.0140381,0.00289917,0.0180817,0.00816345,0.0159836,0.000953674,0.019455,0.00640869
26,6,10.0097,0.00213623,0.00320435,-2.4305,0.0538499,-0.0765889,0.050771,0.117967,-0.0961982,0.142572,-0.124546,-0.0886739,0.00926971,0.0210953,0.0176239,0.00762939,0.0145721,0.00595093,0.0199509,0.00766754,-9.97986,0.00980377,-0.00518799,0.0163269,0.00404358,0.019722,-0.000991821,0.0147247,0.00366211
26,7,10.0097,0.000305176,0.0012207,-2.43081,0.0529344,-0.0765889,0.0501607,0.0880602,-0.0977241,0.141961,-0.126682,-0.0889791,0.0133514,0.02285,0.0221252,0.0154114,0.0171661,0.0136185,0.0245667,0.0174713,-9.97986,0.0183105,0.00259399,0.018692,0.00881195,0.0178146,-0.00133514,0.015831,0.00598907
26,8,10.0097,0.00152588,-0.000457764,-2.42989,0.0544603,-0.0756734,0.0513814,0.0776842,-0.0965034,0.143792,-0.126072,-0.0874532,0.00602722,0.0152969,0.0172043,0.0102615,0.0148773,0.00747681,0.0187683,0.0111008,-9.97986,0.0160217,-0.00087738,0.015564,0.00686646,0.0172806,-0.00473022,0.0181198,0.00419617
26,9,10.0097,-0.000915527,-0.000152588,-2.42837,0.0544603,-0.0762837,0.0522969,0.0737169,-0.0946723,0.144098,-0.126682,-0.0865377,0.0130463,0.0239944,0.0185776,0.0115204,0.0143433,0.00728607,0.0212479,0.0124741,-9.97986,0.0137329,-0.00209808,0.0147247,0.00667572,0.016861,-0.00434875,0.0182724,0.00541687
27,0,10.0097,0.00244141,-0.000305176,-2.42806,0.0541551,-0.0756734,0.0519917,0.0718859,-0.094062,0.145013,-0.126072,-0.0850118,0.00915527,0.0239944,0.0217819,0.0120926,0.0153351,0.0133133,0.020752,0.0222778,-9.97986,0.018158,-0.000267029,0.0156403,0.00873566,0.0186157,-0.00511169,0.017128,0.00522614
27,1,10.0097,0.00152588,0.000610352,-2.42745,0.0553758,-0.0747579,0.0538228,0.07036,-0.0928413,0.145013,-0.126377,-0.0834859,0.0107574,0.0211334,0.0186539,0.0115204,0.0151443,0.00762939,0.0229263,0.0164032,-9.97986,0.0157928,0.000419617,0.0194168,0.00759125,0.0147247,-0.00255585,0.0126266,0.0025177
27,2,10.0097,0.000610352,-0.000305176,-2.42714,0.0550706,-0.0762837,0.0538228,0.0715807,-0.0931465,0.145013,-0.125156,-0.0837911,0.0115204,0.0242996,0.0215149,0.0125504,0.0177765,0.01091,0.0246429,0.0153351,-9.97986,0.0180435,-0.00240326,0.0156021,0.00461578,0.017395,-0.00202179,0.0169754,0.00526428
27,3,10.0097,0.000610352,-0.000457764,-2.4247,0.0562914,-0.0741475,0.0544332,0.0712755,-0.0925361,0.146234,-0.123935,-0.0819601,0.00946045,0.0209045,0.018158,0.0138092,0.0179672,0.0147629,0.0219727,0.0204086,-9.97986,0.0196075,-0.00270844,0.0131989,0.00534058,0.017395,-0.00236511,0.0148773,0.00434875
27,4,10.0097,-0.000915527,0.000305176,-2.4244,0.0565965,-0.073232,0.0535176,0.0724962,-0.0919257,0.146844,-0.124546,-0.0810445,0.0110626,0.0190735,0.017662,0.0153732,0.0149155,0.00972748,0.0216293,0.0182343,-9.97986,0.0214767,0.000724792,0.017128,0.00762939,0.0172424,-0.000724792,0.0166321,0.00648499
27,5,10.0097,0.000610352,0,-2.42501,0.055681,-0.0738423,0.0538228,0.0615099,-0.0943672,0.146844,-0.124546,-0.0831808,0.0106049,0.020256,0.018425,0.00968933,0.0172806,0.00926971,0.0205612,0.0283051,-9.97986,0.0250626,-0.00530243,0.0149155,0.00522614,0.0138474,0.000762939,0.0170135,0.00591278
27,6,8.87776,0.000610352,-0.00167847,-2.42653,0.0572069,-0.0738423,0.0522969,0.0071886,-0.0989448,0.145318,-0.129429,-0.0831808,0.0105286,0.0221634,0.0192261,0.0104141,0.0163269,0.00926971,0.0224304,0.0244141,-9.97986,0.0181198,-0.000801086,0.015564,0.0044632,0.0148773,-0.00572205,0.0147247,0.00793457
27,7,-0.0681588,0.000915527,-0.0038147,-2.42592,0.0553758,-0.0738423,0.0532125,-0.00776502,-0.0961982,0.146539,-0.129429,-0.0810445,0.0163269,0.0230789,0.0217438,0.010376,0.0180817,0.00957489,0.0250626,0.0282669,-9.97986,0.019989,-0.000762939,0.0143814,0.00614166,0.0165939,-0.0037384,0.0130463,0.00724792
27,8,-7.49736,-0.000305176,-0.00488281,-2.42501,0.0572069,-0.0726216,0.054128,-0.0147841,-0.0961982,0.147455,-0.130649,-0.0816549,0.0126648,0.0250626,0.0215912,0.0150681,0.016861,0.013504,0.018692,0.0263596,-9.97986,0.0209427,-0.00274658,0.016098,0.00213623,0.0165939,-0.00331879,0.0182724,0.00423431
27,9,-9.99003,0.000610352,-0.00244141,-2.4244,0.0569017,-0.0744527,0.0556539,0.016649,-0.0922309,0.145624,-0.128208,-0.0810445,0.0111389,0.0218964,0.0211716,0.0116348,0.0167847,0.00930786,0.0242233,0.0189972,-9.97986,0.0200272,-0.00255585,0.0172043,0.00717163,0.0156021,0.000152588,0.0156784,0.00679016
28,0,-9.99003,-0.000915527,-0.00106812,-2.4247,0.0565965,-0.0735371,0.0562642,0.0441149,-0.0910102,0.143792,-0.127598,-0.0816549,0.0136185,0.0252151,0.0218964,0.0142288,0.0192261,0.0125885,0.0234604,0.0201416,-9.97986,0.014801,-0.00213623,0.0150681,0.00225067,-0.00484467,-0.00518799,0.0170135,0.00965118
28,1,-9.99003,0,-0.000915527,-2.42653,0.0553758,-0.0744527,0.0544332,0.0587633,-0.0910102,0.145929,-0.126682,-0.0825704,0.0082016,0.0205231,0.0130463,0.0122833,0.0137329,0.0109482,0.0258636,0.00999451,-9.97986,0.00789642,-0.00347137,0.0181198,0.00278473,-0.00919342,-0.0050354,0.0137711,0.00453949
28,2,-9.99003,0.000610352,0.00106812,-2.42501,0.0553758,-0.0741475,0.0568746,0.0837877,-0.0882636,0.145624,-0.125461,-0.0825704,0.0117111,0.0253677,0.0216293,0.0147247,0.0210953,0.0114059,0.0199509,0.0135803,-9.97986,0.0109863,0.000572205,0.0196075,0.00816345,0.0153732,-0.00270844,0.0154877,0.00556946
28,3,-7.97038,0.000915527,0.00335693,-2.42562,0.0550706,-0.0747579,0.055959,0.138414,-0.0842964,0.144403,-0.122104,-0.0831808,0.00785828,0.0255203,0.0161362,0.0125885,0.0180435,0.0127792,0.0211334,0.00812531,-9.97986,0.00843048,0.00183105,0.0191879,0.00762939,0.0188828,-7.62939e-005,0.0159836,0.00408173
28,4,-0.257978,0.0012207,0.0038147,-2.42684,0.0547655,-0.0759786,0.0550435,0.149095,-0.0885688,0.144708,-0.12241,-0.0847066,0.0102997,0.0240707,0.0212097,0.0157928,0.0200272,0.0117874,0.0229645,0.00881195,-9.97986,0.0104141,0.000686646,0.0170898,0.00545502,0.0195313,-0.000152588,0.0170135,0.00587463
28,5,7.68331,0.000305176,0.00411987,-2.42776,0.0532396,-0.075063,0.0526021,0.151232,-0.0891792,0.143792,-0.121494,-0.0859274,0.0114441,0.0235367,0.0176239,0.0114059,0.0163651,0.0104523,0.024147,0.0143051,-9.97986,0.0120926,0.00614166,0.0164413,0.0069809,0.0157928,-0.00419617,0.0178146,0.00534058
28,6,10.0097,0.000610352,0.0038147,-2.4305,0.0517137,-0.0787251,0.0504659,0.119798,-0.0968086,0.142572,-0.124851,-0.0877584,0.00709534,0.0218201,0.0201416,0.0108337,0.0186157,0.0136948,0.0230026,0.0139999,-9.97986,0.00972748,0.000190735,0.0174713,0.00663757,0.0162888,-0.0025177,0.0172806,0.0056076
28,7,10.0097,0,0.0012207,-2.42867,0.0550706,-0.0765889,0.0510762,0.0874498,-0.0977241,0.142267,-0.127292,-0.0886739,0.00923157,0.024147,0.0157928,0.0125885,0.0208664,0.0106049,0.0224304,0.0149536,-9.97986,0.0132751,0.000572205,0.0154114,0.00556946,0.0163269,-0.00644684,0.0148392,0.00549316
28,8,10.0097,0.0012207,-0.000152588,-2.4302,0.0553758,-0.075063,0.0513814,0.0776842,-0.0971137,0.143792,-0.127292,-0.0883688,0.0118637,0.021286,0.0202942,0.00724792,0.0175858,0.0130844,0.0238037,0.0124741,-9.97986,0.0164413,0.00255585,0.0185394,0.00804901,0.0165939,-0.00392914,0.016861,0.00564575
28,9,10.0097,0.000610352,-0.000305176,-2.42867,0.0550706,-0.0756734,0.0526021,0.0728014,-0.0961982,0.143792,-0.127598,-0.0871481,0.0110626,0.0213623,0.0128937,0.0132751,0.0166321,0.00785828,0.0186539,0.0151062,-9.97986,0.0110626,-0.00110626,0.0184631,0.00984192,0.0187302,-0.00499725,0.0148773,0.00637054
29,0,10.0097,0.000610352,0.000152588,-2.42684,0.0541551,-0.0747579,0.0532125,0.0715807,-0.0946723,0.144403,-0.126072,-0.0850118,0.0111008,0.0226212,0.0216675,0.0117493,0.0181198,0.00976563,0.0167847,0.0148392,-9.97986,0.0174713,-0.00213623,0.017128,0.0043869,0.0141525,-0.00602722,0.0174332,0.00587463
29,1,10.0097,0.00183105,0.000457764,-2.42684,0.0559862,-0.0762837,0.0535176,0.0724962,-0.0928413,0.146234,-0.126072,-0.0837911,0.00778198,0.0252151,0.0207901,0.0088501,0.0141907,0.0104523,0.0196838,0.0138474,-9.97986,0.0147247,-0.00106812,0.0129318,0.00995636,0.0159836,-0.0038147,0.0165939,0.00659943
29,2,10.0097,0.000305176,0.000305176,-2.42592,0.0559862,-0.0735371,0.054128,0.0706652,-0.0916206,0.145318,-0.126377,-0.0840963,0.0101471,0.0276184,0.0209808,0.0120544,0.0218201,0.0104904,0.0201797,0.0191879,-9.97986,0.018425,-0.00526428,0.0138474,0.00797272,0.0146484,-0.000343323,0.016861,0.00370026
29,3,10.0097,0.000610352,0.000457764,-2.42562,0.0559862,-0.073232,0.054128,0.072191,-0.0916206,0.146539,-0.124546,-0.0825704,0.0107574,0.0237656,0.0190735,0.0118256,0.0184631,0.00904083,0.0209808,0.0161362,-9.97986,0.0171661,-0.00179291,0.0157166,0.00865936,0.0139618,-0.000953674,0.0119781,0.00900269
29,4,10.0097,0.000915527,0.000610352,-2.4247,0.0562914,-0.073232,0.0550435,0.0731066,-0.0922309,0.146539,-0.123935,-0.0810445,0.0140381,0.0258636,0.0188065,0.0103378,0.0193787,0.0112152,0.0239944,0.0242233,-9.97986,0.018959,-0.00106812,0.0147629,0.00545502,0.0188065,-0.00534058,0.0130463,0.00789642
29,5,10.0097,0.00183105,0.000305176,-2.42653,0.0559862,-0.0741475,0.054128,0.0608995,-0.0937568,0.145929,-0.125766,-0.0828756,0.0127792,0.0231552,0.0225067,0.0122833,0.0170517,0.00934601,0.0221252,0.030632,-9.97986,0.024147,-0.000762939,0.0139236,0.00545502,0.0166702,-0.00392914,0.0139618,0.00564575
29,6,8.84419,0.000610352,-0.00259399,-2.42776,0.0547655,-0.0747579,0.0513814,0.00627307,-0.0995551,0.145013,-0.128513,-0.0844015,0.014267,0.0221252,0.0190735,0.0126648,0.0183868,0.0123978,0.0231934,0.0284195,-9.97986,0.0239944,0.000534058,0.0117874,0.00854492,0.0161362,-0.00816345,0.0167847,0.00648499
29,7,-0.13896,0.000610352,-0.00396729,-2.42562,0.0565965,-0.0735371,0.054128,-0.0092909,-0.0965034,0.146234,-0.129734,-0.0816549,0.0100327,0.0272751,0.0200272,0.01091,0.0218201,0.0104904,0.0218201,0.0289536,-9.97986,0.0216675,0.00038147,0.0152969,0.00507355,0.0139999,-0.00740051,0.0151825,0.00480652
29,8,-7.52147,0.000610352,-0.00457764,-2.42592,0.0565965,-0.0735371,0.0538228,-0.0150892,-0.0965034,0.14776,-0.130954,-0.0816549,0.0104523,0.0209427,0.0226212,0.0113297,0.0133514,0.00854492,0.0196838,0.0226212,-9.97986,0.0195313,-0.00240326,0.00995636,0.00694275,0.013237,-0.00553131,0.0154877,0.00667572
29,9,-9.99003,0,-0.00396729,-2.42501,0.0562914,-0.0744527,0.0553487,0.0157335,-0.0916206,0.146539,-0.128208,-0.0807394,0.0123978,0.0230026,0.0139999,0.0141144,0.0202179,0.00957489,0.0186157,0.0207138,-9.97986,0.0149918,-0.00419617,0.0133896,0.0050354,0.014267,-0.00488281,0.0155258,0.00572205
30,0,-9.99003,-0.0012207,-0.00244141,-2.42531,0.0553758,-0.0735371,0.0553487,0.0428942,-0.0897895,0.146844,-0.126377,-0.0810445,0.0088501,0.0246811,0.0170517,0.0141525,0.0177765,0.00499725,0.021286,0.0162506,-9.97986,0.0122833,-0.000228882,0.0120163,0.00782013,-0.0108719,-0.00087738,0.0154114,0.00556946
30,1,-9.99003,0.000610352,-0.000152588,-2.42623,0.0550706,-0.0741475,0.0553487,0.0584581,-0.0913154,0.146539,-0.126682,-0.0819601,0.00911713,0.0253677,0.0166321,0.0121689,0.015564,0.0101852,0.0183105,0.0145721,-9.97986,0.0157166,-0.00164032,0.0140762,0.00701904,-0.00999451,-0.00530243,0.014534,0.0037384
30,2,-9.99003,0.000915527,0.000457764,-2.42562,0.0553758,-0.0741475,0.0562642,0.0853136,-0.0894843,0.145929,-0.12363,-0.0819601,0.00907898,0.0218201,0.0174713,0.0131607,0.0133514,0.0104904,0.02285,0.0100327,-9.97986,0.0111771,0.000457764,0.0167465,0.00305176,0.0123596,-0.00156403,0.0193024,0.00377655
30,3,-7.93345,0.000915527,0.00320435,-2.42501,0.0550706,-0.0747579,0.0568746,0.137499,-0.0849067,0.145624,-0.121799,-0.0822652,0.00576019,0.0227737,0.0179291,0.0105667,0.0127029,0.0087738,0.0224304,0.0121307,-9.97986,0.00988007,-0.00160217,0.0146103,0.0088501,0.00984192,-0.00297546,0.0161743,0.00480652
30,4,-0.272627,0.00244141,0.00396729,-2.42776,0.0541551,-0.0753682,0.0544332,0.150316,-0.0879585,0.145013,-0.122104,-0.0840963,0.00228882,0.026474,0.0160217,0.00907898,0.0171661,0.0101852,0.0230789,0.0100708,-9.97986,0.0101471,7.62939e-005,0.0152206,0.00526428,0.0138092,-0.00507355,0.0164032,0.00431061
30,5,7.57344,0,0.00442505,-2.42745,0.0538499,-0.075063,0.0526021,0.150926,-0.0894843,0.145013,-0.122104,-0.0856222,0.0075531,0.0218201,0.0140762,0.00808716,0.0145721,0.00579834,0.0228882,0.0130463,-9.97986,0.00534058,-0.00312805,0.0140762,0.0088501,0.0164795,-0.00591278,0.0143814,0.00335693
30,6,10.0097,0.0012207,0.00320435,-2.43172,0.0523241,-0.0765889,0.0510762,0.119188,-0.0965034,0.141351,-0.123935,-0.0892843,0.01194,0.0236511,0.0202179,0.0108719,0.0178528,0.0075531,0.0203705,0.013504,-9.97986,0.0105286,-0.00171661,0.0141907,0.00602722,0.0162125,-0.00289917,0.0144577,0.0038147
30,7,10.0097,0.00183105,0.00137329,-2.4302,0.0544603,-0.0762837,0.050771,0.0892809,-0.0968086,0.142877,-0.126377,-0.0883688,0.00720978,0.0255203,0.0202942,0.0107956,0.017662,0.00839233,0.0199127,0.0148392,-9.97986,0.0111389,-0.00270844,0.0110626,0.00644684,0.0153351,-0.00167847,0.0174713,0.00644684
30,8,10.0097,0.000610352,-0.000152588,-2.43081,0.0538499,-0.0765889,0.0510762,0.0785997,-0.095893,0.142572,-0.126072,-0.0880636,0.0151062,0.0239563,0.0170517,0.00919342,0.0141144,0.00957489,0.0156021,0.0154114,-9.97986,0.0156784,-0.00263214,0.0157547,0.00934601,0.0169373,-0.00473022,0.0156784,0.00606537
30,9,10.0097,-0.000305176,-0.000152588,-2.42806,0.0550706,-0.0762837,0.0529073,0.0728014,-0.0949775,0.144708,-0.126072,-0.0862325,0.0135803,0.0224686,0.0204849,0.0144577,0.0212097,0.0148773,0.0205612,0.0191116,-9.97986,0.0144958,-0.00209808,0.0125122,0.00797272,0.0157166,0.00190735,0.0169754,0.0069809
31,0,10.0097,0,0.000305176,-2.42714,0.0541551,-0.0762837,0.0526021,0.0712755,-0.0943672,0.144708,-0.127292,-0.085317,0.00999451,0.0247955,0.0154877,0.0103378,0.0165939,0.00579834,0.0190353,0.0141525,-9.97986,0.0144577,-7.62939e-005,0.0140381,0.00167847,0.0137711,-0.00431061,0.0140381,0.0037384
31,1,10.0097,-0.000305176,0.000457764,-2.42745,0.0553758,-0.0753682,0.0535176,0.0712755,-0.0934516,0.144098,-0.126377,-0.0847066,0.0120926,0.02491,0.0177383,0.00873566,0.0179291,0.012207,0.0192261,0.0195313,-9.97986,0.0194168,-0.001297,0.0134659,0.00453949,0.0144196,-0.001297,0.0157547,0.00747681
31,2,10.0097,0.000915527,0.000610352,-2.42745,0.0547655,-0.0741475,0.0538228,0.07036,-0.0922309,0.145013,-0.126072,-0.0834859,0.0140762,0.0243759,0.0197983,0.0104904,0.0150681,0.00732422,0.0242233,0.0201035,-9.97986,0.0142288,-0.00125885,0.0149155,0.00843048,0.0165558,-0.000839233,0.0182343,0.00934601
31,3,10.0097,0.000915527,0.000610352,-2.42379,0.0572069,-0.0738423,0.0547383,0.0715807,-0.0916206,0.145318,-0.12363,-0.0816549,0.0124741,0.021553,0.0163269,0.00988007,0.0163269,0.0124359,0.0246048,0.0232697,-9.97986,0.0228882,-0.00648499,0.0104523,0.0025177,0.0165558,-0.00175476,0.0172424,0.00923157
31,4,10.0097,-0.000610352,-0.000152588,-2.42501,0.0572069,-0.073232,0.0547383,0.0724962,-0.0922309,0.147149,-0.124241,-0.080129,0.0134659,0.0230408,0.0188446,0.0118637,0.0171661,0.0117874,0.0210953,0.0221634,-9.97986,0.0131607,-0.00392914,0.0125122,0.00583649,0.0143433,-0.00423431,0.016861,0.0103378
31,5,10.0097,0.000305176,0.000457764,-2.42653,0.0575121,-0.0738423,0.0529073,0.058153,-0.0934516,0.145624,-0.125766,-0.0825704,0.0130463,0.0223541,0.0189972,0.0132751,0.0128937,0.012207,0.0179291,0.0244522,-9.97986,0.02285,-0.000724792,0.0166702,0.00328064,0.016861,-0.00148773,0.0190353,0.00747681
31,6,8.73616,0.000305176,-0.00289917,-2.42623,0.0553758,-0.0723164,0.0513814,0.00535754,-0.0995551,0.145624,-0.129123,-0.0844015,0.0143051,0.0264359,0.018959,0.00976563,0.0180054,0.00766754,0.0177383,0.0275421,-9.97986,0.0203323,-0.00282288,0.00938416,0.00732422,0.0177765,-0.00236511,0.018158,0.00778198
31,7,-0.214338,0.00183105,-0.00427246,-2.42501,0.0565965,-0.0738423,0.054128,-0.00715467,-0.0974189,0.146234,-0.128818,-0.0813497,0.0119019,0.0227737,0.0188065,0.0106812,0.0183868,0.0105667,0.0223923,0.0278091,-9.97986,0.0181198,-0.000305176,0.00904083,0.00720978,0.0191116,-0.00141144,0.0169373,0.00556946
31,8,-7.6237,0,-0.00396729,-2.42562,0.0569017,-0.0744527,0.0532125,-0.0147841,-0.0968086,0.147149,-0.130649,-0.0813497,0.0118637,0.022316,0.0183487,0.00766754,0.0170898,0.0122833,0.0214386,0.0261307,-9.97986,0.0205612,-0.00221252,0.0125122,0.00411987,0.0192261,-0.00534058,0.0151443,0.00617981
31,9,-9.99003,0,-0.00320435,-2.42531,0.0559862,-0.0729268,0.0550435,0.0169542,-0.0934516,0.145624,-0.128818,-0.0810445,0.0114822,0.0203323,0.0222015,0.0103378,0.0145721,0.0128937,0.0222397,0.0218964,-9.97986,0.0187683,-0.000267029,0.0125504,0.00423431,0.0121689,-0.00282288,0.0139236,0.00743866
32,0,-9.99003,0.000305176,-0.00183105,-2.42501,0.0562914,-0.0735371,0.0568746,0.0441149,-0.0903999,0.146234,-0.126682,-0.0810445,0.00953674,0.0238037,0.0173187,0.0131989,0.0122833,0.00961304,0.0230789,0.0197983,-9.97986,0.010643,-0.0018692,0.0134277,0.00160217,-0.00766754,0.001297,0.017128,0.00770569
32,1,-9.99003,0.0012207,-0.00106812,-2.42592,0.0550706,-0.0753682,0.0547383,0.058153,-0.090705,0.145624,-0.126987,-0.0825704,0.011673,0.0190353,0.0179291,0.0139999,0.0120926,0.0101852,0.0177002,0.013504,-9.97986,0.0111008,-0.00114441,0.00946045,0.00442505,-0.00991821,-0.00328064,0.0132751,0.00743866
32,2,-9.99003,0,0.000762939,-2.42623,0.0553758,-0.0741475,0.0553487,0.0831774,-0.0894843,0.145929,-0.123935,-0.0828756,0.00965118,0.0253296,0.0169754,0.00598907,0.0177765,0.0119019,0.0197601,0.0105286,-9.97986,0.00850677,0.00171661,0.0185013,0.00473022,0.0123215,0.00106812,0.0179672,0.00587463
32,3,-8.39488,0.00152588,0.00350952,-2.42501,0.0550706,-0.0747579,0.055959,0.136278,-0.0846015,0.145013,-0.120884,-0.0825704,0.00904083,0.0223923,0.0162506,0.00915527,0.0130081,0.00614166,0.0210953,0.0120163,-9.97986,0.0130081,-0.00190735,0.0141907,0.00537872,0.0140762,-0.00236511,0.0157547,0.00514984
32,4,-0.470381,0.00183105,0.0038147,-2.42867,0.0535448,-0.075063,0.0544332,0.150316,-0.0891792,0.143182,-0.122104,-0.0840963,0.0087738,0.0234604,0.0177383,0.0123978,0.0141525,0.0102997,0.0219345,0.0117874,-9.97986,0.00972748,-0.0025177,0.011673,0.00514984,0.0164413,0.00141144,0.0164032,0.00282288
32,5,7.51638,0.000610352,0.00473022,-2.42745,0.0553758,-0.0756734,0.0532125,0.151232,-0.0897895,0.144403,-0.121494,-0.0862325,0.0126266,0.024147,0.0186539,0.0112915,0.0144196,0.00728607,0.0185013,0.0118256,-9.97986,0.0104904,-0.000839233,0.0113297,0.00591278,0.0137711,-0.00461578,0.014534,0.00556946
32,6,10.0097,-0.000610352,0.00396729,-2.43111,0.0523241,-0.0759786,0.0498555,0.120104,-0.0961982,0.141656,-0.124546,-0.0880636,0.00762939,0.0244522,0.0147247,0.0094223,0.0186539,0.0105286,0.0162506,0.0118637,-9.97986,0.00953674,0.00263214,0.0115204,0.00476837,0.0157166,0.00198364,0.0136185,0.00740051
32,7,10.0097,0.000915527,0.00106812,-2.4302,0.0526292,-0.0765889,0.050771,0.0895861,-0.0974189,0.142572,-0.126377,-0.0892843,0.013504,0.0193024,0.0203705,0.0121689,0.0180435,0.0112915,0.0223923,0.016861,-9.97986,0.0127029,-0.000801086,0.0111008,0.0037384,0.0148392,-0.00396729,0.0129318,0.00450134
32,8,10.0097,0.000915527,0,-2.42959,0.0538499,-0.0756734,0.0519917,0.0776842,-0.095893,0.141656,-0.126987,-0.0871481,0.0146484,0.0204086,0.0222778,0.0069809,0.0186539,0.00724792,0.0185013,0.0151443,-9.97986,0.0140381,-0.000457764,0.0147629,0.00865936,0.0169373,0.00133514,0.0169373,0.0101089
32,9,10.0097,0.000610352,0,-2.42837,0.0547655,-0.0756734,0.0529073,0.0749376,-0.095893,0.143487,-0.125766,-0.0865377,0.0115204,0.0209808,0.0187683,0.0104523,0.0160217,0.00961304,0.0205612,0.0164413,-9.97986,0.0162125,0.00156403,0.014534,0.00617981,0.016861,-0.00171661,0.0162506,0.00549316
33,0,10.0097,0.000305176,-0.000152588,-2.42653,0.0547655,-0.0744527,0.0535176,0.0709703,-0.0928413,0.144708,-0.127292,-0.0847066,0.00488281,0.0233078,0.016861,0.00606537,0.0162506,0.0119781,0.022583,0.014267,-9.97986,0.0139618,-0.00591278,0.00892639,0.00591278,0.0165176,-0.00629425,0.0172424,0.00900269
33,1,10.0097,0.000610352,-0.000305176,-2.42776,0.055681,-0.0747579,0.0535176,0.0700548,-0.0931465,0.144098,-0.126072,-0.085317,0.01194,0.021019,0.019989,0.0112915,0.0156021,0.0110245,0.021286,0.0162888,-9.97986,0.0159454,-0.00354767,0.016098,0.00644684,0.015564,-0.00259399,0.0144577,0.00808716
33,2,10.0097,0.000915527,0.000152588,-2.42714,0.0559862,-0.075063,0.0522969,0.0712755,-0.0931465,0.144708,-0.126987,-0.0840963,0.0148392,0.0216293,0.0259399,0.00839233,0.0168991,0.0130081,0.0244141,0.0187302,-9.97986,0.0154114,-0.00343323,0.0123978,0.00507355,0.0144196,3.8147e-005,0.0144577,0.00415802
33,3,10.0097,0.00152588,0,-2.42562,0.0565965,-0.073232,0.054128,0.0718859,-0.0925361,0.146539,-0.124241,-0.0816549,0.00667572,0.0231552,0.0190353,0.0125885,0.0178528,0.0110245,0.021286,0.0151825,-9.97986,0.0175858,-0.00358582,0.0130844,0.00541687,0.0156403,-0.00556946,0.014534,0.00797272
33,4,10.0097,0,0.000610352,-2.4247,0.0565965,-0.0726216,0.0547383,0.0715807,-0.0922309,0.146844,-0.124546,-0.0819601,0.010643,0.0237274,0.0226974,0.0122452,0.0180435,0.00816345,0.0246048,0.022049,-9.97986,0.0161362,-0.00453949,0.0125885,0.00934601,0.0138855,-0.00244141,0.0127029,0.00656128
33,5,10.0097,-0.00152588,-0.000457764,-2.42714,0.0559862,-0.075063,0.0529073,0.0590685,-0.0931465,0.146234,-0.126072,-0.0819601,0.00984192,0.0255585,0.0185013,0.0115204,0.0164795,0.0119781,0.0245667,0.0266647,-9.97986,0.020752,-0.00270844,0.01297,0.00656128,0.0193405,-0.00289917,0.0148773,0.00465393
33,6,8.72304,-0.000915527,-0.00244141,-2.42714,0.0553758,-0.0747579,0.0519917,0.00413684,-0.09925,0.147455,-0.130039,-0.0837911,0.0104523,0.0205612,0.0180817,0.00667572,0.014267,0.0102615,0.0203323,0.0266266,-9.97986,0.02285,-0.00640869,0.0164795,0.00797272,0.0236511,-0.00366211,0.0162125,0.00972748
33,7,-0.206403,0.0012207,-0.00427246,-2.42562,0.0550706,-0.0741475,0.0532125,-0.00684949,-0.0974189,0.146234,-0.129429,-0.0819601,0.00907898,0.0249481,0.0205612,0.00946045,0.0163651,0.013504,0.0250626,0.027504,-9.97986,0.0254059,0.000572205,0.0160599,0.00720978,0.0191116,-0.00450134,0.015831,0.0062561
33,8,-7.62431,-0.000915527,-0.00442505,-2.42592,0.0572069,-0.0738423,0.0550435,-0.0156996,-0.0946723,0.147455,-0.129429,-0.0816549,0.0088501,0.0247955,0.0178528,0.0113297,0.0176239,0.0126266,0.0228119,0.0247574,-9.97986,0.0175476,-0.000839233,0.0111771,0.0037384,0.0199127,7.62939e-005,0.0172043,0.00713348
33,9,-9.99003,0.000915527,-0.00244141,-2.42501,0.0547655,-0.0738423,0.0562642,0.0151232,-0.0922309,0.145624,-0.128513,-0.0807394,0.0107193,0.0243378,0.0172043,0.0146103,0.0177765,0.0131607,0.0246048,0.0200653,-9.97986,0.0186539,0.00274658,0.00659943,0.00610352,0.0125122,-0.00339508,0.0146103,0.00751495
34,0,-9.99003,0.000305176,-0.00137329,-2.42501,0.0559862,-0.0735371,0.055959,0.0450304,-0.0900947,0.145624,-0.127598,-0.0816549,0.0101852,0.0245667,0.0181198,0.0118256,0.0131989,0.013237,0.0245285,0.0210953,-9.97986,0.0153732,-0.00137329,0.0130081,0.00804901,-0.0030899,-0.00392914,0.018158,0.00511169
34,1,-9.99003,0.000915527,0.000152588,-2.42592,0.055681,-0.0747579,0.055959,0.0596788,-0.090705,0.144708,-0.127598,-0.0816549,0.00850677,0.0194931,0.0205231,0.0108719,0.0117493,0.0108719,0.0245667,0.0149536,-9.97986,0.0125885,-0.000762939,0.0133896,0.00724792,-0.00988007,-0.0037384,0.0152206,0.00499725
34,2,-9.99003,0.000305176,0.000152588,-2.42653,0.0553758,-0.073232,0.0568746,0.0834825,-0.0879585,0.145318,-0.124851,-0.0822652,0.0117874,0.0251007,0.0199127,0.0124359,0.0165558,0.00995636,0.0199127,0.00995636,-9.97986,0.0106049,0.00148773,0.0140381,0.00888824,0.00930786,0.00179291,0.0143051,0.00831604
34,3,-8.15928,0.000610352,0.00320435,-2.42501,0.0541551,-0.0747579,0.0571797,0.134752,-0.0852119,0.145624,-0.121494,-0.0822652,0.00911713,0.0204086,0.0193405,0.014801,0.0143051,0.0115204,0.0205994,0.0126648,-9.97986,0.00873566,-0.00114441,0.0146866,0.00980377,0.0146484,-0.00175476,0.0139236,0.00495911
34,4,-0.553388,0.0012207,0.00350952,-2.42745,0.0532396,-0.0738423,0.0553487,0.149401,-0.0867378,0.143792,-0.120884,-0.0840963,0.0087738,0.0248718,0.0207901,0.0152588,0.0181961,0.0125504,0.0188446,0.00881195,-9.97986,0.00831604,-0.000343323,0.0110626,0.00507355,0.0166321,-0.00530243,0.0140381,0.00774384
34,5,7.34212,0.000305176,0.00350952,-2.42867,0.0529344,-0.0765889,0.0538228,0.153063,-0.0900947,0.144403,-0.122104,-0.085317,0.0129318,0.0211334,0.0173187,0.0121307,0.0182343,0.0139999,0.0217819,0.0130844,-9.97986,0.0112915,-0.00110626,0.0164032,0.00934601,0.0170135,-0.00209808,0.0147629,0.00522614
34,6,10.0097,0.0012207,0.00335693,-2.4305,0.0541551,-0.0762837,0.0513814,0.12163,-0.0952827,0.142572,-0.124241,-0.0883688,0.00930786,0.0206375,0.019722,0.0125504,0.0181961,0.0146866,0.0235748,0.0135803,-9.97986,0.0110245,-0.001297,0.0167084,0.00701904,0.016098,-0.00087738,0.0165176,0.00534058
34,7,10.0097,-0.000305176,0.000152588,-2.4305,0.0535448,-0.0765889,0.0501607,0.0898912,-0.0977241,0.143792,-0.125766,-0.0883688,0.00904083,0.0269318,0.0196838,0.0130463,0.0160599,0.01297,0.0196457,0.0118256,-9.97986,0.00717163,0.000190735,0.0162506,0.00576019,0.018425,-0.00213623,0.0177765,0.00518799
34,8,10.0097,0.0012207,0.000610352,-2.42989,0.0544603,-0.0756734,0.0513814,0.0776842,-0.0971137,0.142267,-0.127292,-0.0877584,0.00892639,0.0220871,0.0169754,0.0160599,0.0230026,0.0107574,0.0235367,0.0164795,-9.97986,0.0143051,-0.00400543,0.0155258,0.00946045,0.0143433,-0.00259399,0.00923157,0.00598907
34,9,10.0097,0.000305176,-0.000305176,-2.42837,0.0541551,-0.0756734,0.0526021,0.0731066,-0.094062,0.144403,-0.126072,-0.0871481,0.0119019,0.0212097,0.0197601,0.0144196,0.0191879,0.0120163,0.0226974,0.0205994,-9.97986,0.0128937,-0.00110626,0.0154877,0.00827789,0.0172424,3.8147e-005,0.0148392,0.00762939
35,0,10.0097,0.000915527,0.000610352,-2.42837,0.0544603,-0.0759786,0.0519917,0.072191,-0.0931465,0.145318,-0.126987,-0.0850118,0.00865936,0.020752,0.0188065,0.0132751,0.0170898,0.00839233,0.0210953,0.016098,-9.97986,0.0172043,0.00282288,0.0174713,0.00679016,0.0170517,-0.00419617,0.0191879,0.00377655
35,1,10.0097,0.000915527,0.000152588,-2.42776,0.0550706,-0.0747579,0.0538228,0.07036,-0.0928413,0.145013,-0.125766,-0.0847066,0.0113678,0.0255203,0.0170135,0.0162125,0.0136948,0.0113297,0.0228882,0.017662,-9.97986,0.0153732,-0.00377655,0.0108337,0.00652313,0.0179291,-0.00415802,0.0170135,0.00793457
35,2,10.0097,-0.000610352,0.000305176,-2.42684,0.055681,-0.075063,0.0535176,0.0709703,-0.0931465,0.144708,-0.126072,-0.0834859,0.010376,0.0229645,0.0153351,0.0127792,0.0156784,0.00999451,0.0215912,0.0208664,-9.97986,0.0154495,0.0038147,0.0170135,0.00534058,0.0151825,-0.000915527,0.014267,0.00606537
35,3,10.0097,0.000305176,0.000457764,-2.42592,0.0565965,-0.0738423,0.054128,0.0709703,-0.0919257,0.146539,-0.124241,-0.0810445,0.0132751,0.0218582,0.0194168,0.00934601,0.0187683,0.0112152,0.0217819,0.0229645,-9.97986,0.0120163,0.000190735,0.0156403,0.00350952,0.0170898,-0.00343323,0.0156021,0.00408173
35,4,10.0097,0.00274658,0.000152588,-2.42592,0.055681,-0.0735371,0.0544332,0.0712755,-0.0903999,0.147149,-0.124546,-0.0813497,0.0151062,0.0225067,0.0197601,0.0158691,0.0172806,0.00965118,0.0240326,0.0230789,-9.97986,0.0144958,0.00305176,0.0195313,0.00724792,0.0179291,-0.00133514,0.0151443,0.0075531
35,5,10.0097,0.000610352,-0.000457764,-2.42623,0.0553758,-0.0741475,0.0538228,0.0587633,-0.0934516,0.144403,-0.125766,-0.0819601,0.0114822,0.0229645,0.0146484,0.0135422,0.0206375,0.012207,0.0238419,0.02388,-9.97986,0.0218201,-0.000648499,0.0117493,0.0113297,0.0162125,-0.00164032,0.018158,0.00225067
35,6,8.71511,0.000915527,-0.00198364,-2.42684,0.0559862,-0.075063,0.0526021,0.00505237,-0.09925,0.146539,-0.129123,-0.0834859,0.0170135,0.0218582,0.0176239,0.0137329,0.0197983,0.0127411,0.0247955,0.026474,-9.97986,0.0236893,0.00217438,0.00911713,0.00930786,0.0175095,-0.00297546,0.0148773,0.00785828
35,7,-0.214033,0.0012207,-0.00457764,-2.42592,0.0565965,-0.0738423,0.054128,-0.00745984,-0.0974189,0.146234,-0.128818,-0.0822652,0.00675201,0.0244904,0.0215149,0.0117874,0.0208664,0.0111771,0.0194168,0.0279999,-9.97986,0.0239563,-0.00221252,0.0169373,0.00862122,0.019722,-0.00511169,0.0181961,0.00701904
35,8,-7.66154,0.000305176,-0.00427246,-2.42562,0.0562914,-0.0738423,0.0535176,-0.0156996,-0.0961982,0.148065,-0.130039,-0.0819601,0.00953674,0.0252914,0.0141144,0.0139236,0.0142288,0.00911713,0.021019,0.0259399,-9.97986,0.0201797,0.000419617,0.0133896,0.0056839,0.0156403,-0.00465393,0.0196075,0.00450134
35,9,-9.99003,-0.000305176,-0.00244141,-2.42501,0.0572069,-0.073232,0.0556539,0.0163439,-0.0919257,0.146234,-0.128513,-0.0804342,0.00999451,0.0263596,0.0175095,0.0128555,0.0164413,0.0106049,0.0239182,0.0200272,-9.97986,0.0217056,0.00156403,0.0140762,0.00724792,0.0100708,-0.00488281,0.0178909,0.0056076
36,0,-9.99003,0.000610352,-0.00183105,-2.42684,0.0562914,-0.0741475,0.0565694,0.0450304,-0.0913154,0.145318,-0.126682,-0.0813497,0.0102615,0.0232697,0.0190353,0.0156021,0.0190353,0.0088501,0.020752,0.0169373,-9.97986,0.0166321,-0.00152588,0.0118256,0.00659943,-0.00957489,3.8147e-005,0.0151825,0.00694275
36,1,-9.99003,0.00152588,-0.000610352,-2.42562,0.0550706,-0.0747579,0.0544332,0.0590685,-0.0913154,0.145013,-0.126072,-0.0813497,0.0123596,0.0210953,0.0185013,0.0102997,0.0127029,0.00930786,0.0219345,0.0128174,-9.97986,0.015831,0.000190735,0.0149155,0.00545502,-0.00988007,-0.00221252,0.0143051,0.00358582
36,2,-9.99003,-0.000915527,0.0012207,-2.42623,0.0553758,-0.0747579,0.0556539,0.0813463,-0.0879585,0.145624,-0.125156,-0.0822652,0.00514984,0.0237656,0.015564,0.0126266,0.00995636,0.0101089,0.0227737,0.00736237,-9.97986,0.00995636,-0.000495911,0.0133133,0.00782013,0.0128174,-0.000457764,0.0164795,0.00610352
36,3,-8.20109,0.000610352,0.00289917,-2.42623,0.0547655,-0.0747579,0.0568746,0.136278,-0.0858222,0.145624,-0.121494,-0.0819601,0.0056839,0.0215912,0.0182724,0.0122452,0.0209045,0.0115204,0.0287247,0.00598907,-9.97986,0.00946045,-0.00038147,0.0133133,0.00537872,0.0149536,-0.00213623,0.0173187,0.00492096
36,4,-0.500898,0.000610352,0.00320435,-2.42714,0.0538499,-0.0756734,0.0547383,0.149401,-0.0879585,0.144098,-0.121189,-0.0844015,0.00549316,0.0223923,0.0163651,0.0137711,0.0175095,0.00804901,0.0205231,0.00930786,-9.97986,0.00907898,-0.000267029,0.0117111,0.00434875,0.0126648,0.000228882,0.0128555,0.00587463
36,5,7.34273,-0.000305176,0.00442505,-2.42806,0.0547655,-0.0756734,0.0532125,0.150926,-0.0903999,0.142877,-0.122104,-0.0850118,0.0120926,0.0245285,0.0186157,0.0144577,0.0128555,0.00732422,0.0260162,0.0117874,-9.97986,0.00930786,-0.000839233,0.0124741,0.00804901,0.0128937,-0.000152588,0.0178146,0.00598907
36,6,10.0097,-0.000305176,0.00396729,-2.43081,0.0535448,-0.075063,0.050771,0.121935,-0.095893,0.144708,-0.124851,-0.0880636,0.0137329,0.0229645,0.0150681,0.0104523,0.019455,0.010376,0.0233078,0.0106812,-9.97986,0.0112534,-0.00217438,0.0144577,0.00747681,0.0157166,0.00160217,0.0175858,0.00457764
36,7,10.0097,0.000610352,0.00152588,-2.42989,0.0541551,-0.0771993,0.0516866,0.0898912,-0.0974189,0.142877,-0.126987,-0.0889791,0.00789642,0.0205994,0.0185776,0.00881195,0.0204849,0.00846863,0.0226212,0.0116348,-9.97986,0.013504,0.000724792,0.0146103,0.00858307,0.0177765,-0.00305176,0.0138474,0.00907898
36,8,10.0097,-0.000915527,-0.000152588,-2.4305,0.0535448,-0.0759786,0.0504659,0.0776842,-0.0980293,0.144403,-0.126987,-0.0877584,0.0103378,0.0238037,0.0197601,0.00778198,0.0147629,0.0101471,0.0239563,0.0136185,-9.97986,0.0154114,-0.000648499,0.0143814,0.00591278,0.017395,0.000801086,0.0189972,0.00862122
36,9,10.0097,0.00274658,-0.000152588,-2.42867,0.0538499,-0.075063,0.0529073,0.0728014,-0.0955879,0.144403,-0.125766,-0.0862325,0.0110626,0.0245285,0.0175858,0.0131607,0.0121689,0.00717163,0.0226593,0.0136948,-9.97986,0.0170898,-0.00236511,0.0140381,0.00679016,0.016861,-7.62939e-005,0.0168228,0.00572205
37,0,10.0097,0.000305176,0.000152588,-2.42623,0.0541551,-0.0762837,0.0526021,0.072191,-0.0931465,0.143792,-0.125766,-0.0850118,0.0115585,0.0243759,0.0185776,0.00679016,0.0131989,0.0119019,0.0222397,0.0185776,-9.97986,0.0162125,-0.000762939,0.0157166,0.00572205,0.0149155,-0.000457764,0.0156784,0.0056076
37,1,10.0097,0.000305176,-0.000152588,-2.42776,0.0553758,-0.0756734,0.0532125,0.07036,-0.094062,0.145318,-0.125766,-0.0844015,0.00774384,0.0218964,0.0159836,0.0107956,0.0163651,0.00904083,0.0223541,0.0143433,-9.97986,0.0120544,-0.0018692,0.0144577,0.00499725,0.0177383,0.00110626,0.0157928,0.00621796
37,2,10.0097,0,-0.000305176,-2.42745,0.0550706,-0.075063,0.0544332,0.0709703,-0.0925361,0.145013,-0.124851,-0.0837911,0.0110245,0.0233078,0.0130463,0.00934601,0.0151062,0.0123978,0.0224686,0.0174332,-9.97986,0.0132751,-0.00377655,0.0116348,0.0056076,0.015564,0.00247955,0.0193787,0.0075531
37,3,10.0097,0.000915527,0,-2.42562,0.0575121,-0.0738423,0.0547383,0.072191,-0.0910102,0.147149,-0.124241,-0.0822652,0.00976563,0.0224304,0.0218201,0.00865936,0.0136566,0.0112534,0.0200272,0.0170898,-9.97986,0.0132751,-0.00236511,0.0109482,0.00488281,0.0175858,-0.00118256,0.0177765,0.0094223
37,4,10.0097,-0.000305176,-0.000152588,-2.4247,0.0575121,-0.0744527,0.0553487,0.0712755,-0.0922309,0.14776,-0.124546,-0.0810445,0.0136948,0.0206757,0.0197601,0.00991821,0.018959,0.0088501,0.0210953,0.018692,-9.97986,0.0180435,0.000762939,0.0148392,0.00297546,0.0169754,-0.0031662,0.0132751,0.00808716
37,5,10.0097,-0.000610352,0,-2.42653,0.055681,-0.0747579,0.0544332,0.058153,-0.0937568,0.145624,-0.124851,-0.0819601,0.01091,0.02388,0.0181961,0.00854492,0.0164413,0.00923157,0.018692,0.0218582,-9.97986,0.0230408,-0.00789642,0.0124359,0.00999451,0.0151062,-0.00335693,0.0164795,0.00598907
37,6,8.7383,0.000305176,-0.00198364,-2.42684,0.0575121,-0.0738423,0.0519917,0.0071886,-0.100776,0.144708,-0.129123,-0.0844015,0.0094223,0.0284958,0.0194168,0.0146484,0.0173569,0.00972748,0.0235367,0.0262833,-9.97986,0.0241852,-0.00255585,0.0154495,0.00709534,0.0163269,-0.00484467,0.0170517,0.00999451
37,7,-0.16551,-0.000305176,-0.00366211,-2.42623,0.0569017,-0.073232,0.0538228,-0.00684949,-0.0971137,0.146234,-0.129429,-0.0810445,0.0106049,0.0233459,0.0186539,0.0139618,0.0190353,0.00965118,0.019722,0.0255966,-9.97986,0.021286,0.000343323,0.0156403,0.00404358,0.0157928,-0.00492096,0.0142288,0.00598907
37,8,-7.54283,0.00152588,-0.00518799,-2.42562,0.0559862,-0.0726216,0.0547383,-0.0147841,-0.095893,0.146234,-0.128818,-0.0822652,0.011673,0.0230789,0.0173569,0.0149918,0.017395,0.0056839,0.0267792,0.0272369,-9.97986,0.0187302,-0.001297,0.00789642,0.00804901,0.0166702,-0.00259399,0.0159454,0.00782013
37,9,-9.99003,-0.000610352,-0.00244141,-2.42379,0.0565965,-0.0747579,0.055959,0.0145128,-0.0928413,0.147149,-0.127598,-0.0807394,0.0101852,0.0212479,0.0214005,0.0110245,0.0147247,0.00289917,0.0236893,0.0202942,-9.97986,0.0195313,0.00362396,0.0151443,0.00766754,0.0140762,-0.00312805,0.0198746,0.00629425
38,0,-9.99003,0,-0.00152588,-2.4247,0.0553758,-0.0741475,0.055959,0.0450304,-0.0897895,0.145318,-0.126377,-0.0816549,0.0128937,0.0233459,0.0194168,0.01091,0.0161362,0.00823975,0.0175858,0.0192261,-9.97986,0.0148773,0.00198364,0.0112152,0.00259399,-0.00934601,-0.00335693,0.0167084,0.0082016
38,1,-9.99003,0.000915527,-0.000305176,-2.42653,0.0553758,-0.0729268,0.0538228,0.0596788,-0.0903999,0.146234,-0.126377,-0.0825704,0.0102234,0.0234985,0.0187302,0.0121689,0.0175858,0.00907898,0.0201035,0.0145721,-9.97986,0.0115204,-0.000457764,0.0111771,0.00289917,-0.00389099,-0.00255585,0.0143814,0.00732422
38,2,-9.99003,0.0012207,0.000762939,-2.42592,0.0544603,-0.0744527,0.0565694,0.0822618,-0.0882636,0.145624,-0.124546,-0.0816549,0.00656128,0.0231171,0.0194168,0.0120163,0.0174713,0.00751495,0.0181961,0.0111771,-9.97986,0.00991821,-0.00595093,0.0120163,0.0056076,0.0111771,-0.00270844,0.0141144,0.00873566
38,3,-8.33537,-0.00152588,0.00274658,-2.42409,0.0547655,-0.075063,0.0562642,0.135668,-0.0842964,0.145013,-0.121189,-0.0825704,0.00652313,0.0267792,0.0180817,0.0178528,0.0172043,0.00473022,0.0191879,0.00671387,-9.97986,0.00423431,-0.00205994,0.0152206,0.00701904,0.0171661,-0.00305176,0.0182724,0.00717163
38,4,-0.618086,0.0012207,0.00411987,-2.42806,0.0535448,-0.075063,0.0550435,0.150011,-0.0879585,0.144098,-0.122104,-0.0840963,0.00858307,0.0250626,0.0175858,0.0134659,0.0125122,0.0107574,0.0196457,0.00766754,-9.97986,0.00988007,-0.000495911,0.0117111,0.00396729,0.0164413,-0.00370026,0.0159073,0.00545502
38,5,7.3293,0.000610352,0.00473022,-2.42837,0.0526292,-0.0753682,0.0538228,0.151537,-0.0900947,0.143487,-0.121799,-0.0859274,0.00911713,0.0234222,0.0144196,0.0137711,0.0175858,0.00827789,0.0174332,0.011673,-9.97986,0.0139236,-0.00392914,0.014534,0.0038147,0.0119019,-0.00331879,0.0163651,0.00656128
38,6,10.0097,0,0.00396729,-2.4305,0.0532396,-0.0771993,0.0510762,0.122545,-0.0961982,0.143487,-0.123935,-0.0877584,0.0139999,0.0253296,0.0130463,0.0149536,0.0159836,0.0069046,0.0181198,0.0152588,-9.97986,0.00991821,0.00217438,0.0118637,0.00396729,0.0189972,0.00156403,0.0140381,0.00576019
38,7,10.0097,0.000610352,0.0012207,-2.4305,0.0526292,-0.0768941,0.0495503,0.0901964,-0.0971137,0.141961,-0.126072,-0.0880636,0.0108337,0.0233459,0.0205612,0.010376,0.0187683,0.00926971,0.0214386,0.0191879,-9.97986,0.0126266,0.000343323,0.0144958,0.00595093,0.0172424,-0.000724792,0.0185394,0.00770569
38,8,10.0097,0.0012207,-0.000610352,-2.4302,0.0523241,-0.075063,0.0510762,0.0779894,-0.0955879,0.143792,-0.126377,-0.0883688,0.00392914,0.0247955,0.018959,0.0125122,0.0180817,0.00823975,0.0201035,0.0154877,-9.97986,0.0149918,0.000419617,0.0157547,0.00484467,0.0141525,0.00297546,0.0159073,0.00225067
38,9,10.0097,0.000305176,0.000305176,-2.42898,0.0538499,-0.0756734,0.0510762,0.0731066,-0.0955879,0.143792,-0.127292,-0.0859274,0.0115967,0.0251007,0.0171661,0.0140762,0.0206375,0.0113297,0.0266266,0.014801,-9.97986,0.0186539,-0.00156403,0.0163269,0.00362396,0.016098,-0.000686646,0.0166321,0.00492096
39,0,10.0097,0.00305176,0.000610352,-2.42714,0.0550706,-0.0759786,0.054128,0.0724962,-0.0934516,0.145318,-0.126072,-0.0844015,0.0121307,0.0277328,0.0192261,0.0139236,0.0215149,0.0105667,0.0289917,0.0177383,-9.97986,0.0162888,-0.00183105,0.0173187,0.00423431,0.0203705,0.0044632,0.0170898,0.0101471
39,1,10.0097,-0.00152588,-0.000305176,-2.42745,0.0553758,-0.0756734,0.0526021,0.0706652,-0.0937568,0.144403,-0.125461,-0.0844015,0.00801086,0.0220108,0.0176239,0.00934601,0.016098,0.0018692,0.0159073,0.0131607,-9.97986,0.0112534,-0.00591278,0.00762939,0.00553131,0.0160599,-0.00984192,0.0136566,0.00167847
39,2,10.0097,0.00305176,0.000915527,-2.42714,0.0553758,-0.0741475,0.0547383,0.0712755,-0.0925361,0.145318,-0.125156,-0.0834859,0.0125504,0.0260925,0.0229263,0.0120544,0.0196075,0.0148773,0.0260925,0.018158,-9.97986,0.0196075,0.00461578,0.0175858,0.0107574,0.0191116,-0.000762939,0.0163269,0.00598907
39,3,10.0097,-0.000915527,0.000457764,-2.42531,0.0569017,-0.0735371,0.0538228,0.0718859,-0.0913154,0.145929,-0.12363,-0.0810445,0.00553131,0.02285,0.0175858,0.0088501,0.0149918,0.00724792,0.0233078,0.0188446,-9.97986,0.0132751,-0.0031662,0.0114441,0.0038147,0.0136566,-0.00297546,0.0138855,0.00671387
39,4,10.0097,-0.000305176,0.000457764,-2.42562,0.0572069,-0.0726216,0.0547383,0.0715807,-0.090705,0.145929,-0.123935,-0.0804342,0.00991821,0.0233078,0.020752,0.00907898,0.0192642,0.00682831,0.0230789,0.0237656,-9.97986,0.0178909,0.00137329,0.015831,0.0087738,0.0132751,-0.00137329,0.0159454,0.00476837
39,5,10.0097,-0.000610352,-0.000305176,-2.42653,0.0559862,-0.0747579,0.0535176,0.0602892,-0.0934516,0.145624,-0.126072,-0.0816549,0.011673,0.0211716,0.0167465,0.0141907,0.0188446,0.0104523,0.0251389,0.026741,-9.97986,0.0222397,-0.000572205,0.0154114,0.00644684,0.0193787,-0.00217438,0.018692,0.00865936
39,6,8.70778,-0.00244141,-0.00198364,-2.42653,0.0559862,-0.0738423,0.0516866,0.00566272,-0.100165,0.145318,-0.130039,-0.0837911,0.0126648,0.0241089,0.022316,0.0160599,0.0184631,0.00865936,0.02285,0.0273514,-9.97986,0.0229645,0.0018692,0.0152588,0.00808716,0.0169373,-0.00247955,0.0156021,0.00530243
39,7,-0.186567,0.000610352,-0.00366211,-2.42653,0.0572069,-0.0738423,0.0526021,-0.00837537,-0.0961982,0.145624,-0.130344,-0.0819601,0.0107574,0.0220108,0.0171661,0.0141907,0.0153732,0.00999451,0.0256729,0.0271988,-9.97986,0.0188065,-0.0012207,0.0153732,0.00652313,0.021019,-0.00125885,0.0188828,0.00610352
39,8,-7.61271,-0.000305176,-0.0038147,-2.42501,0.0562914,-0.0738423,0.0529073,-0.0150892,-0.0955879,0.145318,-0.130039,-0.0819601,0.0114822,0.0187683,0.017128,0.0123596,0.0194168,0.00846863,0.0226212,0.0229263,-9.97986,0.0206757,-0.00648499,0.0094986,0.00907898,0.0194931,-0.00324249,0.014267,0.0056839
39,9,-9.99003,0.00183105,-0.00335693,-2.4247,0.0569017,-0.0738423,0.0553487,0.0157335,-0.0925361,0.14776,-0.127598,-0.0810445,0.0123978,0.0185394,0.0216293,0.00919342,0.0197983,0.0119781,0.0238037,0.0175476,-9.97986,0.0172806,-0.00160217,0.0140381,0.00682831,0.0104141,0.000839233,0.0168228,0.00587463
40,0,-9.99003,0.00152588,-0.0012207,-2.42562,0.0559862,-0.0741475,0.0565694,0.0447252,-0.0900947,0.145013,-0.126682,-0.0810445,0.0127029,0.0242996,0.0192261,0.0114441,0.0167847,0.00732422,0.0213623,0.0191116,-9.97986,0.0157547,-0.000610352,0.0157547,0.00774384,-0.00751495,0.000267029,0.0163269,0.00793457
40,1,-9.99003,0.000305176,-0.000152588,-2.42592,0.0559862,-0.0738423,0.0553487,0.0584581,-0.0913154,0.145013,-0.126072,-0.0819601,0.00637054,0.020256,0.0207901,0.010643,0.0203705,0.01091,0.017395,0.0103378,-9.97986,0.0115204,0.000495911,0.0149155,0.00514984,-0.00679016,-0.00450134,0.0123215,0.00930786
40,2,-9.99003,0.00183105,-0.000152588,-2.42562,0.0553758,-0.0744527,0.055959,0.0822618,-0.0894843,0.145013,-0.124851,-0.0822652,0.00946045,0.0267029,0.0159836,0.0142288,0.0150299,0.00972748,0.0245285,0.0094986,-9.97986,0.0117111,-0.00259399,0.0151443,0.0082016,0.010376,-0.000228882,0.0172043,0.00530243
40,3,-8.36345,0.000305176,0.00213623,-2.4244,0.0553758,-0.0753682,0.0568746,0.135973,-0.0864326,0.145624,-0.121799,-0.0825704,0.00782013,0.0246048,0.0184631,0.0132751,0.0170517,0.00686646,0.0239944,0.0123596,-9.97986,0.0100708,-0.00312805,0.0138474,0.00904083,0.0186157,0.000114441,0.016861,0.0087738
40,4,-0.583296,0.00244141,0.00320435,-2.42745,0.0541551,-0.0744527,0.054128,0.150316,-0.0882636,0.143182,-0.122104,-0.085317,0.0102234,0.0209045,0.0196838,0.0112534,0.0128174,0.00896454,0.0207138,0.010643,-9.97986,0.0102615,-0.00274658,0.0128555,0.00572205,0.0145721,-0.00289917,0.018959,0.00473022
