
Devices
1200
,,BP Load cell - Voltage,String Length - Voltage,Clutch Active - Voltage,#7 iPecs - Voltage,,,,,,,,,EMG 1-8 Left - Voltage,,,,,,,,Pylon Force - Voltage,EMG 9-16 Right - Voltage,,,,,,,,
Frame,Sub Frame,BP Load Cell,String Length,From Arduino Logic,A45,A135,A225,A315,S0,S90,S180,S270,ZSum,EMG 1 Glut Max,EMG 2 Glut Med,EMG 3 Biceps Femoris Long,EMG 4 Rectus Femoris,EMG 5 Vastus Medialis,EMG 6 Tib Ant,EMG 7 Med Gas,EMG 8 Soleus,Pylon volts,EMG 9 Glut Max,EMG 10 Glut Med,EMG 11 Biceps Femoris Long,EMG 12 Rectus Femoris,EMG 13 Vastus Medialis,EMG 14 Tib Ant,EMG 15 Med Gas,EMG 16 Soleus
,,V,V,V,V,V,V,V,V,V,V,V,V,V,V,V,V,V,V,V,V,V,V,V,V,V,V,V,V,V
1,0,-9.99003,0.0012207,-0.000152588,-2.42623,0.0562914,-0.075063,0.0550435,0.0648668,-0.0922309,0.144098,-0.126072,-0.0828756,0.00968933,0.0252914,0.0204468,0.0113678,0.0177765,0.0131989,0.0275803,0.0204468,-9.97986,0.0111389,-0.00415802,0.0149536,0.0037384,-0.00846863,-0.00411987,0.0152206,0.00835419
1,1,-9.99003,0.000915527,0.000305176,-2.42592,0.055681,-0.0747579,0.054128,0.0724962,-0.0913154,0.145318,-0.125461,-0.0840963,0.0109863,0.026741,0.0194168,0.0128555,0.0183105,0.0126266,0.0256348,0.018158,-9.97986,0.0115585,-0.00202179,0.0157547,0.00495911,-0.00457764,-0.00553131,0.0136185,0.0038147
1,2,-7.34111,0.000610352,0.00366211,-2.42684,0.0547655,-0.0741475,0.0562642,0.133837,-0.0861274,0.144708,-0.122104,-0.0834859,0.00705719,0.0233078,0.0203705,0.01297,0.0151062,0.00984192,0.0250244,0.0156021,-9.97986,0.015564,-0.000190735,0.0159454,0.0105667,0.0172806,-0.00541687,0.0136185,0.00793457
1,3,-0.139875,0.00183105,0.00366211,-2.42592,0.0547655,-0.0753682,0.0547383,0.150316,-0.0882636,0.143792,-0.121494,-0.0850118,0.0139236,0.0228119,0.0191879,0.0108719,0.0156021,0.014267,0.0226212,0.0194931,-9.97986,0.0179672,-0.00156403,0.0146103,0.00816345,0.0180435,-0.00343323,0.0138092,0.00606537
1,4,7.09371,0.00183105,0.00396729,-2.42776,0.0547655,-0.0747579,0.0532125,0.15642,-0.0900947,0.145318,-0.120578,-0.0865377,0.00610352,0.0254822,0.0206757,0.00988007,0.0238037,0.00904083,0.0185013,0.0170517,-9.97986,0.0168991,-0.00278473,0.0143433,0.0056839,0.0151062,-0.0115585,0.0157547,0.00564575
1,5,10.0097,-0.000610352,0.00350952,-2.42928,0.0529344,-0.0765889,0.050771,0.123461,-0.0965034,0.141656,-0.124851,-0.0886739,0.00530243,0.0205612,0.00991821,0.0108337,0.0180817,0.00591278,0.0244141,0.0174713,-9.97986,0.0139236,-0.000152588,0.0154495,0.00339508,0.0145721,-0.014801,0.016861,0.00469208
1,6,10.0097,0.00183105,0.000915527,-2.43172,0.0523241,-0.0759786,0.050771,0.0898912,-0.0968086,0.142877,-0.126377,-0.0883688,0.0111771,0.0240707,0.0069809,0.0178146,0.0182343,0.0119019,0.0199127,0.0221634,-9.97986,0.0154877,-0.00335693,0.0159836,0.00907898,0.018158,-0.010376,0.0159454,0.00675201
1,7,10.0097,0.000610352,0.000610352,-2.42928,0.0535448,-0.0747579,0.0519917,0.0779894,-0.095893,0.143792,-0.126682,-0.0859274,0.00873566,0.0232315,0.00938416,0.0114822,0.0174713,0.00823975,0.0211334,0.0211716,-9.97986,0.0159836,-0.000152588,0.0151062,0.00411987,0.0133514,-0.00770569,0.016861,0.00736237
1,8,10.0097,-0.000915527,-0.000457764,-2.42898,0.0547655,-0.075063,0.0510762,0.0734117,-0.094062,0.144708,-0.126377,-0.0859274,0.00728607,0.0189972,0.0136948,0.0130844,0.0203705,0.00801086,0.018158,0.0181198,-9.97986,0.0141907,-0.00453949,0.0152588,0.00530243,0.0156403,-0.00610352,0.0185394,0.00946045
1,9,10.0097,0.000915527,0.000152588,-2.42806,0.055681,-0.0756734,0.0535176,0.0724962,-0.0946723,0.145624,-0.125156,-0.0847066,0.0126648,0.0225067,0.0144196,0.0134659,0.0164795,0.00976563,0.0231552,0.0210571,-9.97986,0.0145721,-0.00682831,0.0128555,0.00785828,0.0141907,-0.0111389,0.0177383,0.00751495
2,0,10.0097,0.000915527,-0.000610352,-2.42745,0.0550706,-0.0756734,0.0519917,0.0712755,-0.0931465,0.146234,-0.126682,-0.0850118,0.0114822,0.0239182,0.0170517,0.0119019,0.0240707,0.00972748,0.0205612,0.0228119,-9.97986,0.0165176,-0.000648499,0.0165939,0.00659943,0.0126266,-0.00862122,0.0167084,0.00663757
2,1,10.0097,0,-0.000457764,-2.42714,0.0562914,-0.075063,0.0532125,0.0715807,-0.0931465,0.145318,-0.125156,-0.0831808,0.0119781,0.0204849,0.014801,0.00869751,0.0161743,0.0082016,0.0230026,0.0172424,-9.97986,0.0137711,-0.00404358,0.00923157,0.00644684,0.0116348,0.000610352,0.0121689,0.00270844
2,2,10.0097,0.000610352,0.000152588,-2.4247,0.0578172,-0.0744527,0.054128,0.0718859,-0.0922309,0.146539,-0.124851,-0.0807394,0.0125122,0.0310516,0.0223541,0.0128555,0.0172043,0.0117111,0.0220871,0.0201035,-9.97986,0.0157166,-0.00404358,0.0146484,0.0018692,0.0133896,0.00743866,0.0151825,0.00579834
2,3,10.0097,-0.0012207,0.000915527,-2.4247,0.0550706,-0.0744527,0.0547383,0.0706652,-0.0928413,0.14837,-0.124851,-0.0819601,0.0119781,0.0272369,0.0179291,0.0136185,0.0170898,0.00907898,0.0197983,0.0177383,-9.97986,0.0137711,-0.00343323,0.0128937,0.000305176,0.0187302,0.0101471,0.018158,0.00774384
2,4,10.0097,-0.00183105,-0.00167847,-2.42684,0.0562914,-0.0753682,0.0519917,0.020006,-0.0980293,0.145929,-0.128208,-0.0831808,0.0159454,0.028038,0.0210953,0.0177002,0.0223923,0.00301361,0.0213623,0.0173569,-9.97986,0.0134659,-0.00240326,0.0112534,0.00328064,0.0156784,0.0117493,0.0155258,0.00476837
2,5,2.70009,0.000610352,-0.00411987,-2.42837,0.0562914,-0.0735371,0.0513814,-0.0184462,-0.101081,0.145318,-0.130954,-0.0837911,0.0133896,0.030098,0.0217056,0.012207,0.0170135,0.00667572,0.0242615,0.0193405,-9.97986,0.0138092,-0.000839233,0.0143433,0.00408173,0.0148392,0.015831,0.0205612,0.0056076
2,6,-5.02299,-0.0012207,-0.00427246,-2.42531,0.0565965,-0.0744527,0.0535176,-0.018141,-0.0971137,0.146844,-0.130039,-0.0813497,0.00968933,0.028038,0.0254822,0.00804901,0.019455,0.00988007,0.0212097,0.0220871,-9.97986,0.0191116,-0.00144958,0.011673,0.00724792,0.0192261,0.0162888,0.0165176,0.00431061
2,7,-9.99003,0.000305176,-0.00518799,-2.4247,0.0565965,-0.0741475,0.0547383,-0.00196668,-0.094062,0.14776,-0.128818,-0.0804342,0.0118256,0.0261307,0.0156403,0.00705719,0.0153351,0.0094986,0.0214767,0.0181198,-9.97986,0.0164795,0.00171661,0.0159836,0.00587463,-0.00389099,0.0148773,0.0209045,0.00614166
2,8,-9.99003,-0.000610352,-0.00137329,-2.42409,0.0572069,-0.0747579,0.0568746,0.0428942,-0.0894843,0.146234,-0.125766,-0.0813497,0.0125885,0.0224304,0.0236511,0.0123596,0.0136185,0.0148392,0.0203323,0.0193024,-9.97986,0.0179291,0.00183105,0.0150681,0.00629425,-0.0107574,0.00911713,0.0160599,0.00427246
2,9,-9.99003,-0.000305176,-0.000762939,-2.42592,0.0550706,-0.0741475,0.0556539,0.0578478,-0.090705,0.145318,-0.125766,-0.0816549,0.0108719,0.0232315,0.0255203,0.0126266,0.0136948,0.00843048,0.0208664,0.0182724,-9.97986,0.0120926,0.00175476,0.0169373,0.00766754,-0.00579834,0.010643,0.0206375,0.00797272
3,0,-9.99003,0.000915527,0.000305176,-2.42653,0.0553758,-0.0744527,0.0547383,0.0633409,-0.0919257,0.145929,-0.126377,-0.0828756,0.00976563,0.0259399,0.0245285,0.00850677,0.0147247,0.00892639,0.0195694,0.0204849,-9.97986,0.0121307,-0.00198364,0.0136566,0.00530243,-0.0043869,0.00930786,0.017395,0.00816345
3,1,-9.99003,0.00213623,-0.000152588,-2.42592,0.0550706,-0.0741475,0.054128,0.0731066,-0.0913154,0.145318,-0.125461,-0.0828756,0.00713348,0.024147,0.0229263,0.00858307,0.0137329,0.00938416,0.0168228,0.0189209,-9.97986,0.0147247,0.0031662,0.0131226,0.00579834,-0.0063324,0.00545502,0.0153732,0.0063324
3,2,-7.12047,0.000305176,0.00396729,-2.42684,0.0535448,-0.0756734,0.0556539,0.134752,-0.0867378,0.143792,-0.12241,-0.0837911,0.0113678,0.0231171,0.0213242,0.00854492,0.0213242,0.0108719,0.0152206,0.0191498,-9.97986,0.0160217,-0.00110626,0.0112152,0.0037384,0.0155258,0.00324249,0.0185013,0.00648499
3,3,0.106707,0.000610352,0.00457764,-2.42806,0.0532396,-0.0753682,0.0544332,0.150316,-0.0879585,0.143487,-0.121799,-0.0840963,0.0135422,0.0234222,0.0193787,0.013504,0.0183868,0.00843048,0.0161743,0.0180817,-9.97986,0.0166702,0.00320435,0.0168991,0.00499725,0.0174332,0.00232697,0.0156403,0.0062561
3,4,7.31893,-0.000305176,0.00366211,-2.42806,0.0544603,-0.0756734,0.0532125,0.156725,-0.0879585,0.143792,-0.121189,-0.0862325,0.00934601,0.0208282,0.0222015,0.0112152,0.0165176,0.0056839,0.0191879,0.0175858,-9.97986,0.0149155,-0.000686646,0.0160599,0.00644684,0.0174332,-0.00400543,0.0187302,0.00267029
3,5,10.0097,0.000305176,0.00396729,-2.43111,0.0523241,-0.0771993,0.0504659,0.121324,-0.0961982,0.141351,-0.125156,-0.0889791,0.0114441,0.0251389,0.021553,0.0111008,0.0203323,0.010643,0.0234985,0.0164795,-9.97986,0.013504,0.00289917,0.0121307,0.00362396,0.0156021,-0.000724792,0.0169754,0.00488281
3,6,10.0097,-0.0012207,0.00167847,-2.43111,0.0535448,-0.0768941,0.0504659,0.0892809,-0.0968086,0.143182,-0.126377,-0.0886739,0.0141144,0.0180054,0.0243378,0.00919342,0.0166702,0.0128937,0.025177,0.0177002,-9.97986,0.0131607,-0.000686646,0.0111771,0.00617981,0.0170135,0.00370026,0.0170898,0.00926971
3,7,10.0097,0.00152588,0.000152588,-2.42867,0.0544603,-0.0759786,0.0516866,0.0785997,-0.0949775,0.145013,-0.126072,-0.0874532,0.00862122,0.026741,0.0239182,0.0094223,0.0167847,0.00865936,0.0244141,0.0133514,-9.97986,0.0137711,-0.00366211,0.0124359,0.00827789,0.0187683,0.00209808,0.0155258,0.00743866
3,8,10.0097,0,-0.000457764,-2.42867,0.0535448,-0.0756734,0.0516866,0.0734117,-0.0943672,0.144403,-0.126377,-0.085317,0.0131226,0.0254059,0.0189972,0.0104904,0.0140381,0.00751495,0.0233459,0.0179291,-9.97986,0.0116348,-0.0018692,0.0172806,0.00450134,0.021553,0.00324249,0.0157166,0.00556946
3,9,10.0097,0.000305176,-0.000152588,-2.42714,0.0541551,-0.075063,0.0526021,0.0712755,-0.0937568,0.145318,-0.126682,-0.085317,0.0106049,0.0307083,0.0201035,0.0123596,0.0175095,0.00991821,0.0248337,0.0234604,-9.97986,0.0143814,-0.00320435,0.0123978,0.00598907,0.0150299,-0.00335693,0.0195313,0.00473022
4,0,10.0097,0.00213623,0.000762939,-2.42745,0.0553758,-0.075063,0.0532125,0.0715807,-0.0937568,0.144708,-0.125766,-0.0837911,0.0123596,0.0382614,0.0228119,0.0122833,0.0154495,0.00835419,0.0229645,0.0214005,-9.97986,0.0138092,-0.000724792,0.0143814,0.0062561,0.0206375,-0.00183105,0.0177765,0.00686646
4,1,10.0097,-0.000610352,0.000152588,-2.42562,0.0559862,-0.073232,0.0547383,0.0712755,-0.0931465,0.144708,-0.124851,-0.0837911,0.0127792,0.0363922,0.0225449,0.0122452,0.0132751,0.0056839,0.0254822,0.0197601,-9.97986,0.0120163,-0.00423431,0.0122833,0.00488281,0.0180817,-0.00171661,0.0146866,0.00602722
4,2,10.0097,-0.000305176,0.000152588,-2.42531,0.0559862,-0.0729268,0.0550435,0.0718859,-0.0919257,0.147149,-0.124851,-0.0822652,0.0111008,0.0353622,0.0188446,0.010376,0.0134659,0.00686646,0.0236511,0.0151062,-9.97986,0.0111008,-0.00137329,0.0129318,0.00110626,0.0173187,-0.00621796,0.0178909,0.00816345
4,3,10.0097,0.00152588,0.000152588,-2.4247,0.0562914,-0.0735371,0.0550435,0.0712755,-0.0913154,0.147149,-0.12363,-0.0810445,0.0120163,0.031662,0.0196075,0.0125885,0.0177002,0.00961304,0.0235367,0.0141525,-9.97986,0.0146484,-0.00183105,0.0148392,0.00717163,0.0210571,-0.00602722,0.0168228,0.0069809
4,4,10.0097,0.0012207,-0.00152588,-2.42745,0.0559862,-0.0744527,0.0516866,0.0187853,-0.0974189,0.145929,-0.128513,-0.0831808,0.0106812,0.0379944,0.0178909,0.00801086,0.0223923,0.0110245,0.0223541,0.0153351,-9.97986,0.0164795,0.000839233,0.0134659,0.0043869,0.018959,-0.00469208,0.0195694,0.00442505
4,5,2.58595,0.000915527,-0.00473022,-2.42745,0.055681,-0.0735371,0.0513814,-0.019972,-0.101386,0.146234,-0.131565,-0.0834859,0.0115204,0.0426102,0.0100327,0.0130081,0.0183868,0.0050354,0.0214386,0.0154114,-9.97986,0.0153351,-0.00610352,0.0130081,0.00598907,0.0161362,-0.00534058,0.0190735,0.00652313
4,6,-5.26378,0,-0.00411987,-2.42623,0.055681,-0.0741475,0.054128,-0.0172255,-0.095893,0.145624,-0.130954,-0.0822652,0.0139618,0.0452423,0.0107956,0.0114059,0.0177383,0.00953674,0.0146103,0.0183487,-9.97986,0.0161362,0.000572205,0.0132751,0.00350952,0.0146484,-0.00778198,0.0148773,0.00644684
4,7,-9.99003,-0.000915527,-0.00518799,-2.42379,0.0575121,-0.0726216,0.0550435,-0.00227185,-0.0946723,0.146234,-0.129734,-0.0810445,0.0120163,0.0237274,0.00965118,0.0100708,0.0179672,0.0100327,0.0200653,0.0162506,-9.97986,0.0164032,0.000152588,0.0140762,0.00671387,-0.00469208,-0.0259018,0.0185013,0.00385284
4,8,-9.99003,0.000305176,-0.00152588,-2.42379,0.0559862,-0.0741475,0.0571797,0.042589,-0.0885688,0.145318,-0.126682,-0.0804342,0.0112915,-0.00358582,0.0101089,0.0094986,0.0171661,0.00961304,0.0205994,0.0217438,-9.97986,0.0149918,-0.00232697,0.0163651,0.0038147,-0.00732422,-0.032692,0.0165939,0.0031662
4,9,-9.99003,0.000610352,-0.00106812,-2.42623,0.0544603,-0.0741475,0.0553487,0.0578478,-0.090705,0.145013,-0.125766,-0.0813497,0.00804901,-0.0025177,0.0150299,0.0118256,0.0144196,0.0111771,0.0196457,0.015831,-9.97986,0.0128555,-0.00656128,0.0156403,0.00453949,-0.00904083,-0.0307083,0.0163269,0.00785828
5,0,-9.99003,0.00213623,0,-2.42653,0.0550706,-0.0741475,0.0544332,0.0633409,-0.0919257,0.145929,-0.126377,-0.0819601,0.0121307,0.0106812,0.015831,0.00823975,0.0146484,0.0120163,0.0149918,0.0157547,-9.97986,0.016861,-0.00350952,0.0131989,0.00404358,-0.0115585,-0.0283051,0.0151443,0.00640869
5,1,-9.99003,0.000915527,0.000305176,-2.42592,0.0550706,-0.0741475,0.054128,0.0700548,-0.0922309,0.145318,-0.125156,-0.0837911,0.00583649,0.00862122,0.0182343,0.012207,0.021019,0.0120926,0.0178909,0.0172043,-9.97986,0.0194931,-0.00152588,0.0157166,0.00499725,-0.00785828,-0.0216675,0.0182343,0.00812531
5,2,-7.22514,0,0.00350952,-2.42714,0.0541551,-0.0759786,0.0553487,0.132921,-0.0873481,0.144098,-0.122104,-0.0837911,0.011673,-0.000724792,0.018692,0.0118637,0.0199127,0.0111771,0.018692,0.0161743,-9.97986,0.0148773,0.000457764,0.0141144,0.00549316,0.0162125,-0.00804901,0.0154114,0.0056076
5,3,-0.0501535,0.00183105,0.0038147,-2.42837,0.0544603,-0.0756734,0.0550435,0.150621,-0.0894843,0.143792,-0.121799,-0.0840963,0.00904083,0.00793457,0.0202179,0.014534,0.0178528,0.00823975,0.0154114,0.0162506,-9.97986,0.0177383,0.00236511,0.0166702,0.00812531,0.0169754,0.0108337,0.018425,0.00770569
5,4,7.19228,0.000305176,0.00427246,-2.42776,0.0547655,-0.0753682,0.054128,0.156114,-0.0885688,0.143792,-0.122715,-0.0868429,0.00747681,0.00701904,0.0196075,0.00934601,0.0178909,0.013237,0.0183487,0.0128555,-9.97986,0.0147247,-0.0031662,0.0176239,0.00213623,0.0153351,0.0195694,0.0191116,0.00823975
5,5,10.0097,-0.000610352,0.00366211,-2.4302,0.0523241,-0.0768941,0.050771,0.121019,-0.0968086,0.141656,-0.125156,-0.0883688,0.0107574,0.0167465,0.0238037,0.0124741,0.0186539,0.0131607,0.0179672,0.0188446,-9.97986,0.0150681,0.00110626,0.0161362,0.00614166,0.0120544,0.00961304,0.0175858,0.00362396
5,6,10.0097,-0.000610352,0.00137329,-2.43111,0.0535448,-0.0771993,0.050771,0.0895861,-0.0977241,0.142877,-0.126072,-0.0883688,0.00846863,0.0214005,0.0251007,0.0147629,0.0182724,0.00694275,0.0171661,0.018959,-9.97986,0.0137711,-0.00667572,0.0143814,0.00556946,0.0111771,0.0144577,0.0159836,0.00804901
5,7,10.0097,0.00183105,0.000152588,-2.42959,0.0547655,-0.0759786,0.0513814,0.0789049,-0.0961982,0.144708,-0.126072,-0.0868429,0.0115585,0.0222397,0.0167084,0.00972748,0.0180435,0.00740051,0.0163269,0.0164795,-9.97986,0.0134659,0.000152588,0.0159454,0.00389099,0.0161362,0.0147629,0.019722,0.0112152
5,8,10.0097,-0.000305176,-0.000152588,-2.42684,0.0535448,-0.075063,0.0526021,0.0740221,-0.0955879,0.143792,-0.125766,-0.085317,0.00907898,0.0186157,0.0188446,0.0101471,0.0174713,0.00999451,0.0190735,0.0175858,-9.97986,0.0171661,-0.000228882,0.0157547,0.00328064,0.0148773,0.0119019,0.0196838,0.00675201
5,9,10.0097,0.00152588,-0.000152588,-2.42837,0.0541551,-0.0747579,0.0529073,0.0706652,-0.0937568,0.145013,-0.126682,-0.085317,0.0141525,0.0238419,0.0194168,0.00995636,0.0215912,0.00991821,0.0216293,0.0157166,-9.97986,0.0160217,-0.00225067,0.0193787,0.0062561,0.0140381,-0.00106812,0.0178146,0.0110626
6,0,10.0097,-0.000305176,0.000305176,-2.42714,0.0550706,-0.075063,0.0538228,0.0706652,-0.0946723,0.144708,-0.125461,-0.0844015,0.0142288,0.022049,0.0197983,0.0130844,0.0174713,0.0138855,0.0198746,0.0154495,-9.97986,0.0139236,-0.00720978,0.0115967,0.00362396,0.0140762,-0.00133514,0.0159073,0.00980377
6,1,10.0097,0.0012207,0.000305176,-2.42684,0.0550706,-0.0735371,0.0535176,0.0712755,-0.090705,0.145929,-0.125156,-0.0837911,0.0128937,0.018959,0.0182724,0.0118637,0.0143814,0.00972748,0.0200272,0.0205612,-9.97986,0.0151443,-0.00541687,0.0110245,0.00644684,0.0156403,0.00411987,0.0170517,0.00743866
6,2,10.0097,0.000610352,0.000457764,-2.4247,0.0559862,-0.0729268,0.0547383,0.0706652,-0.0910102,0.147455,-0.12363,-0.0825704,0.0114059,0.0130844,0.0117493,0.010643,0.0145721,0.010376,0.02491,0.0226212,-9.97986,0.011673,-0.00595093,0.0141525,0.00312805,0.0162125,0.00576019,0.017128,0.0094223
6,3,10.0097,-0.000305176,0,-2.42562,0.0565965,-0.0741475,0.0547383,0.0724962,-0.0913154,0.146844,-0.124546,-0.0810445,0.0100327,0.0134659,0.00801086,0.0114822,0.0168991,0.00995636,0.0246811,0.0189972,-9.97986,0.0120163,-0.00511169,0.0182343,0.00267029,0.0209427,0.00572205,0.0158691,0.00892639
6,4,9.96022,0.000610352,-0.00213623,-2.42806,0.0565965,-0.0744527,0.0519917,0.0190905,-0.0980293,0.146234,-0.128208,-0.0837911,0.0133896,0.0215149,0.0110245,0.0157547,0.0150299,0.0123215,0.0235748,0.0212097,-9.97986,0.019989,-0.00259399,0.0126648,0.0063324,0.0183487,0.00621796,0.0159454,0.0119781
6,5,2.52522,0.00183105,-0.00457764,-2.42684,0.0559862,-0.0738423,0.0516866,-0.0202772,-0.101997,0.146234,-0.130649,-0.0831808,0.00965118,0.0182724,0.0181961,0.0175858,0.0185394,0.00934601,0.02285,0.0164795,-9.97986,0.0130844,-0.00286102,0.0123215,0.00427246,0.0181961,0.0038147,0.0163651,0.00621796
6,6,-5.30925,0.000610352,-0.00518799,-2.42592,0.0569017,-0.0747579,0.0532125,-0.0184462,-0.0974189,0.145929,-0.129734,-0.0828756,0.00938416,0.0222397,0.0217438,0.00812531,0.0183105,0.00701904,0.0270462,0.0201416,-9.97986,0.0121307,0.00125885,0.0180817,0.00614166,0.017128,-3.8147e-005,0.017395,0.0063324
6,7,-9.99003,0.000915527,-0.00457764,-2.42379,0.0569017,-0.0729268,0.0556539,-0.00105115,-0.0931465,0.146234,-0.128818,-0.0810445,0.0094986,0.0267792,0.0180817,0.0114822,0.0162125,0.0094986,0.0290298,0.0187683,-9.97986,0.0152969,-0.00621796,0.014534,0.00823975,-0.00419617,0.0037384,0.0154495,0.00343323
6,8,-9.99003,0.000610352,-0.00152588,-2.42348,0.055681,-0.0735371,0.0577901,0.0435045,-0.0891792,0.146539,-0.126682,-0.0798238,0.0112915,0.0247192,0.0183868,0.0147247,0.0123978,0.0138092,0.0239182,0.0187302,-9.97986,0.0127029,-0.00453949,0.013504,0.00522614,-0.00621796,0.00362396,0.0149536,0.00347137
6,9,-9.99003,-0.000610352,-0.000305176,-2.42592,0.0544603,-0.0738423,0.0550435,0.0578478,-0.0900947,0.146539,-0.125766,-0.0822652,0.014534,0.018959,0.0193787,0.0132751,0.013237,0.0144196,0.0297928,0.0178909,-9.97986,0.0172043,0.00179291,0.00663757,0.00518799,-0.00480652,0.00114441,0.0140762,0.0030899
7,0,-9.99003,-0.000915527,0.000152588,-2.42684,0.055681,-0.0738423,0.0544332,0.0633409,-0.0913154,0.145013,-0.126072,-0.0837911,0.0113678,0.0192642,0.0187683,0.0136185,0.0130844,0.0125885,0.0257111,0.0170135,-9.97986,0.0112534,0.00198364,0.0102615,0.00549316,-0.00801086,-0.00785828,0.0152969,0.00709534
7,1,-9.99003,0,0.000610352,-2.42776,0.0544603,-0.0747579,0.0547383,0.0718859,-0.0903999,0.145013,-0.125766,-0.0828756,0.0133896,0.0238419,0.021553,0.0117874,0.0111771,0.0141907,0.0222778,0.0158691,-9.97986,0.0204849,-0.00133514,0.0141525,0.00831604,-0.00785828,-0.0159073,0.0201416,0.00854492
7,2,-7.29106,0.0012207,0.00366211,-2.42684,0.0529344,-0.0756734,0.0553487,0.132616,-0.0870429,0.145318,-0.122104,-0.0837911,0.0148773,0.033226,0.0205612,0.0116348,0.0102997,0.0111008,0.0222397,0.0175476,-9.97986,0.0100327,-0.00469208,0.0094986,0.00514984,0.0110626,-0.015831,0.0128555,0.00240326
7,3,-0.140485,0.000915527,0.00411987,-2.42806,0.0532396,-0.0759786,0.0550435,0.150316,-0.0879585,0.145624,-0.120884,-0.0837911,0.012207,0.0485229,0.0198364,0.0147247,0.0171661,0.00614166,0.0213242,0.0193405,-9.97986,0.0149155,-0.00312805,0.0144196,0.00488281,0.0208664,-0.0120926,0.0147629,0.0069809
7,4,7.02565,0.00152588,0.00411987,-2.42776,0.0547655,-0.0762837,0.0532125,0.156725,-0.0894843,0.144098,-0.121189,-0.0859274,0.0123596,0.0547028,0.0212097,0.00995636,0.013504,0.00991821,0.0163651,0.018425,-9.97986,0.0169754,0.000114441,0.0140762,0.00106812,0.0191116,-0.00644684,0.0163651,0.00762939
7,5,10.0097,0.000610352,0.00442505,-2.4305,0.0520189,-0.0765889,0.0498555,0.123155,-0.0943672,0.141046,-0.125766,-0.0898946,0.0141525,0.0482178,0.022583,0.0115967,0.0163269,0.00701904,0.0144196,0.0182724,-9.97986,0.0160599,-3.8147e-005,0.0157547,0.00762939,0.0149155,-0.000610352,0.0128555,0.00640869
7,6,10.0097,0.000915527,0.000762939,-2.42989,0.0526292,-0.0762837,0.050771,0.0898912,-0.0980293,0.143487,-0.125461,-0.0883688,0.0131226,0.0334549,0.0203705,0.0131607,0.0197601,0.0069046,0.0131226,0.0190735,-9.97986,0.0162888,-0.0019455,0.0173569,0.00537872,0.0163269,0.000152588,0.017128,0.00793457
7,7,10.0097,0.00183105,0.000610352,-2.42867,0.0550706,-0.0753682,0.0516866,0.0782946,-0.0965034,0.143487,-0.127292,-0.0877584,0.0126266,0.0328064,0.0182343,0.0128174,0.0154495,0.00808716,0.00724792,0.0212097,-9.97986,0.0131226,-0.00713348,0.0139236,0.00534058,0.0122452,0.00362396,0.0157166,0.00595093
7,8,10.0097,0.000610352,-0.000152588,-2.42806,0.0538499,-0.0756734,0.0516866,0.0743273,-0.0949775,0.143792,-0.126072,-0.0862325,0.0131607,0.030632,0.0182724,0.0138092,0.0169373,0.00724792,0.0156784,0.0182343,-9.97986,0.0135803,-0.00747681,0.0125885,0.00659943,0.0131989,0.0101089,0.0154114,0.00576019
7,9,10.0097,0.00152588,0.000915527,-2.42837,0.0541551,-0.075063,0.0532125,0.0724962,-0.0931465,0.144098,-0.126682,-0.0847066,0.0135803,0.0106049,0.012207,0.00968933,0.0166321,0.00888824,0.0204086,0.0232697,-9.97986,0.0207138,-0.00377655,0.0130463,0.00419617,0.0163651,0.00377655,0.014534,0.00686646
8,0,10.0097,0.000305176,0.000305176,-2.42714,0.055681,-0.0753682,0.0516866,0.0706652,-0.0946723,0.145624,-0.124546,-0.0847066,0.0110626,0.00556946,0.014801,0.0151443,0.0167465,0.00904083,0.0268555,0.0176239,-9.97986,0.0163651,-0.00507355,0.0128937,0.00751495,0.0152206,0.000610352,0.0110245,0.00480652
8,1,10.0097,-0.000610352,0.000457764,-2.42623,0.0550706,-0.0741475,0.0550435,0.0712755,-0.0928413,0.146234,-0.125766,-0.0828756,0.0138855,0.0205994,0.0127029,0.0104904,0.0201416,0.0115204,0.0279236,0.017662,-9.97986,0.0146484,-0.00202179,0.013237,0.00324249,0.0190735,0.00572205,0.0155258,0.0062561
8,2,10.0097,-0.000305176,0.000152588,-2.42562,0.0559862,-0.0741475,0.054128,0.0715807,-0.0919257,0.14837,-0.124241,-0.0813497,0.0124359,0.0247192,0.0187683,0.00679016,0.0151062,0.00881195,0.0286484,0.0216293,-9.97986,0.015831,-0.00259399,0.0139618,0.00644684,0.0168228,0.00534058,0.014267,0.00522614
8,3,10.0097,0,0.000457764,-2.42562,0.0565965,-0.0738423,0.0547383,0.072191,-0.0919257,0.146539,-0.124546,-0.0819601,0.0114059,0.0214005,0.0121307,0.0063324,0.0173187,0.0087738,0.024147,0.0231934,-9.97986,0.0150299,-0.00370026,0.0149918,0.00499725,0.0149536,0.00350952,0.0146866,0.00431061
8,4,9.79939,0.00274658,-0.00167847,-2.42592,0.0550706,-0.0747579,0.0526021,0.0184801,-0.0980293,0.144708,-0.128818,-0.0834859,0.010643,0.0209045,0.0122452,0.01091,0.0170135,0.0107956,0.0280762,0.0185394,-9.97986,0.0164413,-0.000228882,0.0122833,0.00682831,0.0166321,0.00335693,0.0121689,0.00434875
8,5,2.38423,0.000915527,-0.00396729,-2.42714,0.0569017,-0.0747579,0.0513814,-0.0205824,-0.09925,0.146234,-0.130954,-0.0844015,0.00774384,0.0210571,0.0115204,0.0131989,0.0213623,0.00846863,0.0228882,0.020256,-9.97986,0.0159073,-0.00350952,0.0155258,0.00652313,0.014801,0.00465393,0.0146484,0.00576019
8,6,-5.35502,0.000915527,-0.00427246,-2.42653,0.0565965,-0.0744527,0.0535176,-0.0175306,-0.0968086,0.148065,-0.130344,-0.0819601,0.0110626,0.0214767,0.00843048,0.00923157,0.0227356,0.0102234,0.0250626,0.0215149,-9.97986,0.00988007,-0.00236511,0.0149536,0.0062561,0.020256,-0.0037384,0.0158691,0.00530243
8,7,-9.99003,-0.00213623,-0.00473022,-2.42592,0.0559862,-0.0726216,0.0556539,-0.000135623,-0.0934516,0.146844,-0.129734,-0.0810445,0.00823975,0.0218582,0.0188065,0.0125885,0.018959,0.00793457,0.0282669,0.0248337,-9.97986,0.0179291,-0.000305176,0.0104141,0.00785828,-0.0056076,-0.00183105,0.0141525,0.00926971
8,8,-9.99003,0.00183105,-0.00213623,-2.42379,0.0559862,-0.073232,0.0568746,0.0441149,-0.0894843,0.146539,-0.126377,-0.0804342,0.00984192,0.0183105,0.0185013,0.0123978,0.0159836,0.0144577,0.0286102,0.0138092,-9.97986,0.0150681,-0.000419617,0.0115204,0.00816345,-0.0117111,0.000419617,0.0135422,0.00747681
8,9,-9.99003,-0.000915527,-0.000305176,-2.42501,0.0565965,-0.0738423,0.0553487,0.0584581,-0.090705,0.145929,-0.126072,-0.0825704,0.00911713,0.021553,0.0201797,0.016098,0.0170135,0.00797272,0.0356293,0.0165176,-9.97986,0.0154495,0.000839233,0.0114059,0.00988007,-0.00259399,-0.00713348,0.0133514,0.00984192
9,0,-9.99003,0.00152588,-0.000152588,-2.42684,0.0544603,-0.0741475,0.054128,0.0639513,-0.0922309,0.144708,-0.126377,-0.0834859,0.0120544,0.0211334,0.0244904,0.0125122,0.0177765,0.0102615,0.0343704,0.00507355,-9.97986,0.0153351,0.0038147,0.016861,0.0110626,-0.00640869,-0.00629425,0.0137329,0.00648499
9,1,-9.99003,0.000305176,0.000457764,-2.42653,0.0547655,-0.0753682,0.0535176,0.0709703,-0.0928413,0.144708,-0.125766,-0.0837911,0.0126648,0.0245285,0.0224304,0.0094223,0.0252533,0.00953674,0.0285721,0.00804901,-9.97986,0.016098,0.00225067,0.0175095,0.00667572,-0.00679016,-0.0104904,0.0179672,0.00793457
9,2,-7.26848,-0.000305176,0.00396729,-2.42714,0.0550706,-0.0753682,0.0547383,0.133837,-0.0867378,0.145318,-0.122104,-0.0844015,0.00598907,0.0233841,0.0270081,0.0112534,0.0193405,0.0102615,0.0263214,0.00858307,-9.97986,0.0141144,0.00259399,0.0138855,0.0108337,0.0158691,-0.00499725,0.0144196,0.00892639
9,3,-0.135603,0.000915527,0.00457764,-2.42623,0.0535448,-0.0756734,0.0544332,0.151537,-0.088874,0.142877,-0.121494,-0.0844015,0.0111008,0.0234222,0.0209808,0.0102234,0.018158,0.00968933,0.021553,0.00713348,-9.97986,0.010643,0.00293732,0.0153351,0.00537872,0.018959,-0.0100708,0.0148773,0.0075531
9,4,7.04488,0.000305176,0.00457764,-2.42776,0.0544603,-0.0756734,0.0532125,0.156114,-0.0894843,0.143487,-0.120884,-0.0859274,0.0107956,0.0255585,0.0233459,0.0135803,0.0189209,0.00751495,0.026741,0.0126648,-9.97986,0.0136566,0.00167847,0.0136566,0.00812531,0.0244904,-0.00732422,0.0138092,0.00656128
9,5,10.0097,0.0012207,0.00366211,-2.43233,0.0526292,-0.0768941,0.050771,0.123461,-0.0955879,0.142877,-0.123935,-0.0883688,0.00934601,0.0252533,0.018692,0.0103378,0.0167084,0.00888824,0.0190735,0.0125885,-9.97986,0.0132751,0.00205994,0.0100327,0.00804901,0.018692,-0.00701904,0.0134659,0.00591278
9,6,10.0097,-0.00274658,0.000457764,-2.4305,0.0535448,-0.0762837,0.0498555,0.0898912,-0.0971137,0.142877,-0.126072,-0.0886739,0.0100327,0.0249481,0.0221252,0.01091,0.0136948,0.0104141,0.022049,0.0170135,-9.97986,0.0106812,0.00312805,0.0118637,0.00720978,0.0194931,-0.0108719,0.0154877,0.00492096
9,7,10.0097,-0.000610352,0,-2.42959,0.0535448,-0.0765889,0.0513814,0.0779894,-0.095893,0.143182,-0.126682,-0.0871481,0.00934601,0.026207,0.0236893,0.00724792,0.0180435,0.0075531,0.0269318,0.0192261,-9.97986,0.0125885,0.000762939,0.0131607,0.00419617,0.0207138,-0.00839233,0.0157166,0.00576019
9,8,10.0097,0.000915527,0.000305176,-2.42745,0.0553758,-0.0747579,0.0522969,0.0746324,-0.0943672,0.144708,-0.126377,-0.0874532,0.010376,0.0326538,0.0212479,0.00812531,0.0157166,0.00801086,0.0215149,0.014534,-9.97986,0.0138092,-0.00328064,0.00953674,0.00972748,0.0188828,-0.00713348,0.0160599,0.00205994
9,9,10.0097,-0.000305176,-0.000152588,-2.42745,0.055681,-0.0744527,0.0522969,0.0718859,-0.0937568,0.145624,-0.126072,-0.085317,0.017128,0.0346375,0.0224686,0.0127411,0.0186539,0.00598907,0.0293732,0.0167084,-9.97986,0.0150681,-0.00038147,0.0111771,0.00797272,0.0201416,-0.00831604,0.0168228,0.00473022
10,0,10.0097,0,0.000305176,-2.42592,0.0553758,-0.0738423,0.0544332,0.0706652,-0.0931465,0.145624,-0.126072,-0.0844015,0.011673,0.0352478,0.0270462,0.0127029,0.0175476,0.0108337,0.0241852,0.0126648,-9.97986,0.0153351,0.00133514,0.0111008,0.0120544,0.0219345,-0.00946045,0.0178528,0.00675201
10,1,10.0097,0.000610352,0.000610352,-2.42592,0.0550706,-0.0738423,0.0547383,0.0715807,-0.0928413,0.145318,-0.125461,-0.0828756,0.0125885,0.0315094,0.0261307,0.0140381,0.0143433,0.00816345,0.0220871,0.00850677,-9.97986,0.0153351,0.00354767,0.0125885,0.00759125,0.0186539,-0.00995636,0.0149536,0.00587463
10,2,10.0097,0.000915527,0.000915527,-2.42531,0.0562914,-0.0744527,0.0544332,0.0706652,-0.0931465,0.147149,-0.124546,-0.0819601,0.00892639,0.0255966,0.0217819,0.0120544,0.0193024,0.00881195,0.0242233,0.00980377,-9.97986,0.016098,0.000228882,0.0106812,0.0122452,0.0180817,-0.00545502,0.0179672,0.00720978
10,3,10.0097,0.0012207,-0.000305176,-2.42501,0.0565965,-0.0747579,0.0544332,0.0724962,-0.0913154,0.145624,-0.12363,-0.0813497,0.0102615,0.0175095,0.0154495,0.0133133,0.0136566,0.0106812,0.02491,0.00988007,-9.97986,0.015831,0.00171661,0.0106812,0.00888824,0.0183487,-0.00808716,0.0168991,0.00396729
10,4,9.80092,0,-0.00152588,-2.42837,0.0559862,-0.0738423,0.0522969,0.0190905,-0.0986396,0.146234,-0.129123,-0.0834859,0.00995636,0.014801,0.00774384,0.0118637,0.0148392,0.0123596,0.0212479,0.0128937,-9.97986,0.0185776,0.00198364,0.010376,0.00839233,0.0183868,-0.00629425,0.0166321,0.00221252
10,5,2.30184,0.000610352,-0.00427246,-2.42684,0.0553758,-0.0741475,0.0532125,-0.0202772,-0.101081,0.145929,-0.130649,-0.0834859,0.0111008,0.0178528,0.00476837,0.0105286,0.0154495,0.0082016,0.0208282,0.0136185,-9.97986,0.0150299,-0.00343323,0.0126266,0.0101471,0.020256,-0.0012207,0.0144577,0.00576019
10,6,-5.49327,-0.000305176,-0.00473022,-2.42623,0.0572069,-0.0744527,0.0535176,-0.0190565,-0.0980293,0.147149,-0.130649,-0.0822652,0.0102615,0.02491,0.00255585,0.0111771,0.0183105,0.0140381,0.0236893,0.0188065,-9.97986,0.0174713,-0.0043869,0.0140381,0.00709534,0.0167847,-0.00312805,0.0183487,0.00556946
10,7,-9.99003,-0.000305176,-0.00442505,-2.42501,0.0578172,-0.0726216,0.055959,-0.000135623,-0.0928413,0.145624,-0.128818,-0.0810445,0.00850677,0.0175476,0.00408173,0.00392914,0.0152206,0.0115585,0.0208664,0.016098,-9.97986,0.0177765,0.00114441,0.0157547,0.00602722,-0.00606537,-0.00675201,0.0140762,0.00827789
10,8,-9.99003,0.000305176,-0.00152588,-2.4247,0.0565965,-0.0729268,0.0565694,0.0438097,-0.0894843,0.146234,-0.126682,-0.0804342,0.011673,0.00202179,0.00362396,0.00343323,0.0185776,0.00988007,0.0213623,0.0173187,-9.97986,0.0118256,-0.00526428,0.0255203,0.00774384,-0.00530243,-0.00488281,0.0139618,0.00549316
10,9,-9.99003,0.00213623,-0.000457764,-2.42592,0.0562914,-0.0744527,0.054128,0.0587633,-0.0910102,0.145624,-0.126072,-0.0816549,0.0113678,-0.00144958,0.0050354,0.0139618,0.0156021,0.0117111,0.0187302,0.0181198,-9.97986,0.0144196,-0.00392914,0.0246429,0.0107956,-0.00892639,-0.00530243,0.0188446,0.00720978
11,0,-9.99003,0.00305176,0.000152588,-2.42592,0.0547655,-0.0759786,0.0535176,0.0630358,-0.0925361,0.145624,-0.125461,-0.0828756,0.0094986,0.0050354,0.00934601,0.00759125,0.0140381,0.00946045,0.0252914,0.013504,-9.97986,0.0173569,0.00141144,0.0236511,0.00827789,-0.00659943,-0.00179291,0.0189972,0.00743866
11,1,-9.99003,0.000610352,0,-2.42714,0.0553758,-0.075063,0.054128,0.0706652,-0.0925361,0.145318,-0.126377,-0.0831808,0.00946045,0.00583649,0.0127792,0.00995636,0.0125504,0.0116348,0.0208664,0.0193024,-9.97986,0.0163269,-0.00312805,0.0139618,0.00556946,-0.0094986,-0.00225067,0.0183868,0.00282288
11,2,-7.2642,-0.000305176,0.00411987,-2.42745,0.0541551,-0.075063,0.0562642,0.131395,-0.0861274,0.145013,-0.12241,-0.0837911,0.00797272,0.0124359,0.0128174,0.00930786,0.0174332,0.0114441,0.0261307,0.0186539,-9.97986,0.021553,0.000190735,0.0144958,0.00907898,0.0191879,-0.00087738,0.0143051,0.00648499
11,3,-0.108747,-0.000610352,0.00442505,-2.42653,0.0535448,-0.0756734,0.0547383,0.149095,-0.0882636,0.144708,-0.121494,-0.0840963,0.00770569,0.0187683,0.0154495,0.00556946,0.0166321,0.00957489,0.0210571,0.0205231,-9.97986,0.0157928,-0.00431061,0.0148392,0.00701904,0.0177002,-0.000495911,0.0180054,0.00926971
11,4,7.08028,0.000305176,0.00457764,-2.42806,0.0541551,-0.0753682,0.0538228,0.15764,-0.0897895,0.144708,-0.120273,-0.0856222,0.00831604,0.0302124,0.0217438,0.00858307,0.0161362,0.00911713,0.0190353,0.0190735,-9.97986,0.0159454,-0.00354767,0.0144577,0.0108337,0.0177002,-0.000801086,0.018425,0.00701904
11,5,10.0097,0.000915527,0.00396729,-2.43172,0.0532396,-0.0775044,0.04894,0.121935,-0.0965034,0.141656,-0.124546,-0.0886739,0.00873566,0.032959,0.019455,0.00988007,0.0172806,0.00572205,0.0212097,0.0180817,-9.97986,0.0194168,-0.00427246,0.0168228,0.00713348,0.0156403,-0.00038147,0.0146484,0.00766754
11,6,10.0097,-0.000305176,0.000915527,-2.42989,0.0535448,-0.0756734,0.0516866,0.0901964,-0.0968086,0.143182,-0.126072,-0.0892843,0.00858307,0.0270462,0.0194168,0.0156403,0.0151443,0.00839233,0.021019,0.0159073,-9.97986,0.0133514,-0.00133514,0.0130081,0.00682831,0.0185776,-0.00682831,0.0148773,0.00774384
11,7,10.0097,0.00183105,0.000152588,-2.42867,0.0547655,-0.0762837,0.0529073,0.0782946,-0.0968086,0.144708,-0.127292,-0.0877584,0.00984192,0.0244141,0.0156403,0.0114059,0.0186157,0.0111008,0.0239182,0.0151062,-9.97986,0.0135422,-0.0018692,0.0149918,0.00995636,0.012207,-0.00484467,0.0175858,0.00724792
11,8,10.0097,0.000610352,-0.000305176,-2.42806,0.0550706,-0.0753682,0.0538228,0.0740221,-0.0943672,0.144098,-0.126682,-0.0871481,0.00801086,0.0263977,0.0204468,0.0133514,0.0162125,0.00743866,0.0239182,0.017128,-9.97986,0.0120544,-0.00171661,0.0177765,0.00957489,0.0192642,-0.0104523,0.0177765,0.00411987
11,9,10.0097,0.000610352,-0.000610352,-2.42959,0.0550706,-0.075063,0.0538228,0.072191,-0.0943672,0.144708,-0.126072,-0.0847066,0.00926971,0.0226212,0.0183868,0.00896454,0.0144196,0.00858307,0.0278473,0.0184631,-9.97986,0.0151443,-0.00137329,0.0145721,0.0101089,0.00991821,-0.015564,0.0182343,0.00801086
12,0,10.0097,0,0.000152588,-2.42745,0.0547655,-0.0759786,0.0529073,0.0712755,-0.0931465,0.145624,-0.125461,-0.0840963,0.00686646,0.0247192,0.0188828,0.00919342,0.0175095,0.0150299,0.0231552,0.017395,-9.97986,0.0149918,-0.00236511,0.0149536,0.0056839,0.0134277,-0.00713348,0.0168228,0.00423431
12,1,10.0097,0,0.000152588,-2.42623,0.0547655,-0.0753682,0.054128,0.0728014,-0.0925361,0.145624,-0.125766,-0.0837911,0.0108719,0.0214005,0.0191498,0.00938416,0.021286,0.0108337,0.0213623,0.021019,-9.97986,0.0156021,-0.00114441,0.0194931,0.00656128,0.0153351,-0.00694275,0.0160217,0.00827789
12,2,10.0097,-0.000305176,0,-2.42531,0.0559862,-0.0738423,0.055959,0.0731066,-0.0919257,0.146234,-0.124851,-0.0816549,0.00774384,0.0203705,0.0155258,0.0106812,0.016861,0.0105286,0.0191116,0.0170898,-9.97986,0.0142288,-0.00114441,0.0159454,0.00728607,0.0148392,-0.00679016,0.0140762,0.00587463
12,3,10.0097,0.00213623,0.000152588,-2.42501,0.0562914,-0.0744527,0.0562642,0.0724962,-0.0916206,0.146234,-0.124546,-0.0819601,0.0106812,0.0240326,0.0221634,0.0117493,0.0153732,0.0101471,0.0184631,0.017128,-9.97986,0.0156021,-0.00324249,0.0130463,0.00705719,0.0171661,-0.0025177,0.013504,0.00408173
12,4,9.87477,-0.067749,-0.00213623,-2.42745,0.0550706,-0.0738423,0.0522969,0.0190905,-0.0989448,0.127008,-0.128818,-0.0834859,0.012207,0.0263214,0.0207138,0.0128555,0.0164032,0.0103378,0.0187683,0.0172806,-9.97986,0.0164032,0.00202179,0.0175476,0.00896454,0.0169754,-0.000648499,0.0156021,0.00644684
12,5,2.46266,-0.00457764,-0.00427246,-2.42653,0.055681,-0.0744527,0.0519917,-0.0202772,-0.100776,0.140741,-0.13126,-0.0837911,0.0104523,0.0229645,0.0180054,0.0106049,0.0165176,0.0124741,0.0139236,0.0177765,-9.97986,0.0133514,-0.00228882,0.0182343,0.00621796,0.0180435,-0.00167847,0.015564,0.0018692
12,6,-5.31901,-0.00244141,-0.00411987,-2.42653,0.0575121,-0.0735371,0.0532125,-0.0193617,-0.0971137,0.142267,-0.130039,-0.0819601,0.014267,0.0324631,0.0249863,0.0159836,0.0191879,0.0164795,0.0152969,0.0214767,-9.97986,0.0157928,-0.00190735,0.0133133,0.00549316,0.0143051,-0.00488281,0.0169373,0.00659943
12,7,-9.99003,0.00152588,-0.00457764,-2.42409,0.0562914,-0.0738423,0.0550435,-0.000440799,-0.0928413,0.146539,-0.129429,-0.0810445,0.0104523,0.0215149,0.0164032,0.0108337,0.01194,0.0123596,0.0189972,0.015564,-9.97986,0.0123215,-0.00179291,0.0139236,0.00263214,-0.00991821,-0.0069809,0.0136185,0.00553131
12,8,-9.99003,-0.000610352,-0.000610352,-2.42501,0.0562914,-0.0738423,0.0568746,0.0431993,-0.0894843,0.145013,-0.126072,-0.080129,0.00862122,0.0220108,0.0196838,0.00984192,0.0156784,0.0063324,0.0203705,0.0181198,-9.97986,0.0141525,0.000610352,0.0130844,0.00667572,-0.00999451,-0.00637054,0.0121689,0.00576019
12,9,-9.99003,-0.000305176,-0.000305176,-2.42623,0.0559862,-0.0744527,0.0544332,0.0584581,-0.090705,0.145318,-0.125766,-0.0819601,0.01297,0.0211716,0.02388,0.0102997,0.0131226,0.0112915,0.017395,0.0185013,-9.97986,0.0152588,0.00102997,0.0150299,0.00659943,-0.00869751,-0.00442505,0.0167465,0.00617981
13,0,-9.99003,0.00152588,-0.000457764,-2.42653,0.055681,-0.0747579,0.0550435,0.0627306,-0.0919257,0.145318,-0.126072,-0.0831808,0.0082016,0.0217819,0.021019,0.0134659,0.0146866,0.010643,0.0180435,0.0164032,-9.97986,0.0164032,7.62939e-005,0.0162506,0.00717163,-0.00461578,-0.00377655,0.0156021,0.00656128
13,1,-9.99003,-0.000305176,-0.000457764,-2.42653,0.0550706,-0.0747579,0.054128,0.0740221,-0.0916206,0.144403,-0.125156,-0.0831808,0.00793457,0.019989,0.0217438,0.0127411,0.0151062,0.0111389,0.0153351,0.0171661,-9.97986,0.0130081,0.00247955,0.0160599,0.00782013,-0.00675201,-0.00263214,0.0131989,0.00717163
13,2,-6.95353,0,0.00350952,-2.42745,0.0547655,-0.0756734,0.0556539,0.133837,-0.0870429,0.143792,-0.12302,-0.0834859,0.0109863,0.0205612,0.0210953,0.0136566,0.0177002,0.0111008,0.0295639,0.0155258,-9.97986,0.0136948,0.00659943,0.0154495,0.00518799,0.0180817,-0.0056076,0.0126648,0.00396729
13,3,0.191546,-0.000610352,0.00442505,-2.42745,0.0547655,-0.0744527,0.0547383,0.150621,-0.0870429,0.145013,-0.12241,-0.0844015,0.010643,0.0273132,0.0219727,0.0109863,0.0181961,0.00801086,0.0206375,0.0162506,-9.97986,0.0185013,0.00839233,0.0118256,0.00492096,0.0184631,-0.010643,0.0160217,0.00610352
13,4,7.41231,0,0.00442505,-2.42776,0.0544603,-0.0753682,0.0547383,0.156114,-0.0894843,0.145013,-0.119968,-0.0862325,0.0134659,0.0357056,0.0201797,0.0136185,0.0215149,0.00442505,0.0239563,0.0201797,-9.97986,0.0146103,0.00621796,0.0125122,0.00461578,0.0140762,-0.00759125,0.0160599,0.0063324
13,5,10.0097,0.000610352,0.00366211,-2.43294,0.0520189,-0.0771993,0.0501607,0.121324,-0.0961982,0.142877,-0.124851,-0.0874532,0.0102615,0.0302505,0.0210571,0.0101089,0.0194931,0.00709534,0.0213623,0.0136566,-9.97986,0.0178528,-0.0044632,0.0139999,0.0088501,0.0156784,-0.00537872,0.0165558,0.00457764
13,6,10.0097,-0.000305176,0.000915527,-2.42959,0.0526292,-0.0759786,0.0504659,0.0895861,-0.0968086,0.142877,-0.125156,-0.0880636,0.00617981,0.0231171,0.0217438,0.0170135,0.0172424,0.0103378,0.0235367,0.0189972,-9.97986,0.0205994,-0.000915527,0.0144196,0.00930786,0.0177765,0.00297546,0.0156784,0.00709534
13,7,10.0097,0.00244141,0.000152588,-2.42989,0.0532396,-0.075063,0.0513814,0.0789049,-0.095893,0.144098,-0.127903,-0.0874532,0.0105286,0.0217438,0.0226593,0.0107574,0.0170517,0.0119781,0.0190735,0.0203323,-9.97986,0.0114059,-0.000457764,0.0123596,0.00846863,0.0117493,0.00919342,0.0139236,0.00564575
13,8,10.0097,0.000305176,0.000762939,-2.42745,0.0547655,-0.0753682,0.0516866,0.0740221,-0.0946723,0.143792,-0.126987,-0.085317,0.0122833,0.022583,0.0234985,0.0122452,0.0193405,0.00965118,0.0230789,0.0222015,-9.97986,0.0168991,0.000801086,0.01091,0.00709534,0.0139999,0.0136566,0.0123596,0.00534058
13,9,10.0097,0,0.000457764,-2.42653,0.0547655,-0.0759786,0.0532125,0.0740221,-0.0946723,0.145013,-0.126682,-0.0847066,0.0123978,0.0313187,0.0213242,0.0100708,0.0187683,0.00774384,0.0203705,0.0221252,-9.97986,0.0176239,-0.000343323,0.0106812,0.00553131,0.0148773,0.0138855,0.0162888,0.00747681
14,0,10.0097,-0.000915527,0.000152588,-2.42684,0.055681,-0.073232,0.0535176,0.072191,-0.094062,0.145318,-0.125766,-0.0837911,0.00995636,0.0265503,0.0204468,0.00991821,0.0192261,0.0107574,0.0212479,0.0249863,-9.97986,0.0148773,0.00087738,0.0119781,0.00843048,0.0166321,0.0101471,0.0136566,0.00694275
14,1,10.0097,-0.000305176,0.000152588,-2.42653,0.0547655,-0.075063,0.0544332,0.0712755,-0.0925361,0.145013,-0.124546,-0.0831808,0.00930786,0.0263214,0.0170517,0.0113678,0.0152588,0.0137329,0.0197601,0.0272751,-9.97986,0.0137329,-0.000343323,0.0152969,0.00732422,0.0173569,0.00480652,0.0160217,0.00801086
14,2,10.0097,0.0012207,0,-2.42501,0.0575121,-0.0738423,0.0547383,0.0724962,-0.0916206,0.145624,-0.125461,-0.0828756,0.00946045,0.0258636,0.0178528,0.0126266,0.018959,0.0117493,0.0198364,0.026207,-9.97986,0.0155258,-0.00133514,0.0170135,0.0063324,0.0138092,0.000457764,0.0154877,0.00614166
14,3,10.0097,0.000915527,0.000152588,-2.42562,0.0565965,-0.0747579,0.0547383,0.0731066,-0.0913154,0.146234,-0.123935,-0.0810445,0.010643,0.0204849,0.0144196,0.01194,0.019989,0.00705719,0.0173187,0.0221252,-9.97986,0.0170898,0.000495911,0.0114441,0.00427246,0.0140381,-0.00293732,0.0161743,0.00453949
14,4,9.87966,0,-0.00228882,-2.42684,0.055681,-0.0762837,0.0522969,0.0175646,-0.0986396,0.145318,-0.128208,-0.0834859,0.00789642,0.0185776,0.0148773,0.0133896,0.0204086,0.0111008,0.0191116,0.0218201,-9.97986,0.0178909,0.000648499,0.0146484,0.00530243,0.0110626,-0.00087738,0.0126648,0.00629425
14,5,2.38423,0.000915527,-0.00396729,-2.42653,0.0562914,-0.0741475,0.0504659,-0.0208876,-0.0998603,0.146844,-0.131565,-0.0834859,0.00965118,0.0210571,0.0165939,0.0132751,0.0199127,0.0115967,0.018692,0.017662,-9.97986,0.0137329,0.00087738,0.0159073,0.00583649,0.0113297,0.00389099,0.0155258,0.0094986
14,6,-5.3831,0.000610352,-0.00411987,-2.42562,0.0559862,-0.073232,0.0535176,-0.0184462,-0.0971137,0.146234,-0.129123,-0.0816549,0.00858307,0.0237656,0.0190353,0.0185013,0.0165558,0.00793457,0.0180435,0.0185394,-9.97986,0.0166702,-0.00133514,0.0148773,0.00144958,0.0128555,0.00324249,0.0154495,0.00671387
14,7,-9.99003,0.000915527,-0.00488281,-2.4247,0.0559862,-0.0735371,0.0556539,0.00200061,-0.0928413,0.148065,-0.128513,-0.080129,0.00751495,0.0249481,0.0155258,0.0100708,0.0180435,0.0113297,0.0167847,0.0141144,-9.97986,0.0172043,-0.001297,0.0126266,0.00450134,-0.0109863,-0.00141144,0.0149155,0.00671387
14,8,-9.99003,-0.000305176,-0.00137329,-2.42531,0.0569017,-0.0729268,0.055959,0.0431993,-0.0894843,0.146844,-0.126682,-0.080129,0.0127029,0.0274658,0.0229263,0.0154877,0.0231171,0.0136566,0.0231934,0.0170135,-9.97986,0.016098,-0.00339508,0.0118256,0.00263214,-0.0116348,0.00305176,0.014267,0.00862122
14,9,-9.99003,0.00244141,-0.000457764,-2.4247,0.0562914,-0.0738423,0.0562642,0.0587633,-0.090705,0.145013,-0.126072,-0.0807394,0.00991821,0.0273895,0.0218201,0.0126266,0.0210571,0.0075531,0.0246048,0.0146866,-9.97986,0.0167465,-0.00270844,0.0144958,0.00232697,-0.00728607,0.000534058,0.0165558,0.00846863
15,0,-9.99003,0.00213623,0.000152588,-2.42684,0.0547655,-0.0744527,0.0556539,0.0654772,-0.0916206,0.145318,-0.125461,-0.0837911,0.00522614,0.0274658,0.0239182,0.0106812,0.0168228,0.00934601,0.0182724,0.0189972,-9.97986,0.0115585,0.00183105,0.0141144,0.00164032,-0.00988007,-0.00614166,0.0165558,0.00629425
15,1,-9.99003,0.0012207,0.000152588,-2.42684,0.0547655,-0.075063,0.054128,0.0731066,-0.090705,0.145318,-0.125461,-0.0828756,0.00934601,0.0335312,0.026207,0.0094986,0.0173187,0.01194,0.0193787,0.0212097,-9.97986,0.0130463,-0.0012207,0.017662,0.00556946,-0.00766754,-0.00377655,0.0166321,0.00656128
15,2,-6.96483,0.00305176,0.00320435,-2.42623,0.0529344,-0.0744527,0.054128,0.134142,-0.0864326,0.144403,-0.122715,-0.0837911,0.01091,0.0361252,0.0219727,0.00911713,0.019455,0.010643,0.0205994,0.022049,-9.97986,0.0161743,0.00312805,0.0149536,0.00617981,0.014534,-0.00549316,0.0188065,0.00614166
15,3,0.258379,0.000305176,0.00442505,-2.42745,0.0547655,-0.0762837,0.0538228,0.150316,-0.0891792,0.144403,-0.12241,-0.0847066,0.0120544,0.0492859,0.0231171,0.0108337,0.0140762,0.00717163,0.0156784,0.0216293,-9.97986,0.0165176,0.00392914,0.0123215,0.00572205,0.0153351,-0.00778198,0.0203705,0.00358582
15,4,7.43459,0.000610352,0.00457764,-2.42653,0.0532396,-0.0753682,0.0535176,0.157335,-0.088874,0.143182,-0.120884,-0.085317,0.00972748,0.0465393,0.0222015,0.00846863,0.0125885,0.00976563,0.0199127,0.013504,-9.97986,0.0129318,0.00404358,0.00946045,0.00705719,0.0124359,-0.012207,0.0154114,0.00431061
15,5,10.0097,0,0.00335693,-2.43142,0.0529344,-0.0756734,0.0498555,0.120714,-0.0961982,0.142877,-0.125766,-0.0892843,0.0120544,0.0365448,0.0239182,0.0104904,0.0149918,0.01194,0.018158,0.00740051,-9.97986,0.0157928,-0.00118256,0.0102615,0.00343323,0.0143433,-0.0114059,0.0193787,0.00423431
15,6,10.0097,0.00213623,0.0012207,-2.42989,0.0532396,-0.0765889,0.050771,0.0880602,-0.0974189,0.143182,-0.126682,-0.0892843,0.00488281,0.0349808,0.0221252,0.0116348,0.0146866,0.0127792,0.022049,0.0121307,-9.97986,0.0170135,-0.0037384,0.0094986,0.0031662,0.0119781,-0.00671387,0.0161362,0.00534058
15,7,10.0097,0.00183105,0.000305176,-2.4305,0.0535448,-0.0756734,0.0513814,0.0789049,-0.0961982,0.142877,-0.126072,-0.0883688,0.00671387,0.0345993,0.0255966,0.00274658,0.0209427,0.0132751,0.0232315,0.0120544,-9.97986,0.0151825,-0.00110626,0.0119781,0.00770569,0.0138092,-0.00732422,0.0170898,0.00556946
15,8,10.0097,-0.000610352,-0.000610352,-2.42776,0.0559862,-0.075063,0.0522969,0.0740221,-0.0943672,0.144403,-0.126072,-0.0862325,0.0104141,0.0349045,0.0270462,0.00522614,0.0175858,0.014267,0.0277328,0.0157547,-9.97986,0.0119781,-0.00457764,0.0103378,0.00400543,0.0115585,-0.00793457,0.0177002,0.00602722
15,9,10.0097,0.000915527,-0.000152588,-2.42776,0.0550706,-0.0741475,0.0526021,0.0728014,-0.0931465,0.145013,-0.126072,-0.0856222,0.0105286,0.0269699,0.024147,0.0121689,0.016098,0.00915527,0.0208664,0.0223923,-9.97986,0.0111008,0.00156403,0.0101852,0.00747681,0.0103378,-0.00144958,0.0181198,0.00579834
16,0,10.0097,-0.000305176,-0.000305176,-2.42745,0.055681,-0.0747579,0.0519917,0.0706652,-0.0946723,0.143487,-0.126072,-0.0844015,0.00961304,0.00404358,0.0187302,0.0139618,0.0170135,0.0119019,0.0188446,0.0255203,-9.97986,0.0117111,0.00255585,0.0117111,0.00339508,0.0138092,0.00175476,0.0184631,0.00583649
16,1,10.0097,0.00213623,0.000305176,-2.42653,0.0550706,-0.0747579,0.054128,0.0712755,-0.0925361,0.145624,-0.125156,-0.0834859,0.01091,-0.00549316,0.0221252,0.0094986,0.0168991,0.0142288,0.0213242,0.0233078,-9.97986,0.0157547,0.00087738,0.0110626,0.000839233,0.0169754,-0.00270844,0.0189209,0.00499725
16,2,10.0097,0,0,-2.42531,0.0569017,-0.0741475,0.0544332,0.0709703,-0.0913154,0.146539,-0.124851,-0.0816549,0.0127411,0.00606537,0.021286,0.00858307,0.0175476,0.0101852,0.0181961,0.0218582,-9.97986,0.0173569,-0.00404358,0.0148773,0.0111389,0.0143433,-0.000953674,0.018959,0.00442505
16,3,10.0097,0.000915527,0.000457764,-2.42592,0.0578172,-0.0741475,0.0556539,0.0718859,-0.0925361,0.147149,-0.12363,-0.0810445,0.00793457,0.0104904,0.0201797,0.0118256,0.0130844,0.00774384,0.0155258,0.0178528,-9.97986,0.0156403,-0.00305176,0.0112534,0.00728607,0.0119781,-0.00530243,0.0196457,0.00961304
16,4,9.82564,-0.000915527,-0.00198364,-2.42745,0.0559862,-0.073232,0.0529073,0.0175646,-0.0980293,0.145624,-0.128818,-0.0834859,0.00938416,0.0144577,0.0201797,0.00759125,0.0132751,0.00968933,0.018959,0.014267,-9.97986,0.0164032,0.000648499,0.0130463,0.00602722,0.0108337,-0.00614166,0.0167465,0.0104141
16,5,2.42116,0,-0.00366211,-2.42623,0.0559862,-0.0735371,0.0513814,-0.0211928,-0.100776,0.147149,-0.130344,-0.0834859,0.0107956,0.0107574,0.0167465,0.0117111,0.0157547,0.00968933,0.0193787,0.0159073,-9.97986,0.0199509,0.00297546,0.0111008,0.0101852,0.0141907,-0.00724792,0.0164032,0.00644684
16,6,-5.36479,0,-0.00411987,-2.42684,0.0559862,-0.0735371,0.0538228,-0.0187513,-0.0980293,0.147455,-0.129734,-0.0825704,0.00793457,0.00450134,0.0146484,0.0100327,0.0151825,0.00762939,0.0219345,0.0107193,-9.97986,0.0166702,0.00423431,0.0131989,0.00968933,0.0165939,-0.00389099,0.0174332,0.00301361
16,7,-9.99003,-0.00152588,-0.00488281,-2.42409,0.0562914,-0.0729268,0.055959,0.000474729,-0.0913154,0.146844,-0.128818,-0.0810445,0.0108719,0.00923157,0.0094986,0.0165558,0.0173569,0.00869751,0.0235367,0.00957489,-9.97986,0.017395,0.000991821,0.0127792,0.00087738,-0.00865936,0.00354767,0.0180435,0.0110245
16,8,-9.99003,-0.0012207,-0.0012207,-2.42379,0.0562914,-0.0744527,0.0568746,0.0431993,-0.090705,0.146844,-0.126377,-0.0807394,0.00652313,0.00923157,0.0157166,0.0161743,0.0163269,0.0125885,0.0253677,0.0126266,-9.97986,0.0172806,0.00389099,0.0123215,0.0101852,-0.01091,0.000457764,0.0177765,0.00663757
16,9,-9.99003,-0.000305176,-0.000915527,-2.42501,0.0553758,-0.075063,0.0556539,0.0578478,-0.0897895,0.145624,-0.125766,-0.0822652,0.00923157,0.0164032,0.0170898,0.00904083,0.0151443,0.00930786,0.0156403,0.0108337,-9.97986,0.0174713,0.000991821,0.0127029,0.00518799,-0.00728607,0.00320435,0.0151062,0.00526428
17,0,-9.99003,0.000610352,-0.000305176,-2.42623,0.0547655,-0.0747579,0.0547383,0.0645616,-0.0931465,0.144098,-0.126377,-0.0837911,0.0113678,0.0225067,0.0175858,0.0131989,0.0184631,0.00953674,0.0212479,0.0140381,-9.97986,0.00953674,0.0031662,0.0132751,0.00816345,-0.00823975,0.00278473,0.0187683,0.00469208
17,1,-9.99003,0.000305176,0,-2.42623,0.0550706,-0.0738423,0.0547383,0.0749376,-0.090705,0.145624,-0.125156,-0.0831808,0.0119019,0.0233078,0.0154495,0.0142288,0.0185013,0.00759125,0.0250626,0.0200272,-9.97986,0.0156021,0.00614166,0.0126266,0.00934601,-0.00549316,0.000686646,0.0151443,0.00431061
17,2,-6.77409,-0.000610352,0.0038147,-2.42684,0.0532396,-0.075063,0.0553487,0.133226,-0.0879585,0.145318,-0.122104,-0.0840963,0.017128,0.0222397,0.0163269,0.0112534,0.0172043,0.00305176,0.0263977,0.0193405,-9.97986,0.0149536,-0.00179291,0.0154114,0.00911713,0.0185013,-0.00541687,0.0166321,0.00411987
17,3,0.344439,0.0012207,0.0038147,-2.42806,0.0538499,-0.0759786,0.054128,0.150621,-0.0870429,0.143487,-0.121799,-0.0847066,0.0117874,0.0219345,0.0124359,0.0127029,0.0168228,0.00900269,0.0283432,0.0170517,-9.97986,0.0130844,0.000572205,0.013504,0.0102234,0.0153351,-0.00663757,0.0175095,0.00415802
17,4,7.56398,0.00152588,0.00473022,-2.42745,0.0538499,-0.0747579,0.0544332,0.155809,-0.088874,0.143487,-0.120578,-0.0859274,0.011673,0.0191879,0.014801,0.0120163,0.0180054,0.0109863,0.0247955,0.0159454,-9.97986,0.0152969,0.00324249,0.0114059,0.0108719,0.0139999,-0.00434875,0.0157166,0.00583649
17,5,10.0097,0,0.00335693,-2.43172,0.0532396,-0.0765889,0.04894,0.119798,-0.095893,0.141656,-0.125766,-0.0892843,0.0134277,0.0282288,0.0156403,0.0109482,0.0201797,0.00324249,0.0304794,0.0176239,-9.97986,0.0151825,0.00160217,0.0127792,0.00904083,0.0165176,-0.00335693,0.0146484,0.00442505
17,6,10.0097,0.000915527,0.0012207,-2.43081,0.0535448,-0.0759786,0.0498555,0.0886705,-0.0971137,0.142877,-0.126377,-0.0883688,0.0132751,0.0300598,0.0207901,0.0122833,0.0183868,0.00961304,0.0214767,0.0232315,-9.97986,0.0167084,0.000762939,0.0150681,0.00888824,0.0160599,-0.00488281,0.0181961,0.00495911
17,7,10.0097,0.000610352,0.000610352,-2.42867,0.0550706,-0.0759786,0.0510762,0.0782946,-0.0949775,0.143182,-0.126072,-0.0871481,0.0113678,0.0284576,0.0188065,0.0149155,0.0206375,0.0102615,0.0206375,0.0187683,-9.97986,0.0152969,-0.00190735,0.0127792,0.00926971,0.0149155,-0.00038147,0.0155258,0.00598907
17,8,10.0097,0,-0.000457764,-2.42806,0.0532396,-0.0741475,0.0519917,0.072191,-0.0952827,0.143792,-0.126072,-0.0865377,0.00858307,0.0200272,0.0178528,0.0088501,0.0152969,0.00938416,0.026207,0.020256,-9.97986,0.0171661,0.000839233,0.0138474,0.0114059,0.017128,-0.00938416,0.0152588,0.00556946
17,9,10.0097,0.000305176,0.000457764,-2.42684,0.0544603,-0.0765889,0.0519917,0.0724962,-0.0943672,0.144403,-0.125766,-0.0837911,0.0100708,0.0209045,0.0109482,0.0115585,0.0147247,0.0110245,0.0294876,0.0170898,-9.97986,0.0134277,-0.00183105,0.013237,0.010376,0.0170517,-0.0153351,0.0170898,0.00663757
18,0,10.0097,0,0.000152588,-2.42623,0.055681,-0.0747579,0.054128,0.0712755,-0.0934516,0.144098,-0.125766,-0.0844015,0.010376,0.0136948,0.0114822,0.0117493,0.0175476,0.0108719,0.0247192,0.0208664,-9.97986,0.0152206,-0.000228882,0.0153351,0.0114441,0.0172806,-0.0133133,0.015831,0.00732422
18,1,10.0097,-0.000915527,0.000152588,-2.42592,0.0550706,-0.0738423,0.0535176,0.0712755,-0.0925361,0.145318,-0.124546,-0.0822652,0.00972748,0.018158,0.00988007,0.010376,0.0201797,0.00701904,0.0248337,0.0204086,-9.97986,0.0120926,-0.00152588,0.0137711,0.00873566,0.020752,-0.00785828,0.0199127,0.00343323
18,2,10.0097,0.00183105,0.000610352,-2.42501,0.0562914,-0.0744527,0.0562642,0.0715807,-0.0913154,0.145929,-0.125461,-0.0816549,0.0153351,0.0211716,0.0172806,0.0115585,0.0197601,0.00911713,0.0275803,0.018425,-9.97986,0.0156021,0.000152588,0.0138855,0.00499725,0.0146484,-0.00114441,0.0170517,0.0043869
18,3,10.0097,0,-0.000305176,-2.42501,0.0569017,-0.073232,0.0547383,0.0737169,-0.0922309,0.146539,-0.124546,-0.0807394,0.0150299,0.0219727,0.0249481,0.0127792,0.0175858,0.00911713,0.0248337,0.0207138,-9.97986,0.015564,-0.0012207,0.0168228,0.0107956,0.0170517,0.000572205,0.0153351,0.00106812
18,4,9.71395,-0.000610352,-0.00213623,-2.42745,0.0565965,-0.0738423,0.0526021,0.0193956,-0.0983344,0.145318,-0.127903,-0.0831808,0.0128555,0.028801,0.026207,0.00984192,0.0168228,0.00816345,0.0241852,0.0177383,-9.97986,0.0164795,0.00534058,0.0115585,0.0106049,0.0165939,0.00087738,0.0173569,0.00537872
18,5,2.27559,0.000610352,-0.00350952,-2.42684,0.0553758,-0.075063,0.0519917,-0.0221083,-0.100471,0.145929,-0.130649,-0.0831808,0.012207,0.0275421,0.02285,0.0106812,0.0169373,0.00904083,0.0211334,0.0185394,-9.97986,0.0143433,0.00511169,0.0169373,0.00770569,0.014801,0.00156403,0.0157547,0.00358582
18,6,-5.52592,0.000610352,-0.00396729,-2.42592,0.0572069,-0.0735371,0.054128,-0.0184462,-0.0974189,0.146844,-0.130649,-0.0816549,0.0112915,0.0318527,0.0180054,0.00965118,0.0211716,0.0131226,0.0172424,0.0198746,-9.97986,0.0163269,0.00156403,0.0136948,0.00419617,0.0169754,-0.00225067,0.0146866,0.00644684
18,7,-9.99003,0.000305176,-0.00457764,-2.42287,0.0575121,-0.0738423,0.0556539,0.00108508,-0.0931465,0.146844,-0.128513,-0.0807394,0.0116348,0.0278854,0.0151062,0.00850677,0.0138855,0.00762939,0.0215149,0.0179291,-9.97986,0.0127029,0.00778198,0.0128555,0.00652313,-0.00656128,-0.00621796,0.014801,0.00534058
18,8,-9.99003,0.00152588,-0.00167847,-2.42501,0.0569017,-0.0738423,0.055959,0.0428942,-0.0897895,0.145624,-0.126072,-0.0810445,0.0111389,0.0281143,0.0219727,0.00892639,0.0180817,0.0122833,0.0201797,0.0211716,-9.97986,0.0163269,-0.00267029,0.0136948,0.00728607,-0.00488281,-0.0128555,0.0138855,0.00778198
18,9,-9.99003,0.00183105,-0.000152588,-2.42501,0.0550706,-0.0747579,0.0553487,0.058153,-0.0900947,0.145624,-0.125461,-0.0816549,0.0113297,0.0368118,0.0224304,0.00663757,0.0160599,0.0130844,0.0220871,0.0234222,-9.97986,0.011673,3.8147e-005,0.0118637,0.00793457,-0.00854492,-0.014801,0.0229263,0.00640869
19,0,-9.99003,-0.000305176,0.000305176,-2.42592,0.0544603,-0.0747579,0.0547383,0.0645616,-0.0922309,0.145624,-0.125461,-0.0828756,0.00873566,0.0271988,0.0217056,0.00728607,0.0154877,0.0108719,0.0221252,0.0211334,-9.97986,0.0116348,-0.000762939,0.015831,0.00892639,-0.013504,-0.00743866,0.0130844,0.00827789
19,1,-9.99003,-0.000305176,-0.000152588,-2.42714,0.0550706,-0.075063,0.0553487,0.075548,-0.090705,0.145013,-0.125766,-0.0837911,0.00724792,0.0138092,0.02285,0.00476837,0.017662,0.0147247,0.0199127,0.0250626,-9.97986,0.0136185,-0.00400543,0.0146103,0.00782013,-0.00774384,0.000915527,0.0151062,0.00305176
19,2,-6.6804,0.000915527,0.00396729,-2.42714,0.0538499,-0.075063,0.0550435,0.133226,-0.0873481,0.143487,-0.12302,-0.0840963,0.0102234,0.0113297,0.0212479,0.0094223,0.0125504,0.0121689,0.0226974,0.0263977,-9.97986,0.013504,-0.000801086,0.0127792,0.00751495,0.0159073,0.00808716,0.0168228,0.00629425
19,3,0.467425,0,0.00442505,-2.42776,0.0538499,-0.0753682,0.0547383,0.150621,-0.0882636,0.144708,-0.121494,-0.0850118,0.0116348,0.013504,0.0212097,0.00602722,0.016098,0.0094986,0.0218964,0.0241852,-9.97986,0.0154495,-0.00255585,0.0107193,0.0075531,0.0185394,0.0094223,0.0143433,0.00480652
19,4,7.61525,0.000305176,0.00396729,-2.42776,0.0547655,-0.0771993,0.0544332,0.15764,-0.0900947,0.143792,-0.120578,-0.0847066,0.0101852,0.0211334,0.0239182,0.0102234,0.0186539,0.0130844,0.022583,0.0214005,-9.97986,0.014801,-0.00404358,0.0132751,0.00873566,0.0213242,0.017395,0.0174332,0.00663757
19,5,10.0097,-0.000610352,0.00350952,-2.43203,0.0529344,-0.0775044,0.0495503,0.119493,-0.095893,0.141961,-0.125156,-0.0883688,0.0107574,0.0247574,0.0259018,0.0110245,0.0170517,0.01091,0.0200272,0.0153732,-9.97986,0.0142288,-0.00648499,0.0136566,0.0102234,0.0206757,0.0252914,0.0163651,0.00495911
19,6,10.0097,-0.000305176,0.000762939,-2.42989,0.0538499,-0.0753682,0.0510762,0.0889757,-0.0977241,0.142877,-0.127292,-0.0889791,0.0130844,0.0263977,0.0231171,0.0121689,0.0178146,0.00858307,0.0246429,0.0172424,-9.97986,0.0162125,0.000686646,0.00934601,0.00797272,0.0193787,0.0180817,0.0189972,0.00923157
19,7,10.0097,-0.000305176,0,-2.42867,0.0553758,-0.0756734,0.0513814,0.0779894,-0.095893,0.143792,-0.126987,-0.0868429,0.00488281,0.0292587,0.0145721,0.00907898,0.0145721,0.0114059,0.0164032,0.0118256,-9.97986,0.00762939,-0.00782013,0.00888824,0.00816345,0.0148392,0.0056076,0.013504,0.00778198
19,8,10.0097,-0.000610352,-0.000305176,-2.42623,0.055681,-0.0753682,0.0522969,0.0734117,-0.0946723,0.144403,-0.126377,-0.0859274,0.00843048,0.0296402,0.0168991,0.012207,0.0164795,0.0156021,0.0204468,0.014267,-9.97986,0.0138474,-0.00614166,0.00892639,0.00263214,0.0167847,-0.00038147,0.0134277,0.00663757
19,9,10.0097,0.000610352,0,-2.42837,0.0550706,-0.0747579,0.0522969,0.0724962,-0.0934516,0.144708,-0.126072,-0.0840963,0.0143814,0.0314713,0.0173187,0.0121307,0.016861,0.0144196,0.0167847,0.0144196,-9.97986,0.00991821,-0.00507355,0.00865936,0.00595093,0.0188828,-0.000495911,0.0128937,0.00408173
20,0,10.0097,0.000305176,0.000305176,-2.42684,0.0550706,-0.0756734,0.0538228,0.0712755,-0.0931465,0.144708,-0.124546,-0.0847066,0.0102615,0.0301361,0.0153732,0.0130844,0.0126266,0.00968933,0.017128,0.0136566,-9.97986,0.0157928,-0.00175476,0.00751495,0.00583649,0.0146866,-0.00511169,0.014267,0.00385284
20,1,10.0097,-0.000915527,0.000152588,-2.42684,0.0559862,-0.0738423,0.0526021,0.0712755,-0.0931465,0.145624,-0.125766,-0.0831808,0.0121689,0.0177765,0.0178909,0.0122452,0.0131989,0.0118256,0.0225449,0.00892639,-9.97986,0.0144577,-0.0038147,0.00789642,0.00988007,0.016861,-0.00377655,0.0119781,0.00549316
20,2,10.0097,0.0012207,0,-2.42653,0.0559862,-0.0735371,0.0553487,0.0709703,-0.0922309,0.146539,-0.124851,-0.0813497,0.0103378,0.00572205,0.0130081,0.0131607,0.0169754,0.0125885,0.0226212,0.0094223,-9.97986,0.0193024,0.000686646,0.0130081,0.00576019,0.019989,-0.00289917,0.016098,0.00774384
20,3,10.0097,0.000610352,0.000762939,-2.42501,0.0565965,-0.0741475,0.055959,0.0715807,-0.0928413,0.146844,-0.125156,-0.0813497,0.0116348,0.0125885,0.0149155,0.0117493,0.0205231,0.00938416,0.0201416,0.0140381,-9.97986,0.0159454,-0.00205994,0.0153351,0.00377655,0.0154495,0.00236511,0.0176239,0.00534058
20,4,9.77712,-0.000610352,-0.00259399,-2.42714,0.055681,-0.075063,0.0526021,0.0190905,-0.0995551,0.145929,-0.128818,-0.0834859,0.0100327,0.0191879,0.0151062,0.0124359,0.0173187,0.00854492,0.0175858,0.01297,-9.97986,0.0187302,0.000648499,0.0270462,0.0088501,0.0160599,-0.0050354,0.0143814,0.00499725
20,5,2.30275,0.000610352,-0.00396729,-2.42592,0.0559862,-0.075063,0.0519917,-0.0196669,-0.0995551,0.146234,-0.129429,-0.0831808,0.00843048,0.0203323,0.0130844,0.0159073,0.0177765,0.00572205,0.019989,0.0143051,-9.97986,0.0170517,-0.00236511,0.0296783,0.00389099,0.0184631,-0.00366211,0.0145721,0.00595093
20,6,-5.50395,0.000305176,-0.00442505,-2.42592,0.0562914,-0.0729268,0.0535176,-0.0187513,-0.095893,0.147149,-0.130649,-0.0816549,0.00831604,0.0217438,0.0123215,0.0141525,0.0138474,0.0108337,0.023613,0.0139236,-9.97986,0.0220108,-0.000839233,0.022049,0.00766754,0.0194168,-0.00106812,0.0122833,0.00457764
20,7,-9.99003,-0.00183105,-0.00473022,-2.42379,0.0572069,-0.073232,0.0565694,0.00108508,-0.0928413,0.146234,-0.128208,-0.0804342,0.0128174,0.0180817,0.0116348,0.0127411,0.0209045,0.0101471,0.0203323,0.0183868,-9.97986,0.0154114,-0.00164032,0.0222397,0.00762939,-0.00675201,-0.00247955,0.0115204,0.00576019
20,8,-9.99003,-0.000305176,-0.00152588,-2.4247,0.0562914,-0.0735371,0.0568746,0.0441149,-0.0891792,0.146844,-0.126072,-0.0798238,0.0111008,0.0166702,0.0138855,0.014534,0.0219345,0.00915527,0.02491,0.0138474,-9.97986,0.0183105,0,0.0185013,0.00835419,-0.00526428,0.00102997,0.0159836,0.00545502
20,9,-9.99003,0.000305176,-0.000610352,-2.42653,0.055681,-0.0741475,0.0553487,0.0584581,-0.0900947,0.144708,-0.125461,-0.0819601,0.0102234,0.0172806,0.00831604,0.0121689,0.0157166,0.0126648,0.0218964,0.0199127,-9.97986,0.0143814,0.00038147,0.0180817,0.0063324,-0.0075531,7.62939e-005,0.0140762,0.00358582
21,0,-9.99003,-0.000305176,-0.000152588,-2.42623,0.0547655,-0.0744527,0.0547383,0.0636461,-0.0925361,0.144708,-0.126377,-0.0825704,0.0105667,0.0246811,0.0117111,0.0130844,0.0211334,0.0112152,0.0234222,0.0169373,-9.97986,0.0153732,-0.0018692,0.0138855,0.00782013,-0.0154877,0.00255585,0.0155258,0.0069046
21,1,-9.99003,-0.000915527,-0.000762939,-2.42653,0.0550706,-0.0738423,0.054128,0.0724962,-0.0916206,0.145929,-0.125766,-0.0837911,0.0101852,0.0234604,0.00926971,0.0094223,0.0180054,0.00953674,0.0224686,0.0183105,-9.97986,0.0178146,-0.0019455,0.018692,0.00652313,-0.00518799,-0.00297546,0.014534,0.00469208
21,2,-6.94865,-0.000305176,0.00350952,-2.42745,0.0535448,-0.0753682,0.0547383,0.132616,-0.0861274,0.144708,-0.12241,-0.0831808,0.0102997,0.018692,0.0127411,0.0139999,0.0197601,0.0160217,0.0214386,0.0163651,-9.97986,0.0206375,0.00125885,0.019455,0.00705719,0.0153732,-0.00789642,0.0154495,0.00827789
21,3,0.157061,0.00152588,0.00457764,-2.42837,0.0538499,-0.0753682,0.054128,0.149706,-0.0873481,0.143182,-0.121189,-0.0850118,0.0131989,0.023613,0.015831,0.00988007,0.0158691,0.00900269,0.0261307,0.0215912,-9.97986,0.0214386,0.000114441,0.014534,0.00843048,0.0127792,-0.00640869,0.0120926,0.00617981
21,4,7.34181,-0.000305176,0.00396729,-2.42806,0.0541551,-0.0753682,0.0522969,0.156725,-0.088874,0.144403,-0.120884,-0.0847066,0.0123596,0.0238037,0.0213242,0.0130463,0.013237,0.0104523,0.0244522,0.0173569,-9.97986,0.0211716,-0.00347137,0.0127411,0.00923157,0.0175858,-0.00896454,0.0162888,0.00713348
21,5,10.0097,-0.00152588,0.00320435,-2.43111,0.0517137,-0.0775044,0.0501607,0.120714,-0.095893,0.143182,-0.125461,-0.0883688,0.00980377,0.0214005,0.0162506,0.0105667,0.0150299,0.00686646,0.019722,0.0188828,-9.97986,0.0184631,-0.00301361,0.0125504,0.00564575,0.0147247,-0.0104141,0.0139236,0.0050354
21,6,10.0097,0.00183105,0.0012207,-2.43081,0.0535448,-0.0756734,0.0501607,0.0892809,-0.0965034,0.142572,-0.126072,-0.0889791,0.0107574,0.0244904,0.0186539,0.0130081,0.0174332,0.0122452,0.0178909,0.0156403,-9.97986,0.018158,-0.00492096,0.0102615,0.00602722,0.0164413,-0.00740051,0.0167084,0.00278473
21,7,10.0097,0.000915527,0,-2.4305,0.0544603,-0.0759786,0.0510762,0.0779894,-0.0971137,0.143792,-0.126072,-0.0874532,0.00850677,0.026741,0.0197601,0.0104523,0.0161743,0.0153732,0.0170898,0.0138855,-9.97986,0.0183487,-0.00114441,0.0149536,0.00862122,0.0127029,-0.00087738,0.0142288,0.0056839
21,8,10.0097,0,-0.000305176,-2.42776,0.0541551,-0.0741475,0.0522969,0.0734117,-0.0943672,0.144098,-0.125766,-0.0856222,0.00869751,0.0220108,0.018425,0.00968933,0.014801,0.0112152,0.0151062,0.0167465,-9.97986,0.0179672,-0.00141144,0.0169373,0.00865936,0.0121307,-0.00171661,0.0192642,0.00350952
21,9,10.0097,0.000610352,0,-2.42623,0.0541551,-0.0747579,0.0538228,0.0712755,-0.0943672,0.144403,-0.126072,-0.0850118,0.0130844,0.0240707,0.0217819,0.0141144,0.0183868,0.0133514,0.0137711,0.0231934,-9.97986,0.0174332,-0.000572205,0.0172806,0.0104523,0.0183487,0.000839233,0.0150681,0.00659943
22,0,10.0097,0.00152588,0.00106812,-2.42714,0.0553758,-0.0756734,0.0522969,0.0706652,-0.0937568,0.145013,-0.125766,-0.0844015,0.00778198,0.0226212,0.0204468,0.0117111,0.0214005,0.0082016,0.015831,0.0226212,-9.97986,0.0141907,-0.000839233,0.0149155,0.00648499,0.018425,0.000343323,0.013504,0.00656128
22,1,10.0097,0.000305176,-0.000152588,-2.42653,0.0553758,-0.0738423,0.0538228,0.0706652,-0.0925361,0.146539,-0.123935,-0.0837911,0.0088501,0.0245285,0.0189972,0.014534,0.0165176,0.0118637,0.0165176,0.0250626,-9.97986,0.0154877,-0.00385284,0.0180817,0.00804901,0.0138092,0.0037384,0.0182343,0.00782013
22,2,10.0097,0,0.000305176,-2.42501,0.0565965,-0.0738423,0.0550435,0.0718859,-0.0916206,0.146539,-0.124546,-0.0822652,0.00915527,0.0165558,0.019989,0.00694275,0.015564,0.00865936,0.0164413,0.0220871,-9.97986,0.0120163,-0.00164032,0.0145721,0.00736237,0.0123596,0.00270844,0.0133133,0.00450134
22,3,10.0097,-0.000305176,-0.000152588,-2.42501,0.0569017,-0.0747579,0.0547383,0.0712755,-0.090705,0.146844,-0.125156,-0.0810445,0.0130844,0.0206757,0.0182724,0.017395,0.0194168,0.0114441,0.0260925,0.0258255,-9.97986,0.0178528,-0.00343323,0.0150681,0.00793457,0.0156403,-0.000610352,0.0157928,0.00835419
22,4,9.71059,0.00152588,-0.00244141,-2.42623,0.0565965,-0.0747579,0.0519917,0.0172594,-0.0983344,0.145318,-0.128513,-0.0837911,0.0100327,0.0192642,0.0177765,0.0148773,0.016098,0.00961304,0.023613,0.015831,-9.97986,0.0164795,-0.0018692,0.0137329,0.00778198,0.0173187,-0.00244141,0.013504,0.00591278
22,5,2.18068,-0.000610352,-0.00518799,-2.42684,0.0572069,-0.0744527,0.0519917,-0.0205824,-0.100776,0.146234,-0.13126,-0.0834859,0.00862122,0.0211716,0.0193787,0.0104904,0.0133514,0.0110626,0.0276566,0.0229645,-9.97986,0.0152206,-0.00171661,0.0167465,0.00564575,0.0236893,-0.0056076,0.0145721,0.00946045
22,6,-5.61656,-0.000305176,-0.00442505,-2.42684,0.0575121,-0.0735371,0.0535176,-0.0178358,-0.095893,0.147149,-0.129734,-0.0807394,0.0101852,0.0232315,0.0163651,0.0123215,0.0170898,0.0108337,0.0282288,0.0255203,-9.97986,0.0188828,-0.00553131,0.017128,0.0108719,0.0135803,-0.00640869,0.0162506,0.00572205
22,7,-9.99003,0.000305176,-0.00457764,-2.42379,0.0569017,-0.0729268,0.0553487,0.000779904,-0.0922309,0.146844,-0.127903,-0.0807394,0.00621796,0.0217438,0.018692,0.0135803,0.018425,0.0094986,0.0326538,0.0226212,-9.97986,0.0133133,-0.00556946,0.0146484,0.00663757,-0.0056076,-0.00404358,0.0174332,0.00808716
22,8,-9.99003,0.0012207,-0.00137329,-2.42562,0.0562914,-0.0744527,0.0562642,0.0438097,-0.0894843,0.14776,-0.126377,-0.080129,0.0150681,0.0258255,0.0207901,0.00518799,0.0171661,0.0113678,0.0307465,0.021286,-9.97986,0.0124359,-0.0044632,0.0132751,0.00411987,-0.00759125,-0.00587463,0.0139618,0.00686646
22,9,-9.99003,0.000305176,-0.000915527,-2.42653,0.0550706,-0.075063,0.055959,0.0593737,-0.0900947,0.145624,-0.125766,-0.0822652,0.0124741,0.0276184,0.0149536,0.0139999,0.0163269,0.0157166,0.0240707,0.0170517,-9.97986,0.0183868,0.000724792,0.0163269,0.0069046,-0.00705719,-0.00469208,0.0175858,0.00602722
23,0,-9.99003,-0.00183105,0,-2.42653,0.0544603,-0.0744527,0.0529073,0.0642565,-0.0913154,0.145929,-0.126682,-0.0828756,0.0122833,0.0378418,0.0152588,0.0106049,0.0174332,0.00907898,0.0273132,0.00926971,-9.97986,0.0149918,-0.00389099,0.00961304,0.00671387,-0.00732422,-0.00602722,0.0156403,0.00637054
23,1,-9.99003,0.000915527,-0.000762939,-2.42623,0.0547655,-0.075063,0.0547383,0.0724962,-0.0900947,0.145624,-0.125766,-0.0831808,0.00915527,0.0509644,0.0196075,0.0122452,0.0181961,0.0124359,0.0281525,0.0109863,-9.97986,0.0138092,-0.00225067,0.0139618,0.0063324,-0.00526428,-0.00667572,0.015564,0.00492096
23,2,-6.90806,0.000305176,0.0038147,-2.42684,0.0550706,-0.0753682,0.0544332,0.133531,-0.0879585,0.144708,-0.12241,-0.0834859,0.0131226,0.0440598,0.022049,0.0140762,0.0144577,0.00564575,0.0236511,0.0087738,-9.97986,0.0127029,-0.00427246,0.0141144,0.00370026,0.0218964,-0.00736237,0.0164032,0.0069809
23,3,0.239153,-0.000610352,0.00442505,-2.42837,0.0541551,-0.075063,0.0538228,0.149706,-0.0882636,0.143182,-0.121189,-0.0847066,0.012207,0.0210571,0.0144196,0.0141525,0.0126266,0.0106049,0.0261307,0.0111389,-9.97986,0.0106049,-0.00450134,0.01297,0.00484467,0.025177,-0.0116348,0.0141144,0.0044632
23,4,7.33449,0.000915527,0.00411987,-2.42684,0.0541551,-0.0747579,0.0538228,0.156725,-0.0891792,0.143792,-0.121189,-0.085317,0.0132751,0.0164032,0.0209427,0.0163651,0.0144958,0.0134659,0.0233841,0.00965118,-9.97986,0.0138092,-0.000228882,0.0159454,0.00808716,0.0219727,-0.00797272,0.017395,0.00514984
23,5,10.0097,-0.000915527,0.00335693,-2.43172,0.0529344,-0.0771993,0.0492452,0.120409,-0.0968086,0.142267,-0.125461,-0.0883688,0.0141907,0.019989,0.021286,0.0113297,0.0165176,0.0102234,0.0187683,0.0175095,-9.97986,0.0139618,-0.00255585,0.0135803,0.0056839,0.0194931,-0.00198364,0.0179291,0.00160217
23,6,10.0097,-0.000610352,0.000762939,-2.4305,0.0541551,-0.0762837,0.0495503,0.0892809,-0.0961982,0.142572,-0.126072,-0.0889791,0.01194,0.0249481,0.0203705,0.0133514,0.00873566,0.00995636,0.0191116,0.0163651,-9.97986,0.0122833,0,0.0137711,0.00404358,0.018692,-0.001297,0.0178909,0.0075531
23,7,10.0097,0.000915527,0.000305176,-2.42959,0.0538499,-0.075063,0.0510762,0.0779894,-0.095893,0.144098,-0.126377,-0.0871481,0.0138092,0.028801,0.0215149,0.0111389,0.0109482,0.0087738,0.0177383,0.0125504,-9.97986,0.0128937,0.00263214,0.0111771,0.00545502,0.0156403,-0.00087738,0.0184631,0.00629425
23,8,10.0097,-0.000610352,0,-2.42837,0.0553758,-0.0753682,0.050771,0.0737169,-0.0952827,0.144098,-0.126377,-0.0862325,0.0151443,0.0279999,0.0193024,0.0106049,0.0126648,0.0107193,0.0168991,0.0172043,-9.97986,0.0123596,-0.00343323,0.0163651,0.00549316,0.0166321,0.00396729,0.0169754,0.00972748
23,9,10.0097,0.00183105,0,-2.42684,0.0547655,-0.0759786,0.0522969,0.072191,-0.0943672,0.144403,-0.125461,-0.0862325,0.0114822,0.0294113,0.0234985,0.0139236,0.0175858,0.00869751,0.0206757,0.0152969,-9.97986,0.00911713,-0.00221252,0.0137711,0.0075531,0.0144577,-0.00148773,0.0183105,0.00736237
24,0,10.0097,0.000305176,0.000457764,-2.42653,0.0559862,-0.0747579,0.0535176,0.072191,-0.0934516,0.144098,-0.125461,-0.0844015,0.00934601,0.0284958,0.0152969,0.0110626,0.0162506,0.00980377,0.0257492,0.0207138,-9.97986,0.00881195,-0.0031662,0.0117493,0.00659943,0.0168991,-0.00396729,0.0185013,0.00717163
24,1,10.0097,0,0.000152588,-2.42745,0.0562914,-0.0744527,0.0544332,0.0706652,-0.0931465,0.145624,-0.125461,-0.0840963,0.0128937,0.0254059,0.0141525,0.013237,0.0143433,0.0094986,0.0279236,0.0195313,-9.97986,0.0113678,-0.000648499,0.0141144,0.00717163,0.0215149,-0.00751495,0.0191879,0.00637054
24,2,10.0097,0,0.000305176,-2.42684,0.0559862,-0.0729268,0.0544332,0.0718859,-0.0919257,0.145929,-0.124241,-0.0807394,0.0127029,0.0273895,0.0194168,0.0145721,0.0124359,0.0157166,0.0265884,0.0247192,-9.97986,0.01194,-0.00228882,0.0136185,0.00423431,0.0178528,-0.0112152,0.0182343,0.00602722
24,3,10.0097,-0.000305176,-0.000152588,-2.42501,0.0565965,-0.0735371,0.0550435,0.0718859,-0.0919257,0.14776,-0.124546,-0.0807394,0.0149918,0.0271225,0.0179672,0.0118256,0.0186539,0.0109863,0.0302505,0.0204849,-9.97986,0.00778198,-0.00270844,0.0144958,0.0069046,0.0226593,-0.00595093,0.0172043,0.00335693
24,4,9.62819,0.000610352,-0.00228882,-2.42653,0.0562914,-0.0744527,0.0529073,0.0175646,-0.0983344,0.145013,-0.127292,-0.0831808,0.00656128,0.0278473,0.0196075,0.0120926,0.0201035,0.00972748,0.0265884,0.0191879,-9.97986,0.00850677,-0.00362396,0.0125122,0.00644684,0.0181961,-0.00240326,0.0183487,0.00732422
24,5,2.11019,-0.000915527,-0.0038147,-2.42714,0.0559862,-0.0741475,0.0516866,-0.0208876,-0.100776,0.146539,-0.130649,-0.0825704,0.00778198,0.011673,0.0245285,0.0128937,0.0158691,0.00839233,0.0279236,0.0132751,-9.97986,0.00984192,-0.00297546,0.0154877,0.00553131,0.0202179,0.000114441,0.0202942,0.00854492
24,6,-5.64586,-0.000610352,-0.0050354,-2.42684,0.0559862,-0.0735371,0.0538228,-0.0178358,-0.0971137,0.147455,-0.130344,-0.0822652,0.0105286,-0.00759125,0.0206375,0.0146484,0.0188065,0.00873566,0.0220108,0.0142288,-9.97986,0.00980377,-0.00152588,0.0123596,0.0031662,0.016098,-0.00469208,0.0116348,0.00549316
24,7,-9.99003,0.000305176,-0.00442505,-2.4247,0.0562914,-0.0738423,0.0556539,0.000169553,-0.0928413,0.147149,-0.128818,-0.0807394,0.00934601,0.00431061,0.0290298,0.0116348,0.0192642,0.0153351,0.0242233,0.0170898,-9.97986,0.0122452,0.000839233,0.0166702,0.00587463,-0.00473022,-0.00434875,0.0181961,0.00724792
24,8,-9.99003,0.00244141,-0.0012207,-2.4244,0.0562914,-0.0744527,0.055959,0.0435045,-0.0882636,0.147149,-0.126072,-0.080129,0.0118256,0.0225449,0.029068,0.0139999,0.021286,0.0125504,0.0242233,0.0162506,-9.97986,0.0149155,0.00240326,0.0175476,0.00953674,-0.00701904,0.00167847,0.021286,0.0101471
24,9,-9.99003,-0.000915527,-0.0012207,-2.42592,0.0559862,-0.075063,0.0550435,0.0578478,-0.0916206,0.144403,-0.125766,-0.0828756,0.00759125,0.0243759,0.0282288,0.00717163,0.0133133,0.0101471,0.0143433,0.0191498,-9.97986,0.00450134,-0.00514984,0.00614166,0.000839233,-0.0136566,0.0012207,0.00759125,0.00236511
25,0,-9.99003,0.0012207,0,-2.42623,0.0541551,-0.0738423,0.0538228,0.0648668,-0.0919257,0.145318,-0.126072,-0.0819601,0.0111008,0.0333405,0.0328064,0.0184631,0.0179291,0.0151443,0.0232697,0.0238419,-9.97986,0.0150299,-0.00106812,0.0183868,0.00812531,-0.00724792,0.00644684,0.0183868,0.00972748
25,1,-9.99003,0.000305176,0,-2.42653,0.0553758,-0.0744527,0.0547383,0.0764635,-0.090705,0.145318,-0.125156,-0.0837911,0.00595093,0.0330353,0.0228882,0.0110626,0.0151062,0.00812531,0.0170135,0.017662,-9.97986,0.0132751,-0.000686646,0.0144958,0.00293732,-0.00175476,-0.00167847,0.0130081,0.00595093
25,2,-6.64287,0.000610352,0.00427246,-2.42745,0.0523241,-0.0744527,0.0550435,0.132311,-0.0882636,0.144098,-0.121799,-0.0837911,0.0130081,0.0355148,0.0276184,0.00900269,0.0198746,0.00705719,0.018425,0.0209045,-9.97986,0.0116348,0.00236511,0.0146484,0.00370026,0.0175095,0.00267029,0.0161743,0.00732422
25,3,0.476885,0.000915527,0.00457764,-2.42928,0.0547655,-0.0756734,0.0538228,0.151842,-0.0882636,0.144403,-0.121799,-0.0850118,0.00938416,0.0348663,0.0245667,0.00888824,0.0225449,0.00957489,0.0179672,0.0178909,-9.97986,0.0142288,-0.00183105,0.0145721,0.00465393,0.016861,0.00270844,0.0177002,0.00694275
25,4,7.6772,0.0012207,0.00473022,-2.42837,0.0532396,-0.0762837,0.0547383,0.156725,-0.0897895,0.145013,-0.120578,-0.0862325,0.0114822,0.030098,0.0292206,0.0109863,0.0190353,0.0114822,0.0185776,0.0138092,-9.97986,0.0117874,-0.00160217,0.0136948,0.00469208,0.0195313,-0.000839233,0.0169373,0.00926971
25,5,10.0097,-0.0012207,0.00350952,-2.43203,0.0523241,-0.0759786,0.0495503,0.119493,-0.0968086,0.142267,-0.125156,-0.0886739,0.012207,0.0311661,0.0182724,0.0125885,0.0193024,0.00976563,0.0195313,0.0105667,-9.97986,0.0105286,-0.00328064,0.0156021,0.00358582,0.0171661,0.00205994,0.0169754,0.0025177
25,6,10.0097,-0.000915527,0.000762939,-2.43081,0.0529344,-0.0768941,0.0516866,0.0892809,-0.0974189,0.143182,-0.127292,-0.0877584,0.01297,0.0287247,0.00904083,0.0106049,0.0162125,0.00934601,0.0203705,0.00957489,-9.97986,0.0143051,-0.00362396,0.0137711,0.00774384,0.0165176,-0.00114441,0.0161362,0.00427246
25,7,10.0097,0.000610352,0.000152588,-2.42806,0.0547655,-0.0738423,0.0522969,0.0776842,-0.0961982,0.143487,-0.126987,-0.0871481,0.00797272,0.0125885,-3.8147e-005,0.00724792,0.0165939,0.01297,0.0193405,0.00980377,-9.97986,0.0149155,-0.00110626,0.0175858,0.0056076,0.0217819,-0.0012207,0.0189972,0.00545502
25,8,10.0097,0.000610352,0,-2.42745,0.0547655,-0.0756734,0.0519917,0.0737169,-0.0965034,0.143792,-0.125766,-0.0859274,0.0125885,0.00770569,0.00965118,0.0123215,0.0189972,0.0153351,0.0177765,0.0156021,-9.97986,0.0183487,0.00106812,0.0155258,0.00576019,0.0181961,-0.00522614,0.0188828,0.0069809
25,9,10.0097,0.000610352,0,-2.42684,0.0550706,-0.075063,0.0538228,0.0706652,-0.0937568,0.144403,-0.125461,-0.0850118,0.00862122,0.00392914,0.00495911,0.013504,0.0162888,0.00667572,0.0185394,0.0128174,-9.97986,0.0172806,-0.00087738,0.014801,0.0043869,0.0171661,-0.0213623,0.0167847,0.0069046
26,0,10.0097,0,0.000152588,-2.42714,0.0550706,-0.075063,0.0529073,0.0728014,-0.0922309,0.144403,-0.126072,-0.0844015,0.0123596,0.00431061,0.010643,0.0112915,0.0192261,0.0111008,0.0227356,0.0146866,-9.97986,0.0173187,0.000534058,0.0152588,0.00400543,0.0149536,-0.0246811,0.0175858,0.00740051
26,1,10.0097,-0.0012207,0.000152588,-2.42592,0.0562914,-0.0747579,0.0532125,0.0706652,-0.0925361,0.147149,-0.125766,-0.0840963,0.00968933,0.00751495,0.0151443,0.0122833,0.0188828,0.0114822,0.0164413,0.0156784,-9.97986,0.0132751,-0.00301361,0.0137329,0.00347137,0.0163269,-0.0271225,0.0154877,0.00659943
26,2,10.0097,0.000915527,0.000152588,-2.42562,0.055681,-0.0738423,0.054128,0.0734117,-0.090705,0.147455,-0.124241,-0.0813497,0.0114059,0.0126266,0.0168991,0.0100327,0.0161362,0.00988007,0.0154495,0.0165558,-9.97986,0.0175858,0.00175476,0.0127792,0.0056839,0.0181198,-0.0150299,0.0201416,0.00556946
26,3,10.0097,0.000305176,-0.000915527,-2.4244,0.0569017,-0.0744527,0.0556539,0.0718859,-0.0928413,0.147455,-0.123935,-0.0810445,0.00812531,0.0322342,0.0212097,0.0128937,0.0200653,0.0126266,0.0191879,0.0206757,-9.97986,0.0160217,-0.00183105,0.0172043,0.00705719,0.0233459,-0.00408173,0.0172043,0.00457764
26,4,9.7228,0.000610352,-0.00289917,-2.42745,0.0559862,-0.0744527,0.0522969,0.0181749,-0.0980293,0.146234,-0.127903,-0.0837911,0.0110245,0.0323486,0.019989,0.0134659,0.0165558,0.00911713,0.0156021,0.019722,-9.97986,0.00988007,-0.00507355,0.0165176,0.00961304,0.0167465,-0.00118256,0.0164795,0.00629425
26,5,2.24263,0.0012207,-0.00396729,-2.42684,0.0562914,-0.0741475,0.0519917,-0.0202772,-0.100776,0.145624,-0.130954,-0.0837911,0.0112152,0.0283813,0.0208282,0.0087738,0.0176239,0.0141144,0.017128,0.0159073,-9.97986,0.0170898,0.00190735,0.0152206,0.00518799,0.0162888,0.00465393,0.0173187,0.00305176
26,6,-5.51341,0,-0.00427246,-2.42501,0.0565965,-0.0738423,0.0529073,-0.0175306,-0.0971137,0.146539,-0.129734,-0.0825704,0.00991821,0.022049,0.0180054,0.0111008,0.0174713,0.00946045,0.0217056,0.0164795,-9.97986,0.0122452,0.00297546,0.013504,0.00549316,0.0157547,0.00965118,0.0167847,0.00530243
26,7,-9.99003,0.00152588,-0.0050354,-2.4247,0.0569017,-0.0729268,0.0550435,0.00169543,-0.0928413,0.146234,-0.129123,-0.0810445,0.00946045,0.0188828,0.0196457,0.00724792,0.0211334,0.0130081,0.0210953,0.0182724,-9.97986,0.0119781,-0.00282288,0.0142288,0.00267029,-0.0050354,0.00976563,0.016098,0.00652313
26,8,-9.99003,-0.000915527,-0.00213623,-2.42379,0.0550706,-0.0747579,0.0565694,0.04442,-0.0903999,0.146234,-0.126072,-0.0804342,0.0108337,0.0178909,0.0140762,0.00888824,0.0170517,0.00770569,0.0231934,0.0163651,-9.97986,0.0143814,7.62939e-005,0.0172806,0.00587463,-0.00782013,0.00339508,0.0185394,0.00770569
26,9,-9.99003,0,-0.000762939,-2.42531,0.055681,-0.0741475,0.055959,0.0587633,-0.0919257,0.146234,-0.126072,-0.0819601,0.00984192,0.0151443,0.0141907,0.0103378,0.0157928,0.0108337,0.0223923,0.0196075,-9.97986,0.0151443,-0.00183105,0.0150681,0.00499725,-0.0087738,-0.00473022,0.0152206,0.00141144
27,0,-9.99003,0,0,-2.42592,0.0553758,-0.0744527,0.054128,0.0648668,-0.0919257,0.144708,-0.125461,-0.0828756,0.00888824,0.0117111,0.00423431,0.0151062,0.0141144,0.0101089,0.0265884,0.0173187,-9.97986,0.0146103,0.000267029,0.0139618,0.00488281,-0.00900269,-0.00179291,0.0160599,0.00816345
27,1,-9.99003,0.000305176,-0.000305176,-2.42714,0.0550706,-0.0747579,0.0550435,0.0776842,-0.090705,0.146234,-0.125156,-0.0834859,0.0110626,0.0101089,0.0019455,0.0147629,0.0151825,0.0112915,0.0283051,0.0186157,-9.97986,0.018425,-0.0038147,0.0186539,0.00984192,-0.00267029,-0.00495911,0.0148773,0.00747681
27,2,-6.48997,0.000610352,0.00366211,-2.42684,0.0532396,-0.0756734,0.0565694,0.132311,-0.0855171,0.144403,-0.12241,-0.0834859,0.00862122,0.0156403,0.0104904,0.0105286,0.0224304,0.00881195,0.0284576,0.0186539,-9.97986,0.0213242,-0.000991821,0.0174332,0.00793457,0.0208664,-0.00240326,0.0166321,0.00663757
27,3,0.619402,0.000305176,0.00411987,-2.42745,0.0538499,-0.0756734,0.0547383,0.14879,-0.088874,0.143182,-0.121189,-0.085317,0.00724792,0.0104523,0.0109482,0.0100708,0.0166702,0.00965118,0.0239944,0.0200653,-9.97986,0.014534,0.00125885,0.0134659,0.00823975,0.0112534,-0.000152588,0.0164413,0.00370026
27,4,7.77822,0.000610352,0.00396729,-2.42806,0.0538499,-0.0756734,0.0538228,0.158251,-0.0903999,0.144403,-0.121189,-0.0856222,0.00865936,0.0175476,0.0143433,0.0127792,0.017128,0.0138092,0.0247955,0.0177765,-9.97986,0.0120544,-0.00087738,0.0175858,0.00682831,0.0146484,0.00518799,0.0185394,0.0018692
27,5,10.0097,-0.000610352,0.00320435,-2.43081,0.0520189,-0.0771993,0.0504659,0.119493,-0.095893,0.141961,-0.125461,-0.0883688,0.0124741,0.017662,0.0167465,0.0154495,0.0175476,0.0087738,0.0233841,0.0211334,-9.97986,0.0194168,-0.00347137,0.0149918,0.0038147,0.0143814,0.00213623,0.0177383,0.00644684
27,6,10.0097,0.000305176,0.000915527,-2.43111,0.0532396,-0.0765889,0.0495503,0.0880602,-0.0974189,0.143487,-0.125766,-0.0880636,0.0119781,0.0131607,0.0183868,0.01297,0.0156784,0.0069809,0.0201797,0.0212479,-9.97986,0.0144196,-0.000724792,0.013237,0.00434875,0.0140381,0.00247955,0.0156403,0.00579834
27,7,10.0097,-0.000305176,0.000152588,-2.42928,0.0544603,-0.0762837,0.0519917,0.0779894,-0.0968086,0.143487,-0.126377,-0.0856222,0.0106049,0.0185013,0.0157166,0.0094223,0.0177383,0.00968933,0.0198746,0.0196075,-9.97986,0.0162888,-0.00400543,0.0172424,0.00247955,0.0157928,0.00556946,0.0164032,0.00804901
27,8,10.0097,0.00183105,-0.000305176,-2.42776,0.0538499,-0.0747579,0.0513814,0.0743273,-0.0931465,0.144098,-0.126072,-0.085317,0.00812531,0.0191116,0.0149536,0.0130844,0.0192261,0.00946045,0.0187302,0.0219727,-9.97986,0.0176239,-0.00587463,0.0158691,0.00827789,0.0147247,0.00411987,0.0159836,0.00152588
27,9,10.0097,0.00244141,0.000610352,-2.42806,0.0569017,-0.0747579,0.0529073,0.0715807,-0.0943672,0.145013,-0.126072,-0.085317,0.0108337,0.0179291,0.00751495,0.0118256,0.016861,0.0104904,0.0199127,0.0237656,-9.97986,0.0157928,0.000190735,0.0147629,0.00282288,0.0130081,-0.00488281,0.0166702,0.00686646
28,0,10.0097,0.0012207,0,-2.42714,0.0550706,-0.0744527,0.0538228,0.07036,-0.0943672,0.143487,-0.125766,-0.0840963,0.0130844,0.0182724,0.0149536,0.0115204,0.0199509,0.0108719,0.0231552,0.0225449,-9.97986,0.0111389,-0.00312805,0.0125885,0.00453949,0.0122833,-0.00846863,0.0175858,0.00484467
28,1,10.0097,-0.000610352,0.000305176,-2.42562,0.055681,-0.0741475,0.0532125,0.0724962,-0.0922309,0.147149,-0.125461,-0.0831808,0.00930786,0.0154495,0.0171661,0.0125885,0.015564,0.00782013,0.0212479,0.0225067,-9.97986,0.0138092,0.000228882,0.0154495,0.00881195,0.0127411,-0.00865936,0.0166702,0.0056839
28,2,10.0097,0.0012207,-0.000152588,-2.42562,0.0572069,-0.0735371,0.0550435,0.0712755,-0.0928413,0.146844,-0.123935,-0.0822652,0.0108337,0.0191879,0.0203323,0.0143051,0.0209427,0.0121307,0.0218582,0.0231552,-9.97986,0.0135803,-0.00465393,0.0149918,0.00278473,0.0185394,-0.0130081,0.0165176,0.0050354
28,3,10.0097,0.00152588,0.000152588,-2.42501,0.0553758,-0.0744527,0.0538228,0.0724962,-0.0916206,0.146844,-0.124851,-0.0813497,0.0154114,0.0276566,0.0180817,0.014534,0.0200272,0.0114441,0.0220108,0.021286,-9.97986,0.0128555,0.0018692,0.0177002,0.00732422,0.0151062,-0.0130463,0.0159073,0.00743866
28,4,9.60958,0.000915527,-0.00244141,-2.42653,0.0553758,-0.0747579,0.0516866,0.0178697,-0.0977241,0.145318,-0.128818,-0.0837911,0.00961304,0.0296402,0.0213623,0.0149536,0.0201797,0.0120926,0.0243759,0.0149536,-9.97986,0.0152969,-0.00125885,0.0127792,0.00473022,0.0151825,-0.0181961,0.0183105,0.00225067
28,5,2.15749,0.000305176,-0.00396729,-2.42684,0.0565965,-0.0744527,0.0513814,-0.0211928,-0.09925,0.145318,-0.130039,-0.0825704,0.00934601,0.0377274,0.0244141,0.0114822,0.0169373,0.00598907,0.0233078,0.0117493,-9.97986,0.0131989,-0.00595093,0.0114822,0.00545502,0.0167847,-0.017128,0.0165939,0.00759125
28,6,-5.5836,0.000915527,-0.00411987,-2.42592,0.0572069,-0.0741475,0.0535176,-0.0175306,-0.0971137,0.146539,-0.128818,-0.0816549,0.0111771,0.0326538,0.0228882,0.015564,0.0131989,0.0113678,0.0255203,0.00961304,-9.97986,0.0155258,0.00114441,0.0168991,0.00774384,0.018959,-0.0117493,0.0175858,0.00549316
28,7,-9.99003,0.00244141,-0.00457764,-2.42409,0.0569017,-0.0738423,0.0556539,0.00200061,-0.0928413,0.145929,-0.128513,-0.080129,0.00953674,0.0279617,0.0286865,0.011673,0.0139999,0.0101852,0.0325394,0.00923157,-9.97986,0.0141144,-0.00495911,0.0105667,0.00598907,-0.00102997,-0.0102615,0.0182343,0.0056076
28,8,-9.99003,0.000610352,-0.00152588,-2.42348,0.0562914,-0.0738423,0.0574849,0.0428942,-0.0897895,0.146539,-0.125766,-0.0813497,0.0109863,0.0275803,0.023613,0.0139618,0.0128555,0.011673,0.0273132,0.0111771,-9.97986,0.0150299,-0.00236511,0.0107193,0.00549316,-0.00549316,-0.00797272,0.0191116,0.00553131
28,9,-9.99003,-0.000305176,-0.000457764,-2.42501,0.055681,-0.0744527,0.0553487,0.0578478,-0.0916206,0.146844,-0.126377,-0.0819601,0.0112915,0.0257874,0.0204849,0.0141144,0.0206757,0.0120544,0.0304031,0.0149918,-9.97986,0.0157928,0.00205994,0.0152969,0.00671387,-0.00106812,-0.00545502,0.0164795,0.00778198
29,0,-9.99003,0.00183105,0.000762939,-2.42684,0.0559862,-0.0756734,0.0556539,0.0642565,-0.090705,0.146539,-0.125766,-0.0837911,0.00896454,0.0232697,0.0205612,0.0126648,0.0150299,0.0129318,0.0287628,0.0131607,-9.97986,0.0178528,0.00141144,0.0118637,0.00732422,-0.00278473,-0.00709534,0.0169373,0.00324249
29,1,-9.99003,0.000305176,0.000610352,-2.42562,0.0547655,-0.0744527,0.0544332,0.0779894,-0.090705,0.145013,-0.125461,-0.0834859,0.0133514,0.0232315,0.0205994,0.0119019,0.0133896,0.00778198,0.0279236,0.0161743,-9.97986,0.0131226,0.00465393,0.00762939,0.00705719,-0.00419617,-7.62939e-005,0.016861,0.00225067
29,2,-6.52263,-0.000610352,0.00366211,-2.42684,0.0541551,-0.075063,0.0550435,0.134752,-0.0876533,0.143792,-0.121799,-0.0828756,0.00938416,0.0229645,0.0167084,0.0139236,0.0148392,0.00648499,0.0274658,0.0169754,-9.97986,0.0156784,0.000610352,0.00793457,0.00843048,0.0180817,-0.000190735,0.0173569,0.00366211
29,3,0.599261,-0.0012207,0.00457764,-2.42837,0.0535448,-0.0753682,0.0544332,0.150621,-0.0879585,0.143792,-0.121189,-0.0850118,0.00881195,0.0215149,0.019989,0.0128937,0.0142288,0.00492096,0.0265884,0.0161743,-9.97986,0.0141525,0.00656128,0.0181961,0.0030899,0.022049,-0.000343323,0.0170135,0.00541687
29,4,7.77303,-0.000610352,0.0038147,-2.42898,0.0529344,-0.0759786,0.0532125,0.15642,-0.0897895,0.145013,-0.121189,-0.0856222,0.0124741,0.0268936,0.0186539,0.00728607,0.0150299,0.00801086,0.0218582,0.0163651,-9.97986,0.0140762,0.00102997,0.0137329,0.00720978,0.0194931,-0.0012207,0.0128555,0.00553131
29,5,10.0097,0.000915527,0.00305176,-2.43172,0.0526292,-0.0771993,0.0501607,0.118273,-0.095893,0.141961,-0.124851,-0.0892843,0.00892639,0.02491,0.0172043,0.00946045,0.0163269,0.0120544,0.0240707,0.0185013,-9.97986,0.0156021,0.000534058,0.0122833,0.00495911,0.019989,-0.000648499,0.0160217,0.0062561
29,6,10.0097,0.000610352,0.000762939,-2.42959,0.0523241,-0.0765889,0.0498555,0.0880602,-0.095893,0.143487,-0.125766,-0.0874532,0.0112152,0.0215912,0.0205612,0.0101089,0.0164413,0.0122452,0.0268555,0.0142288,-9.97986,0.0102234,0.00350952,0.0165176,0.00968933,0.0238419,0.00106812,0.0170898,0.00473022
29,7,10.0097,0.000305176,0.000457764,-2.42898,0.0541551,-0.0753682,0.0513814,0.0767687,-0.0965034,0.144403,-0.126682,-0.0874532,0.0117111,0.0221634,0.0202179,0.00823975,0.015831,0.0101852,0.0187683,0.0156403,-9.97986,0.0122833,-0.00087738,0.0125885,0.0101471,0.0167847,-0.00827789,0.013237,0.00576019
29,8,10.0097,0.00152588,-0.000610352,-2.42867,0.0529344,-0.0747579,0.0519917,0.0737169,-0.0946723,0.144098,-0.126377,-0.0862325,0.0082016,0.0278473,0.019722,0.0146103,0.0217819,0.0131226,0.0223541,0.0222397,-9.97986,0.0193024,0.00038147,0.0150299,0.00823975,0.0188828,-0.00255585,0.0165558,0.0088501
29,9,10.0097,0,-0.000152588,-2.42806,0.0562914,-0.0744527,0.0516866,0.0715807,-0.0931465,0.144708,-0.125766,-0.0856222,0.0100327,0.0271606,0.0167847,0.00896454,0.0217819,0.00862122,0.0194168,0.021286,-9.97986,0.0105667,-0.00125885,0.0139236,0.00160217,0.0165939,-0.00293732,0.0147247,0.00801086
30,0,10.0097,0.000610352,0.000305176,-2.42837,0.0550706,-0.0747579,0.0529073,0.0706652,-0.0925361,0.145013,-0.126377,-0.0834859,0.00789642,0.0245285,0.0215912,0.0161362,0.020752,0.0119019,0.0235367,0.0222015,-9.97986,0.0153732,0.00225067,0.0125504,0.00740051,0.0156021,0.000114441,0.0169373,0.00766754
30,1,10.0097,0.00152588,0.000152588,-2.42623,0.0550706,-0.0744527,0.054128,0.0712755,-0.0913154,0.145624,-0.125156,-0.0828756,0.00785828,0.0262833,0.0193405,0.0126648,0.018692,0.00751495,0.0220871,0.0178146,-9.97986,0.0148392,0.00236511,0.0178528,0.00652313,0.0183105,-0.00450134,0.016861,0.00587463
30,2,10.0097,0.00244141,-0.000152588,-2.42531,0.0559862,-0.0747579,0.0544332,0.0715807,-0.090705,0.146234,-0.124241,-0.0816549,0.00862122,0.0232697,0.0191498,0.010643,0.0184631,0.0112915,0.0215912,0.0187683,-9.97986,0.0113678,0.000648499,0.0144196,0.00652313,0.0185013,0.000343323,0.0146866,0.00675201
30,3,10.0097,0.00183105,0.000610352,-2.4244,0.0572069,-0.0735371,0.054128,0.07036,-0.0919257,0.146539,-0.124241,-0.0819601,0.00995636,0.020752,0.0191879,0.0101471,0.0165939,0.0100708,0.0175858,0.0207138,-9.97986,0.0170517,-0.00183105,0.0162506,0.00892639,0.0187683,-0.0012207,0.0159836,0.00549316
30,4,9.52168,0.000305176,-0.00228882,-2.42623,0.0559862,-0.0741475,0.0522969,0.0181749,-0.0983344,0.145624,-0.129429,-0.0828756,0.00415802,0.0245285,0.0217819,0.00984192,0.018692,0.0111771,0.0249481,0.0209045,-9.97986,0.0173187,-0.000534058,0.0161362,0.00934601,0.0180817,0.000495911,0.0137711,0.0069809
30,5,1.93501,0.000610352,-0.00411987,-2.42714,0.055681,-0.0744527,0.0519917,-0.0211928,-0.0995551,0.146844,-0.131565,-0.0834859,0.00991821,0.0278473,0.0204849,0.0094223,0.0157166,0.0118637,0.0235367,0.0144196,-9.97986,0.0141907,0.00106812,0.0175476,0.00583649,0.0147247,0.00171661,0.0143814,0.00778198
30,6,-5.8311,-0.000305176,-0.00427246,-2.42501,0.0559862,-0.0738423,0.0535176,-0.0172255,-0.0955879,0.146234,-0.130649,-0.0822652,0.0120544,0.0242233,0.0224304,0.0094223,0.0201035,0.00843048,0.0224686,0.0178146,-9.97986,0.0125885,0.00141144,0.019455,0.00473022,0.0136948,0.00255585,0.0149155,0.00827789
30,7,-9.99003,0.000305176,-0.00457764,-2.4244,0.0562914,-0.0729268,0.0556539,0.00261096,-0.0937568,0.148065,-0.127903,-0.0798238,0.01297,0.0251007,0.0225067,0.0115204,0.0201035,0.0111389,0.0209427,0.0113297,-9.97986,0.0109863,0.000991821,0.0123215,0.0075531,-0.0030899,-0.000495911,0.0169373,0.00461578
30,8,-9.99003,0,-0.00137329,-2.42409,0.0553758,-0.0738423,0.0553487,0.0441149,-0.0891792,0.146844,-0.126987,-0.0804342,0.0102615,0.0270081,0.0244141,0.0119781,0.015831,0.0118637,0.0219345,0.0183487,-9.97986,0.0133133,-0.00328064,0.0144196,0.0104141,-0.0087738,-0.0025177,0.0152969,0.0069046
30,9,-9.99003,0.0012207,-0.000305176,-2.42623,0.0553758,-0.0738423,0.0547383,0.0587633,-0.0900947,0.145624,-0.126377,-0.0816549,0.0102997,0.0292969,0.022049,0.0109482,0.0207901,0.00831604,0.0197601,0.0151443,-9.97986,0.0123215,-0.00106812,0.0111771,0.00862122,-0.00946045,-0.000801086,0.0094986,0.0069809
31,0,-9.99003,0.0012207,-0.000457764,-2.42623,0.0562914,-0.0738423,0.0550435,0.0645616,-0.0916206,0.145624,-0.126987,-0.0816549,0.01194,0.0208664,0.0259018,0.0117874,0.0191498,0.0126266,0.0169754,0.0146866,-9.97986,0.0144577,0.00148773,0.0160599,0.0104523,-0.01091,0.000991821,0.0160217,0.00667572
31,1,-9.99003,0.000915527,0.000152588,-2.42714,0.0553758,-0.0756734,0.0535176,0.0752428,-0.0913154,0.145013,-0.125461,-0.0844015,0.0075531,0.0201035,0.0233078,0.0127411,0.0162506,0.0117874,0.0173569,0.0165558,-9.97986,0.0123215,-0.00202179,0.0135803,0.00793457,-0.0124741,0.000419617,0.0162125,0.00774384
31,2,-6.67552,0.000915527,0.00305176,-2.42684,0.0529344,-0.0747579,0.0544332,0.131395,-0.0879585,0.145013,-0.122715,-0.0831808,0.010376,0.0241852,0.0239944,0.0146866,0.0186539,0.0102234,0.0206757,0.0151443,-9.97986,0.0175476,0.00274658,0.0152969,0.0082016,0.0136948,-0.00324249,0.0139999,0.00640869
31,3,0.41585,-0.000915527,0.00411987,-2.42714,0.0526292,-0.0765889,0.0544332,0.14818,-0.0879585,0.145013,-0.122104,-0.0847066,0.0101852,0.0276947,0.0230408,0.0113297,0.0191879,0.00980377,0.0208282,0.0191879,-9.97986,0.0154114,0.00038147,0.0180817,0.00850677,0.0128937,-0.00408173,0.0138092,0.00778198
31,4,7.51638,0.000915527,0.00396729,-2.42745,0.0544603,-0.0747579,0.0535176,0.155809,-0.0894843,0.144708,-0.121189,-0.085317,0.00934601,0.0222778,0.0231934,0.0106049,0.0185776,0.0128937,0.0159836,0.02388,-9.97986,0.0126648,-0.00705719,0.0171661,0.0103378,0.0106812,-0.00564575,0.0107193,0.00778198
31,5,10.0097,0.00152588,0.00350952,-2.43264,0.0532396,-0.0765889,0.0492452,0.119798,-0.0955879,0.142877,-0.123935,-0.0883688,0.0087738,0.0256348,0.0222397,0.0102997,0.0202942,0.014534,0.0191879,0.0236893,-9.97986,0.0136948,-0.00286102,0.0151062,0.00797272,0.0170517,-0.00411987,0.0180817,0.0082016
31,6,10.0097,0.000610352,0.00137329,-2.4302,0.0529344,-0.0768941,0.0498555,0.0883654,-0.0961982,0.143792,-0.126072,-0.0886739,0.0145721,0.0233078,0.0243378,0.00976563,0.0178146,0.0161743,0.0205994,0.0228882,-9.97986,0.0192261,-0.00301361,0.0192642,0.00576019,0.0128937,-0.000534058,0.0177765,0.00732422
31,7,10.0097,0.000610352,0.000305176,-2.42898,0.0550706,-0.0756734,0.0513814,0.0776842,-0.0955879,0.144708,-0.126072,-0.0877584,0.0131607,0.0273132,0.0217056,0.0125504,0.0183105,0.0143051,0.0149536,0.0189209,-9.97986,0.0162888,-0.00274658,0.0181961,0.00858307,0.0146866,-0.00370026,0.0133133,0.00797272
31,8,10.0097,0.00152588,0,-2.42837,0.0550706,-0.0756734,0.0519917,0.0737169,-0.0946723,0.143792,-0.126377,-0.0862325,0.0112152,0.0283432,0.0252914,0.0140762,0.0191116,0.0139999,0.0227356,0.0234604,-9.97986,0.0166702,0.00171661,0.0159454,0.00976563,0.0139618,-0.00240326,0.0157166,0.00816345
31,9,10.0097,-0.000610352,0,-2.42867,0.055681,-0.075063,0.0526021,0.0715807,-0.094062,0.145013,-0.124851,-0.0840963,0.01194,0.0252914,0.0227356,0.00675201,0.0171661,0.00919342,0.0260544,0.02285,-9.97986,0.0149536,0.00118256,0.0128555,0.00892639,0.0175095,-0.000190735,0.015564,0.00839233
32,0,10.0097,0.0012207,-0.000457764,-2.42714,0.0547655,-0.0741475,0.0529073,0.0709703,-0.0931465,0.145318,-0.125766,-0.0840963,0.0127792,0.0228119,0.0178146,0.00907898,0.0187302,0.013504,0.0219345,0.0195313,-9.97986,0.0144196,-0.00221252,0.0144577,0.00904083,0.0144577,0.00392914,0.0181198,0.00553131
32,1,10.0097,0,0.000457764,-2.42592,0.0547655,-0.0735371,0.0538228,0.0706652,-0.0919257,0.146539,-0.125766,-0.0834859,0.011673,0.0285721,0.00953674,0.00869751,0.017128,0.0110245,0.0183105,0.020752,-9.97986,0.0193024,0.000305176,0.0170135,0.00896454,0.0143814,0.00507355,0.0180817,0.00766754
32,2,10.0097,0.000610352,0.000305176,-2.42592,0.0565965,-0.0738423,0.0550435,0.07036,-0.0928413,0.146539,-0.124546,-0.0825704,0.0101089,0.0277328,0.00629425,0.0105667,0.0147247,0.00968933,0.0210571,0.0254822,-9.97986,0.0136566,-0.00267029,0.0131226,0.00408173,0.0136185,0.000190735,0.0152206,0.0056076
32,3,10.0097,0.0012207,-0.000305176,-2.42653,0.0559862,-0.0747579,0.0532125,0.0706652,-0.0922309,0.146234,-0.124851,-0.0810445,0.0121689,0.0325394,0.0170135,0.0148773,0.0198364,0.0135422,0.0174713,0.0257874,-9.97986,0.0144958,0.00179291,0.0141525,0.00900269,0.0188446,-0.00114441,0.0176239,0.0082016
32,4,9.40724,0.000305176,-0.00183105,-2.42684,0.0550706,-0.0747579,0.0516866,0.0184801,-0.0977241,0.145624,-0.127903,-0.0828756,0.0114822,0.0288773,0.0174332,0.0110245,0.0131607,0.00751495,0.01297,0.0239944,-9.97986,0.0141525,-0.00160217,0.0131989,0.00823975,0.0151443,-0.0100708,0.014267,0.00556946
32,5,1.9576,0.000305176,-0.00427246,-2.42714,0.0562914,-0.0738423,0.0516866,-0.0224135,-0.101081,0.146539,-0.13126,-0.0828756,0.0116348,0.0336456,0.0138855,0.0156784,0.0212479,0.0117493,0.017662,0.0196838,-9.97986,0.014267,-0.00259399,0.0107193,0.00736237,0.0151825,-0.0136185,0.0130463,0.0062561
32,6,-5.8607,-0.000305176,-0.00442505,-2.42409,0.0572069,-0.0735371,0.0535176,-0.0187513,-0.0968086,0.146234,-0.130649,-0.0816549,0.0101852,0.0338745,0.0173569,0.0127029,0.0199509,0.0094986,0.0185013,0.0127792,-9.97986,0.0179672,-0.00335693,0.0104523,0.00873566,0.0160599,-0.00835419,0.0149918,0.00682831
32,7,-9.99003,0.0012207,-0.00442505,-2.42531,0.0581224,-0.0723164,0.0562642,0.00444201,-0.0925361,0.146844,-0.126987,-0.0807394,0.01091,0.0283432,0.0196075,0.0138092,0.0154877,0.00537872,0.0214005,0.016098,-9.97986,0.0152969,-0.00595093,0.00938416,0.00839233,-0.00999451,-0.00465393,0.0152206,0.00419617
32,8,-9.99003,0.000305176,-0.00137329,-2.42409,0.0559862,-0.0741475,0.0553487,0.0456407,-0.0882636,0.146234,-0.126987,-0.0810445,0.0130844,0.0355911,0.0139999,0.0124359,0.0200272,0.00881195,0.0212479,0.00850677,-9.97986,0.0149918,-0.00656128,0.0115585,0.00572205,-0.00740051,-0.00179291,0.0127411,0.00953674
32,9,-9.99003,0.000610352,-0.000305176,-2.42592,0.0559862,-0.0747579,0.0547383,0.058153,-0.0913154,0.146539,-0.126377,-0.0816549,0.0128555,0.0348663,0.0186539,0.0088501,0.0167084,0.0109482,0.0233078,0.0156784,-9.97986,0.0163651,-0.00617981,0.00854492,0.00644684,-0.0120163,-0.00480652,0.015564,0.00679016
33,0,-9.99003,0.0012207,0,-2.42806,0.0547655,-0.0744527,0.054128,0.0645616,-0.0916206,0.145013,-0.126072,-0.0831808,0.00991821,0.0383377,0.0188828,0.00762939,0.018692,0.00743866,0.0240707,0.0110626,-9.97986,0.0151825,-0.00514984,0.0136185,0.00858307,-0.00984192,-0.0050354,0.017395,0.00564575
33,1,-9.99003,0.00244141,0.000610352,-2.42623,0.0559862,-0.075063,0.0550435,0.0764635,-0.0900947,0.145318,-0.126072,-0.0834859,0.0069809,0.0366974,0.021553,0.0075531,0.0200653,0.0063324,0.0279999,0.0141907,-9.97986,0.0160599,-0.00190735,0.0165939,0.00839233,-0.00411987,0.00110626,0.0182343,0.00988007
33,2,-6.61662,0.00183105,0.00335693,-2.42898,0.0547655,-0.075063,0.0550435,0.1317,-0.0879585,0.144098,-0.12363,-0.0840963,0.00923157,0.0315857,0.018959,0.00831604,0.0153732,0.00843048,0.0269318,0.0120163,-9.97986,0.0128937,0.00236511,0.0192642,0.00968933,0.0146866,0.00110626,0.018158,0.0063324
33,3,0.402422,0,0.00457764,-2.42745,0.0541551,-0.0762837,0.0553487,0.149401,-0.0882636,0.144098,-0.121799,-0.0847066,0.01297,0.0284576,0.022049,0.00865936,0.0136185,0.0107956,0.0268936,0.0174332,-9.97986,0.0152969,0.000801086,0.0279999,0.00492096,0.0137711,-0.000686646,0.0146484,0.00640869
33,4,7.56124,0.000610352,0.00396729,-2.42867,0.0535448,-0.0762837,0.0544332,0.155199,-0.088874,0.143487,-0.121799,-0.0859274,0.0111771,0.0158691,0.0146103,0.00934601,0.0170135,0.0108337,0.0255966,0.0197601,-9.97986,0.0162888,-0.00587463,0.0319672,0.00617981,0.0158691,-0.00389099,0.0157928,0.00537872
33,5,10.0097,0.0012207,0.00335693,-2.4305,0.0526292,-0.0775044,0.050771,0.119798,-0.0965034,0.141351,-0.124851,-0.0889791,0.0127029,-0.00640869,0.0197601,0.0152588,0.0152969,0.00869751,0.0244904,0.0155258,-9.97986,0.018692,-0.00640869,0.0182724,0.00766754,0.0157166,-0.00579834,0.017395,0.00915527
33,6,10.0097,-0.000305176,0.000762939,-2.4305,0.0532396,-0.0762837,0.0498555,0.0880602,-0.0968086,0.142877,-0.126377,-0.0883688,0.00846863,-0.0154495,0.0159836,0.0122452,0.0148392,0.0116348,0.0255203,0.0162888,-9.97986,0.0154877,-0.00881195,0.0136948,0.00576019,0.016098,-0.00400543,0.014267,0.00526428
33,7,10.0097,0.000915527,-0.000305176,-2.42898,0.0523241,-0.0753682,0.0510762,0.0767687,-0.0946723,0.144098,-0.127292,-0.0865377,0.01091,0.00087738,0.00488281,0.0115967,0.0193405,0.0108719,0.02491,0.0203323,-9.97986,0.0160599,-0.00541687,0.0158691,0.0056839,0.0130463,-0.00507355,0.0137329,0.00400543
33,8,10.0097,0.000610352,-0.000305176,-2.42837,0.0547655,-0.075063,0.0532125,0.0743273,-0.0949775,0.143792,-0.126987,-0.0871481,0.00930786,0.00564575,0.00205994,0.00881195,0.0189209,0.0119019,0.0245285,0.0215149,-9.97986,0.0152588,0.000534058,0.0153351,0.00892639,0.0157547,-0.00347137,0.0173187,0.00789642
33,9,10.0097,0.000305176,0.000457764,-2.42684,0.0550706,-0.0753682,0.0538228,0.072191,-0.0946723,0.145624,-0.125156,-0.0840963,0.00888824,0.0133514,0.0113678,0.0128174,0.017128,0.0104141,0.0194168,0.0206757,-9.97986,0.0131607,-0.000762939,0.0127411,0.0056076,0.0156784,-0.0109482,0.0159454,0.00782013
34,0,10.0097,0.0012207,0,-2.42745,0.0541551,-0.0756734,0.0526021,0.0712755,-0.0937568,0.144403,-0.126072,-0.0834859,0.0106812,0.0173569,0.0136185,0.00488281,0.0169373,0.00869751,0.019455,0.0214767,-9.97986,0.0160217,0.0037384,0.0123978,0.00652313,0.0129318,-0.0118256,0.0174332,0.0087738
34,1,10.0097,-0.00152588,0.000152588,-2.42684,0.0559862,-0.0744527,0.0538228,0.0718859,-0.0922309,0.146844,-0.125461,-0.0822652,0.0110626,0.0174332,0.0167847,0.0172806,0.017395,0.0127411,0.0226593,0.0268936,-9.97986,0.0146484,0.00297546,0.013504,0.00732422,0.0107193,-0.0094986,0.0153732,0.00671387
34,2,10.0097,0.000305176,-0.000305176,-2.42501,0.0575121,-0.0738423,0.0547383,0.0718859,-0.0922309,0.146234,-0.123935,-0.0822652,0.00640869,0.0155258,0.0152969,0.0128555,0.0193787,0.0105286,0.0148392,0.0282669,-9.97986,0.0165176,0.00320435,0.0138092,0.0094986,0.0088501,-0.00576019,0.00896454,0.00564575
34,3,10.0097,0.000610352,-0.000152588,-2.42531,0.0565965,-0.0738423,0.0547383,0.0718859,-0.0913154,0.146234,-0.124851,-0.0804342,0.00999451,0.0174332,0.0166321,0.0127411,0.0200272,0.0135803,0.0221634,0.0269318,-9.97986,0.0163269,-0.000228882,0.0138474,0.00961304,0.0157166,0.00339508,0.0134659,0.00328064
34,4,9.50185,0.0012207,-0.00213623,-2.42684,0.0553758,-0.0738423,0.0513814,0.0181749,-0.0974189,0.147455,-0.128208,-0.0834859,0.00808716,0.0230789,0.0162506,0.0124741,0.0170517,0.0110626,0.020752,0.0257111,-9.97986,0.0102997,-0.00141144,0.0130844,0.00591278,0.0148392,0.00110626,0.0149918,0.00522614
34,5,1.96797,0.000305176,-0.00427246,-2.42684,0.0559862,-0.0744527,0.0504659,-0.0221083,-0.100471,0.145929,-0.130649,-0.0834859,0.0130844,0.023613,0.0213242,0.0150681,0.0179672,0.0122833,0.0177765,0.0212479,-9.97986,0.0152588,0.00171661,0.0152588,0.00961304,0.0155258,0.00659943,0.0172424,0.00808716
34,6,-5.86955,0.000610352,-0.00488281,-2.42562,0.0572069,-0.0741475,0.054128,-0.018141,-0.0968086,0.145929,-0.130344,-0.0816549,0.0132751,0.0190353,0.018692,0.0132751,0.0183487,0.0106049,0.0230026,0.0155258,-9.97986,0.0121689,-0.00370026,0.0102234,0.00564575,0.0117111,0.0103378,0.016098,0.00343323
34,7,-9.99003,0.000305176,-0.00442505,-2.42531,0.0569017,-0.0726216,0.0562642,0.00413684,-0.0925361,0.148675,-0.128513,-0.0804342,0.0109863,0.0172806,0.0194168,0.0127029,0.0119019,0.00934601,0.0271988,0.0107574,-9.97986,0.0156784,-0.000839233,0.0117111,0.00549316,-0.00766754,0.00202179,0.0153732,0.00663757
34,8,-9.99003,0.000305176,-0.00167847,-2.42531,0.0569017,-0.0723164,0.0556539,0.0459459,-0.0891792,0.146234,-0.126072,-0.080129,0.0118256,0.021553,0.0227356,0.0107574,0.0136948,0.0112534,0.0230789,0.00770569,-9.97986,0.0123215,0.000801086,0.0155258,0.00785828,-0.0107193,-0.0104523,0.0156021,0.00366211
34,9,-9.99003,0.000305176,-0.000457764,-2.42531,0.0550706,-0.0747579,0.055959,0.0578478,-0.090705,0.145624,-0.126377,-0.0822652,0.0123215,0.0182724,0.0174332,0.0157928,0.0151062,0.0149536,0.0255203,0.0112534,-9.97986,0.0169373,0.0030899,0.0103378,0.0125122,-0.00286102,-0.0128937,0.0141525,0.00518799
35,0,-9.99003,0.000305176,-0.000152588,-2.42501,0.0562914,-0.0756734,0.0553487,0.0639513,-0.0910102,0.143792,-0.126377,-0.0831808,0.00968933,0.0140381,0.0134277,0.0125885,0.0174332,0.0107956,0.0259781,0.0163269,-9.97986,0.0170135,-0.00244141,0.011673,0.00614166,-0.0087738,-0.00740051,0.0182724,0.00328064
35,1,-9.99003,0.000915527,0.000152588,-2.42623,0.055681,-0.0747579,0.0547383,0.0776842,-0.0913154,0.145318,-0.125766,-0.0844015,0.0126266,0.00907898,0.00984192,0.0148773,0.0156403,0.0102234,0.025177,0.016861,-9.97986,0.0190735,0.00228882,0.0115204,0.00522614,-0.00743866,-0.00202179,0.0193024,0.00595093
35,2,-6.43626,-0.000305176,0.00350952,-2.42745,0.0541551,-0.0759786,0.054128,0.132921,-0.0870429,0.145624,-0.123325,-0.0834859,0.00808716,0.0132751,0.0109863,0.0111389,0.0162888,0.0102997,0.0297546,0.016098,-9.97986,0.0180817,-0.000991821,0.00907898,0.00904083,0.0185013,0.00686646,0.0191116,0.00305176
35,3,0.630083,-0.000610352,0.00411987,-2.42653,0.0553758,-0.0756734,0.0535176,0.150316,-0.088874,0.143792,-0.12241,-0.0840963,0.0126648,0.0213242,0.0187683,0.0145721,0.0179672,0.0108337,0.0269699,0.0131607,-9.97986,0.0212097,-0.0037384,0.0138092,0.00904083,0.015564,0.00995636,0.0165558,0.00495911
35,4,7.76479,0.00183105,0.0038147,-2.42806,0.0544603,-0.0765889,0.054128,0.154894,-0.0897895,0.144708,-0.121799,-0.0856222,0.00892639,0.0206757,0.0185394,0.0114441,0.015831,0.0117111,0.0245667,0.015564,-9.97986,0.0175476,-0.00717163,0.012207,0.0130463,0.018959,0.01091,0.0165558,0.00572205
35,5,10.0097,-0.00152588,0.00335693,-2.43081,0.0514085,-0.0762837,0.0498555,0.119493,-0.0968086,0.142572,-0.124851,-0.0886739,0.0140762,0.0254059,0.019989,0.0119781,0.015831,0.00888824,0.0268173,0.019722,-9.97986,0.014801,-0.00637054,0.0115967,0.00762939,0.0177383,0.00694275,0.0189209,0.0037384
35,6,10.0097,0,0.000457764,-2.4305,0.0535448,-0.0762837,0.0495503,0.0889757,-0.0986396,0.142877,-0.126072,-0.0880636,0.00957489,0.0195694,0.0120544,0.0128555,0.0133133,0.0119019,0.0237274,0.0138092,-9.97986,0.0181961,-0.00305176,0.00785828,0.00782013,0.0131989,-0.0062561,0.0189972,0.00335693
35,7,10.0097,0.000915527,0.000610352,-2.42928,0.0547655,-0.0756734,0.0513814,0.0761583,-0.095893,0.143487,-0.126377,-0.0865377,0.0113297,0.0188828,0.0236893,0.0146103,0.0131607,0.014267,0.0287628,0.0164795,-9.97986,0.0193024,-0.00419617,0.013504,0.010376,0.0210571,-0.00591278,0.0209045,0.00370026
35,8,10.0097,-0.000305176,-0.000610352,-2.42959,0.0544603,-0.075063,0.0529073,0.0734117,-0.094062,0.143792,-0.126072,-0.0859274,0.0120926,0.0188446,0.0210571,0.0130463,0.0161362,0.0126648,0.0218201,0.0146103,-9.97986,0.015564,-0.00354767,0.0105286,0.0111008,0.0199127,-0.00957489,0.0196075,0.00499725
35,9,10.0097,-0.000915527,0.000152588,-2.42714,0.0565965,-0.0753682,0.0532125,0.0728014,-0.0934516,0.144708,-0.126377,-0.0840963,0.00679016,0.0179291,0.0181198,0.0172806,0.0130463,0.0103378,0.019722,0.0139999,-9.97986,0.0135422,-0.00106812,0.0143433,0.00846863,0.0193787,-0.00377655,0.0178909,0.00370026
36,0,10.0097,-0.000305176,0.000610352,-2.42653,0.0550706,-0.0741475,0.0544332,0.072191,-0.0931465,0.145013,-0.125156,-0.0844015,0.0117874,0.0193405,0.0177002,0.0137711,0.0164413,0.010376,0.0175476,0.0167847,-9.97986,0.0185394,-0.00347137,0.0119781,0.00907898,0.0162888,0.00442505,0.0160599,0.0019455
36,1,10.0097,-0.000305176,-0.000610352,-2.42684,0.0553758,-0.0738423,0.0544332,0.0715807,-0.0925361,0.145929,-0.124851,-0.0828756,0.00778198,0.016861,0.0140381,0.0108337,0.0139999,0.00827789,0.0172424,0.0167847,-9.97986,0.0144196,-0.0019455,0.00953674,0.00785828,0.0143433,0.00686646,0.0207138,0.00328064
36,2,10.0097,0,0.000762939,-2.42531,0.0569017,-0.0738423,0.0544332,0.07036,-0.0903999,0.146234,-0.123935,-0.0810445,0.0129318,0.0226593,0.0169373,0.0120926,0.0183487,0.0100708,0.0170898,0.0141144,-9.97986,0.0115585,-0.000495911,0.0122452,0.00957489,0.0187683,0.00839233,0.0173187,0.00534058
36,3,10.0097,0.000915527,0.000457764,-2.42623,0.055681,-0.0738423,0.054128,0.0706652,-0.0919257,0.145929,-0.12302,-0.0813497,0.0102234,0.0219727,0.0213623,0.0112152,0.0188446,0.0107574,0.0149918,0.0178146,-9.97986,0.0195313,-0.000991821,0.013504,0.0114441,0.013504,0.00579834,0.018425,0.00175476
36,4,9.48171,0.000305176,-0.00167847,-2.42653,0.0550706,-0.075063,0.0519917,0.0193956,-0.0977241,0.146539,-0.127598,-0.0834859,0.00789642,0.022316,0.0202179,0.0151825,0.018959,0.0142288,0.0193024,0.0195694,-9.97986,0.016098,0.00572205,0.00915527,0.0144196,0.0130081,-0.00415802,0.0201797,0.00522614
36,5,1.94387,-0.000915527,-0.00473022,-2.42714,0.0569017,-0.0747579,0.0519917,-0.0224135,-0.100471,0.146539,-0.130039,-0.0822652,0.00659943,0.0251007,0.0219345,0.0108719,0.0196075,0.0134659,0.0185013,0.0177002,-9.97986,0.0140381,-0.00205994,0.0150299,0.00907898,0.0139236,-0.00717163,0.0185013,0.00110626
36,6,-5.8665,0.000610352,-0.00457764,-2.42653,0.0562914,-0.073232,0.0544332,-0.0196669,-0.0968086,0.146234,-0.130344,-0.0816549,0.00972748,0.0251389,0.0176239,0.01091,0.0183105,0.00720978,0.0198364,0.0174713,-9.97986,0.020256,0.00171661,0.0114059,0.00923157,0.0157928,-0.0144577,0.0180817,0.00320435
36,7,-9.99003,-0.000610352,-0.00457764,-2.42592,0.055681,-0.0744527,0.0556539,0.00383166,-0.0928413,0.146539,-0.127903,-0.0798238,0.0119019,0.0341415,0.0201035,0.0123596,0.014534,0.0106049,0.0194168,0.0161743,-9.97986,0.0160599,-0.000305176,0.00934601,0.00930786,-0.010643,-0.0122452,0.0185776,0.00812531
36,8,-9.99003,-0.000305176,-0.00183105,-2.4244,0.0562914,-0.0741475,0.0562642,0.04442,-0.0891792,0.146234,-0.126072,-0.0804342,0.0136185,0.034256,0.0243759,0.0116348,0.017662,0.010643,0.0239182,0.019455,-9.97986,0.018425,-0.00160217,0.00858307,0.0107956,-0.00812531,-0.0136948,0.017128,0.00518799
36,9,-9.99003,0.00244141,-0.000762939,-2.42501,0.0559862,-0.0738423,0.0556539,0.0596788,-0.0922309,0.145929,-0.125766,-0.0816549,0.00904083,0.0325394,0.0202179,0.0112152,0.014267,0.014534,0.0238037,0.0165558,-9.97986,0.0118637,-0.00404358,0.0144196,0.00812531,-0.00816345,-0.00679016,0.0183105,0.000801086
37,0,-9.99003,-0.000915527,-0.000610352,-2.42714,0.0565965,-0.0747579,0.054128,0.0633409,-0.0928413,0.145318,-0.126377,-0.0828756,0.0131226,0.0371933,0.0245285,0.0143814,0.0246048,0.0112534,0.0188828,0.0179672,-9.97986,0.0170517,-0.00297546,0.0118637,0.00892639,-0.0119781,-0.00591278,0.018692,0.00244141
37,1,-9.99003,0.000610352,0.000610352,-2.42623,0.0553758,-0.0753682,0.0547383,0.0789049,-0.090705,0.145318,-0.124851,-0.0837911,0.01297,0.0319672,0.0229263,0.0135803,0.0185013,0.014534,0.0234222,0.0220871,-9.97986,0.0206375,0.00301361,0.0157547,0.01297,-0.000991821,-0.0038147,0.0217438,0.00999451
37,2,-6.44938,0.000610352,0.00320435,-2.42714,0.0550706,-0.0759786,0.0544332,0.1317,-0.088874,0.142572,-0.122104,-0.0837911,0.00797272,0.0273132,0.0183487,0.0106049,0.0144958,0.00732422,0.0153732,0.0170517,-9.97986,0.00892639,-0.00358582,0.00511169,0.001297,0.0111771,-0.00453949,0.0164795,0.00125885
37,3,0.664263,-0.00183105,0.0050354,-2.42684,0.0544603,-0.0747579,0.0538228,0.150011,-0.0885688,0.144098,-0.121494,-0.0847066,0.0141907,0.0297165,0.0240326,0.0118256,0.0225449,0.0167465,0.0289917,0.0215912,-9.97986,0.0164413,0.00442505,0.0163651,0.0138474,0.0189972,0.00923157,0.0226974,0.0100327
37,4,7.76784,0.000610352,0.0038147,-2.42745,0.0535448,-0.0765889,0.0544332,0.155504,-0.0903999,0.142877,-0.121189,-0.085317,0.00717163,0.0245667,0.0190353,0.00263214,0.0167847,0.00995636,0.023613,0.0113297,-9.97986,0.0125504,-0.000991821,0.0134659,0.00846863,0.0190353,0.00793457,0.0183487,0.00209808
37,5,10.0097,0.00183105,0.00350952,-2.43111,0.0532396,-0.0765889,0.0501607,0.117967,-0.095893,0.141656,-0.124546,-0.0892843,0.0140762,0.0292969,0.0235748,0.00896454,0.020256,0.0122452,0.0224304,0.0187683,-9.97986,0.0129318,-0.000114441,0.0108337,0.00892639,0.0201416,0.0123978,0.0185394,0.00305176
37,6,10.0097,0.000915527,0.000610352,-2.4305,0.0535448,-0.0753682,0.0504659,0.0895861,-0.0974189,0.142572,-0.125766,-0.0895895,0.0112534,0.0269318,0.022049,0.0063324,0.0136948,0.0101089,0.0233078,0.0172424,-9.97986,0.00923157,-0.00164032,0.0118256,0.0056076,0.0191116,0.011673,0.0196838,0.00205994
37,7,10.0097,0.0012207,0.000152588,-2.42959,0.0538499,-0.0756734,0.0516866,0.0785997,-0.0955879,0.143792,-0.126072,-0.0874532,0.00728607,0.0200653,0.0167847,0.0107574,0.0160217,0.00679016,0.0239563,0.0193024,-9.97986,0.00911713,-0.00259399,0.0109482,0.0088501,0.0226974,0.0115585,0.0221634,0.00541687
37,8,10.0097,0.0012207,0.000152588,-2.42898,0.0547655,-0.075063,0.0519917,0.0737169,-0.0946723,0.144098,-0.126072,-0.0862325,0.00694275,0.0120544,0.0177765,0.0108337,0.0159836,0.0105667,0.0265503,0.021019,-9.97986,0.0160217,0.00183105,0.0146866,0.0069809,0.0215912,0.00453949,0.0139999,0.0056839
37,9,10.0097,0,-0.000915527,-2.42898,0.0544603,-0.0747579,0.0532125,0.0724962,-0.094062,0.145624,-0.126987,-0.0847066,0.0115204,0.0120926,0.0170898,0.0139236,0.018425,0.00923157,0.0225449,0.0170135,-9.97986,0.0154495,-0.00240326,0.0113678,0.00362396,0.0218964,7.62939e-005,0.0161743,0.00450134
38,0,10.0097,0.00213623,0.000915527,-2.42714,0.0544603,-0.0744527,0.0532125,0.07036,-0.0928413,0.145624,-0.126072,-0.0844015,0.0105286,0.0170898,0.0193024,0.0128174,0.0128174,0.0124741,0.0254822,0.0188446,-9.97986,0.0146866,-0.00205994,0.0114059,0.00282288,0.0178909,-0.00583649,0.0178146,0.00896454
38,1,10.0097,0.000610352,0.000152588,-2.42592,0.055681,-0.0747579,0.054128,0.072191,-0.0931465,0.145624,-0.126072,-0.0828756,0.0123978,0.0223541,0.0178146,0.0130081,0.0128555,0.0110245,0.02388,0.0212479,-9.97986,0.0137711,-0.00434875,0.0120544,0.000991821,0.0156784,-0.000114441,0.0152206,0.00572205
38,2,10.0097,0.000305176,0.000152588,-2.42592,0.0562914,-0.0738423,0.0547383,0.0724962,-0.0928413,0.146539,-0.123935,-0.0813497,0.00900269,0.0226593,0.0203705,0.0125885,0.0170898,0.0075531,0.0193787,0.0231934,-9.97986,0.0130081,0,0.0139999,0.00415802,0.0203323,-0.000114441,0.0162125,0.00537872
38,3,10.0097,0.000305176,-0.000152588,-2.42501,0.0559862,-0.0744527,0.0547383,0.0712755,-0.0913154,0.14776,-0.124851,-0.0810445,0.0141907,0.0254822,0.0153351,0.0124359,0.0167465,0.00694275,0.02285,0.0202179,-9.97986,0.0107574,0.000343323,0.014267,0.00621796,0.0139236,-0.00392914,0.0167465,0.00598907
38,4,9.42098,0,-0.00259399,-2.42653,0.0559862,-0.0744527,0.0526021,0.0190905,-0.0980293,0.145624,-0.128208,-0.0834859,0.0119781,0.0250244,0.0177765,0.0124741,0.0152969,0.00961304,0.0149155,0.0242233,-9.97986,0.0149918,-0.00179291,0.013237,0.00377655,0.0154495,-0.00839233,0.0169373,0.00297546
38,5,1.90084,0.00152588,-0.00396729,-2.42714,0.0559862,-0.0738423,0.0519917,-0.0227186,-0.100471,0.146844,-0.130954,-0.0831808,0.0119781,0.029068,0.0165558,0.0116348,0.0177002,0.0100708,0.0189972,0.0240707,-9.97986,0.0143814,-0.00133514,0.0123596,0.00450134,0.0197601,-0.00709534,0.0170135,0.0105667
38,6,-5.8784,-0.000305176,-0.00473022,-2.42531,0.0562914,-0.0726216,0.0538228,-0.0178358,-0.0961982,0.147149,-0.130344,-0.0822652,0.00827789,0.0273132,0.0190353,0.0123596,0.0195694,0.00862122,0.0150681,0.0180817,-9.97986,0.012207,-0.00511169,0.0125122,0.00263214,0.0160599,-0.00671387,0.0170135,0.00614166
38,7,-9.99003,-0.000305176,-0.00488281,-2.42409,0.0575121,-0.073232,0.0556539,0.00413684,-0.0922309,0.146539,-0.128208,-0.080129,0.00972748,0.0297546,0.0200272,0.00583649,0.0196075,0.017395,0.0183868,0.0234604,-9.97986,0.0121307,-0.00232697,0.0122833,0.00511169,-0.00789642,-0.00270844,0.0150299,0.00663757
38,8,-9.99003,0.00152588,-0.0012207,-2.4247,0.0565965,-0.0741475,0.055959,0.0447252,-0.0897895,0.145318,-0.125766,-0.080129,0.0130844,0.0276184,0.0197983,0.00473022,0.0157928,0.0102234,0.0134277,0.0193024,-9.97986,0.0138474,-0.00118256,0.0126648,0.00572205,-0.00946045,0.000152588,0.0159454,0.00713348
38,9,-9.99003,0.000915527,-0.000152588,-2.42684,0.0553758,-0.073232,0.054128,0.0587633,-0.0900947,0.146539,-0.125766,-0.0816549,0.0116348,0.0288391,0.0206375,0.0108337,0.0183487,0.0123978,0.0141144,0.0207138,-9.97986,0.0111389,-0.00358582,0.0139618,0.00415802,-0.00881195,0.00198364,0.0163651,0.00591278
39,0,-9.99003,-0.000305176,-0.000457764,-2.42653,0.0553758,-0.0756734,0.0556539,0.0648668,-0.0922309,0.144098,-0.125461,-0.0822652,0.00999451,0.029068,0.0260925,0.00934601,0.0191116,0.00980377,0.0180435,0.0159073,-9.97986,0.00846863,-0.00411987,0.00854492,0.00312805,-0.00892639,-0.00579834,0.0150299,0.00938416
39,1,-9.99003,0.000915527,0,-2.42562,0.0553758,-0.0744527,0.0556539,0.0792101,-0.0913154,0.145013,-0.125156,-0.0834859,0.00900269,0.0304031,0.0292587,0.0151062,0.0192261,0.0101471,0.0158691,0.0127792,-9.97986,0.0141144,0.000114441,0.0151825,0.00488281,-0.00114441,-0.0109482,0.0166702,0.00732422
39,2,-6.31846,0.00152588,0.00442505,-2.42714,0.0544603,-0.0756734,0.0547383,0.133531,-0.0882636,0.142877,-0.12241,-0.0844015,0.0111389,0.0310516,0.0256348,0.00980377,0.0139236,0.00938416,0.0182724,0.0141144,-9.97986,0.0120163,0.0012207,0.00865936,0.00370026,0.0178909,-0.0141144,0.0120163,0.00732422
39,3,0.726519,-0.000305176,0.00442505,-2.42806,0.0541551,-0.075063,0.0547383,0.150011,-0.0885688,0.144708,-0.120578,-0.0844015,0.0107574,0.0331879,0.0283432,0.0102234,0.0185013,0.00652313,0.0298691,0.0202942,-9.97986,0.0125122,-0.000801086,0.0102234,0.00621796,0.0235748,-0.0166702,0.0159073,0.00957489
39,4,7.83925,0.000915527,0.00396729,-2.42714,0.0532396,-0.0759786,0.0535176,0.154283,-0.0894843,0.144098,-0.121494,-0.085317,0.0117111,0.0324249,0.0257111,0.0117493,0.0159073,0.00705719,0.0262833,0.0128555,-9.97986,0.0145721,-0.00717163,0.0118256,0.00267029,0.0182343,-0.00709534,0.019722,0.00686646
39,5,10.0097,-0.000305176,0.00228882,-2.43203,0.0532396,-0.0765889,0.0492452,0.118578,-0.0968086,0.142572,-0.125156,-0.0886739,0.0050354,0.0334549,0.0231171,0.00846863,0.0202942,0.0107956,0.028801,0.0133896,-9.97986,0.00938416,-0.0018692,0.0148392,0.00263214,0.0200653,-0.000419617,0.014801,0.00621796
39,6,10.0097,0.000305176,0.000915527,-2.4305,0.0526292,-0.0756734,0.0513814,0.0883654,-0.0971137,0.143182,-0.126987,-0.0886739,0.0122833,0.0335693,0.0251007,0.00995636,0.0165939,0.00854492,0.0269318,0.0148392,-9.97986,0.00915527,-0.000534058,0.0118637,0.00541687,0.0209427,0.00263214,0.0132751,0.0056839
39,7,10.0097,-0.000305176,-0.000305176,-2.42867,0.0541551,-0.0762837,0.0513814,0.0779894,-0.0952827,0.142572,-0.126377,-0.0871481,0.0112915,0.0257874,0.0153732,0.0147247,0.018425,0.0114822,0.0282669,0.0152588,-9.97986,0.0138474,0.00408173,0.00801086,0.00102997,0.019722,0.00694275,0.0157928,0.00770569
39,8,10.0097,0.0012207,0.000457764,-2.42867,0.0544603,-0.075063,0.0522969,0.0724962,-0.0949775,0.144708,-0.126377,-0.085317,0.0139618,0.0126648,0.0242996,0.0121307,0.0174713,0.0120544,0.0219727,0.012207,-9.97986,0.01091,0.00118256,0.0125885,0.00358582,0.0203323,0.00732422,0.015831,0.00789642
39,9,10.0097,0.000610352,0.000152588,-2.42745,0.0532396,-0.0747579,0.0535176,0.0724962,-0.0937568,0.144708,-0.126072,-0.0850118,0.0112915,0.0119781,0.0183105,0.0125122,0.0186539,0.00812531,0.0271988,0.0190353,-9.97986,0.0112152,-0.00862122,0.0139618,0.0056839,0.0159454,0.00614166,0.0173569,0.00835419
40,0,10.0097,-0.000610352,0.000762939,-2.42745,0.055681,-0.0747579,0.0522969,0.07036,-0.0931465,0.144403,-0.125766,-0.0847066,0.0111008,0.021286,0.0124741,0.00953674,0.0197601,0.00957489,0.0295639,0.0223923,-9.97986,0.0154877,0.00137329,0.0136948,0.0025177,0.0201797,-0.00137329,0.0167847,0.00980377
40,1,10.0097,0.0012207,0.000305176,-2.42653,0.0559862,-0.0747579,0.054128,0.0697496,-0.0913154,0.145929,-0.125766,-0.0828756,0.0100708,0.016861,0.0131607,0.0106812,0.0179672,0.00556946,0.0270462,0.0221252,-9.97986,0.017128,0.00038147,0.0151825,0.00556946,0.0140381,-0.00179291,0.0165176,0.00759125
40,2,10.0097,-0.000305176,-0.000762939,-2.42531,0.0559862,-0.0741475,0.0538228,0.0712755,-0.0919257,0.146234,-0.124851,-0.0816549,0.0088501,0.0151825,0.0133896,0.00762939,0.018692,0.00835419,0.0246048,0.0137711,-9.97986,0.0112534,-0.00480652,0.00904083,-0.000343323,0.0125504,-0.0109863,0.0113678,0.00507355
40,3,10.0097,0.00213623,0,-2.42501,0.0553758,-0.0747579,0.0538228,0.07036,-0.0925361,0.147149,-0.124241,-0.0810445,0.0112915,0.0133514,0.00911713,0.0101852,0.0175858,0.0109863,0.0226212,0.0130081,-9.97986,0.0179291,-0.00289917,0.0174713,0.00644684,0.017395,-0.00637054,0.0140762,0.00873566
40,4,9.35689,0.000610352,-0.00213623,-2.42623,0.0559862,-0.0744527,0.0519917,0.0187853,-0.09925,0.146539,-0.127903,-0.0825704,0.0104141,0.0101089,0.00572205,0.0102615,0.0142288,0.00900269,0.021286,0.0105667,-9.97986,0.0146484,-0.00766754,0.015831,3.8147e-005,0.0171661,-0.0126266,0.0172806,0.0056076
40,5,1.85628,0.00274658,-0.00396729,-2.42776,0.0559862,-0.0741475,0.0510762,-0.023329,-0.101081,0.146234,-0.130954,-0.0834859,0.0115585,0.0102234,0.00720978,0.0124359,0.0151443,0.00984192,0.0234985,0.0118637,-9.97986,0.0136185,-0.00125885,0.0140381,0.00679016,0.0149155,-0.00591278,0.0123978,0.00774384
