
Devices
1200
,,BP Load cell - Voltage,String Length - Voltage,Clutch Active - Voltage,#7 iPecs - Voltage,,,,,,,,,EMG 1-8 Left - Voltage,,,,,,,,Pylon Force - Voltage,EMG 9-16 Right - Voltage,,,,,,,,
Frame,Sub Frame,BP Load Cell,String Length,From Arduino Logic,A45,A135,A225,A315,S0,S90,S180,S270,ZSum,EMG 1 Glut Max,EMG 2 Glut Med,EMG 3 Biceps Femoris Long,EMG 4 Rectus Femoris,EMG 5 Vastus Medialis,EMG 6 Tib Ant,EMG 7 Med Gas,EMG 8 Soleus,Pylon volts,EMG 9 Glut Max,EMG 10 Glut Med,EMG 11 Biceps Femoris Long,EMG 12 Rectus Femoris,EMG 13 Vastus Medialis,EMG 14 Tib Ant,EMG 15 Med Gas,EMG 16 Soleus
,,V,V,V,V,V,V,V,V,V,V,V,V,V,V,V,V,V,V,V,V,V,V,V,V,V,V,V,V,V
1,0,10.0097,-0.00183105,-0.00411987,-2.42501,0.0559862,-0.0738423,0.054128,0.0706652,-0.0916206,0.147455,-0.124851,-0.0834859,0.0102997,0.0122452,0.0188828,0.013504,0.0130081,0.0180817,0.0364304,0.0389481,-9.97986,0.00724792,0.025177,0.0111008,0.702629,-0.0761414,0.00152588,0.00965118,-0.00343323
1,1,10.0097,0,-0.0050354,-2.42531,0.0562914,-0.0753682,0.0562642,0.0718859,-0.090705,0.14776,-0.124241,-0.0834859,0.00946045,0.0214767,0.0221634,0.00873566,0.0115204,0.0123215,0.0313187,0.0305557,-9.97986,0.00556946,0.0258636,0.0157166,0.632172,-0.07164,0.000228882,0.00965118,-0.0025177
1,2,10.0097,0.00152588,-0.00717163,-2.42623,0.0575121,-0.0744527,0.0562642,0.0334337,-0.0977241,0.145624,-0.126682,-0.0859274,0.00907898,0.0547791,0.0313187,0.010376,0.0167847,0.0117493,0.0296021,0.0174713,-9.97986,0.00923157,0.0204086,0.010643,0.564079,-0.0643921,0.00324249,0.00518799,-0.00274658
1,3,4.22933,-0.000305176,-0.0106812,-2.42653,0.0553758,-0.075063,0.0526021,-0.0163099,-0.101081,0.146234,-0.130954,-0.0859274,0.0126648,0.0846863,0.0470734,-0.00537872,0.0127792,0.0125122,0.0313187,0.0104904,-9.97986,0.00984192,0.0163651,0.0177383,0.492172,-0.0641632,0.00312805,0.00675201,-0.00148773
1,4,-3.60911,-0.00213623,-0.0119019,-2.42623,0.0569017,-0.0753682,0.0529073,-0.0175306,-0.09925,0.147455,-0.13126,-0.0844015,0.0124359,0.0672913,0.050354,-0.00991821,0.0131226,0.00816345,0.0245285,0.014267,-9.97986,0.00816345,0.0165176,0.0170898,0.407982,-0.0576401,-0.00320435,0.0101471,-0.00137329
1,5,-9.99003,-0.000305176,-0.0125122,-2.42379,0.0575121,-0.073232,0.0553487,0.000779904,-0.0934516,0.145929,-0.128208,-0.0828756,0.00843048,0.0299454,0.0503922,0.00217438,0.0131989,0.00926971,0.0257111,0.01091,-9.97986,0.0136185,0.00976563,0.018692,0.314331,-0.0530243,-0.0019455,0.01194,-0.00293732
1,6,-9.99003,0.000915527,-0.010376,-2.4247,0.0575121,-0.0729268,0.055959,0.0312975,-0.0919257,0.14776,-0.128513,-0.0834859,0.0114822,0.0320053,0.052681,0.000686646,0.0175476,0.0159073,0.0253296,0.0087738,-9.97986,0.00686646,0.000495911,0.0137711,0.227509,-0.0724792,-0.00270844,0.0120544,-0.00232697
1,7,-9.99003,0.000915527,-0.00762939,-2.42562,0.0547655,-0.0744527,0.055959,0.052965,-0.0900947,0.145929,-0.125766,-0.0831808,0.0121307,0.0749969,0.0497437,0.00141144,0.0111771,0.0207138,0.0205994,0.00366211,-9.97986,0.00999451,-0.00225067,0.0144577,0.174522,-0.073204,0.000228882,0.0154495,0.0012207
1,8,-9.99003,0.000305176,-0.00457764,-2.42623,0.0550706,-0.073232,0.054128,0.0633409,-0.0913154,0.145929,-0.126987,-0.0837911,0.00938416,0.0868225,0.0347137,0.0038147,0.0138855,0.0143051,0.0170135,-0.000991821,-9.97986,0.00411987,-0.0063324,0.0157928,0.146217,-0.0645447,-0.0120544,0.0111389,-0.00286102
1,9,-9.99003,0.000915527,-0.00106812,-2.42562,0.0538499,-0.0753682,0.0544332,0.0935533,-0.0870429,0.144403,-0.124241,-0.0828756,0.0110245,0.0568771,0.0244141,-0.000648499,0.0172043,0.01194,0.0140762,0.0102234,-9.97986,0.00282288,-0.0038147,0.0121307,0.13546,-0.0370407,-0.0101089,0.017128,-0.000686646
2,0,-4.12211,-0.000305176,0.00259399,-2.42745,0.0535448,-0.0747579,0.0553487,0.138109,-0.0882636,0.145013,-0.121799,-0.0859274,0.00919342,0.0506592,0.0241852,0.00457764,0.0177765,0.0108337,0.0113297,0.0239182,-9.97986,0.0019455,-0.00331879,0.0166321,0.12207,-0.0379944,-0.00629425,0.0182343,-0.00205994
2,1,3.13069,0.00183105,0.00274658,-2.42837,0.0532396,-0.0768941,0.0538228,0.153063,-0.0885688,0.143792,-0.121189,-0.085317,0.0121307,0.064621,0.0298691,0.0107193,0.015831,0.00873566,0.0125885,0.0301743,-9.97986,0.00488281,0.00114441,0.0214005,0.105476,-0.0318909,-0.00713348,0.0181961,-0.00175476
2,2,10.0097,0.000610352,0.00244141,-2.42867,0.0492723,-0.0762837,0.0529073,0.15764,-0.0891792,0.144098,-0.121494,-0.0868429,0.0062561,0.0662994,0.0263596,0.0117874,0.0151443,0.00915527,0.00915527,0.0335693,-9.97986,0.0056076,0.00938416,0.0182724,0.0848389,-0.0255585,-0.00953674,0.0211334,-0.00141144
2,3,10.0097,-0.000305176,-0.000152588,-2.43233,0.0529344,-0.0759786,0.0492452,0.103014,-0.0980293,0.140741,-0.125766,-0.0908102,0.00843048,0.026741,0.0266266,0.0156403,0.0148773,0.0114822,0.00759125,0.0230408,-9.97986,0.00846863,0.0120163,0.0148392,0.0611115,-0.0254822,-0.00717163,0.0187683,0.000534058
2,4,10.0097,-0.000915527,-0.000610352,-2.42928,0.0538499,-0.0759786,0.0519917,0.0840929,-0.0965034,0.141961,-0.126072,-0.0892843,0.0117874,-0.0342941,0.0138092,0.0126266,0.0161362,0.0181961,0.0120163,0.0170517,-9.97986,0.0141525,0.0133514,0.0177002,0.0380325,-0.0230026,-0.00564575,0.020752,0.000572205
2,5,10.0097,-0.000610352,-0.0038147,-2.42928,0.0572069,-0.0759786,0.0504659,0.0734117,-0.0955879,0.145013,-0.126987,-0.0880636,0.0123596,-0.03582,-0.00679016,0.00663757,0.0125504,0.0189209,0.0107956,0.00930786,-9.97986,0.0197983,0.00354767,0.0163269,-0.00339508,-0.0180054,-0.00682831,0.0233078,-0.00110626
2,6,10.0097,-0.000915527,-0.00427246,-2.42776,0.0544603,-0.0747579,0.0519917,0.0737169,-0.0955879,0.144403,-0.126377,-0.0862325,0.0144196,-0.0154114,-0.021019,0.00396729,0.0193024,0.0175858,0.018692,0.0120926,-9.97986,0.0230408,0.00358582,0.0163651,-0.0458908,-0.0154114,-0.00263214,0.0251389,0.000190735
2,7,10.0097,-0.000915527,-0.00335693,-2.42623,0.0550706,-0.0759786,0.0556539,0.0718859,-0.0931465,0.145013,-0.125461,-0.0856222,0.0114441,0.00759125,-0.00995636,-0.0134659,0.0169754,0.0173569,0.0112534,0.0145721,-9.97986,0.0204468,0.00217438,0.0201035,-0.0757217,-0.0105286,0.000343323,0.0256729,0.00289917
2,8,10.0097,0.000915527,-0.00274658,-2.42714,0.0578172,-0.0747579,0.0526021,0.0700548,-0.0928413,0.146234,-0.126377,-0.0859274,0.00953674,0.0131226,0.00537872,-0.0484467,0.0150299,0.013237,0.00980377,0.00411987,-9.97986,0.0138855,0.0115967,0.0204849,-0.10479,-0.0126648,0.000610352,0.0258255,0.000152588
2,9,10.0097,0.0012207,-0.00350952,-2.42562,0.0553758,-0.0741475,0.0535176,0.0715807,-0.0937568,0.145929,-0.125156,-0.0828756,0.0161743,0.0221634,0.0214386,-0.0647736,0.0161743,0.0191116,0.00587463,0.00213623,-9.97986,0.0145721,0.0202942,0.0177765,-0.138016,-0.00728607,0.000305176,0.0279236,0.00476837
3,0,10.0097,-0.000305176,-0.00198364,-2.42562,0.0562914,-0.0738423,0.0562642,0.0715807,-0.090705,0.147149,-0.124241,-0.0828756,0.0176239,0.0226212,0.0344086,-0.0566864,0.0115204,0.0146103,0.00125885,-0.0139999,-9.97986,0.0104141,0.010376,0.0146866,-0.158386,-0.00411987,0.000228882,0.0247955,0.00404358
3,1,10.0097,0.000610352,-0.00244141,-2.42562,0.0562914,-0.0738423,0.0550435,0.0706652,-0.0925361,0.146844,-0.123935,-0.0816549,0.0111008,0.0300598,0.031929,-0.0184631,0.0135422,0.0227737,0.00488281,-0.0226593,-9.97986,0.0168228,-0.00663757,0.017128,-0.177116,-0.00278473,0.00518799,0.0269318,0.00236511
3,2,10.0097,0.000610352,-0.00366211,-2.42623,0.0565965,-0.0744527,0.0522969,0.0316027,-0.0968086,0.145013,-0.127292,-0.0844015,0.0165939,0.0392914,0.028801,0.030632,0.00705719,0.0209427,0.00492096,-0.0154114,-9.97986,0.020752,-0.0296783,0.0157928,-0.20462,-0.00167847,0.000190735,0.0255966,0.00160217
3,3,4.20796,0.0012207,-0.00610352,-2.42653,0.0562914,-0.0756734,0.0513814,-0.0153944,-0.100776,0.146539,-0.130344,-0.0844015,0.0153732,0.0381851,0.0305176,0.0527573,0.0152206,0.0325394,0.00675201,-0.00850677,-9.97986,0.0231934,-0.0183868,0.0128937,-0.230827,0.00312805,-0.0050354,0.026207,0.00377655
3,4,-3.59782,-0.000305176,-0.00671387,-2.42684,0.0553758,-0.0738423,0.0532125,-0.0175306,-0.0980293,0.146539,-0.130954,-0.0822652,0.0126266,0.00621796,0.0125504,0.0402069,0.0110626,0.0343323,0.00415802,0.001297,-9.97986,0.022583,-0.00392914,0.0147247,-0.25631,0.00617981,-0.0105286,0.0304031,0.00572205
3,5,-9.99003,0.000305176,-0.00717163,-2.4247,0.0569017,-0.0729268,0.0553487,-0.000135623,-0.0922309,0.147149,-0.128513,-0.0810445,0.00999451,-0.0183105,0.00183105,0.0215912,0.00724792,0.0381088,0.0087738,0.0145721,-9.97986,0.0236893,0.00087738,0.0139236,-0.280228,0.00473022,-0.0111389,0.0288773,0.00461578
3,6,-9.99003,0.00183105,-0.00473022,-2.42501,0.055681,-0.0744527,0.0568746,0.0331285,-0.0897895,0.146844,-0.126682,-0.0807394,0.0127411,0.00221252,-0.00244141,0.0154114,0.00900269,0.0394821,0.0144958,0.0210571,-9.97986,0.0251007,0.00114441,0.0108337,-0.302238,-0.0224304,-0.00835419,0.0312805,0.00442505
3,7,-9.99003,0.000610352,-0.00305176,-2.4247,0.0538499,-0.0744527,0.055959,0.0538805,-0.0900947,0.146844,-0.126377,-0.0819601,0.0109863,0.0143433,0.00377655,0.0175095,0.00583649,0.0390244,0.0143433,0.0246811,-9.97986,0.0248337,0.0118256,0.0130081,-0.325661,-0.0221252,-0.00595093,0.0286865,0.00591278
3,8,-9.99003,0.000915527,-0.00244141,-2.42653,0.0541551,-0.0747579,0.0547383,0.0624254,-0.0931465,0.144708,-0.125766,-0.0834859,0.0128174,0.0243759,0.00263214,0.0310516,0.00846863,0.0391388,0.0163651,0.0192642,-9.97986,0.0228882,0.0164032,0.0174332,-0.347748,-0.0196838,-0.00984192,0.0289917,0.00514984
3,9,-9.99003,0.00183105,-0.000457764,-2.42653,0.0553758,-0.075063,0.0550435,0.092943,-0.088874,0.145929,-0.123325,-0.0831808,0.0140381,0.0348663,-0.00667572,0.0345612,0.00400543,0.0403595,0.0180435,0.0180435,-9.97986,0.0247955,0.0163651,0.0116348,-0.356903,0.00339508,-0.0161362,0.0302887,0.00465393
4,0,-4.13829,0.000610352,0.00274658,-2.42745,0.0535448,-0.075063,0.0556539,0.138109,-0.0870429,0.143182,-0.122104,-0.0837911,0.0113297,0.0130844,-0.00133514,0.0263596,0.00312805,0.0438309,0.024147,0.00934601,-9.97986,0.02285,0.00583649,0.0125504,-0.36808,0.00656128,-0.0114059,0.0266647,0.00667572
4,1,3.15846,0.000305176,0.00335693,-2.42806,0.0538499,-0.0762837,0.0538228,0.154588,-0.0867378,0.143792,-0.121189,-0.0856222,0.0166321,-0.00774384,0.00396729,0.0250244,0.00511169,0.0455475,0.0204086,0.00709534,-9.97986,0.019455,-0.00610352,0.0114441,-0.380249,0.00534058,-0.00347137,0.0254822,0.00465393
4,2,10.0097,0.00183105,0.00335693,-2.42928,0.0544603,-0.0759786,0.054128,0.157945,-0.0900947,0.143487,-0.120884,-0.0856222,0.0139999,0.00606537,0.00862122,0.0221252,0.00488281,0.0430679,0.0187302,0.0127411,-9.97986,0.0207901,-0.00511169,0.0108337,-0.387917,0.00862122,-3.8147e-005,0.0270844,0.00854492
4,3,10.0097,0,0.0012207,-2.43111,0.0529344,-0.0747579,0.0495503,0.103319,-0.0971137,0.141961,-0.125461,-0.0895895,0.0111008,0.0149536,0.0215912,0.0169373,0.000572205,0.0428391,0.0130463,0.0143433,-9.97986,0.0175476,0.0019455,0.0113297,-0.39753,0.0113297,-0.00221252,0.0282288,0.00991821
4,4,10.0097,0,-0.000610352,-2.42959,0.0535448,-0.0765889,0.0510762,0.0840929,-0.0980293,0.143182,-0.126682,-0.0880636,0.0145721,0.0166702,0.032196,0.0218201,0.00286102,0.0490189,0.0104141,0.0239944,-9.97986,0.0117874,-0.00110626,0.0069809,-0.400352,0.00961304,-0.00415802,0.0261307,0.00923157
4,5,10.0097,0.000915527,-0.000305176,-2.42928,0.0541551,-0.0768941,0.0501607,0.075548,-0.0946723,0.144403,-0.126987,-0.0871481,0.0121307,0.0203705,0.0389481,0.018959,0.00247955,0.0492096,0.0153351,0.0365448,-9.97986,0.00976563,-0.00606537,0.0094223,-0.397797,0.0111771,0.00968933,0.0304794,0.00679016
4,6,10.0097,0,-0.000610352,-2.42806,0.0538499,-0.075063,0.0519917,0.0728014,-0.0949775,0.143792,-0.125461,-0.0847066,0.0106812,0.0232315,0.0342941,0.00701904,0.00156403,0.0576782,0.0207901,0.0420761,-9.97986,0.0123978,-0.00499725,0.00743866,-0.392113,0.00892639,0.0211716,0.0308609,0.01091
4,7,10.0097,0.00244141,-0.000610352,-2.42653,0.0553758,-0.0756734,0.0526021,0.0724962,-0.0931465,0.144098,-0.125766,-0.0847066,0.00965118,0.0299072,0.0261688,0.00370026,0.00221252,0.0610733,0.0159073,0.0458145,-9.97986,0.0107956,-0.00350952,0.00762939,-0.388641,0.0125504,0.0278091,0.0356293,0.00881195
4,8,10.0097,-0.000915527,0.000457764,-2.42684,0.055681,-0.0747579,0.0590108,0.0700548,-0.0934516,0.143182,-0.125156,-0.0840963,0.00743866,0.0335693,0.0270844,-0.00442505,0.00808716,0.0603104,0.0162125,0.052948,-9.97986,0.00995636,-0.00385284,0.00782013,-0.388145,0.0104904,0.0206375,0.0291824,0.00938416
4,9,10.0097,0.00152588,0.000762939,-2.42714,0.0544603,-0.0747579,0.054128,0.0715807,-0.0916206,0.145624,-0.124851,-0.0834859,0.0162888,0.032196,0.0271606,-0.0285339,0.00171661,0.0663376,0.0156403,0.0431824,-9.97986,0.00507355,-0.00209808,0.00705719,-0.386467,0.0125504,0.0197983,0.0347519,0.00999451
5,0,10.0097,0.00244141,-0.000457764,-2.42562,0.0562914,-0.0735371,0.0547383,0.0715807,-0.0925361,0.145624,-0.125461,-0.0810445,0.0063324,0.0294495,0.0322342,-0.0422287,0.00671387,0.0648499,0.0136948,0.0368118,-9.97986,0.00511169,-0.0139236,0.00747681,-0.390739,0.00648499,0.0104141,0.033989,0.0144196
5,1,10.0097,-0.00152588,-0.000305176,-2.4244,0.055681,-0.073232,0.0544332,0.0700548,-0.0913154,0.146539,-0.12363,-0.0804342,0.00534058,0.0248718,0.0376892,-0.0396347,0.0133896,0.0683975,0.0143814,0.041275,-9.97986,-0.00473022,-0.0105286,0.0050354,-0.395813,0.0131607,0.00740051,0.0305176,0.0136566
5,2,10.0097,0.0012207,-0.00167847,-2.42653,0.0553758,-0.0747579,0.0532125,0.030382,-0.0983344,0.145624,-0.127903,-0.0840963,0.00759125,0.0272369,0.0444794,-0.025444,0.0113297,0.0662231,0.018158,0.0406265,-9.97986,-0.00534058,-0.0044632,0.00782013,-0.40062,0.0142288,0.00247955,0.0294495,0.0139618
5,3,4.30562,0.000915527,-0.00427246,-2.42623,0.0578172,-0.0741475,0.0510762,-0.0169203,-0.0998603,0.147149,-0.130649,-0.0831808,0.000114441,0.0160599,0.0416183,-0.00938416,0.0139236,0.0678253,0.0222015,0.0466537,-9.97986,-0.00701904,0.00457764,0.00808716,-0.402946,0.0143814,0.00610352,0.0271606,0.0114822
5,4,-3.64421,-0.000610352,-0.0050354,-2.42592,0.0569017,-0.073232,0.0522969,-0.0160048,-0.0977241,0.146234,-0.130649,-0.0819601,0.00522614,0.0301743,0.0305939,-0.00938416,0.0101471,0.0676346,0.0184631,0.0431824,-9.97986,-0.00823975,-0.00476837,0.00564575,-0.397644,0.0160217,0.00553131,0.0321579,0.00915527
5,5,-9.99003,0,-0.00396729,-2.42409,0.0562914,-0.0744527,0.0544332,0.00108508,-0.0903999,0.147455,-0.128513,-0.0804342,0.00301361,0.0432205,0.0277328,-0.0156021,0.0141907,0.0673676,0.0174713,0.0428009,-9.97986,-0.00587463,-0.00377655,0.00762939,-0.389519,0.017128,0.0018692,0.0276184,0.0141907
5,6,-9.99003,-0.000305176,-0.00244141,-2.42501,0.0569017,-0.0741475,0.0562642,0.0306871,-0.0891792,0.145624,-0.126987,-0.0804342,0.0114441,0.022583,0.0257111,-0.016098,0.0138092,0.0651932,0.0255966,0.0276184,-9.97986,-0.00694275,0.00984192,0.00423431,-0.390015,-0.0050354,-0.000190735,0.0307846,0.0134277
5,7,-9.99003,0.000305176,-0.000152588,-2.4247,0.0559862,-0.0756734,0.0565694,0.0551012,-0.0903999,0.145013,-0.126072,-0.0819601,0.0166702,0.00904083,0.0296402,-0.0359344,0.0139618,0.0667572,0.0191116,0.00999451,-9.97986,0.0025177,0.00766754,0.00797272,-0.381966,-0.00289917,0.00164032,0.0300598,0.0136566
5,8,-9.99003,0,0.000610352,-2.42714,0.055681,-0.0747579,0.0544332,0.0630358,-0.0919257,0.145013,-0.125766,-0.0828756,0.0188065,-0.00087738,0.0371933,-0.017395,0.0104523,0.0582504,0.0204468,-0.00148773,-9.97986,-0.00148773,-3.8147e-005,0.00629425,-0.375137,-0.0043869,-0.00408173,0.0287628,0.013237
5,9,-9.99003,0.000305176,0.00228882,-2.42623,0.0541551,-0.0738423,0.0547383,0.094774,-0.088874,0.145318,-0.123935,-0.0825704,0.0269699,0.00141144,0.0481415,0.03479,0.0191116,0.0594711,0.0213623,-0.0139618,-9.97986,0.00511169,0.000724792,0.00720978,-0.363922,0.0232315,-0.00411987,0.0307846,0.0153351
6,0,-4.00737,0.0012207,0.00610352,-2.42653,0.0535448,-0.0753682,0.0556539,0.136888,-0.0879585,0.146234,-0.121799,-0.0822652,0.0190735,0.04673,0.0536728,0.0658798,0.0162506,0.0634766,0.0272369,-0.0190735,-9.97986,0.00701904,0.000343323,0.00728607,-0.342636,0.0232315,-0.0037384,0.0251389,0.011673
6,1,3.32051,-0.0012207,0.00579834,-2.42776,0.055681,-0.0753682,0.054128,0.154283,-0.0879585,0.144708,-0.121494,-0.0834859,0.0120926,0.0588226,0.0478363,0.060463,0.0141144,0.0568771,0.0229645,-0.0345993,-9.97986,0.015564,-0.00892639,0.00366211,-0.328941,0.0230408,-0.000343323,0.0291443,0.0127792
6,2,10.0097,-0.00183105,0.00549316,-2.42837,0.0535448,-0.0756734,0.0532125,0.158861,-0.0897895,0.144098,-0.120884,-0.0847066,0.0118256,0.0582504,0.040741,0.0527573,0.0161362,0.04776,0.0202179,-0.0473022,-9.97986,0.0252151,-0.0056076,0.0062561,-0.319138,0.0265503,0.00232697,0.0284576,0.0128555
6,3,10.0097,0.000915527,0.00320435,-2.4302,0.0544603,-0.0768941,0.0504659,0.102709,-0.0971137,0.141351,-0.126072,-0.0889791,0.00923157,0.0620651,0.0372314,0.08255,0.0179672,0.0496292,0.0190353,-0.0287628,-9.97986,0.0305176,-0.0146866,0.00938416,-0.30426,0.0286102,0.00244141,0.0240707,0.0139999
6,4,10.0097,0.000610352,0.00152588,-2.4302,0.0541551,-0.0765889,0.050771,0.0834825,-0.0974189,0.144403,-0.126072,-0.0880636,0.00988007,0.0495529,0.020256,0.0825119,0.0163269,0.0429535,0.018959,-0.0119781,-9.97986,0.0341415,-0.0204468,0.00904083,-0.295029,0.0337982,-0.00297546,0.0274658,0.0110626
6,5,10.0097,0,0.000915527,-2.42959,0.0538499,-0.0768941,0.0522969,0.0767687,-0.0974189,0.144098,-0.126682,-0.0862325,0.010376,0.0476074,0.00980377,0.0640106,0.0177002,0.0383377,0.0191498,-0.00301361,-9.97986,0.0363922,-0.0135422,0.010643,-0.288353,0.0369263,-0.000495911,0.0259018,0.0157928
6,6,10.0097,0,0.000915527,-2.42867,0.0538499,-0.0756734,0.0516866,0.0728014,-0.094062,0.142572,-0.127292,-0.0859274,0.0140762,0.0372314,-0.00190735,0.0579453,0.0221252,0.038147,0.0261688,0.0140762,-9.97986,0.0364685,-0.00732422,0.00354767,-0.276756,0.0398254,0.00156403,0.02491,0.0172043
6,7,10.0097,0.000305176,0.000610352,-2.42714,0.0547655,-0.0744527,0.0553487,0.0715807,-0.0928413,0.143487,-0.125156,-0.0850118,0.0114441,0.00774384,-0.0151443,0.0566483,0.0180435,0.0317764,0.0270081,0.0160599,-9.97986,0.0326157,0.00549316,0.0094223,-0.267334,0.0368881,-0.00282288,0.0261688,0.0121307
6,8,10.0097,0.000305176,0.000762939,-2.42684,0.0559862,-0.0747579,0.0547383,0.072191,-0.0937568,0.143792,-0.126072,-0.0847066,0.00953674,-0.00854492,-0.0147629,0.0569916,0.0227356,0.0238419,0.0254822,0.0150299,-9.97986,0.030899,0.0150681,0.00854492,-0.26123,0.0354385,0.00217438,0.0250626,0.013504
6,9,10.0097,-0.000305176,0.000762939,-2.42653,0.055681,-0.073232,0.0532125,0.0706652,-0.0928413,0.145318,-0.124851,-0.0834859,0.00984192,-0.0082016,-0.00511169,0.0498199,0.0192642,0.0190735,0.0270081,0.0211334,-9.97986,0.0290298,0.0137711,0.00648499,-0.254822,0.0415802,0.000801086,0.0266266,0.0150681
7,0,10.0097,0.000305176,0.000457764,-2.42501,0.0562914,-0.0741475,0.0556539,0.07036,-0.0925361,0.149591,-0.125766,-0.0816549,0.00911713,0.000495911,0.0126648,0.0433731,0.0241089,0.0130844,0.0287247,0.0254822,-9.97986,0.026741,0.0143051,0.0105667,-0.252609,0.0383759,-0.0031662,0.022049,0.0163269
7,1,10.0097,0.000915527,0.000457764,-2.42348,0.0572069,-0.0729268,0.0556539,0.0715807,-0.0900947,0.147455,-0.123935,-0.0810445,0.00686646,0.0458527,0.0174332,0.0418854,0.0208664,0.00659943,0.0310516,0.0279617,-9.97986,0.0250244,0.011673,0.0138474,-0.242805,0.0438309,-0.00171661,0.0183105,0.0138855
7,2,10.0097,-0.000305176,-0.0012207,-2.42714,0.0553758,-0.073232,0.0532125,0.0325182,-0.0980293,0.146234,-0.127903,-0.0844015,0.0037384,0.080719,0.0236893,0.0414276,0.0195694,0.00244141,0.0294876,0.0239182,-9.97986,0.0241089,0.00671387,0.0153351,-0.238762,0.0466919,-0.00587463,0.0232315,0.0139999
7,3,4.2574,-0.00244141,-0.00366211,-2.42592,0.0565965,-0.0735371,0.050771,-0.0156996,-0.0995551,0.143792,-0.130954,-0.0831808,0.00720978,0.0427246,0.0205612,0.0210571,0.0223541,-0.00663757,0.0266647,0.0241852,-9.97986,0.0246429,0.0063324,0.00854492,-0.237312,0.0511169,-0.00740051,0.0204086,0.0177383
7,4,-3.5908,0.000915527,-0.00411987,-2.42653,0.0572069,-0.073232,0.0532125,-0.0175306,-0.0986396,0.146539,-0.129429,-0.0819601,0.010643,0.0164032,0.0163269,0.00675201,0.0226593,-0.00629425,0.0286102,0.027504,-9.97986,0.0198746,-0.000686646,0.0069809,-0.238953,0.0518036,-0.0138474,0.0178528,0.0146866
7,5,-9.99003,0.000305176,-0.00427246,-2.4244,0.0553758,-0.0723164,0.0571797,0.00108508,-0.0931465,0.147455,-0.128513,-0.0792135,0.0137329,0.01194,0.0123596,-0.000495911,0.0257111,-0.00999451,0.0292969,0.0167084,-9.97986,0.022316,-0.00759125,0.00564575,-0.233459,0.0497055,-0.0178528,0.0167084,0.0145721
7,6,-9.99003,0.000305176,-0.00198364,-2.42318,0.0578172,-0.0744527,0.0553487,0.0300768,-0.0910102,0.145624,-0.127598,-0.0798238,0.0094223,0.011673,0.0128174,0.00244141,0.0179672,-0.0121689,0.0276566,0.0114441,-9.97986,0.0151062,-0.0124359,0.00919342,-0.226974,0.0200653,-0.0284958,0.0122833,0.0179291
7,7,-9.99003,0,-0.000915527,-2.42623,0.0550706,-0.0738423,0.0562642,0.0541857,-0.0900947,0.145318,-0.126682,-0.0816549,0.0139999,0.0229263,0.00797272,0.00324249,0.0242996,-0.0152206,0.0239944,0.0246811,-9.97986,0.0114822,-0.0107193,0.0117874,-0.212021,0.0228882,-0.0313568,0.0147247,0.0144196
7,8,-9.99003,0.00244141,0.000305176,-2.42562,0.0559862,-0.0793355,0.054128,0.0627306,-0.0913154,0.145929,-0.125461,-0.0819601,0.0111008,0.00816345,0.00205994,0.00743866,0.0228119,-0.0165939,0.0264359,0.0354767,-9.97986,0.0149155,0.00587463,0.00850677,-0.213661,0.0218582,-0.0294113,0.0161362,0.0164413
7,9,-9.99003,0.000610352,0.00198364,-2.4244,0.0547655,-0.0744527,0.0550435,0.0932482,-0.088874,0.144708,-0.123935,-0.0828756,0.0118256,0.00267029,-0.00225067,0.0025177,0.0178909,-0.0196457,0.0231171,0.0437927,-9.97986,0.0157928,0.0270462,0.0107956,-0.204086,0.0472641,-0.0291443,0.0136566,0.0166702
8,0,-3.97624,0.00213623,0.00457764,-2.42806,0.0535448,-0.0765889,0.0532125,0.139025,-0.0870429,0.144403,-0.123325,-0.0850118,0.0127411,0.00167847,-0.00915527,-0.000267029,0.0204849,-0.0237274,0.0259781,0.0413513,-9.97986,0.0160599,0.0383759,0.0112534,-0.188904,0.0514603,-0.0257111,0.00961304,0.0178909
8,1,3.37117,0.00152588,0.0050354,-2.42867,0.0529344,-0.0771993,0.054128,0.154894,-0.088874,0.143792,-0.120273,-0.0837911,0.0109863,0.00671387,-0.0069046,-0.00423431,0.0183105,-0.0211334,0.0229645,0.0416565,-9.97986,0.0164413,0.043602,0.0113297,-0.182991,0.0526047,-0.0229263,0.0111771,0.0175858
8,2,10.0097,0.000915527,0.00473022,-2.42806,0.0538499,-0.0747579,0.0526021,0.158251,-0.0885688,0.143487,-0.121189,-0.0850118,0.0137329,-0.000991821,0.0025177,-0.00938416,0.0206757,-0.0213242,0.0248718,0.0436401,-9.97986,0.0165939,0.0398636,0.0156784,-0.173607,0.052681,-0.0127029,0.0109863,0.0169373
8,3,10.0097,-0.000305176,0.00183105,-2.4305,0.0529344,-0.0756734,0.04894,0.101793,-0.0971137,0.141961,-0.125766,-0.0889791,0.0141907,0.00263214,0.00724792,-0.00293732,0.0239944,-0.0252151,0.0213623,0.0390244,-9.97986,0.0109482,0.0179672,0.00846863,-0.170631,0.053978,-0.00637054,0.00991821,0.0154877
8,4,10.0097,0.000610352,0.00137329,-2.42928,0.0535448,-0.0771993,0.0510762,0.082567,-0.0971137,0.142877,-0.127292,-0.0883688,0.0141525,0.00488281,0.00785828,0.00293732,0.021286,-0.0211716,0.0173569,0.0304794,-9.97986,0.0106812,-0.00411987,0.00946045,-0.163383,0.0498962,-0.0025177,0.00789642,0.0178146
8,5,10.0097,0.000610352,0.00106812,-2.43081,0.0538499,-0.0747579,0.0516866,0.0776842,-0.095893,0.143792,-0.125461,-0.0859274,0.013504,0.0281525,0.0177765,0.0157547,0.0160217,-0.0208282,0.0165558,0.0166702,-9.97986,0.00919342,-0.0340271,0.00576019,-0.144882,0.0505066,-0.00579834,0.00831604,0.017662
8,6,10.0097,0.00152588,0.00152588,-2.42806,0.0541551,-0.0765889,0.0522969,0.0712755,-0.0937568,0.145318,-0.125461,-0.085317,0.0139236,0.0434494,0.024147,0.0415802,0.0172043,-0.0255585,0.0134277,-0.000991821,-9.97986,0.00549316,-0.0553894,0.00827789,-0.135231,0.0501251,-0.0187302,0.0107574,0.0157928
8,7,10.0097,0.00183105,0.00137329,-2.42623,0.0547655,-0.0747579,0.0532125,0.0706652,-0.0934516,0.143487,-0.125156,-0.0850118,0.016861,0.0417328,0.0220108,0.0511551,0.0188446,-0.0243378,0.00732422,-0.00621796,-9.97986,0.0127792,-0.058136,0.0109482,-0.133514,0.0500107,-0.0164032,0.00812531,0.0175476
8,8,10.0097,0.00183105,0.000915527,-2.42745,0.0553758,-0.0747579,0.0529073,0.072191,-0.0928413,0.146234,-0.127903,-0.0844015,0.0127029,0.0304413,0.0263977,0.0111008,0.0246048,-0.0273132,0.0113678,-0.00400543,-9.97986,0.0120544,-0.0469208,0.00488281,-0.118141,0.055275,-0.00404358,0.00576019,0.0178909
8,9,10.0097,0.00152588,0.000762939,-2.42592,0.0559862,-0.0744527,0.0547383,0.0712755,-0.0931465,0.145318,-0.125156,-0.0822652,0.0104523,0.0271225,0.0171661,-0.0174713,0.0188446,-0.0284195,0.0104904,0.000190735,-9.97986,0.0113297,-0.0291824,0.0124741,-0.11322,0.0536346,0.0037384,0.00576019,0.0173569
9,0,10.0097,0,0.000457764,-2.42501,0.0565965,-0.0744527,0.0550435,0.0712755,-0.0916206,0.146234,-0.125156,-0.0798238,0.00980377,0.0214005,0.0105286,-0.0244522,0.0192642,-0.0247192,0.0122452,0.00259399,-9.97986,0.00999451,-0.00225067,0.00728607,-0.104828,0.0525665,0.00896454,0.00179291,0.0159836
9,1,10.0097,-0.0012207,0.00167847,-2.42653,0.0575121,-0.0741475,0.0553487,0.072191,-0.0919257,0.146234,-0.124546,-0.0807394,0.0103378,0.0273132,0.0162125,-0.0235748,0.0192642,-0.0242233,0.0123978,-0.000953674,-9.97986,0.0124741,0.0218201,0.0130463,-0.096283,0.0507736,0.0087738,0.00541687,0.0138474
9,2,10.0097,0.0012207,-0.000610352,-2.42776,0.0553758,-0.0741475,0.0522969,0.0334337,-0.0965034,0.147149,-0.127903,-0.0825704,0.00892639,0.0350189,0.0287247,-0.00205994,0.0234985,-0.0222015,0.0158691,-0.00404358,-9.97986,0.00713348,0.0279236,0.0094223,-0.0822449,0.0520706,0.0127792,0.00156403,0.0144196
9,3,4.38314,0.000305176,-0.00305176,-2.42806,0.0565965,-0.0717061,0.0513814,-0.0160048,-0.101691,0.146539,-0.130649,-0.0822652,0.00602722,0.0374603,0.0337219,0.00606537,0.0151443,-0.026474,0.0178528,0.00427246,-9.97986,0.00564575,0.0231552,0.00854492,-0.0717545,0.0523758,0.0215149,0.000152588,0.0154877
9,4,-3.53801,-0.000610352,-0.00350952,-2.42623,0.0575121,-0.0738423,0.0532125,-0.0172255,-0.095893,0.147149,-0.130649,-0.0816549,0.0094986,0.0383377,0.0331879,-0.00240326,0.0218201,-0.0239944,0.0191498,0.0180054,-9.97986,0.011673,0.0238037,0.00770569,-0.0589752,0.0526047,0.0174332,0.00282288,0.0139236
9,5,-9.99003,0.0012207,-0.00396729,-2.42745,0.0569017,-0.0738423,0.0562642,0.00108508,-0.0925361,0.146539,-0.129123,-0.0804342,0.0102234,0.0379562,0.0282669,-0.00431061,0.0164795,-0.0220871,0.0202942,0.0251389,-9.97986,0.00732422,0.0117874,0.00797272,-0.0494385,0.053215,0.00736237,0.00102997,0.0163269
9,6,-9.99003,0.00183105,-0.00167847,-2.42653,0.0559862,-0.0741475,0.055959,0.0294664,-0.0913154,0.145624,-0.126987,-0.0795187,0.00595093,0.0311661,0.0162506,0.00221252,0.0144958,-0.0261307,0.0205994,0.0267792,-9.97986,0.0107574,-0.00522614,0.0100708,-0.0349045,0.0305557,-0.00358582,0,0.0139236
9,7,-9.99003,-0.00152588,0.000305176,-2.42592,0.0547655,-0.0747579,0.0556539,0.0532701,-0.0903999,0.145624,-0.126072,-0.0816549,0.0111389,0.0338364,0.0107574,0.019722,0.0161743,-0.023613,0.0236893,0.030632,-9.97986,0.00659943,-0.0118256,0.00984192,-0.022583,0.0327301,-0.00915527,-0.00110626,0.0145721
9,8,-9.99003,0.000915527,0.00137329,-2.42684,0.0550706,-0.0747579,0.054128,0.0630358,-0.0900947,0.145929,-0.125766,-0.0828756,0.0122452,0.0341797,0.0104904,0.0148773,0.014267,-0.0251007,0.0236511,0.0254059,-9.97986,0.00724792,-0.00988007,0.00328064,-0.019455,0.0327682,-0.0163269,0.0019455,0.0131226
9,9,-9.99003,0.00152588,0.00274658,-2.42684,0.0547655,-0.0753682,0.055959,0.0959947,-0.0882636,0.145624,-0.12363,-0.0816549,0.00740051,0.038681,0.0142288,-0.0242615,0.0144196,-0.0310516,0.0284576,0.0305557,-9.97986,0.00759125,-0.0114441,0.00888824,-0.00423431,0.0580215,-0.0228882,0.00038147,0.0124359
10,0,-3.77086,0.0012207,0.00518799,-2.42714,0.0535448,-0.0747579,0.0556539,0.138109,-0.0873481,0.144708,-0.122104,-0.0844015,0.0127792,0.0353622,0.0133514,-0.0518036,0.0140762,-0.0296783,0.0234985,0.0230789,-9.97986,0.00968933,-0.00640869,0.00789642,-0.00240326,0.0615311,-0.0322342,-0.001297,0.0118637
10,1,3.52193,0.000915527,0.00549316,-2.42867,0.0535448,-0.0753682,0.054128,0.152147,-0.088874,0.144403,-0.122104,-0.0850118,0.0119781,0.0313568,0.0125122,-0.0608063,0.00904083,-0.0267029,0.0252151,0.0297546,-9.97986,0.0123596,0.00499725,0.00995636,0.00743866,0.0634766,-0.0285721,-0.00102997,0.010643
10,2,10.0097,0.000610352,0.00457764,-2.42745,0.0538499,-0.0765889,0.054128,0.160082,-0.0894843,0.144403,-0.120884,-0.0862325,0.01194,0.0272751,0.0133133,-0.0743866,0.010376,-0.0318909,0.0245667,0.0222015,-9.97986,0.00759125,0.00751495,0.00671387,0.0113678,0.0593948,-0.0251007,-0.00160217,0.0117874
10,3,10.0097,0.000915527,0.00213623,-2.43172,0.0535448,-0.0768941,0.0498555,0.101793,-0.0968086,0.142877,-0.125461,-0.0886739,0.0114441,0.0254059,0.0199127,-0.0754166,0.00766754,-0.032692,0.0249863,0.0193787,-9.97986,0.0087738,0.010643,0.00740051,0.0164413,0.059967,-0.0247574,0.000152588,0.00740051
10,4,10.0097,0.000305176,0.00106812,-2.43203,0.0541551,-0.0762837,0.0510762,0.0822618,-0.0974189,0.142572,-0.125461,-0.0874532,0.0111008,0.0262451,0.0107574,-0.0708771,0.00892639,-0.0340652,0.0232697,0.014534,-9.97986,0.0037384,0.0139236,0.00793457,0.0207901,0.0642014,-0.0218201,0.000457764,0.00965118
10,5,10.0097,-0.000915527,0.000457764,-2.42867,0.0535448,-0.0759786,0.050771,0.0779894,-0.0961982,0.143792,-0.125156,-0.0865377,0.0107574,0.0146103,0.0174713,-0.0837708,0.0114822,-0.0353622,0.0231552,0.0193024,-9.97986,0.00637054,0.0161362,0.00732422,0.0261688,0.0614548,-0.0218582,-0.000305176,0.00686646
10,6,10.0097,0,0.00106812,-2.42867,0.0547655,-0.0747579,0.054128,0.0731066,-0.0952827,0.145929,-0.127292,-0.085317,0.00904083,0.0327301,0.0288391,-0.10025,0.00492096,-0.0293732,0.02491,0.0186539,-9.97986,0.00457764,0.0123978,0.00957489,0.0304031,0.0628281,-0.00782013,0.00389099,0.00823975
10,7,10.0097,0,0.000610352,-2.42684,0.0553758,-0.0747579,0.0538228,0.0700548,-0.0937568,0.144708,-0.125766,-0.0844015,0.00995636,0.0408936,0.0291061,-0.0318146,0.00907898,-0.0330734,0.0256729,0.0288773,-9.97986,0.00648499,0.0194168,0.00911713,0.03479,0.0649261,-0.00778198,0.00221252,0.0108719
10,8,10.0097,0.00152588,0.00152588,-2.42776,0.0553758,-0.0747579,0.0519917,0.0706652,-0.0937568,0.144403,-0.126987,-0.0850118,0.0112534,0.0402451,0.0376892,0.066452,0.00255585,-0.0295639,0.0162125,0.0239563,-9.97986,0.00511169,0.014534,0.00862122,0.044136,0.063591,-0.0170517,0.00469208,0.0117874
10,9,10.0097,0.00183105,0.000762939,-2.42501,0.0559862,-0.0735371,0.0544332,0.0709703,-0.0937568,0.145624,-0.124851,-0.0831808,0.0114822,0.0337601,0.0553513,0.148087,0.00701904,-0.0282669,0.0197983,0.0383377,-9.97986,0.0126266,0.00724792,0.0101852,0.0531006,0.0606537,-0.0218201,0.00274658,0.0104141
11,0,10.0097,0.000610352,0.0012207,-2.42562,0.055681,-0.073232,0.0544332,0.0700548,-0.0919257,0.146539,-0.124241,-0.0813497,0.0121307,0.0257492,0.0728226,0.186768,0.00408173,-0.0273895,0.0183868,0.042038,-9.97986,0.0156021,0.0148392,0.00862122,0.0584412,0.0648499,-0.0244522,-0.000114441,0.0094223
11,1,10.0097,0.00213623,0.00106812,-2.42562,0.0575121,-0.0735371,0.0553487,0.0688341,-0.0913154,0.14837,-0.124241,-0.0810445,0.0114441,0.0224304,0.0837326,0.151749,0.00656128,-0.0257874,0.0154114,0.0514603,-9.97986,0.00904083,0.0125504,0.00793457,0.0590897,0.0645065,-0.0133133,-0.000343323,0.00637054
11,2,10.0097,0.000915527,-0.000915527,-2.42776,0.0547655,-0.0744527,0.0532125,0.032213,-0.0968086,0.145624,-0.127903,-0.0850118,0.0106049,0.0288773,0.0907516,0.123062,0.00598907,-0.0278854,0.0156403,0.0550842,-9.97986,0.010376,0.00934601,0.00816345,0.0632477,0.0632095,3.8147e-005,0.00267029,0.00976563
11,3,4.2043,0.000915527,-0.00350952,-2.42837,0.0559862,-0.0738423,0.0516866,-0.0163099,-0.0998603,0.145624,-0.130954,-0.0837911,0.00915527,0.0354767,0.100784,0.11219,0.0063324,-0.0272369,0.0217056,0.0579071,-9.97986,0.00976563,0.00865936,0.010643,0.0662231,0.0634384,0.00579834,0.00102997,0.0082016
11,4,-3.69151,0.000305176,-0.00411987,-2.42592,0.0553758,-0.0744527,0.0526021,-0.0175306,-0.0968086,0.147149,-0.130954,-0.0819601,0.0104904,0.0463486,0.108185,0.0878525,0.00232697,-0.0233841,0.022583,0.0640869,-9.97986,0.0137711,0.0119019,0.00549316,0.0727844,0.067749,0.0130463,0.00202179,0.0075531
11,5,-9.99003,-0.000305176,-0.00488281,-2.4247,0.0559862,-0.0738423,0.0550435,0.000779904,-0.0922309,0.145624,-0.128513,-0.080129,0.00595093,0.041275,0.098877,0.0364304,0.00892639,-0.0216675,0.0211334,0.0700378,-9.97986,0.0136948,0.00152588,0.00728607,0.0733566,0.0632858,0.0290298,0.00167847,0.00762939
11,6,-9.99003,-0.0012207,-0.00259399,-2.42348,0.055681,-0.0741475,0.0562642,0.0337389,-0.0903999,0.146234,-0.127598,-0.0819601,0.00522614,0.0365829,0.0785828,0.00743866,0.00389099,-0.026741,0.0258636,0.0551224,-9.97986,0.012207,-0.00465393,0.0114822,0.0773621,0.0424194,0.0342178,0.00274658,0.00617981
11,7,-9.99003,-0.000610352,-0.000457764,-2.42409,0.0569017,-0.0744527,0.0565694,0.054796,-0.090705,0.146234,-0.126987,-0.0810445,0.0094223,0.031929,0.0578308,0.0177383,0.00576019,-0.0247955,0.0277328,0.0413895,-9.97986,0.0104904,-0.0069809,0.00957489,0.0821304,0.0401688,0.0308609,0.00343323,0.0104523
11,8,-9.99003,-0.000915527,0.000762939,-2.42653,0.0547655,-0.0747579,0.0535176,0.0627306,-0.0916206,0.144708,-0.125461,-0.0813497,0.00839233,0.0411606,0.0355911,0.0225067,0.00335693,-0.0249481,0.0249863,0.0366974,-9.97986,0.0112915,-0.00598907,0.0114822,0.0819397,0.0379562,0.0188828,0.00549316,0.00904083
11,9,-9.99003,0.000915527,0.00167847,-2.42745,0.0562914,-0.0744527,0.0553487,0.0956896,-0.0885688,0.144708,-0.124241,-0.0828756,0.00961304,0.0318909,0.0189972,0.0354767,0.00640869,-0.0250626,0.0276184,0.03582,-9.97986,0.0135422,-0.00682831,0.00938416,0.0794601,0.0635147,0.00904083,0.00473022,0.00804901
12,0,-4.05528,-0.000610352,0.00411987,-2.42653,0.0541551,-0.0759786,0.0556539,0.138414,-0.0879585,0.143792,-0.122715,-0.0831808,0.00865936,0.00827789,0.00606537,0.0384521,0.0111008,-0.0230789,0.0307083,0.0239182,-9.97986,0.0146484,-0.00492096,0.0117111,0.0831604,0.0614929,0.00087738,0.0056839,0.00751495
12,1,3.25398,-0.000610352,0.00442505,-2.42959,0.0541551,-0.0762837,0.0522969,0.155504,-0.0885688,0.144403,-0.121494,-0.0859274,0.0106812,-0.00549316,0.0012207,0.0313568,0.00923157,-0.0192261,0.0264359,-0.00152588,-9.97986,0.0196838,-0.0125504,0.0153732,0.0844574,0.0572205,-0.00484467,0.00648499,0.00778198
12,2,10.0097,0.000915527,0.00442505,-2.42776,0.0535448,-0.0759786,0.0535176,0.156725,-0.0900947,0.143487,-0.121494,-0.085317,0.0115204,-0.00427246,-0.0234222,0.0336838,0.00785828,-0.0234222,0.0282669,-0.00961304,-9.97986,0.0214005,-0.00431061,0.0139999,0.0836563,0.0606918,-0.00907898,0.00362396,0.0088501
12,3,10.0097,-0.00152588,0.00213623,-2.43081,0.0544603,-0.0765889,0.0510762,0.102709,-0.0961982,0.141656,-0.126072,-0.0889791,0.0111771,3.8147e-005,-0.042572,0.0320435,0.0121689,-0.0185776,0.0287247,-0.00938416,-9.97986,0.0184631,-0.00442505,0.0120163,0.0876617,0.0585556,-0.00675201,0.00801086,0.00526428
12,4,10.0097,0.00183105,0.000762939,-2.4305,0.0523241,-0.0756734,0.0519917,0.0840929,-0.0977241,0.142267,-0.127292,-0.0883688,0.0130463,-0.0115204,-0.0418854,0.0323486,0.0122452,-0.0203705,0.0281906,-0.0169754,-9.97986,0.0185013,-0.00183105,0.0147629,0.0851059,0.0596619,-0.00530243,0.00652313,0.0082016
12,5,10.0097,0.00274658,0.000152588,-2.42714,0.0532396,-0.0756734,0.0526021,0.0746324,-0.095893,0.143792,-0.127292,-0.0865377,0.0151825,-0.00175476,-0.0214386,0.028801,0.0173569,-0.0134277,0.0288773,-0.0203705,-9.97986,0.0172806,-0.00770569,0.0144958,0.089798,0.0555801,-0.0069809,0.00881195,0.00759125
12,6,10.0097,0.00366211,0.000305176,-2.42867,0.0550706,-0.0759786,0.0522969,0.0728014,-0.0946723,0.145929,-0.126987,-0.085317,0.00473022,0.0534058,0.0075531,0.00823975,0.0144577,-0.0127792,0.0305939,-0.013504,-9.97986,0.0108719,-0.0110626,0.0104904,0.0899506,0.0530624,-0.00408173,0.00659943,0.00766754
12,7,10.0097,0.000305176,0.00106812,-2.42623,0.0544603,-0.0753682,0.0535176,0.0718859,-0.0931465,0.144403,-0.126377,-0.085317,0.0122452,0.0667191,0.0279999,-0.0101089,0.0172043,-0.0123596,0.0272369,-0.0137711,-9.97986,0.0173569,-0.0128174,0.0113297,0.0971603,0.0550842,0.0169754,0.0069046,0.00686646
12,8,10.0097,0.000915527,0.0012207,-2.42623,0.0559862,-0.075063,0.054128,0.0706652,-0.0928413,0.144708,-0.126072,-0.0834859,0.00759125,0.0326538,0.0206757,-0.016098,0.0172043,-0.0115585,0.0242233,-0.01297,-9.97986,0.0136185,-0.0167465,0.0149536,0.101967,0.0517654,0.0283432,0.00846863,0.00431061
12,9,10.0097,0.000610352,0.000915527,-2.42531,0.0562914,-0.0756734,0.0547383,0.0712755,-0.0919257,0.146844,-0.126377,-0.0819601,0.00938416,0.0515747,0.0167084,-0.00659943,0.0210571,-0.0112152,0.0296402,-0.0087738,-9.97986,0.0113297,-0.0185013,0.0137711,0.108452,0.0547409,0.036087,0.00865936,0.00576019
13,0,10.0097,0.0012207,0.000762939,-2.42531,0.0553758,-0.0753682,0.0544332,0.0709703,-0.0922309,0.146539,-0.124851,-0.0819601,0.00915527,0.0590897,0.00106812,-0.0123596,0.0242996,-0.00751495,0.0270844,0.00240326,-9.97986,0.021286,-0.0188828,0.0173187,0.117836,0.0550842,0.0487137,0.0123596,0.013237
13,1,10.0097,0,0,-2.4247,0.0559862,-0.0723164,0.0544332,0.0715807,-0.090705,0.147455,-0.124546,-0.0822652,0.00617981,0.0527573,-0.0120926,-0.0296402,0.0209808,-0.0144196,0.0287628,7.62939e-005,-9.97986,0.0177765,-0.0255966,0.0119781,0.11364,0.0466156,0.0329971,0.000457764,0.000267029
13,2,10.0097,0.0012207,-0.000915527,-2.42714,0.0559862,-0.0747579,0.0522969,0.0328234,-0.0983344,0.146539,-0.127292,-0.0825704,0.0112915,0.0501251,0.00183105,-0.022049,0.0291443,-0.00850677,0.0343323,0.00267029,-9.97986,0.021019,-0.0268173,0.016098,0.126381,0.0524139,0.0273895,0.0113297,0.00911713
13,3,4.32485,-0.000610352,-0.00396729,-2.42653,0.0562914,-0.0753682,0.0513814,-0.0169203,-0.0998603,0.145013,-0.130649,-0.0840963,0.00602722,0.0208282,-0.0168991,-0.0182724,0.0210953,-0.0103378,0.0292587,-0.00923157,-9.97986,0.0190735,-0.0253296,0.0109863,0.124626,0.0463867,0.0152969,0.00724792,0.00751495
13,4,-3.6143,0.0012207,-0.00442505,-2.42531,0.0572069,-0.0729268,0.0532125,-0.0190565,-0.0980293,0.145318,-0.130039,-0.0822652,0.00923157,0.0160599,-0.0193787,-0.00999451,0.0261688,-0.0102234,0.0345993,0.00164032,-9.97986,0.0234222,-0.0197601,0.0166321,0.122566,0.0448608,0.00087738,0.00682831,0.00583649
13,5,-9.99003,0.000610352,-0.00442505,-2.42501,0.055681,-0.073232,0.0556539,0.000779904,-0.0928413,0.147455,-0.128208,-0.0804342,0.00965118,0.021553,-0.0283051,-0.0200653,0.0259781,-0.0101471,0.0291443,0.00320435,-9.97986,0.0219727,-0.00846863,0.0149536,0.122757,0.043335,-0.00549316,0.00785828,0.00583649
13,6,-9.99003,0.000305176,-0.00244141,-2.42501,0.0572069,-0.0738423,0.0562642,0.0312975,-0.0910102,0.145929,-0.127903,-0.080129,0.00488281,0.0228882,-0.0357437,-0.0286484,0.0278091,-0.0108719,0.0291443,0.0169754,-9.97986,0.0244141,-0.00400543,0.0190353,0.126991,0.0198364,-0.00926971,0.0122452,0.00663757
13,7,-9.99003,0.0012207,-0.000610352,-2.42623,0.0569017,-0.0756734,0.0547383,0.0535753,-0.0910102,0.145929,-0.125766,-0.0822652,0.00911713,-0.00762939,-0.0364304,-0.0107574,0.0286102,-0.00946045,0.0289154,0.0260544,-9.97986,0.0253677,-0.0087738,0.0171661,0.127907,0.017128,-0.0154877,0.0107956,0.00480652
13,8,-9.99003,0.00213623,0,-2.42653,0.0550706,-0.0747579,0.0535176,0.0627306,-0.0910102,0.144098,-0.125156,-0.0834859,0.0111389,-0.0336075,-0.0364304,0.0300598,0.0294495,-0.00934601,0.0281525,0.0315475,-9.97986,0.0178909,-0.00297546,0.0136948,0.123177,0.0156784,-0.0117493,0.0136948,0.0110626
13,9,-9.99003,0.000915527,0.00106812,-2.42562,0.0541551,-0.0753682,0.0547383,0.0950792,-0.0879585,0.144708,-0.124546,-0.0822652,0.0104904,-0.0301743,-0.0317001,0.0401306,0.0309753,-0.00823975,0.0385666,0.0367355,-9.97986,0.0202942,-0.00297546,0.0164032,0.122757,0.0416183,-0.012207,0.013237,0.00640869
14,0,-4.02873,-0.000610352,0.00427246,-2.42684,0.0535448,-0.075063,0.0535176,0.138109,-0.0873481,0.144403,-0.121799,-0.0840963,0.0118637,-0.0384903,-0.0315094,0.0304794,0.0348663,-0.00934601,0.0335312,0.0337219,-9.97986,0.0244904,0.0069046,0.0179291,0.120354,0.038414,-0.0136185,0.0136185,0.00518799
14,1,3.26833,0.000610352,0.00427246,-2.42776,0.0544603,-0.0759786,0.054128,0.154588,-0.0876533,0.143487,-0.121189,-0.0847066,0.0108337,-0.0559616,-0.0206375,0.0259018,0.0386047,-0.00736237,0.031929,0.0259781,-9.97986,0.0275421,0.0119019,0.0190353,0.115166,0.0437927,-0.0153732,0.0127029,0.010643
14,2,10.0097,0.000305176,0.00366211,-2.42898,0.0547655,-0.0756734,0.0544332,0.156725,-0.088874,0.145624,-0.119663,-0.0844015,0.0114059,-0.0497437,-0.00766754,0.0212479,0.0393677,-0.00514984,0.0367737,0.0191879,-9.97986,0.0250244,0.0157166,0.019722,0.110016,0.0418091,-0.00865936,0.01297,0.00457764
14,3,10.0097,-0.000610352,0.00183105,-2.43081,0.0532396,-0.0768941,0.050771,0.101488,-0.0986396,0.142267,-0.126377,-0.0892843,0.0133133,-0.026741,0.000572205,0.0111008,0.0437546,-0.000801086,0.0334549,0.0147629,-9.97986,0.0205994,0.019722,0.0194168,0.105171,0.0405502,0.000801086,0.0107574,0.00812531
14,4,10.0097,0.0012207,-0.000457764,-2.4302,0.0538499,-0.0768941,0.0504659,0.082567,-0.0974189,0.143487,-0.126377,-0.0886739,0.0147247,-0.022316,-0.00331879,-0.0025177,0.0430679,-0.00328064,0.031395,0.0140381,-9.97986,0.0166702,0.00934601,0.0197983,0.09758,0.0406265,0.00175476,0.0116348,0.0102997
14,5,10.0097,0.000610352,-0.000915527,-2.42867,0.0544603,-0.0756734,0.0522969,0.0758531,-0.094062,0.144098,-0.126682,-0.0874532,0.00785828,-0.00801086,0.00202179,-0.00720978,0.0458145,0.000534058,0.0313568,0.0141144,-9.97986,0.0164413,-0.00747681,0.0224304,0.0889206,0.0388336,0.00305176,0.0160599,0.00751495
14,6,10.0097,-0.000915527,-0.000610352,-2.42867,0.0538499,-0.0744527,0.0519917,0.0728014,-0.0931465,0.144403,-0.125461,-0.0859274,0.0157547,0.00701904,0.0115585,-0.0106812,0.0444794,0.00144958,0.0331497,0.0214767,-9.97986,0.0172424,-0.0118637,0.0199509,0.0832748,0.0429153,0.00354767,0.0133133,0.0101089
14,7,10.0097,0.000915527,-0.000152588,-2.42806,0.0559862,-0.0756734,0.0535176,0.0700548,-0.0931465,0.145318,-0.126072,-0.0850118,0.0117874,0.00228882,0.0157166,-0.0122833,0.0499725,0.00846863,0.0302124,0.0231171,-9.97986,0.0117111,-0.0173187,0.020752,0.0821304,0.0382233,0.000572205,0.0143433,0.00999451
14,8,10.0097,-0.000610352,-0.000152588,-2.42776,0.0572069,-0.075063,0.0535176,0.07036,-0.094062,0.145624,-0.126987,-0.0847066,0.0112915,-7.62939e-005,0.0204849,-0.0118256,0.0491333,0.00980377,0.0314331,0.0233078,-9.97986,0.0137329,-0.018692,0.0190353,0.0720978,0.0395584,-0.00411987,0.0151062,0.010376
14,9,10.0097,-0.000915527,-0.000457764,-2.42592,0.0565965,-0.0741475,0.0544332,0.0712755,-0.0925361,0.145318,-0.124241,-0.0831808,0.0126648,0.0101089,0.018158,-0.0266647,0.0475311,0.0109863,0.0296021,0.0222397,-9.97986,0.00968933,-0.017128,0.0159073,0.0727081,0.0430298,-0.0196838,0.0157166,0.0115967
15,0,10.0097,0.000915527,-0.000305176,-2.42592,0.0553758,-0.0738423,0.0532125,0.0718859,-0.0919257,0.146539,-0.124546,-0.0810445,0.0124359,0.0144196,0.00164032,-0.0254822,0.051384,0.00999451,0.0279999,0.0265503,-9.97986,0.0135803,-0.017662,0.0221634,0.0698471,0.0354767,-0.0201797,0.0182343,0.00839233
15,1,10.0097,-0.00152588,-0.000457764,-2.4247,0.0562914,-0.0747579,0.054128,0.0715807,-0.0922309,0.145929,-0.12302,-0.0804342,0.0101852,0.0116348,-0.00610352,-0.0185394,0.0396347,0.012207,0.0306702,0.0192261,-9.97986,0.00953674,-0.0251007,0.0193024,0.0617218,0.0336456,-0.0208664,0.0141525,0.00904083
15,2,10.0097,0,-0.00198364,-2.42653,0.0553758,-0.0744527,0.0519917,0.0325182,-0.0986396,0.146539,-0.128513,-0.0828756,0.00286102,0.0138092,-0.00915527,-0.0228119,0.0422668,0.0168991,0.0302505,0.027771,-9.97986,0.0140762,-0.0232697,0.0213242,0.0697708,0.0301361,-0.0125504,0.0165176,0.012207
15,3,4.33217,0.00427246,-0.00396729,-2.42806,0.055681,-0.0741475,0.0526021,-0.0178358,-0.100165,0.14898,-0.130344,-0.0834859,0.00915527,0.0296021,0.0030899,-0.0331879,0.0343323,0.0146103,0.0277328,0.0416946,-9.97986,0.0140762,-0.0162888,0.018959,0.0650406,0.0282669,-0.00671387,0.0159454,0.0087738
15,4,-3.6378,0.00183105,-0.00457764,-2.42562,0.0565965,-0.0726216,0.0522969,-0.0172255,-0.0974189,0.147149,-0.131565,-0.0822652,0.00911713,0.026474,0.0334549,-0.0234985,0.0327682,0.019989,0.0296402,0.0522232,-9.97986,0.0104523,-0.0131989,0.0174332,0.0675964,0.0275421,-0.000190735,0.0175476,0.00549316
15,5,-9.99003,0.00274658,-0.0050354,-2.4244,0.055681,-0.0729268,0.055959,0.00108508,-0.094062,0.146844,-0.130039,-0.0804342,0.00919342,0.0301361,0.0534821,-0.0257492,0.0291824,0.031662,0.0311279,0.0593948,-9.97986,0.0108719,-0.00274658,0.0197983,0.0646591,0.0302887,0.00293732,0.0175858,0.0105667
15,6,-9.99003,0.000915527,-0.00244141,-2.42348,0.0562914,-0.0747579,0.055959,0.0328234,-0.0903999,0.147455,-0.127292,-0.0804342,0.0102234,0.0375366,0.0581741,-0.0290298,0.0229645,0.0242233,0.0269318,0.0497437,-9.97986,0.0138855,-0.00240326,0.0218964,0.0682068,0.00659943,0.00583649,0.0167465,0.00686646
15,7,-9.99003,0.000610352,-0.0012207,-2.42562,0.0544603,-0.0735371,0.0562642,0.0535753,-0.0916206,0.145929,-0.127903,-0.0822652,0.0094986,0.0463867,0.068512,0.000305176,0.0241089,0.0286865,0.0258636,0.0510025,-9.97986,0.00865936,-0.0126648,0.0203323,0.0718689,0.00209808,0.0124359,0.0148392,0.00751495
15,8,-9.99003,0.000915527,0.000610352,-2.42592,0.0544603,-0.0753682,0.0547383,0.0621202,-0.0916206,0.145929,-0.124546,-0.0831808,0.0134277,0.074234,0.0854111,0.0123978,0.0151062,0.0297546,0.0283432,0.0622177,-9.97986,0.0069809,-0.0110245,0.0217819,0.0736618,0.000991821,0.00537872,0.0164032,0.00957489
15,9,-9.99003,-0.000305176,0.00152588,-2.42623,0.0553758,-0.0747579,0.0519917,0.0941637,-0.088874,0.145013,-0.124546,-0.0831808,0.0105667,0.0566483,0.0927353,0.00450134,0.00946045,0.0352859,0.0278091,0.0632477,-9.97986,0.00751495,-0.0069046,0.0247574,0.0690079,0.0284958,-0.00522614,0.0162506,0.0069046
16,0,-4.03972,0,0.00335693,-2.42714,0.0538499,-0.0765889,0.0550435,0.137804,-0.088874,0.144403,-0.122715,-0.0850118,0.0132751,0.0281143,0.0974274,0.0044632,0.00190735,0.0352859,0.032692,0.0560379,-9.97986,0.00579834,-0.00415802,0.0188828,0.0704956,0.026474,-0.0108337,0.0138855,0.00770569
16,1,3.26985,0.000610352,0.00427246,-2.42684,0.0535448,-0.0762837,0.0547383,0.153978,-0.0870429,0.145013,-0.121189,-0.0859274,0.0109482,0.0899887,0.10952,0.0369644,-0.00362396,0.0332642,0.0368118,0.0298691,-9.97986,0.00419617,0.0075531,0.0189972,0.0648499,0.0227356,0.00202179,0.017662,0.0107574
16,2,10.0097,0,0.00366211,-2.42745,0.0535448,-0.0768941,0.0529073,0.157335,-0.0897895,0.145013,-0.119358,-0.0850118,0.0141907,0.135956,0.101547,0.0585175,-0.0102234,0.0394821,0.031662,0.0050354,-9.97986,0.0100708,0.00514984,0.021019,0.0555038,0.017128,0.00743866,0.0167465,0.00854492
16,3,10.0097,-0.0012207,0.000915527,-2.43111,0.0541551,-0.0762837,0.0501607,0.103319,-0.0983344,0.141961,-0.126072,-0.0889791,0.00980377,0.107574,0.0812531,0.0385284,-0.00675201,0.0361633,0.0341415,-0.0131607,-9.97986,0.0112915,0.000686646,0.0197601,0.0482559,0.0165939,0.000152588,0.0161743,0.0094223
16,4,10.0097,0,0.000152588,-2.42928,0.0529344,-0.0768941,0.0513814,0.0840929,-0.0943672,0.140741,-0.126377,-0.0883688,0.0125504,0.0561142,0.0678253,-0.00175476,-0.0103378,0.0365448,0.034256,-0.0233841,-9.97986,0.0154114,-0.0063324,0.0196838,0.0468445,0.0167847,-0.00682831,0.0179672,0.00854492
16,5,10.0097,0.0012207,-0.000305176,-2.42837,0.0538499,-0.0759786,0.0544332,0.0764635,-0.095893,0.142267,-0.126987,-0.0865377,0.014801,0.0146484,0.0444412,-0.00274658,-0.0160599,0.0389862,0.034523,-0.0294876,-9.97986,0.0201035,-0.015831,0.0222778,0.0458527,0.013504,-0.00717163,0.020256,0.00789642
16,6,10.0097,-0.00305176,0.000152588,-2.42837,0.0547655,-0.075063,0.0529073,0.0731066,-0.0943672,0.143487,-0.126377,-0.0862325,0.0131607,-0.000991821,0.0117111,0.0450134,-0.010376,0.0368118,0.0320435,-0.0273895,-9.97986,0.0214386,-0.00537872,0.0205994,0.0452423,0.0156021,-0.0100708,0.018692,0.00839233
16,7,10.0097,0.000305176,0,-2.42623,0.0559862,-0.0756734,0.0529073,0.0718859,-0.0949775,0.145013,-0.126377,-0.0844015,0.0128937,-0.0219345,-0.0107193,0.0460434,-0.0146866,0.0377274,0.0326538,-0.0190353,-9.97986,0.0327301,-0.00907898,0.0185013,0.0401688,0.00961304,-0.0155258,0.0169373,0.00816345
16,8,10.0097,0.000610352,-0.000152588,-2.42745,0.0541551,-0.0747579,0.0532125,0.0715807,-0.0949775,0.145929,-0.126377,-0.0834859,0.0094223,-0.025444,-0.00717163,0.0141907,-0.0154114,0.0370026,0.031929,-0.00682831,-9.97986,0.0310135,-0.0115204,0.0204468,0.0374222,0.0123215,-0.0242615,0.0203705,0.0069809
16,9,10.0097,0.000610352,0.000152588,-2.42684,0.0553758,-0.0747579,0.0526021,0.0715807,-0.0925361,0.145013,-0.125766,-0.0834859,0.00827789,-0.0297546,-0.00991821,0.0116348,-0.0177765,0.0331116,0.0317764,-0.00495911,-9.97986,0.0304031,-0.0153351,0.0232315,0.0357819,0.0130463,-0.0213242,0.0208282,0.00572205
17,0,10.0097,-0.000305176,0.000152588,-2.42379,0.0569017,-0.073232,0.055959,0.0712755,-0.0922309,0.146234,-0.124851,-0.0816549,0.0088501,-0.0259018,-0.0119019,0.0416183,-0.0167465,0.0367355,0.033226,0.00209808,-9.97986,0.0323105,-0.0106049,0.0252914,0.0281525,0.00953674,-0.0107193,0.0197601,0.00587463
17,1,10.0097,-0.000610352,0.000152588,-2.42501,0.0569017,-0.0741475,0.0544332,0.0709703,-0.0913154,0.14776,-0.125156,-0.0810445,0.00938416,0.0141144,-0.00484467,0.060997,-0.0125504,0.0334167,0.0354385,-0.00499725,-9.97986,0.0299835,-0.00236511,0.0217438,0.0265503,0.00839233,-0.00225067,0.0177383,0.0050354
17,2,10.0097,0.00152588,-0.00137329,-2.42592,0.055681,-0.0747579,0.0529073,0.0334337,-0.0974189,0.144708,-0.127292,-0.0822652,0.00911713,0.0246429,0.000152588,0.0675201,-0.0134277,0.0320816,0.0341415,-0.00511169,-9.97986,0.0276947,-0.00583649,0.026741,0.0271606,0.0110626,0.00247955,0.022049,0.00675201
17,3,4.35231,0.00152588,-0.00427246,-2.42776,0.0572069,-0.0741475,0.0519917,-0.0163099,-0.100776,0.145318,-0.130039,-0.0831808,0.00751495,0.0298691,0.00118256,0.0457764,-0.00984192,0.0327682,0.0360489,0.00400543,-9.97986,0.02285,-0.00831604,0.0192261,0.0244141,0.00770569,0.00396729,0.0216675,0.00846863
17,4,-3.51542,0.000305176,-0.00473022,-2.42592,0.0572069,-0.073232,0.0535176,-0.0193617,-0.0971137,0.146234,-0.13126,-0.0819601,0.00717163,0.0352097,-0.000267029,0.00419617,-0.0117111,0.0307083,0.0340652,0.00740051,-9.97986,0.0217819,-0.0082016,0.0199127,0.0250244,0.0123215,0.0117111,0.0242615,0.00709534
17,5,-9.99003,0,-0.00488281,-2.4247,0.0565965,-0.0741475,0.055959,0.00169543,-0.0931465,0.14776,-0.129429,-0.0810445,0.00659943,0.0322723,-0.00263214,0.000457764,-0.0131989,0.030365,0.031395,0.00331879,-9.97986,0.0239563,-0.0154495,0.0195694,0.0190353,0.00778198,0.00984192,0.0196457,0.0069046
17,6,-9.99003,0.0012207,-0.00289917,-2.4244,0.0559862,-0.075063,0.0556539,0.0312975,-0.0913154,0.145929,-0.127903,-0.0807394,0.00354767,0.0447845,-0.0107193,0.0108719,-0.0108337,0.0329971,0.0329208,0.00728607,-9.97986,0.0218964,-0.0315094,0.0183105,0.0138474,-0.0152206,0.0105286,0.0252151,0.0069809
17,7,-9.99003,0.000610352,-0.00137329,-2.4247,0.055681,-0.0735371,0.0550435,0.0526598,-0.0897895,0.145624,-0.126682,-0.0819601,0.00812531,0.0438309,-0.00869751,0.0166702,-0.00736237,0.032196,0.0331497,0.00720978,-9.97986,0.024147,-0.0362778,0.0195313,0.0075531,-0.0131607,0.00701904,0.0221634,0.00919342
17,8,-9.99003,0.000305176,-0.000915527,-2.42653,0.0550706,-0.0756734,0.0544332,0.0618151,-0.0919257,0.143792,-0.126072,-0.0834859,0.0088501,0.0247574,-0.0162888,0.0254059,-0.00732422,0.030098,0.0356674,-0.00240326,-9.97986,0.0217438,-0.0321198,0.019989,0.00259399,-0.019455,0.00389099,0.0210571,0.00488281
17,9,-9.99003,-0.000915527,0.00106812,-2.42592,0.0529344,-0.0744527,0.0568746,0.0956896,-0.0894843,0.145929,-0.124851,-0.0831808,0.0123215,0.0212097,-0.0380325,0.0248337,-0.0088501,0.0311661,0.0381851,0.00190735,-9.97986,0.018692,-0.0219727,0.0143814,-0.00190735,0.00751495,-0.00591278,0.0253296,0.00846863
18,0,-3.68236,-0.00152588,0.00350952,-2.42806,0.0535448,-0.075063,0.0550435,0.138414,-0.083686,0.143792,-0.12241,-0.0847066,0.0118637,0.0250626,-0.0528336,0.029068,-0.00793457,0.0312424,0.0344849,0.00480652,-9.97986,0.0241852,-0.00896454,0.0166702,-0.00408173,0.00602722,-0.0205612,0.0214386,0.00621796
18,1,3.62264,-0.000610352,0.00411987,-2.42867,0.0547655,-0.0756734,0.0544332,0.154283,-0.0879585,0.143792,-0.121189,-0.0850118,0.0123978,0.0151062,-0.0362396,0.0302887,-0.00980377,0.0332642,0.028038,0.00644684,-9.97986,0.0210953,0.0186539,0.0154495,-0.0136185,0.001297,-0.0270462,0.0219727,0.00545502
18,2,10.0097,0.0012207,0.00335693,-2.42806,0.0541551,-0.0756734,0.0532125,0.155809,-0.0900947,0.145318,-0.121494,-0.0862325,0.0119019,0.0178909,-0.019722,0.030899,-0.00843048,0.0346375,0.0338745,0.0231934,-9.97986,0.0205612,0.038681,0.0165558,-0.0181961,0.00392914,-0.0230408,0.0207138,0.00465393
18,3,10.0097,0.000915527,0.000915527,-2.43142,0.0538499,-0.0771993,0.0501607,0.101488,-0.09925,0.143182,-0.125766,-0.0880636,0.012207,0.0186539,-0.0162125,0.0318146,-0.0102997,0.0322723,0.031662,0.0308228,-9.97986,0.0105667,0.0551605,0.0122452,-0.0185776,0.00751495,-0.0144196,0.0231171,0.00682831
18,4,10.0097,0.00183105,-0.000152588,-2.43111,0.0544603,-0.0756734,0.050771,0.0810411,-0.0968086,0.142572,-0.127903,-0.0883688,0.0088501,0.00812531,-0.0180054,0.0253296,-0.00404358,0.0309753,0.0318909,0.0284195,-9.97986,0.014534,0.0613022,0.0163269,-0.0153732,0.00671387,-0.00431061,0.0231934,0.00564575
18,5,10.0097,-0.000610352,-0.000305176,-2.42898,0.0532396,-0.0747579,0.0516866,0.0758531,-0.0952827,0.144403,-0.126377,-0.0871481,0.00522614,0.00873566,-0.0216675,0.017662,-0.00495911,0.033493,0.0310135,0.0179291,-9.97986,0.0178528,0.0403976,0.0166702,-0.0146866,-0.00087738,-0.000534058,0.0194931,0.00442505
18,6,10.0097,-0.000610352,0.000305176,-2.42837,0.0544603,-0.0759786,0.0532125,0.0728014,-0.0925361,0.144403,-0.126072,-0.0856222,0.0116348,0.001297,-0.0243759,0.0111008,-0.00526428,0.0325012,0.0294495,0.0104523,-9.97986,0.0234985,0.0159454,0.01297,-0.0207901,0.00679016,0.00427246,0.021019,0.00701904
18,7,10.0097,0.00213623,-0.000305176,-2.42745,0.0547655,-0.0747579,0.0529073,0.07036,-0.0946723,0.145318,-0.126072,-0.0862325,0.0137329,-0.00385284,-0.0239944,-0.00686646,-0.00240326,0.0321579,0.0299835,0.0162506,-9.97986,0.0217056,0.00263214,0.0121689,-0.0218201,0.0043869,0.0111771,0.021286,0.00492096
18,8,10.0097,0.00183105,0.000305176,-2.42653,0.0547655,-0.0747579,0.0535176,0.0724962,-0.0922309,0.146234,-0.125766,-0.0834859,0.00770569,0.00785828,-0.0144577,-0.0196838,-0.00156403,0.0317383,0.0302505,0.0325394,-9.97986,0.02285,0.00118256,0.0125504,-0.0231552,0.0056839,0.00549316,0.0190735,0.00328064
18,9,10.0097,0.00244141,0.000915527,-2.42623,0.0559862,-0.075063,0.054128,0.0706652,-0.0919257,0.145624,-0.125766,-0.0831808,0.00736237,0.00621796,-0.00656128,-0.0328064,-0.000228882,0.027771,0.0339508,0.0405884,-9.97986,0.0196075,0.0037384,0.0101852,-0.0205231,0.0062561,0.001297,0.019989,0.00495911
19,0,10.0097,0.0012207,0.000915527,-2.4244,0.0569017,-0.0744527,0.0532125,0.0712755,-0.0922309,0.145624,-0.12363,-0.0816549,0.00988007,0.00530243,0.0129318,-0.0400162,0.00114441,0.0324249,0.0302887,0.0486755,-9.97986,0.0126266,0.0122452,0.00892639,-0.018425,0.00675201,-0.00751495,0.0179291,0.00411987
19,1,10.0097,0.000915527,0.000915527,-2.42745,0.0550706,-0.0738423,0.0532125,0.0715807,-0.0922309,0.146234,-0.123935,-0.0807394,0.00717163,0.00556946,0.0210953,-0.0424194,-0.00267029,0.0294113,0.0267029,0.083046,-9.97986,0.00907898,0.0185394,0.00953674,-0.0147629,0.00656128,-0.0108719,0.0214767,0.0025177
19,2,10.0097,0.000305176,0.000305176,-2.42684,0.0550706,-0.0741475,0.0532125,0.0297716,-0.095893,0.145318,-0.127903,-0.0837911,0.0056076,0.0201797,0.0289536,-0.0578308,0.00686646,0.0234604,0.0321198,0.0977325,-9.97986,0.00534058,0.0200272,0.0140762,-0.0107574,0.00846863,-0.0130081,0.0205231,0.00354767
19,3,4.14052,0.00152588,-0.00442505,-2.42714,0.0569017,-0.0744527,0.0519917,-0.0175306,-0.100776,0.145318,-0.129734,-0.0834859,0.00797272,0.0548553,0.0400925,-0.0583649,0.000953674,0.0255203,0.0291824,0.0775909,-9.97986,0.0037384,0.0174713,0.0114441,-0.00865936,0.00770569,-0.00869751,0.0177002,0.00434875
19,4,-3.81114,0,-0.0050354,-2.42684,0.0623949,-0.075063,0.0532125,-0.0184462,-0.0968086,0.146539,-0.130344,-0.0813497,0.0123215,0.0666046,0.0485611,-0.055809,0.00598907,0.0206375,0.0275421,0.0702286,-9.97986,0.00556946,0.0152969,0.0122833,-0.00984192,0.00751495,-0.0185394,0.0207138,0.00286102
19,5,-9.99003,-0.0189209,-0.00442505,-2.4244,0.0572069,-0.0723164,0.0553487,0.000474729,-0.0910102,0.135248,-0.127598,-0.0807394,0.0128937,0.0511169,0.0473404,-0.0498581,0.00377655,0.0213242,0.0258636,0.0698853,-9.97986,0.00431061,0.00598907,0.0107193,-0.00682831,0.00762939,-0.0250244,0.017662,0.00144958
19,6,-9.99003,-0.000610352,-0.00244141,-2.4244,0.0565965,-0.0744527,0.0556539,0.0331285,-0.0910102,0.141351,-0.126987,-0.0807394,0.0100327,0.0361633,0.0456619,-0.00579834,0.00579834,0.0211334,0.026207,0.0758362,-9.97986,0.00450134,-0.00686646,0.0110245,-0.00419617,-0.0196838,-0.0244141,0.0165176,0.00282288
19,7,-9.99003,-0.000610352,-0.000305176,-2.42592,0.0541551,-0.0753682,0.0568746,0.0538805,-0.0891792,0.141656,-0.126072,-0.0813497,0.0114822,0.0160599,0.0454712,0.0817108,0.00915527,0.0234985,0.0287247,0.0725174,-9.97986,0.0102234,-0.00320435,0.00907898,-0.00385284,-0.0188828,-0.017662,0.0183487,0.00347137
19,8,-9.99003,-0.000610352,0.000305176,-2.42592,0.0553758,-0.075063,0.0538228,0.0636461,-0.090705,0.144098,-0.125461,-0.0828756,0.0114822,0.0247192,0.0513458,0.118217,0.0115967,0.0236893,0.0251007,0.0380707,-9.97986,0.00621796,-0.000724792,0.0111771,-0.0018692,-0.020256,-0.0104904,0.0176239,0.00156403
19,9,-9.99003,-0.000610352,0.00183105,-2.42531,0.0550706,-0.0744527,0.0556539,0.0935533,-0.0882636,0.146539,-0.122715,-0.0825704,0.00701904,0.0476456,0.0528336,0.0815582,0.00843048,0.022583,0.0273514,0.0288773,-9.97986,0.00652313,0.00175476,0.00659943,-0.00156403,0.00946045,-0.00514984,0.0203705,0.000724792
20,0,-4.34367,0,0.00457764,-2.42653,0.0547655,-0.0753682,0.0556539,0.136888,-0.0870429,0.144708,-0.12241,-0.0840963,0.0107956,0.062294,0.0601578,0.0532913,0.010643,0.0242615,0.0235748,0.0130081,-9.97986,0.00225067,0.00476837,0.0141144,-0.000419617,0.00965118,0.00213623,0.0188828,-0.000305176
20,1,2.96254,-0.000915527,0.00473022,-2.42714,0.0544603,-0.0759786,0.0550435,0.154283,-0.088874,0.144403,-0.120884,-0.0844015,0.00934601,0.0642776,0.0783157,0.0376511,0.014801,0.0233841,0.0224686,-0.0121689,-9.97986,0.00232697,0.00408173,0.0114059,0.00995636,0.0115585,0.00141144,0.0161743,-0.000343323
20,2,10.0097,0,0.00427246,-2.42867,0.0544603,-0.0756734,0.0529073,0.154894,-0.0894843,0.143792,-0.120884,-0.0859274,0.0111389,0.0625229,0.0879288,0.0293732,0.010643,0.0233078,0.02491,-0.0149536,-9.97986,0.00205994,0.00289917,0.0105667,0.00732422,0.00366211,0.00110626,0.0209427,-0.00183105
20,3,10.0097,0.000915527,0.00213623,-2.43111,0.0517137,-0.0765889,0.0492452,0.103929,-0.0974189,0.141656,-0.125766,-0.0883688,0.0118256,0.0630951,0.0749969,0.0312424,0.0143051,0.0233841,0.019989,-0.0209808,-9.97986,0.00286102,-0.000724792,0.0056839,0.00930786,0.000419617,0.00713348,0.0190353,-0.00106812
20,4,10.0097,-0.000610352,0.00152588,-2.43081,0.0538499,-0.0759786,0.0498555,0.0816515,-0.0980293,0.143487,-0.127292,-0.0883688,0.00991821,0.0708771,0.0569534,0.0330734,0.00801086,0.0271988,0.0252151,-0.0389862,-9.97986,7.62939e-005,-0.0115967,0.010643,0.0141907,0.00263214,0.0104141,0.0193024,-0.00537872
20,5,10.0097,0,0.000457764,-2.42867,0.055681,-0.0759786,0.0526021,0.0746324,-0.0961982,0.143792,-0.126682,-0.0877584,0.0175858,0.0790024,0.0514984,0.0272369,0.010376,0.0230789,0.0188828,-0.0692368,-9.97986,0.00263214,-0.00652313,0.00873566,0.021553,0.00694275,0.0203705,0.0202179,0.00301361
20,6,10.0097,0.000305176,-0.000152588,-2.42959,0.0544603,-0.0759786,0.0526021,0.0743273,-0.0952827,0.141351,-0.125461,-0.0862325,0.0150299,0.0329971,0.0329971,0.0333023,0.00617981,0.0227737,0.0265121,-0.0956726,-9.97986,0.00640869,-0.00881195,0.00720978,0.02491,0.00881195,0.0191498,0.0222397,-0.00198364
20,7,10.0097,0,0.00106812,-2.42776,0.0541551,-0.0744527,0.054128,0.072191,-0.0934516,0.144098,-0.126072,-0.0847066,0.0235367,-0.0193405,0.0179672,0.0262451,0.00827789,0.022049,0.0246048,-0.0761032,-9.97986,0.0157547,-0.00526428,0.00724792,0.0351334,0.0063324,0.017662,0.0215149,-0.000419617
20,8,10.0097,0.00305176,0.000305176,-2.42653,0.0553758,-0.075063,0.0532125,0.0718859,-0.0934516,0.144403,-0.125461,-0.0837911,0.0237656,-0.0216293,0.00923157,0.0154495,0.00274658,0.0210571,0.0210953,-0.0452805,-9.97986,0.0222397,0.00923157,0.00175476,0.0426865,0.0120163,0.0263977,0.0218582,-0.00289917
20,9,10.0097,0.000305176,0.0012207,-2.42684,0.0562914,-0.075063,0.0544332,0.0709703,-0.0919257,0.14837,-0.125156,-0.0834859,0.0176239,-0.000572205,-0.00305176,-0.0178528,0.00717163,0.0214767,0.0253296,-0.0375366,-9.97986,0.0207138,0.0185394,0.0082016,0.0469971,0.0164413,0.0282669,0.0236511,-0.00263214
21,0,10.0097,-0.000610352,0.000610352,-2.4247,0.055681,-0.0726216,0.0553487,0.07036,-0.0919257,0.145318,-0.123935,-0.0804342,0.0102234,0.0170135,0.00259399,-0.0529099,0.0127029,0.0242233,0.026741,-0.0273895,-9.97986,0.0240707,0.0114059,0.00629425,0.0489807,0.0232697,0.0266647,0.0214386,-0.00267029
21,1,10.0097,0.000610352,0.000305176,-2.42501,0.0565965,-0.0738423,0.054128,0.072191,-0.0919257,0.145929,-0.125156,-0.0819601,0.0128555,0.000839233,0.00541687,-0.0761032,0.0148773,0.0251007,0.0253296,-0.0154877,-9.97986,0.0262833,0.000610352,0.0109482,0.0557327,0.0331879,0.02491,0.0226212,-0.00190735
21,2,10.0097,-0.000915527,-0.000610352,-2.42745,0.055681,-0.0747579,0.0522969,0.0309923,-0.0961982,0.145013,-0.127598,-0.0825704,0.00946045,-0.0474167,-0.0256348,-0.0737381,0.00953674,0.0246811,0.028038,-0.00495911,-9.97986,0.0325012,-0.0043869,0.00595093,0.0621033,0.0410843,0.0162125,0.0200272,-0.000228882
21,3,3.99922,0.00274658,-0.00305176,-2.42684,0.0562914,-0.0741475,0.0510762,-0.0166151,-0.100776,0.145624,-0.130649,-0.0831808,0.0138092,-0.0395966,-0.0360489,-0.0605392,0.0130081,0.0237656,0.0260925,-0.00354767,-9.97986,0.0362015,-0.0105286,0.00549316,0.0672913,0.0431824,0.010376,0.0206757,-0.00244141
21,4,-3.97655,0.0012207,-0.00366211,-2.42623,0.055681,-0.0741475,0.0535176,-0.0190565,-0.0977241,0.146539,-0.13126,-0.0816549,0.0120544,-0.018959,0.00156403,-0.0352097,0.0139999,0.021019,0.0237274,-0.00789642,-9.97986,0.0349808,-0.00362396,0.00854492,0.0819016,0.0422287,-0.00450134,0.0211716,-0.00526428
21,5,-9.99003,0,-0.0038147,-2.4244,0.0559862,-0.0723164,0.0550435,0.000169553,-0.0931465,0.145929,-0.128513,-0.0798238,0.0112534,-0.0203705,0.00923157,-0.0445938,0.0183868,0.0166702,0.0244904,-0.0158691,-9.97986,0.0278473,-0.00907898,0.00980377,0.0885391,0.0367355,-0.0173569,0.0209427,-0.00415802
21,6,-9.99003,-0.00183105,-0.000610352,-2.42531,0.0553758,-0.073232,0.0562642,0.0346544,-0.0913154,0.145013,-0.127292,-0.0804342,0.0111389,-0.0320816,0.00549316,-0.0417328,0.0239944,0.0217438,0.0225067,-0.00762939,-9.97986,0.0237656,-0.0251007,0.00892639,0.0950241,0.00644684,-0.0209427,0.0247955,3.8147e-005
21,7,-9.99003,0.000610352,0.000305176,-2.42653,0.0550706,-0.0747579,0.0562642,0.0551012,-0.0903999,0.146539,-0.126072,-0.0807394,0.00846863,-0.0320816,0.00911713,0.00904083,0.027771,0.0193024,0.024147,-0.00541687,-9.97986,0.0209808,-0.0220108,0.0101471,0.105629,-0.00114441,-0.0242233,0.0273514,-0.00534058
21,8,-9.99003,0.0012207,0.000610352,-2.42714,0.0553758,-0.0735371,0.0544332,0.0618151,-0.0919257,0.145013,-0.126072,-0.0825704,0.0101089,-0.0272369,0.0123596,0.0335312,0.0265121,0.015831,0.0217438,0.00888824,-9.97986,0.0166702,0.0195694,0.00389099,0.109215,-0.00740051,-0.0191879,0.0237274,-0.00244141
21,9,-9.99003,0.00152588,0.00152588,-2.42531,0.0553758,-0.0744527,0.0553487,0.092943,-0.088874,0.145929,-0.124851,-0.0831808,0.0107574,-0.0217056,0.0130463,0.0227737,0.0290298,0.0179291,0.0231552,0.0380325,-9.97986,0.0111008,0.0317001,0.00583649,0.120621,0.0111771,-0.0236511,0.0244904,-0.00171661
22,0,-4.35191,-0.000610352,0.00518799,-2.42745,0.0541551,-0.0762837,0.055959,0.136278,-0.0882636,0.145013,-0.122715,-0.0847066,0.00919342,-0.00236511,0.00862122,0.0153351,0.0352097,0.0174713,0.0204086,0.0484848,-9.97986,0.00823975,0.0247574,0.00892639,0.125313,0.00354767,-0.0257111,0.0229645,-0.00205994
22,1,2.96102,0.00213623,0.00518799,-2.42776,0.0535448,-0.0753682,0.0538228,0.152452,-0.0879585,0.13952,-0.121189,-0.0859274,0.0114441,0.0211716,0.0115585,-0.0265121,0.0291824,0.0149918,0.0284576,0.0684738,-9.97986,0.00286102,0.0152588,0.00701904,0.133209,0.000305176,-0.0121307,0.0233459,-0.00228882
22,2,10.0097,0.000915527,0.00488281,-2.42806,0.0538499,-0.0765889,0.0522969,0.15642,-0.088874,0.143792,-0.122104,-0.0850118,0.00267029,0.0463486,0.02388,-0.0841141,0.0353241,0.0220871,0.0285721,0.097847,-9.97986,-0.00579834,-0.00247955,0.0087738,0.134659,-0.0019455,0.000991821,0.022049,-0.0038147
22,3,10.0097,0.000915527,0.00152588,-2.43111,0.0529344,-0.0765889,0.0501607,0.103624,-0.0983344,0.142267,-0.124851,-0.0889791,-0.0019455,0.0601196,0.0369644,-0.0476074,0.0375748,0.0146103,0.0236893,0.130424,-9.97986,-0.0110626,-0.0317383,0.00606537,0.140266,-0.0044632,0.0131989,0.0244141,-0.00255585
22,4,10.0097,0.0012207,0.000457764,-2.42714,0.0532396,-0.075063,0.050771,0.0853136,-0.0971137,0.141046,-0.125766,-0.0880636,-0.000724792,0.0598526,0.0629807,0.0421906,0.0380325,0.0153351,0.0237274,0.143127,-9.97986,-0.0104141,-0.0377655,0.00751495,0.138397,-0.00785828,0.0101471,0.0234604,-0.00400543
22,5,10.0097,0.000915527,0,-2.42867,0.0544603,-0.075063,0.0516866,0.0752428,-0.0946723,0.143792,-0.126377,-0.0868429,-0.000152588,0.0486755,0.0844193,0.0361252,0.0370789,0.0163651,0.0242996,0.111504,-9.97986,-0.0120544,-0.0376129,0.0136948,0.136223,-0.00621796,0.00839233,0.0233078,-0.00522614
22,6,10.0097,-0.000305176,-0.000457764,-2.42867,0.0532396,-0.0765889,0.0529073,0.0731066,-0.0931465,0.144403,-0.127292,-0.0859274,0.00591278,0.0498199,0.0911713,0.033226,0.0418091,0.0174332,0.0281906,0.0830078,-9.97986,-0.00717163,-0.0323105,0.0108719,0.128174,-0.00141144,0.0119019,0.0258255,-0.00156403
22,7,10.0097,0,-0.00106812,-2.42776,0.0550706,-0.0756734,0.0519917,0.0712755,-0.0931465,0.146844,-0.126072,-0.085317,0.00450134,0.0563049,0.0915146,0.0808716,0.0392532,0.0111008,0.0259018,0.0641251,-9.97986,-0.0101089,-0.010376,0.00804901,0.125923,-0.00328064,0.00514984,0.0253296,-0.00469208
22,8,10.0097,-0.000915527,-0.000457764,-2.42714,0.055681,-0.0744527,0.0532125,0.0709703,-0.0925361,0.144403,-0.125766,-0.0840963,0.0031662,0.0609589,0.090065,0.0876617,0.042305,0.00888824,0.0227737,0.0125885,-9.97986,-0.00461578,0.0156403,0.0141144,0.116119,-0.00610352,-0.0104904,0.025177,-0.00213623
22,9,10.0097,0.00152588,-0.000152588,-2.42684,0.0553758,-0.0753682,0.0538228,0.0715807,-0.0931465,0.145624,-0.124851,-0.0816549,0.00576019,0.0631714,0.0856781,0.107689,0.0408173,0.00911713,0.0191879,-0.0449753,-9.97986,0.00617981,0.0359344,0.0122452,0.109406,-0.00595093,-0.0242996,0.0215912,-0.00236511
23,0,10.0097,-0.0012207,-0.000915527,-2.42623,0.0575121,-0.0747579,0.0547383,0.0724962,-0.0910102,0.146539,-0.123935,-0.0816549,0.0107956,0.0643158,0.0843811,0.125961,0.0409317,0.0100327,0.0190353,-0.0654602,-9.97986,0.0138474,0.0391388,0.0101089,0.0939178,-7.62939e-005,-0.0247955,0.0233841,-0.00236511
23,1,10.0097,0.000915527,-0.000457764,-2.4247,0.0562914,-0.0738423,0.0556539,0.0715807,-0.0922309,0.147149,-0.123935,-0.0816549,0.0211716,0.0769424,0.0752258,0.101852,0.0440979,0.00617981,0.023613,-0.0784683,-9.97986,0.0244522,0.0240707,0.0139236,0.0856781,-0.00255585,-0.0145721,0.0245667,-0.00457764
23,2,10.0097,0.000610352,-0.00259399,-2.42776,0.0553758,-0.0765889,0.0519917,0.0337389,-0.0961982,0.145929,-0.128208,-0.0828756,0.0143814,0.101814,0.0594711,0.0806427,0.0449371,0.000305176,0.0234604,-0.0524139,-9.97986,0.0272369,0.00282288,0.0124359,0.071373,-0.00564575,-0.0148773,0.0227356,-0.00541687
23,3,4.34011,0.0012207,-0.0050354,-2.42623,0.055681,-0.0747579,0.0519917,-0.0163099,-0.101081,0.144403,-0.129734,-0.0840963,0.00583649,0.0837326,0.0475693,0.0545883,0.0484467,0.00156403,0.020256,-0.024147,-9.97986,0.0338364,-0.0152969,0.00991821,0.0596237,-0.00228882,-0.00526428,0.0250244,-0.00179291
23,4,-3.5673,-0.000915527,-0.0050354,-2.42592,0.0553758,-0.0738423,0.0538228,-0.0163099,-0.0986396,0.145318,-0.130039,-0.0828756,0.00301361,0.0211334,0.0075531,0.0429153,0.0444412,-0.00320435,0.0205231,-0.00869751,-9.97986,0.0378799,-0.0264359,0.0104141,0.0449753,-0.00106812,-0.00167847,0.0260162,-0.00217438
23,5,-9.99003,0.000610352,-0.00549316,-2.42379,0.0575121,-0.0738423,0.0544332,0.00261096,-0.0934516,0.147149,-0.128818,-0.0810445,-0.00102997,0.00259399,-0.0272369,0.0634766,0.0395584,-0.0069809,0.0202179,0.0444031,-9.97986,0.0375748,-0.0219345,0.0159454,0.0349808,-0.00278473,-0.0056076,0.0255966,-0.00450134
23,6,-9.99003,0.00335693,-0.0038147,-2.42409,0.0569017,-0.0741475,0.0562642,0.0297716,-0.0900947,0.146539,-0.126377,-0.0810445,-0.00324249,0.0395966,-0.0377655,0.0534058,0.0401688,-0.00854492,0.0152969,0.11982,-9.97986,0.0295258,-0.0197983,0.0123215,0.0223923,-0.0311279,-0.00267029,0.0223541,-0.00453949
23,7,-9.99003,0.00335693,-0.00183105,-2.42531,0.0565965,-0.0747579,0.055959,0.0544908,-0.090705,0.146539,-0.126377,-0.0819601,0.00144958,0.0444794,-0.047493,0.049324,0.0357819,-0.0094223,0.0142288,0.185852,-9.97986,0.0266266,-0.00896454,0.0164413,0.0150299,-0.0281143,-0.0123596,0.0230408,-0.0050354
23,8,-9.99003,0,-0.000762939,-2.42592,0.0550706,-0.075063,0.0544332,0.0621202,-0.0900947,0.145013,-0.125766,-0.0834859,0.00362396,0.00804901,-0.0389481,0.0798416,0.0346756,-0.0109863,0.0114441,0.190659,-9.97986,0.020752,-0.00301361,0.0147247,0.00377655,-0.029068,-0.0204086,0.019722,-0.0044632
23,9,-9.99003,-0.000915527,0,-2.42745,0.0544603,-0.0747579,0.0550435,0.0950792,-0.0885688,0.146234,-0.124546,-0.0831808,0.0145721,-0.00343323,-0.0225067,0.0891113,0.0322342,-0.0104523,0.00919342,0.132942,-9.97986,0.016861,-0.0126648,0.016098,-0.00724792,-0.00312805,-0.0255203,0.0226593,-0.00343323
24,0,-3.88438,-0.000305176,0.00305176,-2.42837,0.0535448,-0.0753682,0.054128,0.138719,-0.0882636,0.144403,-0.12241,-0.0844015,0.00720978,0.00812531,-0.0112152,0.0453186,0.0335312,-0.00850677,0.015564,0.071106,-9.97986,0.0204849,-0.0043869,0.0117874,-0.013237,0.00453949,-0.0300598,0.0245667,-0.00583649
24,1,3.4612,-0.000915527,0.00396729,-2.42653,0.0526292,-0.0741475,0.054128,0.153368,-0.0885688,0.143792,-0.120273,-0.0847066,0.00488281,0.0122452,0.00843048,0.0196075,0.030098,-0.00789642,0.0106812,0.015564,-9.97986,0.0121689,0.00144958,0.0151062,-0.0230408,0.00415802,-0.0322342,0.0206375,-0.00492096
24,2,10.0097,0.000610352,0.00320435,-2.42806,0.0535448,-0.0753682,0.0529073,0.15764,-0.0891792,0.145318,-0.121494,-0.0856222,0.00404358,-0.00259399,0.0223541,0.0069046,0.0389862,-0.00659943,0.0123978,-0.00988007,-9.97986,0.00419617,-0.0037384,0.0174332,-0.033493,0.00205994,-0.0218201,0.0246429,-0.00816345
24,3,10.0097,-0.000915527,0.000762939,-2.43172,0.0532396,-0.0762837,0.0498555,0.102709,-0.0968086,0.143792,-0.126682,-0.0886739,0.00377655,-0.00545502,0.0488281,-0.00392914,0.0377655,-0.00713348,0.0148773,-0.0208282,-9.97986,0.00370026,-0.00423431,0.0138092,-0.0460434,0.0012207,-0.0240326,0.0214005,-0.00331879
24,4,10.0097,-0.000305176,-0.000610352,-2.4302,0.0541551,-0.0741475,0.0504659,0.0831774,-0.0971137,0.144403,-0.126377,-0.0889791,0.0162125,0.052948,0.0694275,-0.0069046,0.0379944,-0.00724792,0.0114441,-0.062027,-9.97986,0.00118256,0.0239944,0.0130463,-0.0564194,0.00236511,-0.0253677,0.019722,-0.00179291
24,5,10.0097,0.000305176,-0.0012207,-2.42959,0.0541551,-0.0753682,0.0522969,0.0767687,-0.095893,0.144098,-0.127292,-0.0862325,0.0143814,0.103264,0.0572968,-0.00362396,0.0438309,-0.00564575,0.0165939,-0.10067,-9.97986,0.00556946,0.0339127,0.00961304,-0.0692368,0.00465393,-0.0265121,0.0201035,-0.00480652
24,6,10.0097,0.00152588,-0.00106812,-2.42684,0.0538499,-0.0756734,0.0532125,0.0718859,-0.0946723,0.145013,-0.126987,-0.085317,0.0154495,0.118713,0.0359726,0.00411987,0.0470734,-0.00720978,0.00991821,-0.0927353,-9.97986,0.0118637,0.0269318,0.0183868,-0.083313,0.00679016,-0.0183105,0.0209808,-0.00221252
24,7,10.0097,0,-0.00106812,-2.42745,0.0553758,-0.0756734,0.0538228,0.0728014,-0.094062,0.145013,-0.126072,-0.0859274,0.0172806,0.153542,0.0139236,0.0101852,0.0479889,-0.00843048,0.0149536,-0.0638962,-9.97986,0.0159073,0.01194,0.0182724,-0.100098,0.00225067,-0.0115967,0.0243759,-0.00396729
24,8,10.0097,0.000305176,-0.00167847,-2.42745,0.0559862,-0.0759786,0.0535176,0.07036,-0.0937568,0.144708,-0.125156,-0.085317,0.0177765,0.151978,-0.00419617,0.0133133,0.0521469,-0.0110245,0.0101852,-0.0430298,-9.97986,0.0138474,-0.00953674,0.0196075,-0.119514,0.00354767,-0.0125504,0.0200272,-0.0031662
24,9,10.0097,0.00213623,-0.00152588,-2.42592,0.0547655,-0.0738423,0.0544332,0.0712755,-0.0922309,0.145318,-0.125156,-0.0834859,0.0120544,0.0913239,-0.00328064,0.0164795,0.0546646,-0.00213623,0.0154114,-0.0370026,-9.97986,0.0113297,-0.0273132,0.0203705,-0.13752,-0.00602722,-0.0148392,0.018692,-0.00396729
25,0,10.0097,0,-0.00152588,-2.42501,0.0559862,-0.0741475,0.054128,0.0712755,-0.0928413,0.144708,-0.124241,-0.0828756,0.0134659,0.0120544,0.00255585,-0.00213623,0.0582123,-0.000915527,0.016098,-0.0439835,-9.97986,0.0215149,-0.0251007,0.0181961,-0.159264,-0.00354767,-0.00774384,0.0203705,-0.00335693
25,1,10.0097,-0.000915527,-0.0012207,-2.4244,0.0553758,-0.0738423,0.0556539,0.0715807,-0.0919257,0.145929,-0.125156,-0.0822652,0.0194168,-0.0455093,0.00255585,-0.013504,0.0615311,0.0031662,0.0142288,-0.0534821,-9.97986,0.0382233,-0.0159073,0.0195313,-0.167847,0.0012207,-0.00701904,0.0189972,-7.62939e-005
25,2,10.0097,0.000610352,-0.00274658,-2.42745,0.055681,-0.075063,0.0516866,0.0325182,-0.0974189,0.145624,-0.127292,-0.0837911,0.0141144,-0.0346756,-0.0325394,-0.0357819,0.0466919,0.00144958,0.0159836,-0.0478745,-9.97986,0.0407028,-0.0189972,0.0146866,-0.190086,-0.00370026,-0.00263214,0.0157547,-0.00705719
25,3,4.29677,-0.0012207,-0.00549316,-2.42653,0.0572069,-0.0747579,0.0522969,-0.0166151,-0.100776,0.146234,-0.130039,-0.0834859,0.0123215,-0.0320053,-0.0627899,-0.0218964,0.0492859,0.00404358,0.02491,-0.0300598,-9.97986,0.0465393,-0.0196457,0.0179291,-0.203781,-0.000801086,-0.00648499,0.0193024,0.00038147
25,4,-3.61094,0.000610352,-0.00549316,-2.42531,0.0575121,-0.0747579,0.0529073,-0.018141,-0.0974189,0.146234,-0.129429,-0.0819601,0.0194168,-0.0640869,-0.0724411,-0.00114441,0.043869,0.00312805,0.0226593,-0.0148773,-9.97986,0.0602722,-0.0131226,0.0228882,-0.20565,0.0110245,-0.000190735,0.0236893,0.00598907
25,5,-9.99003,0.000610352,-0.00579834,-2.4247,0.0575121,-0.0729268,0.0550435,0.000779904,-0.0946723,0.145318,-0.129123,-0.0810445,0.0111008,-0.0931168,-0.0836182,-0.0388718,0.0419998,-0.00152588,0.0138474,-0.00480652,-9.97986,0.0546646,-0.0203323,0.0134277,-0.221481,0.00133514,-0.00774384,0.0156021,-0.00782013
25,6,-9.99003,0.00244141,-0.00259399,-2.4244,0.0559862,-0.0741475,0.0565694,0.0316027,-0.0910102,0.146234,-0.126987,-0.0810445,0.0159454,-0.10582,-0.0559998,-0.0120163,0.046463,0.00370026,0.0230408,0.0389481,-9.97986,0.0603867,-0.0117493,0.0232315,-0.215149,-0.021019,0.00221252,0.0191879,0.00305176
25,7,-9.99003,0.00183105,-0.000915527,-2.42562,0.0553758,-0.0729268,0.0547383,0.0538805,-0.0897895,0.148065,-0.126377,-0.0813497,0.0166702,-0.0933456,-0.0154114,0.0445938,0.045166,-0.000953674,0.0185394,0.0666809,-9.97986,0.0452805,0.000343323,0.0164413,-0.218506,-0.0177765,0.0087738,0.0145721,-0.00038147
25,8,-9.99003,0.00183105,0.000610352,-2.42623,0.0550706,-0.0747579,0.0553487,0.0624254,-0.0934516,0.146844,-0.126682,-0.0831808,0.0151062,-0.0378418,0.0265503,0.0464249,0.0504684,0.00640869,0.026207,0.0823975,-9.97986,0.0410843,0.00579834,0.0190353,-0.205536,-0.015831,0.0271606,0.0207901,0.00282288
25,9,-9.99003,0.000915527,0.00350952,-2.42684,0.0550706,-0.0747579,0.0550435,0.0932482,-0.088874,0.145318,-0.124851,-0.0822652,0.0108337,0.000114441,0.0649643,0.0455475,0.0550842,0.00160217,0.0257492,0.0789642,-9.97986,0.0374222,0.00602722,0.0170135,-0.189552,0.00968933,0.0450516,0.0196075,0.00137329
26,0,-4.10991,-0.000915527,0.00518799,-2.42745,0.0535448,-0.0768941,0.0553487,0.137499,-0.0897895,0.143487,-0.12302,-0.0844015,0.00946045,0.0131989,0.0596619,0.0271606,0.0575638,-0.00255585,0.025177,0.0760269,-9.97986,0.0256348,0.000839233,0.0184631,-0.172615,0.0118637,0.0437546,0.0178909,0.000724792
26,1,3.20302,0.000915527,0.00518799,-2.42745,0.0538499,-0.0759786,0.054128,0.153673,-0.0882636,0.143792,-0.121189,-0.0844015,0.00579834,-0.00347137,0.0528717,0.00476837,0.0614166,0.00537872,0.0271606,0.0644302,-9.97986,0.025444,-0.00732422,0.0215149,-0.157089,0.00984192,0.0325394,0.0184631,0.0031662
26,2,10.0097,0.000610352,0.00640869,-2.42806,0.0541551,-0.0759786,0.0519917,0.156725,-0.0894843,0.144098,-0.120884,-0.085317,0.00545502,-0.00377655,0.0625229,0.00144958,0.0584412,-0.000991821,0.0224686,0.0576019,-9.97986,0.0204086,-0.000839233,0.0176239,-0.134773,0.0120544,0.0231552,0.0186539,0.00228882
26,3,10.0097,0.0012207,0.00320435,-2.43081,0.0526292,-0.0781148,0.0492452,0.103014,-0.0961982,0.143792,-0.125461,-0.0886739,0.00785828,0.0251007,0.0754929,0.00911713,0.0606155,-0.000305176,0.021019,0.0491714,-9.97986,0.0094223,-0.0140762,0.0185394,-0.120735,0.0132751,0.0012207,0.0183868,0.0063324
26,4,10.0097,0.000915527,0.00228882,-2.42989,0.0535448,-0.0756734,0.050771,0.0837877,-0.0955879,0.141961,-0.126377,-0.0877584,0.00808716,0.0418854,0.0796509,0.00720978,0.0609207,0.00312805,0.0238419,0.0251007,-9.97986,-0.000228882,-0.0127792,0.0153351,-0.0929642,0.00923157,-0.0147629,0.0157928,0.00366211
26,5,10.0097,-0.000610352,0.00198364,-2.42898,0.055681,-0.0747579,0.0510762,0.075548,-0.0974189,0.144708,-0.126377,-0.0859274,0.00701904,0.07164,0.0736237,0.000762939,0.0666428,0.0111008,0.0255203,0.00713348,-9.97986,-0.00431061,-0.00453949,0.0212479,-0.0572205,0.01297,-0.0242615,0.0181961,0.00232697
26,6,10.0097,0.00152588,0.00274658,-2.42898,0.0553758,-0.075063,0.0529073,0.0724962,-0.0946723,0.145013,-0.126072,-0.0840963,0.00743866,0.132675,0.0743866,-0.0123215,0.0651932,0.0102615,0.028038,0.0069809,-9.97986,-0.00999451,0.00125885,0.0194931,-0.0252151,0.0153732,-0.0353241,0.0164032,0.0044632
26,7,10.0097,0.000610352,0.00411987,-2.42776,0.0553758,-0.0747579,0.0529073,0.0697496,-0.0949775,0.14013,-0.126377,-0.0834859,0.00965118,0.165787,0.0769424,-0.0103378,0.0611496,0.00476837,0.0308228,0.0179291,-9.97986,-0.0135422,0.00461578,0.0196457,0.0110626,0.0154114,-0.0222015,0.0179291,0.00259399
26,8,10.0097,-0.00244141,0.00411987,-2.42806,0.0553758,-0.0741475,0.0538228,0.0694445,-0.0946723,0.144098,-0.125766,-0.0831808,0.00923157,0.143585,0.043335,-0.0087738,0.0609207,0.0103378,0.0324249,0.050354,-9.97986,-0.0167465,-0.00453949,0.0163269,0.0536346,0.0120544,-0.0130844,0.0144958,0.00347137
26,9,10.0097,-0.000915527,0.00457764,-2.42501,0.0553758,-0.0747579,0.0550435,0.0715807,-0.0928413,0.142572,-0.125766,-0.0828756,0.00934601,0.0696564,-0.00396729,-0.00335693,0.0601578,0.0140381,0.0304413,0.0563431,-9.97986,-0.00743866,0.00324249,0.0208282,0.101585,0.00793457,0.00453949,0.0205994,0.00301361
27,0,10.0097,0,0.00427246,-2.42592,0.0559862,-0.0738423,0.054128,0.072191,-0.0931465,0.146234,-0.125461,-0.0804342,0.00823975,-0.00415802,-0.0463104,0.00400543,0.0653458,0.00972748,0.032196,0.0631332,-9.97986,-0.00286102,0.0142288,0.0226212,0.151749,0.00511169,0.00576019,0.0172043,0.00556946
27,1,10.0097,-0.000305176,0.00473022,-2.42501,0.0569017,-0.0738423,0.0547383,0.0724962,-0.0922309,0.145318,-0.123935,-0.0789083,0.0127411,-0.0318527,-0.0532532,0.0107193,0.0561905,0.00919342,0.0349426,0.0884247,-9.97986,0.00782013,0.0233459,0.0206757,0.206871,0.0088501,-0.00148773,0.0200272,0.00572205
27,2,10.0097,-0.000305176,0.00457764,-2.42684,0.0550706,-0.0744527,0.0522969,0.0306871,-0.0971137,0.144708,-0.127598,-0.0822652,0.0126648,-0.0751495,-0.0502014,0.0131607,0.0542831,0.0127411,0.0320053,0.0823212,-9.97986,0.0153351,0.0273895,0.0201416,0.270424,0.00724792,-0.00579834,0.0199127,0.00526428
27,3,4.12831,-0.000305176,0.00152588,-2.42684,0.0550706,-0.0744527,0.0522969,-0.0169203,-0.100165,0.148675,-0.130344,-0.0822652,0.0108719,-0.086441,-0.0481796,0.00812531,0.0542068,0.0105286,0.0355148,0.0476837,-9.97986,0.0196457,0.0104523,0.0183487,0.328484,0.00831604,-0.00350952,0.0147247,0.00762939
27,4,-3.78093,0,-0.000305176,-2.42623,0.0562914,-0.0735371,0.054128,-0.0184462,-0.0977241,0.14776,-0.130344,-0.0810445,0.0159836,-0.041008,-0.0220108,0.00209808,0.054245,0.00762939,0.0333023,0.0102234,-9.97986,0.0207138,-0.00892639,0.0218201,0.368919,0.00659943,-0.00934601,0.0183868,0.00804901
27,5,-9.99003,0.00183105,-0.000915527,-2.4244,0.0575121,-0.0717061,0.055959,0.00169543,-0.0925361,0.14776,-0.128208,-0.0792135,0.0156021,-0.00579834,0.00957489,-0.00637054,0.0520706,0.0125885,0.0321579,-0.0233841,-9.97986,0.0268173,0.001297,0.0186157,0.397491,0.00419617,-0.0179291,0.0175858,0.00843048
27,6,-9.99003,0.00152588,0,-2.4244,0.0553758,-0.0735371,0.0565694,0.0328234,-0.0900947,0.147455,-0.127903,-0.080129,0.0154495,-0.017662,0.0159073,-0.0127411,0.0466537,0.00980377,0.0317383,-0.0196838,-9.97986,0.0354385,0.0123596,0.0195694,0.41832,-0.0212479,-0.0278854,0.018158,0.00751495
27,7,-9.99003,-0.000305176,0.00228882,-2.42501,0.0550706,-0.075063,0.0550435,0.0535753,-0.0903999,0.145318,-0.126987,-0.0810445,0.0151443,0.00362396,0.026741,-0.0124359,0.0442886,0.0069046,0.0295258,-0.0050354,-9.97986,0.0337982,0.0172043,0.0195313,0.432434,-0.0233459,-0.0240326,0.0179291,0.00530243
27,8,-9.99003,0.00183105,0.000762939,-2.42562,0.0544603,-0.0738423,0.055959,0.0630358,-0.0919257,0.144098,-0.126072,-0.0825704,0.016861,-0.0037384,0.0311661,-0.00774384,0.046463,0.00526428,0.0326538,0.00663757,-9.97986,0.0236893,-0.00461578,0.0182343,0.434875,-0.0240707,-0.0107956,0.0172424,0.0082016
27,9,-9.99003,0.000305176,0.0012207,-2.42653,0.0562914,-0.0747579,0.055959,0.094774,-0.0885688,0.146234,-0.12363,-0.0825704,0.0108337,-0.00118256,0.0458145,-0.00259399,0.0411987,-0.00038147,0.0305176,0.0193787,-9.97986,0.0125885,-0.0374603,0.014801,0.436211,-0.00595093,-0.001297,0.0177383,0.00209808
28,0,-4.0269,-0.000305176,0.0050354,-2.42806,0.0544603,-0.0747579,0.0547383,0.136583,-0.0876533,0.145013,-0.122715,-0.0840963,0.00888824,0.0377274,0.0572968,0.00259399,0.0437546,0.00408173,0.033493,0.0204468,-9.97986,0.0075531,-0.042572,0.0200272,0.436211,-0.0044632,0.00831604,0.0190735,0.00648499
28,1,3.28603,0.000610352,0.00396729,-2.42776,0.0535448,-0.0762837,0.054128,0.154283,-0.0900947,0.145318,-0.121189,-0.085317,0.00324249,0.0831604,0.0451279,-0.00164032,0.0314713,0.00469208,0.031662,0.0139236,-9.97986,-0.00694275,-0.0305939,0.015831,0.428581,-0.0031662,0.0116348,0.0205231,0.00701904
28,2,10.0097,0.000305176,0.00473022,-2.42867,0.0535448,-0.0756734,0.0538228,0.156114,-0.0894843,0.143487,-0.121494,-0.085317,-0.00610352,0.121956,0.0288391,-0.00724792,0.0361633,0.00431061,0.0355911,0.0178909,-9.97986,-0.0133133,-0.0163651,0.0161743,0.42881,-0.00534058,0.0123596,0.0173569,0.00812531
28,3,10.0097,0,0.00152588,-2.43111,0.0514085,-0.0768941,0.0483296,0.101488,-0.0983344,0.141961,-0.125766,-0.0895895,-0.00923157,0.106316,0.00747681,-0.0139618,0.0331879,0.00297546,0.0346375,0.0100327,-9.97986,-0.0208282,-0.0148773,0.0158691,0.4245,-0.001297,0.0122452,0.0205231,0.00713348
28,4,10.0097,0.000610352,0.000305176,-2.4302,0.0535448,-0.0765889,0.0513814,0.0822618,-0.0989448,0.143182,-0.126682,-0.0889791,-0.0107956,0.079689,0.00720978,-0.017662,0.0315094,-0.0056076,0.0379562,0.0147247,-9.97986,-0.0234604,0.0037384,0.0162125,0.412178,-0.00232697,0.00450134,0.0205231,0.00930786
28,5,10.0097,0.0012207,-0.0012207,-2.42959,0.0532396,-0.075063,0.0519917,0.075548,-0.0968086,0.142572,-0.126072,-0.0877584,-0.00869751,0.0565338,0.024147,-0.00968933,0.026207,-0.00297546,0.0389481,0.0295639,-9.97986,-0.0213242,0.0164413,0.0167084,0.401421,0.00038147,-0.00419617,0.0231552,0.0088501
28,6,10.0097,-0.000610352,-0.00259399,-2.42776,0.0541551,-0.0753682,0.0519917,0.0737169,-0.095893,0.142267,-0.126072,-0.0862325,-0.00953674,-0.0204849,0.0302505,-0.00450134,0.0304794,0.000152588,0.035553,0.016098,-9.97986,-0.0115204,0.00404358,0.0151443,0.382118,0.00293732,-0.00324249,0.0230026,0.00911713
28,7,10.0097,0.00152588,-0.00152588,-2.42806,0.0544603,-0.0747579,0.054128,0.0718859,-0.0934516,0.144708,-0.126072,-0.0850118,0.000114441,-0.00488281,0.0366211,0.00038147,0.027504,0.00434875,0.0364304,-0.014801,-9.97986,0.00339508,-0.00873566,0.0152206,0.357437,0.000801086,-0.000762939,0.0223923,0.0110245
28,8,10.0097,0,-0.00167847,-2.42806,0.0559862,-0.075063,0.0529073,0.0715807,-0.0934516,0.145624,-0.126072,-0.0840963,0.0114059,0.0398254,0.0413895,-0.00473022,0.0238037,-0.000343323,0.0393677,-0.0543594,-9.97986,0.0258255,-0.0165939,0.0126266,0.339241,0.00411987,0.00808716,0.0226593,0.0122452
28,9,10.0097,0,-0.00335693,-2.42592,0.0559862,-0.0741475,0.0544332,0.0731066,-0.0916206,0.145318,-0.124851,-0.0844015,0.0213242,0.0216293,0.0447845,-0.0025177,0.0247192,0.00179291,0.0384903,-0.0933075,-9.97986,0.0470734,-0.000610352,0.0136185,0.299492,0.0109863,0.0133514,0.0223923,0.0113678
29,0,10.0097,-0.00244141,-0.00289917,-2.4244,0.0553758,-0.0747579,0.0544332,0.0715807,-0.0919257,0.145624,-0.124241,-0.0825704,0.0281525,-0.0308609,0.0279999,0.0043869,0.0179291,0.00110626,0.0315475,-0.139313,-9.97986,0.0540543,-0.00610352,0.0111389,0.26062,0.0149155,0.0207901,0.0257111,0.0094223
29,1,10.0097,-0.0012207,-0.00259399,-2.42501,0.0569017,-0.0738423,0.0544332,0.0712755,-0.0919257,0.146234,-0.124546,-0.0822652,0.0331879,-0.0432968,-0.00541687,0.00205994,0.0116348,-0.00282288,0.0285339,-0.151443,-9.97986,0.0565338,-0.0109863,0.00869751,0.233536,0.0136566,0.00934601,0.02388,0.0087738
29,2,10.0097,0.0012207,-0.00488281,-2.42684,0.0565965,-0.0747579,0.0532125,0.0306871,-0.0971137,0.145929,-0.126682,-0.0844015,0.0356293,-0.00270844,-0.0247192,-0.000648499,0.00953674,0.000419617,0.0330353,-0.135307,-9.97986,0.0525665,-0.0127029,0.0124741,0.195351,0.0161362,0.000228882,0.0296021,0.0102997
29,3,4.11824,0.000610352,-0.00732422,-2.42531,0.0565965,-0.075063,0.0519917,-0.0172255,-0.100471,0.148675,-0.130039,-0.0837911,0.0395584,0.047493,-0.0444794,-0.00102997,0.00118256,0.00335693,0.0281525,-0.127602,-9.97986,0.0485611,-0.0196075,0.0150299,0.160484,0.0171661,-0.00583649,0.026741,0.00831604
29,4,-3.80534,0.00183105,-0.00808716,-2.42562,0.0565965,-0.0744527,0.0529073,-0.0178358,-0.0995551,0.146844,-0.130344,-0.0831808,0.0276566,0.0532913,-0.0328064,0.000648499,0.00156403,-0.000343323,0.0247955,-0.0897598,-9.97986,0.0491714,-0.0182724,0.00904083,0.123024,0.0115204,-0.01091,0.0254822,0.0107956
29,5,-9.99003,0.00213623,-0.00823975,-2.42409,0.0565965,-0.0735371,0.0553487,0.00139026,-0.0925361,0.145624,-0.128513,-0.0819601,0.0220108,0.00331879,-0.0296402,0.000114441,-0.00305176,-0.00293732,0.0212479,-0.0591278,-9.97986,0.0503922,-0.00785828,0.0110245,0.0851822,0.00972748,-0.0135803,0.0251007,0.0118256
29,6,-9.99003,-0.00183105,-0.00595093,-2.4244,0.0572069,-0.0741475,0.055959,0.0306871,-0.090705,0.145318,-0.127903,-0.0816549,0.0139236,-0.0430298,-0.07267,0.00110626,-0.00541687,-0.00465393,0.0232697,-0.0395966,-9.97986,0.0514221,-0.011673,0.0141525,0.0485229,-0.0166321,-0.0147629,0.0266266,0.0112152
29,7,-9.99003,0.00152588,-0.0038147,-2.42562,0.0559862,-0.0738423,0.0556539,0.0535753,-0.0913154,0.145929,-0.125766,-0.0828756,0.0128174,-0.0537109,-0.101891,-0.000686646,-0.00450134,-0.000419617,0.0165558,-0.0312042,-9.97986,0.0473404,-0.00667572,0.0110245,0.0205231,-0.0182724,-0.0102234,0.0265121,0.0106049
29,8,-9.99003,0.0012207,-0.00198364,-2.42592,0.0535448,-0.0744527,0.0553487,0.0621202,-0.0913154,0.144098,-0.126377,-0.0834859,0.01297,-0.0498962,-0.0881577,0.00190735,0.00156403,-0.000419617,0.0191498,-0.0159073,-9.97986,0.0395966,0.00770569,0.0105286,0.00167847,-0.0167847,-0.00686646,0.0256729,0.0106049
29,9,-9.99003,0.00213623,-0.000762939,-2.42623,0.0550706,-0.0747579,0.055959,0.0950792,-0.0873481,0.146234,-0.123325,-0.0834859,0.00946045,-0.0444412,-0.0673676,0.0043869,-0.00370026,0.00331879,0.0207138,-0.00534058,-9.97986,0.0355911,0.031395,0.0127029,-0.0184631,0.0138474,-0.00358582,0.0297928,0.0144958
30,0,-4.11296,-0.000305176,0.00305176,-2.42837,0.0550706,-0.0756734,0.0544332,0.136583,-0.0885688,0.143792,-0.12241,-0.0837911,0.0115585,-0.0417328,-0.0379562,0.01297,0.00190735,-0.000457764,0.0178909,0.0050354,-9.97986,0.0327301,0.0289154,0.00972748,-0.0302887,0.0106812,-0.00221252,0.0271225,0.00995636
30,1,3.19722,0.000915527,0.00335693,-2.42837,0.0523241,-0.075063,0.0529073,0.153673,-0.0879585,0.144098,-0.121494,-0.085317,0.00862122,-0.0309753,-0.0241089,0.0152206,0.000152588,-0.00156403,0.0151825,0.0137711,-9.97986,0.0233459,0.0410843,0.0117874,-0.043335,0.00896454,0.00267029,0.0224686,0.0110626
30,2,10.0097,0.000610352,0.0038147,-2.42806,0.0541551,-0.0765889,0.0535176,0.15642,-0.0891792,0.144708,-0.121189,-0.085317,0.0136566,-0.00419617,-0.00915527,0.0114822,0.00179291,-0.000267029,0.0115204,0.0204468,-9.97986,0.0228119,0.0938416,0.01194,-0.0538635,0.00747681,0.00576019,0.0247192,0.0114059
30,3,10.0097,0.00152588,0,-2.4305,0.0532396,-0.0762837,0.0501607,0.103319,-0.0971137,0.142267,-0.124851,-0.0895895,0.0131607,0.012207,0.0109482,0.0111771,-0.00183105,0.000953674,0.00846863,0.0222397,-9.97986,0.0198364,0.119972,0.0113678,-0.0584412,0.00740051,0.00442505,0.02285,0.0100327
30,4,10.0097,0.00152588,0.000305176,-2.42898,0.0550706,-0.0759786,0.0504659,0.0828722,-0.0980293,0.144403,-0.126072,-0.0874532,0.0167847,0.0307846,0.0228882,0.0104523,0.00221252,-0.00556946,0.00782013,0.0290298,-9.97986,0.0187683,0.10643,0.0109482,-0.0558853,0.0101471,0.00167847,0.0231552,0.01091
30,5,10.0097,0,-0.000610352,-2.42928,0.0572069,-0.0753682,0.0519917,0.0758531,-0.0949775,0.143792,-0.127292,-0.0865377,0.0101471,0.0268936,0.0230026,0.0117111,0.00610352,-0.000724792,0.0082016,0.0347519,-9.97986,0.0180054,0.0589371,0.0094223,-0.0586319,0.0127792,0.00679016,0.0225449,0.0123215
30,6,10.0097,0.000915527,-0.000152588,-2.42898,0.0535448,-0.075063,0.0513814,0.0724962,-0.0934516,0.144403,-0.126072,-0.0856222,0.0115585,0.0260925,0.0236511,0.0144958,0.00598907,-7.62939e-005,0.0056839,0.0413895,-9.97986,0.0180817,0.0353241,0.0133133,-0.0537491,0.0175858,0.00522614,0.0271988,0.013237
30,7,10.0097,0.000610352,-0.000152588,-2.42714,0.0535448,-0.0759786,0.0516866,0.07036,-0.0937568,0.144403,-0.126377,-0.0847066,0.0105667,0.0265121,0.0294495,0.0087738,0.00709534,0.00102997,0.00160217,0.0367737,-9.97986,0.0183487,0.00511169,0.01194,-0.0584412,0.0117874,0.00705719,0.0264359,0.0120163
30,8,10.0097,0,0,-2.42714,0.0562914,-0.0747579,0.0538228,0.0712755,-0.0934516,0.145624,-0.125766,-0.0834859,0.0105286,0.0313187,0.0347137,0.0136185,0.0111008,0.00946045,0.00717163,0.0391006,-9.97986,0.0180435,-0.0406265,0.0136948,-0.0516891,0.011673,0.00331879,0.0219727,0.0112915
30,9,10.0097,0.000610352,0.000610352,-2.42623,0.055681,-0.073232,0.054128,0.072191,-0.0916206,0.145929,-0.125156,-0.0828756,0.0102234,0.0311279,0.0340652,0.0109482,0.00598907,0.00610352,-7.62939e-005,0.0375748,-9.97986,0.0148392,-0.0296783,0.0130463,-0.0496292,0.0139618,0.00301361,0.0263596,0.0109863
31,0,10.0097,0.00305176,0.000915527,-2.42501,0.0553758,-0.0741475,0.0547383,0.0715807,-0.0925361,0.146844,-0.123935,-0.0813497,0.00919342,0.0350189,0.0415039,0.0137329,0.00720978,0.0114822,-0.00244141,0.0512695,-9.97986,0.00762939,-0.00957489,0.0131989,-0.051384,0.0165939,0.00434875,0.0252914,0.00972748
31,1,10.0097,0.00213623,0.000610352,-2.4244,0.055681,-0.073232,0.0544332,0.0718859,-0.0910102,0.147149,-0.123325,-0.0810445,0.0109482,0.0384521,0.0495529,0.0178528,0.0104523,0.00782013,0.00389099,0.0621414,-9.97986,0.00694275,-0.016861,0.0111008,-0.0399399,0.0119781,-0.000457764,0.0258255,0.0144958
31,2,10.0097,0.00183105,-0.000915527,-2.42623,0.0559862,-0.0747579,0.0516866,0.0328234,-0.0983344,0.145013,-0.127598,-0.0837911,0.0107956,0.0380325,0.054512,0.0111389,0.0104904,0.00354767,0.00267029,0.0681305,-9.97986,0.00553131,-0.0239182,0.0117111,-0.0399017,0.0125885,0.00518799,0.0254059,0.0135422
31,3,4.26717,0.000610352,-0.00457764,-2.42623,0.0562914,-0.0729268,0.0522969,-0.0163099,-0.0998603,0.146539,-0.130649,-0.0840963,0.0139236,0.0421143,0.0641632,0.00789642,0.00957489,0.00839233,0.00423431,0.116844,-9.97986,0.00144958,-0.0457382,0.0118256,-0.0322723,0.0141144,-0.000114441,0.0253296,0.0159454
31,4,-3.64329,0.00152588,-0.00473022,-2.42592,0.0569017,-0.073232,0.0529073,-0.0184462,-0.0952827,0.147149,-0.130649,-0.0822652,0.00957489,0.0551987,0.0709152,0.00514984,0.0110626,0.00415802,0.00480652,0.167198,-9.97986,-0.000534058,-0.0631714,0.0113678,-0.0223923,0.0124741,0.000839233,0.0223923,0.0123215
31,5,-9.99003,0.0012207,-0.00442505,-2.42531,0.0565965,-0.0735371,0.055959,0.00108508,-0.0928413,0.14837,-0.128208,-0.0798238,0.0103378,0.0666046,0.0757599,0.0156021,0.0123978,0.00205994,0.000991821,0.170364,-9.97986,-0.00946045,-0.0616455,0.0137711,-0.0221634,0.0088501,0.000648499,0.0213623,0.0159073
31,6,-9.99003,0,-0.00244141,-2.4244,0.0562914,-0.0741475,0.0562642,0.0312975,-0.0897895,0.147149,-0.127598,-0.0810445,0.00629425,0.0709152,0.0792694,0.0087738,0.0118637,-0.00736237,0.00274658,0.186348,-9.97986,-0.0160217,-0.0519562,0.0123978,-0.0179291,-0.0114441,0.00549316,0.0235367,0.0143051
31,7,-9.99003,-0.000305176,-0.00152588,-2.42562,0.0553758,-0.0744527,0.0562642,0.0544908,-0.0913154,0.145929,-0.126987,-0.0819601,0.00606537,0.0862885,0.0837708,0.00671387,0.0112152,-0.00404358,0.000686646,0.169334,-9.97986,-0.0212479,-0.0333405,0.0152206,-0.0256729,-0.0157166,0.0102234,0.0238037,0.0123978
31,8,-9.99003,-0.000915527,0.000152588,-2.42684,0.0550706,-0.0747579,0.0556539,0.0618151,-0.0919257,0.144708,-0.125156,-0.0822652,0.00549316,0.107193,0.0832367,0.019455,0.0159454,-0.000839233,-0.00320435,0.116615,-9.97986,-0.0323868,-0.0140762,0.0173569,-0.0271225,-0.0162125,-0.000572205,0.0236511,0.0138092
31,9,-9.99003,-0.000610352,0.0012207,-2.42562,0.055681,-0.0747579,0.0547383,0.0932482,-0.088874,0.145929,-0.123935,-0.0822652,0.00713348,0.101776,0.0778198,0.0307083,0.0133896,-0.00148773,-0.00137329,0.0604248,-9.97986,-0.0365829,-0.00522614,0.0133133,-0.0286102,0.0112915,-0.0135422,0.0237274,0.0150681
32,0,-3.98967,0.0012207,0.00396729,-2.42806,0.0541551,-0.0762837,0.0547383,0.138414,-0.0885688,0.144708,-0.12241,-0.0840963,0.00190735,0.0858307,0.0750732,0.0362015,0.0114822,-0.00469208,-0.000686646,0.0182343,-9.97986,-0.0348663,-0.0138474,0.0117111,-0.0393677,0.00808716,-0.00999451,0.0244141,0.0131226
32,1,3.3318,-0.000610352,0.00427246,-2.42837,0.0544603,-0.0759786,0.0538228,0.154283,-0.0879585,0.144403,-0.120884,-0.0847066,0.0025177,0.0848389,0.0800705,0.0403976,0.014801,0.000457764,0.00175476,-0.0184631,-9.97986,-0.0338745,-0.0196075,0.0146484,-0.0481796,0.0088501,-0.00354767,0.021019,0.014801
32,2,10.0097,0.000610352,0.00366211,-2.42928,0.0526292,-0.0747579,0.0532125,0.15642,-0.0882636,0.144098,-0.121189,-0.0850118,-0.00171661,0.100441,0.0639343,0.0337601,0.0127411,0.000724792,0,-0.0297546,-9.97986,-0.0211334,-0.0178528,0.0146866,-0.0550842,0.011673,-0.00507355,0.0222397,0.0144577
32,3,10.0097,0,0.00167847,-2.43081,0.0526292,-0.0778096,0.0486348,0.102098,-0.0961982,0.142267,-0.125766,-0.0892843,0.00534058,0.10273,0.0460434,0.0287628,0.017128,-0.000495911,0.000991821,-0.0178528,-9.97986,-0.00255585,-0.0162125,0.0127411,-0.0653076,0.0152969,-0.0186539,0.0223923,0.0166702
32,4,10.0097,-0.000610352,-0.000610352,-2.43111,0.0532396,-0.0762837,0.0513814,0.0834825,-0.0961982,0.140741,-0.127292,-0.0877584,0.0037384,0.0288773,0.0349426,0.0166702,0.0148392,-0.000991821,0.00247955,-0.0340652,-9.97986,0.0147629,-0.0223541,0.0131226,-0.0697327,0.0146866,-0.0350571,0.0221634,0.0171661
32,5,10.0097,-0.000915527,-0.0012207,-2.42959,0.0541551,-0.0762837,0.0513814,0.0770738,-0.0949775,0.142877,-0.126072,-0.0871481,0.00102997,-0.0320816,0.0363541,0.0063324,0.0124741,0.00255585,-0.00110626,-0.0416183,-9.97986,0.0247192,-0.0204849,0.0157547,-0.0937271,0.0177765,-0.0205994,0.0205994,0.0154495
32,6,10.0097,0.0012207,-0.000915527,-2.42806,0.0547655,-0.0756734,0.0529073,0.0724962,-0.0952827,0.144708,-0.126987,-0.0865377,0.00785828,-0.00183105,0.051384,-0.000534058,0.0142288,0.00629425,-0.000305176,-0.00896454,-9.97986,0.0241852,-0.0361633,0.0144958,-0.101852,0.0126266,-0.00415802,0.0214767,0.0180054
32,7,10.0097,0.000610352,-0.00167847,-2.42776,0.0538499,-0.075063,0.0535176,0.0718859,-0.0934516,0.146539,-0.124851,-0.0850118,0.0167465,0.0479889,0.0880814,-0.0142288,0.0131607,0.00766754,0.0025177,0.0116348,-9.97986,0.0216293,-0.0407028,0.014534,-0.119095,0.0122452,0.00457764,0.0202942,0.0148392
32,8,10.0097,0.00213623,-0.000915527,-2.42653,0.0550706,-0.0744527,0.0544332,0.0712755,-0.0934516,0.145929,-0.125461,-0.0844015,0.0190353,0.0885391,0.104485,-0.00728607,0.0143433,0.0110245,0.000801086,0.0340271,-9.97986,0.0229645,-0.0323105,0.0173187,-0.126839,0.0218582,0.0154114,0.0183868,0.0194168
32,9,10.0097,-0.000305176,-0.000762939,-2.42623,0.0550706,-0.0738423,0.0526021,0.0709703,-0.0934516,0.146539,-0.125461,-0.0831808,0.0212097,0.103836,0.0793076,-0.000343323,0.0162888,0.0121689,0.00328064,0.0535965,-9.97986,0.0131607,-0.0241852,0.0175858,-0.13916,0.0192261,0.0233078,0.0152969,0.0152206
33,0,10.0097,-0.0012207,0.000152588,-2.42501,0.0572069,-0.0744527,0.054128,0.0715807,-0.0913154,0.145318,-0.125461,-0.0819601,0.0216293,0.083046,0.0402832,0.00762939,0.0126266,0.0134277,-0.00164032,0.0324631,-9.97986,0.00606537,-0.0253677,0.0185776,-0.145454,0.0238037,0.0372314,0.0176239,0.019722
33,1,10.0097,0.000610352,-0.000305176,-2.4247,0.0569017,-0.0747579,0.0544332,0.0724962,-0.0922309,0.145929,-0.12363,-0.0825704,0.0270462,0.072937,0.0112534,0.0121689,0.0153351,0.0197601,-0.00442505,0.00553131,-9.97986,0.00728607,-0.0245285,0.0201416,-0.15686,0.0228119,0.0359726,0.013504,0.0159073
33,2,10.0097,-0.000305176,-0.00274658,-2.42776,0.0565965,-0.0747579,0.0486348,0.0328234,-0.0968086,0.144403,-0.127598,-0.0837911,0.026474,0.0458527,0.00858307,0.00644684,0.0154495,0.0164413,-0.00156403,-0.000572205,-9.97986,0.0117111,-0.00946045,0.0166702,-0.169067,0.022583,0.0170135,0.0117493,0.0154495
33,3,4.09963,-0.000915527,-0.00549316,-2.42714,0.0553758,-0.0744527,0.0522969,-0.0166151,-0.101081,0.145013,-0.130649,-0.0831808,0.0222397,-0.0172043,0.00282288,0.00793457,0.0167847,0.0188446,-0.00228882,-0.00564575,-9.97986,0.017662,0.00583649,0.0168991,-0.175552,0.0282669,-0.00213623,0.0128937,0.0195694
33,4,-3.78734,-0.000610352,-0.00457764,-2.42562,0.0569017,-0.0729268,0.0535176,-0.0190565,-0.0974189,0.144403,-0.130649,-0.0825704,0.0181961,-0.0746155,-0.0246048,0.00984192,0.0101852,0.0198364,-0.00167847,-0.0308609,-9.97986,0.0184631,0.0217819,0.0183868,-0.177841,0.0271988,-0.0118637,0.0110245,0.018692
33,5,-9.99003,-0.00152588,-0.00610352,-2.42501,0.0575121,-0.0744527,0.0556539,0.00200061,-0.0916206,0.147149,-0.127903,-0.0810445,0.0108337,-0.0894928,-0.049324,0.0136185,0.0148392,0.0161743,-0.00335693,-0.0593567,-9.97986,0.021553,0.0063324,0.0196457,-0.189247,0.0288773,-0.0101471,0.0122452,0.018425
33,6,-9.99003,-0.000915527,-0.00274658,-2.42409,0.0550706,-0.0744527,0.0565694,0.032213,-0.0910102,0.145013,-0.126377,-0.0807394,0.0106049,-0.0960922,-0.0667572,0.0117493,0.0148392,0.0134659,0.00205994,-0.0617218,-9.97986,0.0258636,-0.0221634,0.018692,-0.199394,0.00892639,-0.01091,0.01091,0.021553
33,7,-9.99003,0.000610352,-0.000762939,-2.4244,0.0550706,-0.0747579,0.0544332,0.054796,-0.0894843,0.146539,-0.126072,-0.0819601,0.0141525,-0.0800705,-0.0791931,0.00965118,0.0127029,0.015564,-0.00183105,-0.0452042,-9.97986,0.0269699,-0.0203705,0.021286,-0.198822,0.00873566,-0.010376,0.00709534,0.0137711
33,8,-9.99003,0.00183105,-0.000762939,-2.42592,0.0547655,-0.0744527,0.0532125,0.0630358,-0.0919257,0.147149,-0.126072,-0.0822652,0.0117874,-0.0082016,-0.0815201,0.013237,0.0168228,0.0188828,-0.00114441,-0.0246429,-9.97986,0.0297928,-0.0127792,0.0215149,-0.209503,0.0113678,-0.00038147,0.00522614,0.018692
33,9,-9.99003,-0.000305176,0,-2.42623,0.0550706,-0.0753682,0.0544332,0.0926378,-0.0897895,0.144403,-0.12363,-0.0822652,0.0100327,0.0202942,-0.0765991,0.0166702,0.0127029,0.0189972,-0.00144958,-0.0128555,-9.97986,0.0402069,0.00518799,0.0188828,-0.217209,0.032959,0.00282288,-0.000572205,0.0183105
34,0,-4.20085,0.000610352,0.00442505,-2.42745,0.0535448,-0.0771993,0.0544332,0.137499,-0.0885688,0.142877,-0.12241,-0.0840963,0.00797272,-0.00282288,-0.0675583,0.015564,0.0075531,0.0167465,-0.00476837,-0.0043869,-9.97986,0.0379562,0.0219345,0.0160599,-0.214958,0.0329208,-0.000343323,0.00217438,0.0170135
34,1,3.10201,0.00244141,0.00427246,-2.42898,0.0538499,-0.0759786,0.0544332,0.153368,-0.088874,0.143487,-0.121799,-0.085317,0.0128937,-0.0268173,-0.0679779,0.0183868,0.0113297,0.0188828,-0.00301361,0.00366211,-9.97986,0.045929,0.0209427,0.0201035,-0.227928,0.033493,0.000495911,0.000991821,0.0181198
34,2,10.0097,0.0012207,0.00335693,-2.42776,0.0523241,-0.0759786,0.0535176,0.157335,-0.0897895,0.142267,-0.121189,-0.0859274,0.00656128,-0.0258636,-0.0500488,0.0170135,0.0122833,0.0185394,-0.00278473,0.00961304,-9.97986,0.0396347,0.0124359,0.0144958,-0.23365,0.0352097,0.00396729,0.00305176,0.0200272
34,3,10.0097,0.000610352,0.00198364,-2.43142,0.0535448,-0.0756734,0.0501607,0.103624,-0.0971137,0.143792,-0.126072,-0.0886739,0.00564575,-0.00457764,-0.0333786,0.0162506,0.0111389,0.0193787,-0.00591278,0.0178909,-9.97986,0.0365448,0.00530243,0.0183487,-0.232582,0.0382996,-0.00171661,0.000991821,0.0190353
34,4,10.0097,0.00152588,0.000915527,-2.4302,0.0520189,-0.0762837,0.0492452,0.0831774,-0.0965034,0.143182,-0.126072,-0.0880636,0.00488281,0.00602722,-0.0249481,0.0154495,0.0107956,0.0189972,-0.0019455,0.0174332,-9.97986,0.0328827,0.0146103,0.0189209,-0.22686,0.0391388,0.00232697,0.00434875,0.0196075
34,5,10.0097,0.000915527,0.000457764,-2.42867,0.0544603,-0.075063,0.0532125,0.0758531,-0.0949775,0.144708,-0.128208,-0.0868429,0.0121689,0.00175476,-0.0175095,0.0151825,0.0105667,0.018959,-0.0063324,0.0159073,-9.97986,0.0252914,0.0385284,0.020256,-0.215263,0.0397491,-0.00270844,0.00549316,0.0170898
34,6,10.0097,0.000610352,0.00152588,-2.42776,0.055681,-0.075063,0.0529073,0.0724962,-0.094062,0.145013,-0.125766,-0.0859274,0.0110245,0.00461578,-0.00350952,0.0181198,0.00644684,0.0191116,0.000267029,0.0216675,-9.97986,0.0196075,0.0485992,0.0191879,-0.200653,0.039444,-0.0075531,0.0030899,0.0169754
34,7,10.0097,0.0012207,0.00137329,-2.42837,0.0547655,-0.0756734,0.0510762,0.0712755,-0.0946723,0.145929,-0.125766,-0.0850118,0.00827789,0.0196838,0.00427246,0.0173569,0.00888824,0.0142288,-0.0037384,0.0226593,-9.97986,0.0170135,0.0380325,0.0198746,-0.190659,0.0371552,-0.0101852,0.00457764,0.0185394
34,8,10.0097,0.0012207,0.00106812,-2.42684,0.0547655,-0.0753682,0.0535176,0.0712755,-0.0937568,0.146234,-0.128513,-0.0844015,0.0128937,0.0277328,0.0129318,0.0197601,0.00751495,0.0177383,-0.00469208,0.0246048,-9.97986,0.0122452,0.0197601,0.0213623,-0.183601,0.0371933,-0.0128937,0.00724792,0.0232697
34,9,10.0097,0.000305176,0.000762939,-2.42745,0.055681,-0.0738423,0.054128,0.0706652,-0.0910102,0.145013,-0.125156,-0.0828756,0.00965118,0.0338745,0.016861,0.0164795,0.00850677,0.018692,0.00156403,0.0278473,-9.97986,0.0124359,0.0224686,0.0217819,-0.183907,0.0363922,-0.0292969,0.00453949,0.0190735
35,0,10.0097,0.000305176,0,-2.4247,0.0559862,-0.0738423,0.0544332,0.0706652,-0.090705,0.146234,-0.124851,-0.0828756,0.0118637,0.0339508,0.0251389,0.0166702,0.0056076,0.020752,0.00137329,0.0298309,-9.97986,0.0104141,0.0395584,0.0218201,-0.18261,0.0364685,-0.0421524,0.00453949,0.0209808
35,1,10.0097,0.000915527,0.00137329,-2.42562,0.0565965,-0.0744527,0.0553487,0.0706652,-0.0928413,0.147149,-0.125461,-0.0804342,0.00778198,0.0388336,0.0257111,0.0177383,0.00526428,0.0232315,0.00488281,0.029068,-9.97986,0.00469208,0.0418472,0.0205231,-0.173988,0.0404358,-0.0382996,0.00907898,0.0215912
35,2,10.0097,-0.0012207,-0.00106812,-2.42623,0.0553758,-0.0762837,0.0519917,0.030382,-0.0971137,0.145624,-0.127903,-0.0831808,0.00640869,0.0388336,0.0320435,0.0180054,0.00911713,0.0229263,0.00663757,0.0324249,-9.97986,0.0087738,0.0415421,0.0239563,-0.166435,0.0371552,-0.0276947,0.00450134,0.0227356
35,3,3.9742,0.000610352,-0.00396729,-2.42684,0.0562914,-0.0723164,0.0522969,-0.0178358,-0.100165,0.146844,-0.130649,-0.0831808,0.00495911,0.0413132,0.0338364,0.0185394,0.00637054,0.0221634,0.00274658,0.0457001,-9.97986,0.00789642,0.0533676,0.0215912,-0.157967,0.0376892,-0.0129318,0.00385284,0.0209808
35,4,-3.92344,0.000915527,-0.00335693,-2.42714,0.0559862,-0.0747579,0.0529073,-0.0193617,-0.0974189,0.145929,-0.132175,-0.0813497,0.00675201,0.0450516,0.0398254,0.019455,0.00495911,0.0299454,0.00431061,0.0744247,-9.97986,0.00579834,0.0439072,0.0221634,-0.148315,0.0354004,0.00598907,0.00732422,0.0245285
35,5,-9.99003,0.000610352,-0.00350952,-2.42379,0.0565965,-0.0729268,0.0568746,0.00230578,-0.0925361,0.14776,-0.129123,-0.0798238,0.00751495,0.035553,0.0353622,0.0164032,0.00682831,0.0347137,0.00202179,0.103149,-9.97986,0.00221252,0.0183105,0.0231934,-0.142708,0.0376511,0.0169373,-0.00404358,0.0257492
35,6,-9.99003,0.000305176,-0.0012207,-2.42501,0.0559862,-0.0738423,0.0553487,0.0334337,-0.0903999,0.146844,-0.126682,-0.080129,0.00717163,0.0402832,0.0414276,0.0216675,0.0110245,0.0413513,0.0030899,0.113335,-9.97986,0.00549316,0.00358582,0.0180817,-0.132217,0.0139236,0.0304794,0.00301361,0.0223541
35,7,-9.99003,0.000610352,0.000762939,-2.42562,0.0538499,-0.0747579,0.0547383,0.0535753,-0.0913154,0.145624,-0.127598,-0.0819601,0.00595093,0.0327301,0.0504303,0.0225449,0.00782013,0.0442123,0.00209808,0.11013,-9.97986,0.00331879,-0.00587463,0.0185394,-0.120697,0.0119781,0.0217438,0.00156403,0.0196075
35,8,-9.99003,0.000305176,0.000457764,-2.42623,0.0559862,-0.0753682,0.054128,0.0621202,-0.0919257,0.145318,-0.125461,-0.0822652,0.00507355,0.0379562,0.0604248,0.0245285,0.00389099,0.0493622,-0.00263214,0.107307,-9.97986,0.00202179,-0.0075531,0.0168991,-0.111809,0.00514984,0.0113297,-0.000152588,0.018959
35,9,-9.99003,0.000915527,0.00213623,-2.42623,0.0538499,-0.0753682,0.055959,0.0920275,-0.0879585,0.146844,-0.124546,-0.0825704,0.00431061,0.0547791,0.0723267,0.0240326,0.00980377,0.0483322,0.000724792,0.106506,-9.97986,-0.00354767,-0.00965118,0.0196457,-0.1054,0.031929,0.00236511,-0.00198364,0.0183487
36,0,-4.28813,-0.000305176,0.00518799,-2.42714,0.0538499,-0.0768941,0.0544332,0.137193,-0.0864326,0.142572,-0.122104,-0.0834859,0.00473022,0.0751114,0.0794983,0.02491,0.00270844,0.0538254,-0.00499725,0.116043,-9.97986,-0.00450134,-0.00694275,0.00965118,-0.0876999,0.0237274,0.000152588,-0.000801086,0.0182343
36,1,3.02846,0,0.00579834,-2.42989,0.0535448,-0.0762837,0.0550435,0.153063,-0.0900947,0.144098,-0.122715,-0.0856222,-0.00228882,0.0831985,0.0842667,0.0180435,0.00526428,0.054512,-0.00301361,0.140953,-9.97986,-0.00720978,-0.00743866,0.011673,-0.0699234,0.0174713,-0.00553131,-0.0031662,0.0169373
36,2,10.0097,0.000610352,0.00549316,-2.42867,0.0541551,-0.0765889,0.0571797,0.15764,-0.0891792,0.143792,-0.121189,-0.085317,-0.00198364,0.0896072,0.0845337,0.0141907,0.00385284,0.0584793,-0.00175476,0.152359,-9.97986,-0.000419617,-0.00778198,0.0111389,-0.0582504,0.0192642,-0.00545502,-0.000152588,0.0151443
36,3,10.0097,-0.00152588,0.00289917,-2.43142,0.0523241,-0.0765889,0.0504659,0.104234,-0.0977241,0.141961,-0.125766,-0.0880636,-0.00377655,0.0823593,0.0914383,0.0131607,7.62939e-005,0.0569534,0.00247955,0.136871,-9.97986,-0.00732422,-0.0164032,0.00720978,-0.0472641,0.0183487,-0.00789642,-0.00160217,0.0115204
36,4,10.0097,0.000610352,0.00137329,-2.4305,0.0544603,-0.0756734,0.0513814,0.0837877,-0.0980293,0.143487,-0.126377,-0.0883688,0.00392914,0.076561,0.0855637,0.00873566,0.00175476,0.0540161,0.0104904,0.078125,-9.97986,-0.00988007,-0.00808716,0.0087738,-0.0336838,0.0151443,-0.0117874,-0.000648499,0.010376
36,5,10.0097,-0.000610352,0.00167847,-2.42928,0.0535448,-0.0759786,0.0532125,0.0752428,-0.095893,0.145013,-0.126072,-0.0865377,0.00709534,0.110207,0.0881577,0.0146103,0.0018692,0.0488663,0.0133514,0.00133514,-9.97986,-0.0157928,-0.0100708,0.0134277,-0.022316,0.0130081,-0.00530243,0.00282288,0.013237
36,6,10.0097,0.000915527,0.000762939,-2.42837,0.0559862,-0.0747579,0.0526021,0.0718859,-0.0931465,0.146234,-0.126377,-0.0862325,0.0126648,0.185699,0.0981903,0.0278091,0.00328064,0.0457382,0.0183487,-0.0406647,-9.97986,-0.021553,-0.000457764,0.0162888,-0.0069046,0.0177002,-0.000839233,0.00370026,0.0135422
36,7,10.0097,0.0012207,0.000915527,-2.42684,0.0544603,-0.0744527,0.0529073,0.0718859,-0.094062,0.145318,-0.125766,-0.0847066,0.0130081,0.245247,0.0998306,0.0286484,0.00473022,0.0498581,0.0244522,-0.00911713,-9.97986,-0.0279617,-0.00247955,0.0138474,0.00141144,0.0181961,-0.0043869,0.0037384,0.014534
36,8,10.0097,0,0.0012207,-2.42776,0.0538499,-0.0753682,0.0538228,0.0712755,-0.0934516,0.142877,-0.125766,-0.0840963,0.0127792,0.223656,0.0905228,0.0239944,0.00793457,0.0469971,0.0320053,-0.00637054,-9.97986,-0.0284958,0.00354767,0.0159073,0.00999451,0.0200653,-0.00595093,0.00934601,0.0156784
36,9,10.0097,-0.0012207,0.00106812,-2.42562,0.0553758,-0.075063,0.0544332,0.0709703,-0.0937568,0.143792,-0.124546,-0.0831808,0.00770569,0.0959396,0.0720215,0.0163651,0.00671387,0.0458527,0.0288773,-0.0194931,-9.97986,-0.0237274,-0.00514984,0.0158691,0.00846863,0.0209427,-0.0108719,0.00843048,0.0133133
37,0,10.0097,0,-0.000152588,-2.42623,0.0559862,-0.0741475,0.0538228,0.0724962,-0.0913154,0.143182,-0.124851,-0.0816549,0.0130081,-0.0317383,0.0596237,0.00244141,0.00701904,0.0493622,0.0341797,-0.0324249,-9.97986,-0.0139236,-0.00823975,0.0162506,0.00408173,0.0188065,-0.00846863,0.00713348,0.0134659
37,1,10.0097,-0.000305176,0.000152588,-2.4247,0.0569017,-0.0735371,0.0547383,0.072191,-0.0919257,0.145318,-0.125461,-0.0816549,0.0112534,-0.0832748,0.0552368,0.00164032,0.00785828,0.0537872,0.0402069,-0.0547791,-9.97986,-0.0094986,-0.0104141,0.0125885,-0.00835419,0.018959,-0.0115204,0.00930786,0.0130844
37,2,10.0097,0.000915527,-0.00198364,-2.42684,0.0544603,-0.0747579,0.0522969,0.030382,-0.0977241,0.145013,-0.127903,-0.0837911,0.0204086,-0.0566101,0.0457382,0.00171661,0.00808716,0.0575638,0.0443649,-0.055809,-9.97986,-0.000114441,-0.00869751,0.0158691,-0.0153732,0.0178528,-0.011673,0.0167084,0.010376
37,3,3.94307,0,-0.00488281,-2.42684,0.0559862,-0.0735371,0.0510762,-0.0175306,-0.101081,0.146844,-0.130039,-0.0831808,0.0229263,0.00141144,0.0483704,-0.000267029,0.0069046,0.0613403,0.0496292,-0.045929,-9.97986,0.00247955,-0.00965118,0.0129318,-0.0198364,0.0161362,-0.0082016,0.0171661,0.0137711
37,4,-3.97777,0.0012207,-0.00442505,-2.42653,0.0569017,-0.0738423,0.0538228,-0.0193617,-0.0974189,0.148065,-0.129429,-0.0813497,0.0200653,0.0766373,0.0592804,-0.00637054,0.0104904,0.0682449,0.0575638,-0.0205612,-9.97986,0.0108719,-0.00663757,0.015831,-0.0201416,0.020752,-0.00545502,0.0181198,0.0114059
37,5,-9.99003,0.00213623,-0.0050354,-2.42409,0.0559862,-0.0735371,0.055959,0.00261096,-0.0934516,0.146539,-0.128818,-0.0804342,0.0154877,0.0878143,0.0530624,-0.00888824,0.00579834,0.074501,0.0559616,0.0256729,-9.97986,0.0238419,0.00118256,0.015564,-0.0229645,0.0175858,0.00141144,0.0189972,0.0122452
37,6,-9.99003,0,-0.00366211,-2.42531,0.055681,-0.0747579,0.0556539,0.0334337,-0.0913154,0.145624,-0.126377,-0.0810445,0.0164795,0.0281143,0.0211716,-0.00370026,0.00904083,0.0825882,0.0609207,0.0504303,-9.97986,0.0283813,0.00728607,0.012207,-0.0412369,-0.00938416,-0.0019455,0.0158691,0.00930786
37,7,-9.99003,-0.000915527,-0.00137329,-2.42501,0.0559862,-0.0744527,0.0556539,0.0560167,-0.090705,0.145013,-0.126072,-0.0813497,0.0173569,-0.03582,-0.0297546,0.00858307,0.00839233,0.0928879,0.0679398,0.038681,-9.97986,0.0469589,0.00549316,0.019722,-0.0514603,-0.00259399,0.00488281,0.0259018,0.0152206
37,8,-9.99003,-0.000610352,-0.00228882,-2.42653,0.0550706,-0.0744527,0.0547383,0.0627306,-0.0919257,0.144098,-0.126072,-0.0822652,-0.000228882,-0.100327,-0.087204,0.0075531,0.00209808,0.0914383,0.0643158,-0.0156021,-9.97986,0.0561905,-0.019455,0.00812531,-0.082016,-0.0141144,-0.00499725,0.0157166,0.00476837
37,9,-9.99003,0.00183105,-0.000152588,-2.42592,0.0544603,-0.0747579,0.0553487,0.0935533,-0.0885688,0.144098,-0.124851,-0.0825704,0.00640869,-0.123558,-0.100594,0.0289536,0.0094986,0.108871,0.0753403,-0.0305557,-9.97986,0.0641251,-0.0268936,0.0103378,-0.0918579,0.015564,0.0031662,0.0278473,0.0117874
38,0,-4.35466,0.00183105,0.00274658,-2.42592,0.0541551,-0.0759786,0.054128,0.137193,-0.0882636,0.144098,-0.121494,-0.0847066,0.00297546,-0.104675,-0.0871277,0.0320053,0.00965118,0.10746,0.0712585,-0.0402069,-9.97986,0.0695419,-0.0226212,0.0153732,-0.115852,0.0161362,0.00247955,0.0278473,0.0118256
38,1,2.9659,0.000915527,0.00289917,-2.42745,0.0547655,-0.0753682,0.0532125,0.155199,-0.0882636,0.143792,-0.120884,-0.0850118,0.00686646,-0.0775146,-0.0473022,0.0289536,0.00762939,0.114517,0.0728989,-0.0356293,-9.97986,0.0618362,-0.0168228,0.0104904,-0.138016,0.0118637,-0.00255585,0.027504,0.00854492
38,2,10.0097,0.00244141,0.00213623,-2.42776,0.0544603,-0.0762837,0.0532125,0.155504,-0.0885688,0.144403,-0.120884,-0.0862325,0.0124359,-0.0657654,-0.00709534,0.0345993,0.0102615,0.116081,0.0743866,0.0133514,-9.97986,0.04776,-0.00637054,0.0125504,-0.165291,0.010643,-0.00526428,0.0324249,0.00495911
38,3,10.0097,0.0012207,-0.000305176,-2.43081,0.0523241,-0.0778096,0.04894,0.103624,-0.0974189,0.142572,-0.126682,-0.0898946,0.0216675,-0.0537109,0.0328064,0.0179291,0.00862122,0.12085,0.0724792,0.030899,-9.97986,0.0377274,0.0144196,0.00972748,-0.187683,0.0128937,-0.00255585,0.0384903,0.00881195
38,4,10.0097,0,-0.00228882,-2.4305,0.0541551,-0.075063,0.0504659,0.082567,-0.0974189,0.144708,-0.126987,-0.0892843,0.0156784,-0.0282288,0.0595474,0.0056076,0.00701904,0.126228,0.0733566,-0.025177,-9.97986,0.0325012,0.0130081,0.00892639,-0.214615,0.00816345,-0.00572205,0.0402832,0.0038147
38,5,10.0097,-0.000610352,-0.00183105,-2.42867,0.0544603,-0.0747579,0.0532125,0.0758531,-0.0955879,0.144403,-0.125461,-0.0874532,0.0094986,-0.000343323,0.063324,-0.000152588,0.0107956,0.129738,0.0770569,-0.089035,-9.97986,0.0260544,-0.0209427,0.0138092,-0.235748,0.00965118,-0.00766754,0.0418854,3.8147e-005
38,6,10.0097,0.00152588,-0.00198364,-2.42837,0.0541551,-0.0771993,0.0532125,0.0734117,-0.0934516,0.146539,-0.126377,-0.085317,0.01297,0.0370407,0.0455856,-0.00236511,0.0120544,0.132217,0.0786209,-0.105209,-9.97986,0.0185013,-0.038681,0.00656128,-0.248032,0.0114059,-0.00408173,0.0447845,0.0012207
38,7,10.0097,0.0012207,-0.00167847,-2.42745,0.0553758,-0.0756734,0.0532125,0.0718859,-0.0934516,0.147455,-0.126377,-0.0844015,0.0202179,0.099678,0.0402451,-0.00343323,0.00602722,0.131073,0.0737762,-0.113449,-9.97986,0.0183868,-0.0265884,0.00835419,-0.259094,0.0127029,-0.00789642,0.0469589,-0.00263214
38,8,10.0097,0.00183105,-0.000152588,-2.42653,0.0544603,-0.0744527,0.0535176,0.07036,-0.0931465,0.147149,-0.126682,-0.0850118,0.0226212,0.179176,0.0250244,0.000114441,0.00961304,0.134964,0.0803375,-0.0957489,-9.97986,0.0180817,-0.0203705,0.00911713,-0.255775,0.0154114,-0.00553131,0.0478363,-0.00297546
38,9,10.0097,0.0012207,0.000610352,-2.42714,0.0547655,-0.0744527,0.0538228,0.0718859,-0.0934516,0.146539,-0.126377,-0.0828756,0.0151062,0.208817,0.00572205,-0.00167847,0.00782013,0.128326,0.0814819,-0.0796127,-9.97986,0.0292969,-0.00106812,0.00614166,-0.247002,0.0151062,-0.0056076,0.0498199,-0.00545502
39,0,10.0097,0.000610352,0.00137329,-2.42623,0.0569017,-0.0744527,0.0553487,0.0709703,-0.0919257,0.145013,-0.124546,-0.0816549,0.019722,0.187569,-0.0150299,-0.0019455,0.00999451,0.127487,0.0869751,-0.0501633,-9.97986,0.0479507,0.017128,0.0124741,-0.229759,0.020256,-0.00419617,0.0551224,-0.00434875
39,1,10.0097,-0.00213623,0.00137329,-2.4247,0.0553758,-0.0741475,0.0544332,0.0715807,-0.0919257,0.141961,-0.124241,-0.0807394,0.0170517,0.0520706,-0.0835037,-0.00244141,0.00854492,0.11879,0.0911713,-0.0239563,-9.97986,0.0495911,0.0218201,0.00724792,-0.208206,0.0298309,0.00247955,0.0538254,-0.00595093
39,2,10.0097,-0.000915527,0.000610352,-2.42867,0.0565965,-0.0738423,0.0513814,0.0331285,-0.0974189,0.143487,-0.128208,-0.0816549,0.00904083,-0.105438,-0.164413,0.00236511,0.00835419,0.115433,0.0914001,-0.00236511,-9.97986,0.0654221,0.0157547,0.00789642,-0.180206,0.0348663,-0.00118256,0.059433,-0.00587463
39,3,4.05568,0.000915527,-0.00198364,-2.42684,0.0562914,-0.0744527,0.0513814,-0.0172255,-0.0986396,0.143487,-0.130954,-0.0828756,0.00946045,-0.157623,-0.187187,0.00782013,0.00576019,0.110588,0.095787,0.00770569,-9.97986,0.0666809,0.0265503,0.0108337,-0.157738,0.03582,-0.00267029,0.0541687,-0.00827789
39,4,-3.85783,0.0012207,-0.00244141,-2.42592,0.0562914,-0.0741475,0.0544332,-0.019972,-0.0965034,0.146234,-0.130344,-0.0804342,0.0082016,-0.137825,-0.146141,0.00854492,0.00770569,0.107384,0.0948334,0.0139618,-9.97986,0.0618744,0.0402069,0.00782013,-0.123329,0.0405502,-0.00244141,0.056839,-0.00892639
39,5,-9.99003,0.00183105,-0.00183105,-2.4247,0.0565965,-0.0735371,0.0556539,0.00108508,-0.0925361,0.14837,-0.129123,-0.0795187,0.00995636,-0.0979996,-0.0959396,0.00926971,0.00804901,0.0955963,0.0993729,0.013237,-9.97986,0.0537872,0.0363922,0.00801086,-0.0974274,0.0431061,0.000228882,0.0543976,-0.0101852
39,6,-9.99003,0.000915527,0,-2.42562,0.0559862,-0.075063,0.0562642,0.0328234,-0.0913154,0.147455,-0.126987,-0.0804342,0.0115967,-0.0468063,-0.0559998,0.0121307,0.0075531,0.0864792,0.104218,0.0185013,-9.97986,0.0484848,0.0325394,0.00900269,-0.074234,0.0183487,-0.00152588,0.0494003,-0.00976563
39,7,-9.99003,0.0012207,0.00137329,-2.42653,0.0550706,-0.0741475,0.0547383,0.0541857,-0.0922309,0.146234,-0.126682,-0.0813497,0.0122452,-0.0201035,-0.0260162,0.0101471,0.010376,0.0801468,0.104752,0.0247574,-9.97986,0.036087,0.0299454,0.0116348,-0.0603485,0.0152969,0.00736237,0.0490189,-0.0094986
39,8,-9.99003,0.000915527,0.000915527,-2.42592,0.0547655,-0.0744527,0.055959,0.0627306,-0.0916206,0.146844,-0.123935,-0.0822652,0.00717163,-0.00556946,-0.0169754,0.0118256,0.00793457,0.0690079,0.104446,0.0271606,-9.97986,0.0323105,0.0325012,0.00762939,-0.0396347,0.0123215,0.00679016,0.0485992,-0.0121307
39,9,-9.99003,0.000915527,0.00259399,-2.42684,0.0550706,-0.0744527,0.054128,0.094774,-0.0891792,0.145624,-0.124851,-0.0831808,0.00778198,0.00358582,-0.00541687,0.00988007,0.0130844,0.0585938,0.108261,0.0269699,-9.97986,0.0271988,0.0446701,0.010643,-0.0288773,0.0339508,0.00770569,0.044136,-0.0125122
40,0,-4.18742,0.000610352,0.00518799,-2.42745,0.0544603,-0.0762837,0.054128,0.136888,-0.0879585,0.144098,-0.12302,-0.0837911,0.0117111,0.0075531,0.00175476,0.00827789,0.0117111,0.0431442,0.110092,0.0270844,-9.97986,0.0170517,0.0447083,0.00968933,-0.0170517,0.0286865,0.00617981,0.0443649,-0.0123596
40,1,3.08583,0,0.00488281,-2.42837,0.0538499,-0.0753682,0.0550435,0.153978,-0.0879585,0.144098,-0.12241,-0.085317,0.0116348,0.0075531,0.0069046,0.01091,0.0151825,0.0347137,0.112686,0.0307465,-9.97986,0.0151062,0.0112915,0.0101089,-0.0102234,0.0248718,0.00675201,0.0413895,-0.0185394
40,2,10.0097,0.000915527,0.0050354,-2.42867,0.0541551,-0.0756734,0.054128,0.155504,-0.0897895,0.143182,-0.121494,-0.085317,0.0120544,0.0100708,0.0111389,0.00999451,0.0109863,0.026207,0.112686,0.0328064,-9.97986,0.0127411,-0.00747681,0.00965118,-0.0108719,0.0226593,0.00797272,0.038414,-0.0168228
40,3,10.0097,0.000610352,0.00228882,-2.43081,0.0526292,-0.0771993,0.0504659,0.104234,-0.0974189,0.142877,-0.126072,-0.0883688,0.00862122,0.0162125,0.019722,0.0161362,0.0128555,0.0179291,0.117645,0.0363159,-9.97986,0.0130844,0.00164032,0.00831604,-0.00335693,0.0261307,0.00957489,0.0339127,-0.0161743
40,4,10.0097,-0.000610352,0.0012207,-2.43081,0.0529344,-0.0759786,0.0504659,0.0837877,-0.0974189,0.142877,-0.126682,-0.0883688,0.00488281,0.013504,0.0183105,0.010643,0.0104523,0.0100708,0.116768,0.0368881,-9.97986,0.0037384,-0.0114441,0.00415802,0.00339508,0.0233459,0.00854492,0.02491,-0.0187302
