
Devices
1200
,,BP Load cell - Voltage,String Length - Voltage,Clutch Active - Voltage,#7 iPecs - Voltage,,,,,,,,,EMG 1-8 Left - Voltage,,,,,,,,Pylon Force - Voltage,EMG 9-16 Right - Voltage,,,,,,,,
Frame,Sub Frame,BP Load Cell,String Length,From Arduino Logic,A45,A135,A225,A315,S0,S90,S180,S270,ZSum,EMG 1 Glut Max,EMG 2 Glut Med,EMG 3 Biceps Femoris Long,EMG 4 Rectus Femoris,EMG 5 Vastus Medialis,EMG 6 Tib Ant,EMG 7 Med Gas,EMG 8 Soleus,Pylon volts,EMG 9 Glut Max,EMG 10 Glut Med,EMG 11 Biceps Femoris Long,EMG 12 Rectus Femoris,EMG 13 Vastus Medialis,EMG 14 Tib Ant,EMG 15 Med Gas,EMG 16 Soleus
,,V,V,V,V,V,V,V,V,V,V,V,V,V,V,V,V,V,V,V,V,V,V,V,V,V,V,V,V,V
1,0,10.0097,0.00152588,-0.000610352,-2.42959,0.0544603,-0.0753682,0.0510762,0.0691393,-0.0968086,0.142877,-0.127598,-0.0871481,0.0104523,0.0429916,0.0127411,-0.00659943,-0.00652313,0.0171661,0.0268936,0.00965118,-9.97986,0.0217819,-0.00873566,0.00923157,-0.186234,0.0324631,0.100517,0.00961304,-0.00198364
1,1,10.0097,0.000305176,-0.000457764,-2.42684,0.0535448,-0.0759786,0.0529073,0.0682238,-0.0946723,0.144098,-0.126072,-0.0862325,0.0105667,0.0310135,0.00694275,-0.00183105,-0.00713348,0.0168991,0.0244141,0.0203323,-9.97986,0.0150299,-0.00736237,0.00289917,-0.196724,0.0334549,0.0928116,0.000190735,-0.00404358
1,2,10.0097,-0.000610352,0.000152588,-2.42806,0.0541551,-0.0756734,0.054128,0.0688341,-0.0925361,0.142877,-0.126987,-0.0850118,0.00659943,0.00125885,-0.00286102,0.00408173,0.00160217,0.019989,0.0251389,0.0205612,-9.97986,0.017662,-0.0123215,0.00423431,-0.196037,0.0323868,0.0931168,0.000534058,-0.0031662
1,3,10.0097,-0.000305176,-0.000762939,-2.42745,0.0535448,-0.0756734,0.0529073,0.0691393,-0.0937568,0.144098,-0.124851,-0.0850118,0.00480652,-0.0132751,-0.0161743,-0.00244141,0.0101471,0.0234222,0.0218201,0.0236511,-9.97986,0.0213242,-0.0119019,0.00907898,-0.210228,0.0285721,0.0835419,0.00389099,-0.00148773
1,4,10.0097,0.000915527,-0.000915527,-2.42684,0.0550706,-0.075063,0.0529073,0.0685289,-0.0928413,0.145624,-0.126682,-0.0850118,0.0038147,-0.0132751,-0.0245667,-0.000991821,0.0114822,0.0294876,0.0210571,0.0200272,-9.97986,0.0200272,-0.0122452,0.00087738,-0.223808,0.0251007,0.0746536,0.000610352,0.000534058
1,5,10.0097,-0.000305176,-0.000915527,-2.42592,0.0550706,-0.0738423,0.0544332,0.0718859,-0.090705,0.145318,-0.124546,-0.0837911,0.00709534,-0.0100327,-0.0177765,-0.0131226,0.0170898,0.032959,0.0169373,0.0239944,-9.97986,0.0222778,-0.0154495,0.00469208,-0.237732,0.0196457,0.0694656,0.00411987,0.0031662
1,6,10.0097,-0.000610352,-0.000610352,-2.4244,0.055681,-0.0741475,0.0550435,0.0685289,-0.0916206,0.146844,-0.124851,-0.0810445,0.00553131,-0.00850677,-0.00671387,-0.0366974,0.0139618,0.0391388,0.0170517,0.0188828,-9.97986,0.0186539,-0.00999451,0.00419617,-0.237541,0.0169373,0.0664902,0.00595093,0.00736237
1,7,10.0097,0.000915527,0.000457764,-2.42501,0.0569017,-0.0741475,0.0544332,0.07036,-0.0903999,0.147149,-0.123935,-0.0807394,0.0111771,-0.00160217,0.00831604,-0.0581741,0.0232697,0.0335693,0.019989,0.0180054,-9.97986,0.0146103,-0.0134659,0.00324249,-0.225334,0.0193787,0.0623322,0.00965118,0.00484467
1,8,10.0097,0.000305176,0.00106812,-2.42592,0.0562914,-0.0729268,0.0538228,0.0728014,-0.0919257,0.145929,-0.123935,-0.0816549,0.0102997,0.00873566,0.019455,-0.0379562,0.0230789,0.0474548,0.0231934,0.0262451,-9.97986,0.0131226,-0.0111008,0.00282288,-0.216064,0.0169373,0.0558472,0.0121307,0.00164032
1,9,10.0097,0.000915527,0.00106812,-2.4244,0.0559862,-0.0738423,0.055959,0.0734117,-0.0919257,0.147455,-0.124241,-0.0813497,0.0143433,0.0136948,0.0229263,0.0175476,0.0267792,0.0492096,0.0192642,0.0387192,-9.97986,0.0123978,-0.0112152,0.00675201,-0.210266,0.0172424,0.053215,0.0138474,0.0056076
2,0,10.0097,0.00274658,0.000305176,-2.42653,0.0562914,-0.0735371,0.0535176,0.0532701,-0.0949775,0.145318,-0.125156,-0.0816549,0.0191498,0.0115585,0.0234222,0.0692749,0.0270081,0.0556183,0.0232697,0.0347137,-9.97986,0.0144196,-0.0117493,0.00495911,-0.204277,0.016098,0.0415039,0.0123215,0.00286102
2,1,9.66664,0.000915527,-0.00106812,-2.42531,0.0553758,-0.0744527,0.0544332,0.0468614,-0.0934516,0.146844,-0.126377,-0.0819601,0.0149918,0.0112152,0.0265884,0.0816727,0.0329208,0.0572968,0.0237656,0.0310135,-9.97986,0.0157928,-0.01297,0.00717163,-0.205498,0.017662,0.0370026,0.0137329,0.00179291
2,2,8.41664,0,-0.000610352,-2.42623,0.0553758,-0.0735371,0.054128,0.054796,-0.0931465,0.145013,-0.125766,-0.0819601,0.00106812,0.016098,0.0310516,0.0774002,0.0337219,0.0630188,0.0204468,0.0279617,-9.97986,0.0152588,-0.0138474,0.00541687,-0.201225,0.0175858,0.0278473,0.0123978,-0.00236511
2,3,8.25398,0,-0.000305176,-2.42653,0.055681,-0.0741475,0.0532125,0.0645616,-0.0922309,0.145929,-0.124546,-0.0804342,-0.0282288,0.00881195,0.0359726,0.0657272,0.0336456,0.0564957,0.0177383,0.026741,-9.97986,0.016098,-0.0117111,0.00282288,-0.20256,0.0175095,0.00171661,0.0124359,-0.00499725
2,4,8.52223,0.000610352,0.000152588,-2.42653,0.055681,-0.0756734,0.0544332,0.0712755,-0.0916206,0.146539,-0.125766,-0.0828756,-0.033226,0.00579834,0.0453949,0.0675201,0.0333786,0.0647354,0.0163651,0.033226,-9.97986,0.0194931,-0.00537872,0.000152588,-0.20462,0.0190353,-0.0260544,0.0196457,-0.00492096
2,5,10.0097,0,0.000762939,-2.42714,0.055681,-0.0753682,0.0550435,0.0917223,-0.090705,0.145318,-0.125156,-0.0840963,-0.0394821,0.0136185,0.0483322,0.0660324,0.0296783,0.0709534,0.0179672,0.0435638,-9.97986,0.0330353,0.00087738,-0.00190735,-0.206337,0.0204086,-0.0366974,0.0239563,-0.00621796
2,6,10.0097,-0.0012207,0.000915527,-2.42928,0.0529344,-0.0759786,0.0526021,0.0898912,-0.0928413,0.144403,-0.125461,-0.0877584,-0.0332642,0.021286,0.0450134,0.0600433,0.0362015,0.0781631,0.0156403,0.0460052,-9.97986,0.0361633,0.00141144,-0.0118637,-0.213013,0.0190735,-0.0397873,0.0256729,-0.00617981
2,7,10.0097,0.000915527,-0.000152588,-2.42959,0.0538499,-0.0756734,0.0516866,0.0761583,-0.0949775,0.143792,-0.126987,-0.0865377,-0.0069809,0.023613,0.0322342,0.0504303,0.0403976,0.0779343,0.0103378,0.0278854,-9.97986,0.0502396,0.0082016,-0.0161743,-0.212135,0.0137329,-0.0359344,0.0299072,-0.00988007
2,8,10.0097,0,-0.000152588,-2.42837,0.0535448,-0.0765889,0.0510762,0.0728014,-0.0934516,0.144098,-0.126987,-0.0868429,0.0221252,0.00255585,0.00995636,0.0443649,0.0390625,0.0728607,0.0139999,0.0124741,-9.97986,0.0507355,0.00648499,-0.0240326,-0.207787,0.0155258,-0.0321579,0.0331497,-0.0110245
2,9,10.0097,0.000915527,0.000152588,-2.42867,0.0538499,-0.0768941,0.0522969,0.0682238,-0.0952827,0.144098,-0.128208,-0.0898946,0.0561905,0.00522614,0.0056839,0.0418854,0.0419235,0.0704193,0.0190735,0.0105286,-9.97986,0.047226,0.0104523,-0.0209808,-0.200157,0.0156403,-0.029335,0.0346756,-0.00896454
3,0,10.0097,0.000305176,-0.000457764,-2.43233,0.0532396,-0.0759786,0.0522969,0.0697496,-0.0955879,0.143792,-0.127598,-0.0859274,0.0849915,0.00953674,-0.000762939,0.0310516,0.045929,0.0671005,0.0217438,0.00507355,-9.97986,0.0382233,0.00934601,-0.0161362,-0.189476,0.0167847,-0.0296402,0.0382996,-0.00797272
3,1,10.0097,0,0.00106812,-2.42806,0.0538499,-0.0762837,0.0522969,0.0682238,-0.0952827,0.144098,-0.126987,-0.0862325,0.0949478,0.0209045,-0.00473022,0.0388336,0.0478363,0.0559235,0.0186157,0.00244141,-9.97986,0.0218201,0.0160217,-0.00946045,-0.177422,0.0190735,-0.0281906,0.0475311,-0.00518799
3,2,10.0097,-0.000915527,0.000915527,-2.42776,0.0538499,-0.0753682,0.0532125,0.0679186,-0.0943672,0.145013,-0.127292,-0.0865377,0.066452,0.0234604,-0.00144958,0.0354767,0.0466919,0.044136,0.0151443,-0.00713348,-9.97986,0.00663757,0.0114441,-0.00358582,-0.159607,0.0167847,-0.039978,0.0486374,-0.000648499
3,3,10.0097,-0.0012207,0.0012207,-2.43081,0.0544603,-0.0741475,0.0535176,0.0697496,-0.094062,0.144403,-0.126682,-0.0844015,0.0302124,0.0201035,0.000801086,0.0315094,0.0411606,0.0509644,0.0164413,-0.0168228,-9.97986,-0.00797272,0.00934601,-0.00312805,-0.139008,0.0177383,-0.0492477,0.0445175,0.000152588
3,4,10.0097,0.00152588,0.00152588,-2.42714,0.0559862,-0.075063,0.0538228,0.0700548,-0.0934516,0.147149,-0.126072,-0.0831808,0.0050354,0.020256,0.00213623,0.0327301,0.0375748,0.0524902,0.0181198,-0.0193787,-9.97986,-0.0208282,0.0133514,0.00499725,-0.124741,0.016098,-0.0569153,0.0403214,0.00247955
3,5,10.0097,-0.000305176,0.00137329,-2.42501,0.0544603,-0.0744527,0.0544332,0.0700548,-0.0913154,0.145624,-0.125461,-0.0850118,-0.0170517,0.0175858,0.00499725,0.0277328,0.0305939,0.0497818,0.013237,-0.0127792,-9.97986,-0.0397491,0.00225067,0,-0.119476,0.0102615,-0.0785446,0.0395966,0.00518799
3,6,10.0097,0.000305176,0.000457764,-2.42287,0.055681,-0.0741475,0.0544332,0.0706652,-0.0925361,0.145929,-0.125766,-0.0825704,-0.0269318,0.0201797,0.00415802,0.0235367,0.0320435,0.0472641,0.0175858,0.00320435,-9.97986,-0.0478363,-0.0031662,-0.00038147,-0.114975,0.0113678,-0.075798,0.0378036,0.00404358
3,7,10.0097,-0.000610352,0.00106812,-2.4244,0.0572069,-0.073232,0.0553487,0.0706652,-0.0913154,0.145013,-0.124241,-0.0804342,-0.0143814,0.0163269,0.000267029,0.0176239,0.0287628,0.0351334,0.0138474,-0.00160217,-9.97986,-0.0669479,-0.00205994,-0.00537872,-0.108681,0.015831,-0.0754166,0.0353241,-7.62939e-005
3,8,10.0097,0.000610352,0.000457764,-2.42562,0.0562914,-0.0735371,0.0547383,0.072191,-0.0910102,0.14776,-0.125156,-0.080129,0.0109863,0.0139999,0.00133514,0.0165558,0.0271606,0.0394058,0.0120544,-0.00289917,-9.97986,-0.0511169,-0.00244141,-0.00816345,-0.0994873,0.0144577,-0.068779,0.0354767,0.00205994
3,9,10.0097,0,0.00167847,-2.42745,0.0565965,-0.0729268,0.0553487,0.0737169,-0.0891792,0.146844,-0.124241,-0.0804342,0.0485611,0.0102997,0.00640869,0.0180817,0.0263596,0.0381851,0.0131607,0.00354767,-9.97986,-0.0110245,0.00404358,-0.0101089,-0.0834656,0.0164795,-0.0673294,0.0320816,0.00427246
4,0,10.0097,0.00152588,0.00137329,-2.42623,0.0553758,-0.0735371,0.0547383,0.0532701,-0.0934516,0.146234,-0.125766,-0.0813497,0.0531769,0.0121307,0.00774384,0.0156784,0.0247574,0.0346375,0.0121307,0.0088501,-9.97986,0.012207,0.000991821,-0.00812531,-0.0676346,0.0209045,-0.0587082,0.0321579,0.00457764
4,1,9.71089,0.00152588,0.000305176,-2.42562,0.0562914,-0.0744527,0.0544332,0.049608,-0.0937568,0.146844,-0.125461,-0.080129,0.0320816,0.0126266,0.0102615,0.0120544,0.0267029,0.0350952,0.0151443,0.0062561,-9.97986,0.0405121,-0.000686646,-0.00892639,-0.0437546,0.0261688,-0.0518799,0.0280762,0.0107956
4,2,8.52895,-0.000305176,0.00106812,-2.4244,0.0550706,-0.0744527,0.0544332,0.0554064,-0.0925361,0.147149,-0.125156,-0.0807394,0.00141144,0.0102234,0.0115967,0.0102234,0.0324249,0.0359726,0.0181198,0.00228882,-9.97986,0.0652313,-0.001297,-0.0112915,-0.0254059,0.0270462,-0.0535202,0.0293732,0.00984192
4,3,8.32417,0.00213623,0.00183105,-2.42653,0.0553758,-0.0753682,0.054128,0.0648668,-0.0919257,0.145318,-0.125156,-0.0822652,-0.00797272,0.0111771,0.0110245,0.00812531,0.0294495,0.0267792,0.0118256,0.00747681,-9.97986,0.0640488,0.00492096,-0.00431061,-0.00518799,0.0292587,-0.0558472,0.0292969,0.013504
4,4,8.61318,0.000305176,0.00228882,-2.42562,0.0553758,-0.0747579,0.0544332,0.0709703,-0.0913154,0.145013,-0.126377,-0.0825704,-0.0254822,0.0126648,0.00602722,0.0122833,0.0352859,0.0222397,0.0196838,0.0109863,-9.97986,0.0513077,0.00576019,-0.00175476,0.0112152,0.0310898,-0.0570297,0.0208282,0.014267
4,5,10.0097,0.000915527,0.00274658,-2.4244,0.0538499,-0.0759786,0.0550435,0.0914171,-0.0882636,0.145318,-0.124241,-0.0834859,-0.0361252,0.00888824,0.0126648,0.00736237,0.0362015,0.0171661,0.012207,0.0138855,-9.97986,0.045166,0.00469208,0.00175476,0.0353241,0.0294495,-0.0577927,0.00804901,0.0138855
4,6,10.0097,0.00152588,0.00274658,-2.42837,0.0538499,-0.0756734,0.0519917,0.0883654,-0.0934516,0.143792,-0.126377,-0.0859274,-0.0233841,0.00873566,0.0121307,0.0075531,0.039711,0.00923157,0.0178146,0.0202942,-9.97986,0.0443268,0.00038147,0.00461578,0.0568008,0.0260162,-0.0562668,-0.00213623,0.0136185
4,7,10.0097,-0.000610352,0.00228882,-2.42928,0.0535448,-0.0759786,0.0529073,0.075548,-0.0943672,0.142877,-0.127292,-0.0856222,0.00656128,0.00705719,0.00717163,0.00331879,0.040741,0.00637054,0.0125122,0.0255966,-9.97986,0.0465012,0.0018692,0.00782013,0.0783157,0.0230408,-0.0515747,-0.011673,0.0189972
4,8,10.0097,0.00244141,0.00213623,-2.42867,0.0544603,-0.0762837,0.0526021,0.0718859,-0.101081,0.144098,-0.126682,-0.085317,0.019722,0.00881195,0.0117874,0.00343323,0.0436783,-0.000534058,0.0114059,0.0289917,-9.97986,0.0430298,-0.000991821,0.00751495,0.0989532,0.0192642,-0.0502014,-0.0229645,0.0269699
4,9,10.0097,0.0012207,0.00198364,-2.42806,0.0535448,-0.0762837,0.0529073,0.0697496,-0.0952827,0.144098,-0.127903,-0.0874532,0.0153351,0.00827789,0.0125885,0.00495911,0.0461578,-0.00919342,0.00915527,0.0349808,-9.97986,0.0475311,-0.00495911,0.00457764,0.117073,0.0161743,-0.0473785,-0.029068,0.0235367
5,0,10.0097,0.00183105,0.00198364,-2.42867,0.0544603,-0.0771993,0.0519917,0.0694445,-0.0952827,0.143182,-0.127292,-0.0868429,0.0138474,0.0115585,0.0120163,0.00656128,0.0440598,-0.0180054,0.00869751,0.0333786,-9.97986,0.0444031,-0.00549316,0.0114822,0.140915,0.0088501,-0.0424576,-0.0317383,0.0205231
5,1,10.0097,-0.000915527,0.00152588,-2.42806,0.0544603,-0.0765889,0.0529073,0.07036,-0.094062,0.143792,-0.128208,-0.0859274,0.00972748,0.0173569,0.0192642,0.00873566,0.0493622,-0.0154495,0.010643,0.0378799,-9.97986,0.045166,-0.00778198,-0.0019455,0.16098,0.0114822,-0.0373077,-0.0329971,0.0261688
5,2,10.0097,0.000305176,0.00259399,-2.42776,0.0550706,-0.0744527,0.054128,0.0688341,-0.0931465,0.145318,-0.126072,-0.0850118,0.00667572,0.021553,0.02388,0.0113297,0.051651,-0.00869751,0.015564,0.0335312,-9.97986,0.0574112,-0.00751495,-0.0087738,0.180092,0.0120926,-0.0394058,-0.0375366,0.0293732
5,3,10.0097,0.000610352,0.00228882,-2.42714,0.0529344,-0.0756734,0.0529073,0.0685289,-0.0928413,0.145929,-0.126377,-0.0844015,0.00850677,0.0260162,0.0342941,0.0157547,0.051651,-0.0207138,0.0143814,0.0308228,-9.97986,0.0455093,-0.0113297,-0.00766754,0.195236,0.011673,-0.0510788,-0.0350952,0.0267792
5,4,10.0097,0.0012207,0.00244141,-2.42745,0.0553758,-0.0747579,0.0538228,0.0691393,-0.0903999,0.145013,-0.125461,-0.0847066,0.0094223,0.0286102,0.0361252,0.00965118,0.0540161,-0.0301743,0.018425,0.0313568,-9.97986,0.0294876,-0.0123596,-0.00518799,0.21946,0.0230789,-0.0507736,-0.0323868,0.0287628
5,5,10.0097,0.000305176,0.00198364,-2.42592,0.0569017,-0.0735371,0.0544332,0.07036,-0.0931465,0.145624,-0.124546,-0.0822652,0.00522614,0.0359726,0.0477219,0.00957489,0.0482178,-0.0358582,0.0200272,0.026474,-9.97986,0.0222778,-0.010376,-0.00644684,0.234222,0.0291443,-0.0472641,-0.0375366,0.0289917
5,6,10.0097,0.00183105,0.00152588,-2.42531,0.0559862,-0.0738423,0.0538228,0.0715807,-0.0916206,0.145624,-0.124546,-0.0807394,0.00846863,0.0405121,0.0514984,0.00888824,0.0485229,-0.0363159,0.0204086,0.0221252,-9.97986,0.0218964,-0.0140381,-0.0149155,0.251083,0.0273132,-0.0486755,-0.0349045,0.0300598
5,7,10.0097,0.000305176,0.000915527,-2.42531,0.0562914,-0.0738423,0.0544332,0.0709703,-0.09925,0.146539,-0.123935,-0.0804342,0.0122452,0.0477219,0.0512314,0.000457764,0.0508118,-0.0389481,0.0149536,0.0207901,-9.97986,0.0136948,-0.0111771,-0.014534,0.263824,0.026474,-0.044632,-0.035553,0.0310898
5,8,10.0097,0.000305176,0.000762939,-2.42501,0.0550706,-0.0738423,0.0553487,0.0715807,-0.090705,0.146844,-0.12363,-0.0819601,0.00511169,0.0590897,0.0543976,-0.00408173,0.0458145,-0.0353622,0.0208664,0.0243759,-9.97986,0.0107956,-0.00797272,-0.00751495,0.260887,0.0252914,-0.0424194,-0.0351715,0.0297928
5,9,10.0097,0.000305176,0.000305176,-2.42501,0.0565965,-0.0741475,0.054128,0.0700548,-0.0928413,0.14776,-0.12363,-0.080129,0.00553131,0.0708771,0.060463,-0.00827789,0.0475311,-0.0361633,0.0206375,0.014534,-9.97986,0.00442505,-0.0121307,-0.00621796,0.266724,0.0227356,-0.0416183,-0.0370789,0.0294876
6,0,10.0097,0.000915527,0,-2.42714,0.0562914,-0.0741475,0.0544332,0.0517443,-0.101081,0.146234,-0.124851,-0.0819601,0.0125885,0.0835037,0.0699997,-0.00720978,0.04879,-0.0400162,0.0151443,0.0143814,-9.97986,0.00400543,-0.0163269,-0.000801086,0.267067,0.0279999,-0.0414658,-0.0340271,0.0344467
6,1,9.74843,-0.000305176,-0.00167847,-2.42531,0.0569017,-0.0738423,0.0544332,0.0474718,-0.0937568,0.145624,-0.126682,-0.0819601,0.0139999,0.0897217,0.0751877,-0.0102997,0.0430298,-0.045433,0.0149155,0.0162888,-9.97986,-0.00423431,-0.0242615,0.000991821,0.254974,0.0257111,-0.0465393,-0.0392914,0.0169373
6,2,8.57167,0,-0.00167847,-2.42653,0.0581224,-0.0747579,0.0553487,0.0569322,-0.0922309,0.145318,-0.125156,-0.0825704,0.0132751,0.0930405,0.068512,-0.0189972,0.0453568,-0.0522995,0.0165558,0.0211334,-9.97986,-0.000801086,-0.0114441,0.00209808,0.257607,0.0227737,-0.0466156,-0.0358582,0.00270844
6,3,8.40993,0,0,-2.42623,0.0559862,-0.0744527,0.0550435,0.0639513,-0.0913154,0.145624,-0.124851,-0.0825704,0.013504,0.0769043,0.0547409,-0.0153351,0.0509262,-0.0501633,0.0155258,0.0175858,-9.97986,0.00217438,-0.0103378,0.00545502,0.250244,0.0266266,-0.0409698,-0.0336838,0.00534058
6,4,8.6675,-0.0012207,-0.000305176,-2.42623,0.0550706,-0.0741475,0.054128,0.0728014,-0.0916206,0.145624,-0.126072,-0.0837911,0.0143433,0.0489807,0.0193405,-0.0110245,0.0497818,-0.0595474,0.00919342,0.0169754,-9.97986,0.00606537,-0.0138474,0.00244141,0.244331,0.0219727,-0.0437927,-0.0390625,0.00717163
6,5,10.0097,-0.00183105,0.00137329,-2.42684,0.0584276,-0.0753682,0.0550435,0.092943,-0.0916206,0.144403,-0.125156,-0.0834859,0.0171661,0.0246048,-0.00183105,-0.00621796,0.052948,-0.0575638,0.0137329,0.019989,-9.97986,0.018692,-0.0153351,0.0142288,0.248375,0.0246811,-0.0421524,-0.0378799,0.0183868
6,6,10.0097,0.000915527,0.00106812,-2.42928,0.0538499,-0.0744527,0.0519917,0.0871447,-0.0910102,0.143487,-0.126072,-0.0862325,0.00591278,-0.0292587,-0.0266266,-0.00488281,0.0466537,-0.0630951,0.00728607,0.0200653,-9.97986,0.0204086,-0.0222397,0.0119019,0.244293,0.0238037,-0.0413513,-0.0411606,0.0214767
6,7,10.0097,0.000305176,0.000305176,-2.42867,0.0526292,-0.0759786,0.0513814,0.075548,-0.0949775,0.142572,-0.126682,-0.0868429,0.01297,-0.0374222,-0.0208282,-0.000152588,0.0488281,-0.0630951,0.0101089,0.0283813,-9.97986,0.0209427,-0.0195694,0.0126266,0.238991,0.022583,-0.0325012,-0.0376511,0.0264359
6,8,10.0097,0.00244141,-0.000457764,-2.42928,0.0569017,-0.075063,0.054128,0.0724962,-0.0946723,0.143792,-0.127292,-0.0859274,0.00892639,-0.0382996,-0.0115967,-0.000991821,0.043869,-0.0609589,0.00995636,0.0246429,-9.97986,0.0230408,-0.0115967,0.0143051,0.230293,0.0233841,-0.0293732,-0.0364304,0.0339508
6,9,10.0097,-0.000610352,-0.000915527,-2.42989,0.0541551,-0.075063,0.0522969,0.0706652,-0.09925,0.143487,-0.127903,-0.0874532,0.00968933,-0.0408173,-0.00984192,0.00362396,0.0439072,-0.0582123,0.0132751,0.0224304,-9.97986,0.0211334,-0.00961304,0.0168228,0.221367,0.0213242,-0.0247955,-0.0368881,0.0352478
7,0,10.0097,0.000305176,-0.00152588,-2.42837,0.0526292,-0.0756734,0.0526021,0.0682238,-0.0955879,0.143792,-0.127903,-0.0868429,0.0104523,-0.0340652,-0.00694275,0.0126266,0.043335,-0.0600433,0.0150681,0.0261307,-9.97986,0.0188828,-0.00366211,0.0235748,0.211258,0.0246048,-0.0182343,-0.0374222,0.0331879
7,1,10.0097,0.000305176,-0.000457764,-2.42806,0.0559862,-0.0759786,0.0522969,0.0688341,-0.094062,0.143792,-0.127292,-0.0868429,0.0107193,-0.0170898,-0.0104141,0.0130844,0.0395584,-0.0539398,0.00808716,0.0310516,-9.97986,0.0166321,-0.00511169,0.0202179,0.214577,0.0206757,-0.0133514,-0.0352859,0.0295639
7,2,10.0097,0.0012207,-0.000305176,-2.42806,0.0544603,-0.0756734,0.0532125,0.0688341,-0.0965034,0.144708,-0.126377,-0.0859274,0.0105286,-0.00648499,-0.000267029,0.0108719,0.0347519,-0.0538635,0.0117111,0.0297165,-9.97986,0.0111008,-0.00522614,0.0237274,0.216217,0.0209045,-0.0143814,-0.0351334,0.0248337
7,3,10.0097,0.000305176,0,-2.42684,0.0550706,-0.0741475,0.0544332,0.0697496,-0.0934516,0.145013,-0.125461,-0.0844015,0.0112152,0.00350952,0.0063324,0.00652313,0.0317764,-0.0543213,0.0123215,0.0299454,-9.97986,0.00984192,-0.00164032,0.0281906,0.211678,0.0214386,-0.0165939,-0.032959,0.019722
7,4,10.0097,-0.000305176,-0.000457764,-2.42776,0.0569017,-0.0753682,0.0529073,0.0694445,-0.0934516,0.145318,-0.124546,-0.0834859,0.00759125,0.00804901,0.00328064,0.00267029,0.035553,-0.060463,0.0153732,0.0271988,-9.97986,0.00740051,0.00537872,0.0298309,0.201836,0.0211716,-0.0188065,-0.0301743,0.0138855
7,5,10.0097,-0.000305176,0.000610352,-2.42592,0.0565965,-0.0747579,0.054128,0.0718859,-0.0913154,0.144708,-0.124241,-0.0816549,0.00999451,0.0105286,0.00598907,0.00850677,0.0323868,-0.0548172,0.0221634,0.0250626,-9.97986,0.00457764,0.00835419,0.0357437,0.206337,0.0218582,-0.018425,-0.0292206,0.01194
7,6,10.0097,-0.000610352,0.000610352,-2.42531,0.0559862,-0.073232,0.054128,0.0712755,-0.0910102,0.146539,-0.124851,-0.0819601,0.00648499,0.00717163,0.00190735,0.00240326,0.0239944,-0.0592041,0.0244141,0.0209045,-9.97986,0.00804901,0.00564575,0.0379562,0.209846,0.0212479,-0.0211334,-0.0278854,0.0113678
7,7,10.0097,-0.000305176,-0.000305176,-2.42409,0.0602586,-0.0723164,0.0535176,0.0697496,-0.090705,0.146234,-0.12363,-0.0813497,0.01297,0.0122452,0.00537872,0.00995636,0.0276566,-0.0611877,0.0183868,0.0202179,-9.97986,0.00377655,0.00480652,0.0331879,0.203514,0.0205231,-0.0153732,-0.0215149,0.0107956
7,8,10.0097,-0.000305176,-0.000610352,-2.42501,0.0569017,-0.0738423,0.0553487,0.0706652,-0.0961982,0.145929,-0.124546,-0.0810445,0.0146484,0.0128555,0.00659943,0.00572205,0.0251007,-0.0658798,0.0172424,0.0232315,-9.97986,0.00324249,0.00106812,0.0330734,0.190201,0.0226593,-0.0144196,-0.0199127,0.00713348
7,9,10.0097,0.0012207,-0.000610352,-2.42318,0.0565965,-0.0738423,0.0562642,0.0697496,-0.0913154,0.147149,-0.123935,-0.0813497,0.0152206,0.01297,0.0147247,0.00675201,0.0241089,-0.0717545,0.0136948,0.0264359,-9.97986,0.00778198,-0.00358582,0.0314331,0.183983,0.0221252,-0.0132751,-0.0177765,0.00728607
8,0,10.0097,0.0012207,-0.00152588,-2.42531,0.0538499,-0.0735371,0.0519917,0.0526598,-0.094062,0.146234,-0.125766,-0.0825704,0.0176239,0.0136566,0.0165558,0.0114059,0.0213242,-0.069809,0.00946045,0.0211716,-9.97986,0.00160217,-0.00148773,0.0260925,0.16407,0.0164795,-0.0159836,-0.0185394,0.00549316
8,1,9.82198,0.00152588,-0.00244141,-2.42531,0.0569017,-0.0744527,0.0547383,0.0483873,-0.0949775,0.146539,-0.125766,-0.0822652,0.0107956,0.0227737,0.0177002,0.00782013,0.0229263,-0.071106,0.0120544,0.0195694,-9.97986,-0.000152588,-0.00160217,0.0260925,0.155334,0.019722,-0.0204468,-0.0173187,0.00305176
8,2,8.63484,0.000915527,-0.00274658,-2.42501,0.0553758,-0.075063,0.0544332,0.0557115,-0.0937568,0.14776,-0.125156,-0.0819601,0.00907898,0.0206375,0.0246429,0.00679016,0.0177765,-0.08358,0.00965118,0.0183105,-9.97986,-0.000457764,0.001297,0.0295258,0.139084,0.0179291,-0.0117493,-0.0143433,-0.000305176
8,3,8.4374,-0.000305176,-0.00259399,-2.42714,0.055681,-0.0747579,0.0550435,0.0654772,-0.0913154,0.145624,-0.126377,-0.0831808,0.00102997,0.0280762,0.0210571,0.0088501,0.0162506,-0.0845337,0.011673,0.0149918,-9.97986,0.00141144,0.00644684,0.0218964,0.10994,0.0151062,-0.01194,-0.0136566,-0.00114441
8,4,8.70107,0.000915527,-0.00244141,-2.42562,0.0553758,-0.075063,0.054128,0.0715807,-0.0965034,0.144708,-0.126377,-0.0844015,0.0044632,0.0260544,0.0258255,0.0151825,0.0166702,-0.0875473,0.0165558,0.0179672,-9.97986,0.00637054,0.00274658,0.0224304,0.0727081,0.0191498,-0.0104141,-0.0185394,-0.0063324
8,5,10.0097,0.000305176,-0.00183105,-2.42745,0.055681,-0.0747579,0.054128,0.0926378,-0.0913154,0.144708,-0.124851,-0.085317,0.0019455,0.0248337,0.0185394,0.00888824,0.0185394,-0.095253,0.0168228,0.0177383,-9.97986,-0.00175476,0.00831604,0.02491,0.0441742,0.0195694,-0.0150299,-0.0140381,-0.00671387
8,6,10.0097,-0.000610352,-0.000610352,-2.42745,0.0569017,-0.0759786,0.0535176,0.0859239,-0.0931465,0.144403,-0.126682,-0.0874532,0.00999451,0.0268936,0.0235367,0.0108337,0.0242615,-0.102043,0.0188065,0.0187683,-9.97986,0.000991821,0.00247955,0.0271225,0.0288773,0.021019,-0.0115204,-0.0101089,-0.00659943
8,7,10.0097,0,-0.00167847,-2.42928,0.0532396,-0.0759786,0.0519917,0.0752428,-0.0949775,0.143792,-0.127292,-0.0880636,0.013237,0.0266266,0.0263977,0.0111389,0.0246429,-0.102272,0.0221634,0.0245667,-9.97986,0.00221252,0.00770569,0.029335,0.00846863,0.0232315,-0.0133514,-0.0075531,-0.00137329
8,8,10.0097,0,-0.00289917,-2.42898,0.0535448,-0.0762837,0.0519917,0.0712755,-0.0955879,0.143487,-0.126682,-0.0874532,0.0145721,0.0256348,0.0273514,0.00785828,0.0293732,-0.108948,0.0199127,0.0220871,-9.97986,-0.00396729,0.0113678,0.0260162,-0.0238037,0.0254059,-0.00976563,0.000495911,0.0115585
8,9,10.0097,-0.000915527,-0.00289917,-2.42898,0.0532396,-0.0765889,0.0513814,0.0694445,-0.0955879,0.143487,-0.127292,-0.0877584,0.0172424,0.0258636,0.0236893,0.00785828,0.0276947,-0.105782,0.0184631,0.0205994,-9.97986,-0.00202179,0.00804901,0.0273132,-0.0426865,0.0198746,-0.00869751,-0.00175476,0.00644684
9,0,10.0097,-0.000915527,-0.00198364,-2.42989,0.0535448,-0.075063,0.0513814,0.0682238,-0.094062,0.143792,-0.126987,-0.0880636,0.0144958,0.0330734,0.0287247,0.00709534,0.0302505,-0.105057,0.0165176,0.0202942,-9.97986,-0.000991821,0.0150299,0.0227356,-0.0634003,0.0189972,-0.0179672,0.00228882,0.00221252
9,1,10.0097,0.000305176,-0.00289917,-2.42745,0.0544603,-0.075063,0.0535176,0.0694445,-0.094062,0.143182,-0.126377,-0.0868429,0.0147629,0.0285339,0.0306702,0.0056839,0.0126266,-0.103874,0.0133896,0.022583,-9.97986,0.00240326,0.0177765,0.0302505,-0.0894928,0.0221634,-0.0209045,-7.62939e-005,-0.00499725
9,2,10.0097,0.000305176,-0.00274658,-2.42837,0.0517137,-0.0753682,0.0532125,0.0697496,-0.0943672,0.142877,-0.126072,-0.0862325,0.0135422,0.0293732,0.0289536,0.00965118,0.00938416,-0.103226,0.017128,0.019989,-9.97986,0.0107193,0.00968933,0.0244904,-0.120049,0.0210571,-0.0191879,-0.00148773,-0.00736237
9,3,10.0097,0.000305176,-0.00228882,-2.42806,0.0541551,-0.0747579,0.0532125,0.0706652,-0.0931465,0.145318,-0.125766,-0.0850118,0.0168228,0.0280762,0.0282669,0.00614166,-0.000724792,-0.0934982,0.0133133,0.0120926,-9.97986,0.018692,0.00541687,0.0231171,-0.145454,0.0154114,-0.018158,-0.000419617,-0.000686646
9,4,10.0097,0.000610352,-0.00213623,-2.42653,0.0544603,-0.075063,0.0550435,0.0706652,-0.0913154,0.145318,-0.124851,-0.0837911,0.0114822,0.0278091,0.0296402,0.00541687,-0.000648499,-0.0944519,0.0115585,0.0125122,-9.97986,0.0224304,0.00343323,0.0305557,-0.163231,0.0136566,-0.0168991,-0.00743866,0.00957489
9,5,10.0097,-0.000610352,-0.00137329,-2.42592,0.0529344,-0.0738423,0.054128,0.0706652,-0.0919257,0.145624,-0.124546,-0.0831808,0.0100708,0.0282288,0.0283051,0.00572205,-0.00911713,-0.0867844,0.0133133,0.020256,-9.97986,0.0177765,0.00682831,0.0217819,-0.174561,0.0111771,-0.0169754,-0.0069046,0.0198364
9,6,10.0097,0.000915527,-0.00106812,-2.42501,0.0562914,-0.0741475,0.0538228,0.0697496,-0.0961982,0.145318,-0.124851,-0.0816549,0.00984192,0.029335,0.0272369,0.00656128,-0.0118637,-0.0777817,0.0130081,0.0139999,-9.97986,0.0175858,0.00671387,0.00408173,-0.192642,0.013237,-0.0136185,-0.00637054,0.0149918
9,7,10.0097,0.000915527,-0.0012207,-2.42531,0.0562914,-0.0741475,0.0538228,0.0712755,-0.088874,0.14837,-0.123935,-0.0816549,0.0119781,0.0297928,0.0249481,0.00724792,-0.0121689,-0.0648117,0.00900269,0.0146484,-9.97986,0.0178528,0.00709534,0.00148773,-0.212975,0.00865936,-0.014267,-0.00598907,0.00453949
9,8,10.0097,0.00152588,-0.00198364,-2.42623,0.0547655,-0.0747579,0.0550435,0.0718859,-0.0913154,0.147149,-0.125461,-0.0822652,0.0103378,0.0309753,0.0230789,0.0123215,-0.0110245,-0.0538254,0.0196457,0.0171661,-9.97986,0.0162125,0.00965118,-0.00255585,-0.231247,0.0109863,-0.00919342,3.8147e-005,-0.00297546
9,9,10.0097,0.00274658,-0.000457764,-2.4247,0.0559862,-0.0741475,0.0544332,0.0712755,-0.0882636,0.146844,-0.124241,-0.0816549,0.012207,0.0320816,0.0225449,0.0113297,-0.0164032,-0.0594711,0.0234222,0.0168991,-9.97986,0.0178528,0.00999451,0.00785828,-0.241928,0.0117874,-0.00823975,-0.00137329,-0.0141525
10,0,10.0097,0.000305176,-0.00137329,-2.42592,0.0553758,-0.0735371,0.0544332,0.0499132,-0.0977241,0.147149,-0.125156,-0.0819601,0.014267,0.0323486,0.0252533,0.0125504,-0.0112152,-0.0595474,0.0219345,0.0202942,-9.97986,0.0169373,0.0149536,0.0191116,-0.245018,0.0280762,-0.00976563,0.0082016,-0.0180054
10,1,9.54152,0.00213623,-0.00289917,-2.42501,0.0584276,-0.073232,0.0538228,0.0480822,-0.0931465,0.14776,-0.126682,-0.0825704,0.0170517,0.0324249,0.0275803,0.0125122,-0.0139236,-0.0539017,0.0172043,0.0155258,-9.97986,0.0157547,0.017662,0.0226974,-0.263405,0.0399399,-0.0120926,0.0178146,-0.0165939
10,2,8.29762,-0.000305176,-0.00183105,-2.42684,0.0520189,-0.0744527,0.0535176,0.0554064,-0.0952827,0.145929,-0.125766,-0.0822652,0.0163651,0.032692,0.0307846,0.00904083,-0.0118256,-0.0535202,0.013237,0.0162125,-9.97986,0.0108719,0.0157928,0.0205994,-0.271912,0.0398254,-0.0137329,0.0263214,-0.0201797
10,3,8.13405,0.000610352,-0.000152588,-2.42684,0.0550706,-0.0747579,0.054128,0.0642565,-0.0937568,0.144098,-0.126377,-0.0822652,0.0135422,0.0394058,0.0271988,0.00831604,-0.0160217,-0.0482559,0.0121307,0.0164032,-9.97986,0.0105286,0.0147247,0.0124741,-0.266457,0.0362396,-0.0179672,0.0311279,-0.0292969
10,4,8.40383,0,0.000305176,-2.42592,0.0553758,-0.0741475,0.054128,0.0728014,-0.0910102,0.145318,-0.123935,-0.0834859,0.0155258,0.0401306,0.030098,0.0153351,-0.0144577,-0.0455475,0.0102615,0.0151443,-9.97986,0.00854492,0.017395,0.00999451,-0.269012,0.0391769,-0.0169373,0.0362778,-0.0294876
10,5,10.0097,0.000305176,0.000305176,-2.42592,0.0596483,-0.073232,0.0547383,0.092943,-0.0885688,0.144708,-0.125156,-0.0840963,0.0165558,0.0361252,0.0333023,0.00759125,-0.00999451,-0.0439072,0.0180054,0.0128555,-9.97986,0.013504,0.0138855,0.0130463,-0.277977,0.036087,-0.00797272,0.0326157,-0.0323868
10,6,10.0097,0.0012207,0.000305176,-2.42959,0.0529344,-0.0765889,0.0529073,0.0901964,-0.0937568,0.144403,-0.125766,-0.0871481,0.0114059,0.0222015,0.0304413,0.00999451,-0.00686646,-0.0410843,0.013237,0.0156403,-9.97986,0.0135803,0.0127411,0.0200272,-0.271301,0.0358963,-0.00228882,0.0345612,-0.030899
10,7,10.0097,-0.000305176,0.000305176,-2.42989,0.0532396,-0.0753682,0.0529073,0.0749376,-0.0946723,0.142572,-0.126987,-0.0865377,0.00556946,0.0118637,0.0271225,0.0119781,-0.00854492,-0.0365829,0.0172806,0.0156021,-9.97986,0.0087738,0.00923157,0.0307846,-0.276413,0.0331879,0.0037384,0.0266266,-0.0248337
10,8,10.0097,-0.000915527,-0.000152588,-2.42867,0.0584276,-0.0747579,0.0516866,0.0706652,-0.0928413,0.145013,-0.126377,-0.0865377,0.0082016,0.0229645,0.0254059,0.0106049,-0.00713348,-0.0323105,0.0145721,0.018425,-9.97986,0.00953674,0.00888824,0.0416946,-0.278435,0.0299835,0.000648499,0.026474,-0.0222778
10,9,10.0097,-0.000305176,-0.000915527,-2.42959,0.0541551,-0.0762837,0.0519917,0.0694445,-0.0949775,0.144098,-0.126987,-0.0874532,-0.00205994,0.0299835,0.0260544,0.0118256,-0.00526428,-0.0237656,0.0164795,0.0222397,-9.97986,0.0131989,0.00724792,0.0431824,-0.282478,0.0278473,-0.0037384,0.0263977,-0.0170898
11,0,10.0097,0.00152588,-0.000915527,-2.42898,0.0526292,-0.0762837,0.0513814,0.0682238,-0.0955879,0.143487,-0.127598,-0.0874532,-0.00232697,0.0315475,0.0252151,0.0123215,-0.00358582,-0.0188446,0.0153732,0.0220108,-9.97986,0.0104141,0.0062561,0.0413132,-0.285225,0.0285339,-0.00770569,0.0244904,-0.0137329
11,1,10.0097,-0.000610352,-0.000610352,-2.42806,0.0511034,-0.0759786,0.0519917,0.0697496,-0.0943672,0.145013,-0.127598,-0.0868429,0.0018692,0.0334549,0.0286484,0.0108719,0.000686646,-0.00946045,0.0138855,0.0245667,-9.97986,0.0135422,0.0100327,0.0447845,-0.283928,0.0322723,0.00495911,0.0297928,-0.00694275
11,2,10.0097,-0.000915527,0.000457764,-2.42714,0.0553758,-0.075063,0.0535176,0.0712755,-0.0925361,0.145318,-0.126682,-0.0856222,-0.00179291,0.0333405,0.0260925,0.0131607,3.8147e-005,-0.00652313,0.0104141,0.0252533,-9.97986,0.0107956,0.0157166,0.0378799,-0.276718,0.0296783,0.00541687,0.0299835,-0.00766754
11,3,10.0097,0.0012207,0.000305176,-2.42745,0.0544603,-0.075063,0.0535176,0.0691393,-0.0946723,0.145318,-0.126072,-0.0847066,-0.00534058,0.034523,0.0272751,0.0104523,0.00205994,-0.000991821,0.0149918,0.0160599,-9.97986,0.00572205,0.0146103,0.032959,-0.272179,0.0275803,0.00133514,0.022049,-0.0012207
11,4,10.0097,0,0.00137329,-2.42684,0.0511034,-0.0747579,0.0535176,0.0697496,-0.0928413,0.145624,-0.126682,-0.0840963,-0.00774384,0.0325012,0.0275803,0.00888824,0.00663757,0.00511169,0.0139999,0.01091,-9.97986,-0.00392914,0.00793457,0.0367355,-0.259056,0.0229263,0.00713348,0.0202942,0.000228882
11,5,10.0097,-0.000305176,0.00137329,-2.42531,0.0569017,-0.0741475,0.0535176,0.07036,-0.0919257,0.147149,-0.124546,-0.0819601,0.00148773,0.034256,0.0262451,0.01297,0.00335693,0.00904083,0.0115967,0.00526428,-9.97986,-0.0136566,0.0102997,0.0327682,-0.251465,0.022049,0.00984192,0.0177002,0.00156403
11,6,10.0097,0.000610352,0.0012207,-2.42562,0.0569017,-0.0738423,0.0553487,0.0718859,-0.0928413,0.146539,-0.124546,-0.0813497,0.0193405,0.0362015,0.0262833,0.0173569,0.00534058,0.0210571,0.0105667,0.0019455,-9.97986,-0.0135422,0.0111008,0.0343323,-0.236015,0.0218201,0.0165558,0.0226974,0.00526428
11,7,10.0097,-0.000305176,0.00152588,-2.4247,0.0596483,-0.0738423,0.0544332,0.0694445,-0.0931465,0.146844,-0.125156,-0.0804342,0.0233078,0.0348663,0.0305176,0.00976563,0.00701904,0.0167847,0.0128937,0.00343323,-9.97986,-0.0197983,0.0110626,0.0295258,-0.22747,0.0222015,0.00965118,0.026741,0.00762939
11,8,10.0097,0.0012207,0.00137329,-2.4244,0.055681,-0.0747579,0.0544332,0.0715807,-0.0919257,0.146234,-0.124241,-0.0810445,0.0263214,0.0345993,0.0271988,0.0169754,0.00972748,0.020256,0.0125122,0.00900269,-9.97986,-0.0233078,0.00926971,0.0299072,-0.214195,0.0200272,0.0133514,0.0293732,0.00869751
11,9,10.0097,0,0.00152588,-2.42501,0.055681,-0.073232,0.0544332,0.0715807,-0.0910102,0.147149,-0.125156,-0.0810445,0.033989,0.0325394,0.0263596,0.0157166,0.00968933,0.020752,0.014534,0.0125885,-9.97986,-0.0322723,0.00988007,0.032196,-0.19558,0.0161743,0.00740051,0.0317001,0.01091
12,0,10.0097,0,0.0012207,-2.42531,0.0562914,-0.0735371,0.0532125,0.0514391,-0.0949775,0.145318,-0.125766,-0.0819601,0.0292969,0.0302124,0.0246048,0.0149536,0.0139236,0.0227737,0.0143814,0.00766754,-9.97986,-0.0167847,0.0087738,0.0283813,-0.1791,0.018692,0.00629425,0.0367355,0.0117111
12,1,9.69045,-0.000305176,-0.000152588,-2.42531,0.0562914,-0.075063,0.0538228,0.0474718,-0.094062,0.146844,-0.125461,-0.0810445,0.0130081,0.0317383,0.0206375,0.00888824,0.0169754,0.0278473,0.0146484,0.00198364,-9.97986,0.00110626,0.00682831,0.0242233,-0.166779,0.0139236,0.00804901,0.0376129,0.0143814
12,2,8.43648,0.00152588,0.000762939,-2.42592,0.0569017,-0.075063,0.0547383,0.054796,-0.0916206,0.146234,-0.125461,-0.0822652,0.00133514,0.0257492,0.0216293,0.00980377,0.0198364,0.0270462,0.0174332,0.00717163,-9.97986,0.00312805,0.0030899,0.0193787,-0.147438,0.0133896,0.00663757,0.0404358,0.0149918
12,3,8.22438,0.000915527,0.00167847,-2.42653,0.0538499,-0.0753682,0.054128,0.0645616,-0.0919257,0.145013,-0.125156,-0.0822652,-0.00961304,0.0256348,0.0127029,0.011673,0.0208664,0.0281525,0.0173187,0.0129318,-9.97986,0.00988007,0.00762939,0.0234985,-0.133896,0.0134659,0.0075531,0.0445938,0.0177383
12,4,8.48531,0.0012207,0.00106812,-2.42745,0.0553758,-0.0753682,0.0544332,0.0728014,-0.0916206,0.145318,-0.126072,-0.0822652,-0.00553131,0.0208282,0.00972748,0.00705719,0.0233459,0.0260162,0.0201797,0.00926971,-9.97986,0.0360107,0.00312805,0.0210953,-0.131226,0.00892639,0.00549316,0.0460434,0.0194168
12,5,10.0097,0.00152588,0.00198364,-2.42684,0.0559862,-0.0753682,0.0544332,0.0935533,-0.0900947,0.145318,-0.124851,-0.0828756,0.00614166,0.0229645,0.0114059,0.0118256,0.0252151,0.0365067,0.0191879,0.0110245,-9.97986,0.0713348,0.00354767,0.0236893,-0.122948,0.0140762,0.00938416,0.0450134,0.02491
12,6,10.0097,0.00152588,0.00167847,-2.42928,0.0535448,-0.075063,0.054128,0.0895861,-0.094062,0.143182,-0.126377,-0.0856222,0.0197983,0.0180435,0.00782013,0.00888824,0.018158,0.0302505,0.0219345,0.0136566,-9.97986,0.0837708,-0.00396729,0.0302505,-0.118256,0.00705719,0.00831604,0.0437164,0.0226974
12,7,10.0097,0.00152588,0.000915527,-2.42898,0.0547655,-0.0759786,0.0519917,0.0764635,-0.0946723,0.143487,-0.126987,-0.0865377,0.0146103,0.0233459,0.00598907,0.0108337,0.0230026,0.0347519,0.0213623,0.0151062,-9.97986,0.0806808,-0.000267029,0.0266266,-0.111961,0.00301361,0.00614166,0.047493,0.0242615
12,8,10.0097,-0.000915527,0.000762939,-2.42745,0.0544603,-0.0762837,0.0522969,0.0706652,-0.0968086,0.142877,-0.128513,-0.0871481,0.0104141,0.020256,0.0043869,0.0108337,0.0185776,0.0400925,0.0215149,0.00995636,-9.97986,0.065155,-0.00270844,0.0261307,-0.10006,0.00705719,0.00354767,0.0492096,0.0328827
12,9,10.0097,0.000610352,0.000305176,-2.42867,0.0538499,-0.0756734,0.0516866,0.0694445,-0.094062,0.142572,-0.127598,-0.0874532,0.0115967,0.0183105,0.00141144,0.0125122,0.0191116,0.0418091,0.0248718,0.0102615,-9.97986,0.038414,-0.00102997,0.0253296,-0.0946426,0.00617981,0.0117493,0.0490189,0.0362778
13,0,10.0097,0,0.000915527,-2.4305,0.0529344,-0.0756734,0.0510762,0.0688341,-0.0949775,0.143792,-0.127598,-0.0868429,0.00812531,0.0175858,0.00797272,0.00682831,0.0253677,0.0498581,0.0246429,0.0121689,-9.97986,0.0135422,0.00110626,0.018692,-0.0785828,0.00160217,0.00793457,0.049324,0.0332642
13,1,10.0097,-0.000915527,0.000305176,-2.42837,0.055681,-0.0756734,0.0522969,0.0688341,-0.0946723,0.143792,-0.127292,-0.0859274,0.00980377,0.0167847,0.00640869,0.00900269,0.0255203,0.052948,0.0276184,0.0124359,-9.97986,-0.00652313,-0.000801086,0.0166702,-0.0691223,-0.00225067,0.0105667,0.0489807,0.0342178
13,2,10.0097,0.00183105,0.00183105,-2.42806,0.0541551,-0.0759786,0.0519917,0.07036,-0.0946723,0.144098,-0.126987,-0.0837911,0.0113297,0.0228119,0.00469208,0.0144958,0.0271606,0.0592422,0.0287628,0.012207,-9.97986,-0.0183487,-0.00461578,0.0221634,-0.0498199,-0.00377655,0.00816345,0.0533295,0.0257492
13,3,10.0097,-0.000610352,0.00152588,-2.42684,0.0553758,-0.075063,0.0532125,0.0697496,-0.0934516,0.143487,-0.126682,-0.0837911,0.00453949,0.0196838,0.0113678,0.0130081,0.0288773,0.0639725,0.0257111,0.012207,-9.97986,0.00587463,-0.00183105,0.0197601,-0.0332642,-0.00137329,0.00953674,0.0579071,0.00904083
13,4,10.0097,-0.00274658,0.00228882,-2.42745,0.0544603,-0.075063,0.0544332,0.0706652,-0.0928413,0.144403,-0.125156,-0.0828756,0.0115585,0.02491,0.0110626,0.0102997,0.0279617,0.0678253,0.0285339,0.0160217,-9.97986,0.028038,-0.00106812,0.0188065,-0.0172043,-0.00289917,0.0104523,0.0592804,0.00774384
13,5,10.0097,-0.000915527,0.00137329,-2.42562,0.0581224,-0.0747579,0.0547383,0.0715807,-0.0910102,0.146234,-0.124546,-0.0828756,0.00789642,0.0243378,0.0113678,0.0094986,0.0236893,0.0701141,0.0336075,0.0175858,-9.97986,0.0453568,0.000686646,0.0291824,-0.00450134,0.0031662,0.0128937,0.0601196,0.0105286
13,6,10.0097,0,0.000762939,-2.42592,0.0562914,-0.0735371,0.0556539,0.0728014,-0.090705,0.14776,-0.124546,-0.0816549,0.0030899,0.0139999,0.00759125,0.0112915,0.0151443,0.0702286,0.0289154,0.0141525,-9.97986,0.0473404,0.000610352,0.0229263,0.00232697,-0.00480652,0.00774384,0.0542068,0.0141144
13,7,10.0097,0.00183105,0.00152588,-2.42531,0.0559862,-0.0741475,0.054128,0.0712755,-0.0922309,0.147149,-0.122715,-0.0807394,0.0120544,0.0214005,0.0122833,0.0150681,0.0132751,0.0825119,0.0348663,0.0204849,-9.97986,0.0479126,-0.00278473,0.014801,0.0156403,0.0113678,0.00984192,0.0563049,0.0272751
13,8,10.0097,-0.000915527,0.00137329,-2.42531,0.0562914,-0.073232,0.0550435,0.0709703,-0.0913154,0.14837,-0.124851,-0.0810445,0.00968933,0.0204468,0.0157928,0.0148392,0.00804901,0.0984573,0.0318527,0.0192642,-9.97986,0.0434113,-0.00171661,0.00701904,0.0213623,0.0250626,0.0107193,0.0531006,0.0327682
13,9,10.0097,0.0012207,0.0012207,-2.4247,0.0569017,-0.073232,0.0544332,0.0718859,-0.090705,0.147149,-0.124241,-0.080129,0.00972748,0.020752,0.0130463,0.0131226,0.00858307,0.110016,0.0286102,0.0184631,-9.97986,0.0294113,-0.00148773,0.00137329,0.0372314,0.0314713,0.0105286,0.0529099,0.0398254
14,0,10.0097,-0.000915527,-0.000152588,-2.42592,0.0562914,-0.0738423,0.0532125,0.0486925,-0.0952827,0.147149,-0.126377,-0.0816549,0.0109482,0.0251389,0.0139618,0.0131607,0.00038147,0.123405,0.0331497,0.018158,-9.97986,0.0220871,-0.00164032,-0.00644684,0.0471115,0.0291061,0.00289917,0.0495911,0.0340271
14,1,9.39198,0.00152588,0.000152588,-2.42592,0.0553758,-0.0735371,0.054128,0.0474718,-0.0922309,0.146234,-0.126072,-0.0810445,0.0130844,0.0239182,0.0150681,0.0145721,-0.00244141,0.133171,0.0304794,0.0197983,-9.97986,0.0134659,-0.0038147,-0.00946045,0.0603104,0.0346375,0.00175476,0.0522614,0.0321198
14,2,8.1548,0,0.000305176,-2.42623,0.055681,-0.075063,0.0538228,0.0541857,-0.0934516,0.146234,-0.125766,-0.0816549,0.0138855,0.0228882,0.015831,0.0103378,-0.00732422,0.138245,0.0308609,0.0191116,-9.97986,0.0121689,-0.00038147,-0.0123215,0.0688934,0.0474548,-0.0025177,0.0517654,0.0279617
14,3,8.03609,0.0012207,0.000915527,-2.42745,0.0559862,-0.0741475,0.054128,0.0642565,-0.0913154,0.145013,-0.126072,-0.0822652,0.0117111,0.0239944,0.0176239,0.0129318,-0.00675201,0.14534,0.0457764,0.0218201,-9.97986,0.0136948,0.00324249,-0.00640869,0.0805283,0.0611496,-0.00133514,0.0524902,0.0232315
14,4,8.32509,-0.000610352,0.0012207,-2.42714,0.0538499,-0.0729268,0.0522969,0.0728014,-0.0922309,0.145929,-0.125156,-0.0822652,0.0125885,0.0231171,0.0188446,0.0112915,-0.0038147,0.14595,0.0436401,0.0190735,-9.97986,0.0152969,-0.000991821,-0.00324249,0.0939941,0.0557327,-0.00202179,0.0549698,0.0151443
14,5,10.0097,-0.000305176,0.00244141,-2.42776,0.0541551,-0.0753682,0.0550435,0.0920275,-0.0903999,0.145013,-0.125156,-0.0825704,0.0137329,0.0218964,0.0157166,0.0123978,-0.00740051,0.143738,0.038681,0.0158691,-9.97986,0.0115967,-0.00556946,0.000839233,0.107193,0.0382996,0.000495911,0.0572205,0.0182724
14,6,10.0097,0,0.00213623,-2.42928,0.0550706,-0.0762837,0.0519917,0.0889757,-0.0928413,0.142572,-0.124851,-0.085317,0.0147247,0.0223923,0.0152969,0.0134659,-0.0141525,0.138054,0.0323868,0.0193024,-9.97986,0.0110626,-0.00171661,0.00793457,0.119247,0.0246811,-0.00038147,0.0545883,0.0135422
14,7,10.0097,0.000305176,0.000915527,-2.42959,0.0544603,-0.0759786,0.0538228,0.0776842,-0.0952827,0.143182,-0.126072,-0.085317,0.0136185,0.0218964,0.0149918,0.0180817,-0.0106812,0.138512,0.0271606,0.0170898,-9.97986,0.00915527,-0.00495911,0.00915527,0.123672,0.0205231,-0.0056839,0.046196,0.00770569
14,8,10.0097,0.000305176,0.000762939,-2.42867,0.0538499,-0.0759786,0.0529073,0.07036,-0.0946723,0.143792,-0.126377,-0.0859274,0.0107574,0.0218964,0.016098,0.0115204,-0.0153351,0.135269,0.0257874,0.0181961,-9.97986,0.00732422,-0.00297546,0.0159073,0.131874,0.0261688,-0.00930786,0.0374985,0.000534058
14,9,10.0097,0.000305176,0.000305176,-2.42959,0.0535448,-0.0756734,0.0519917,0.0691393,-0.095893,0.143792,-0.127292,-0.0868429,0.00923157,0.020256,0.0181961,0.0108337,-0.00488281,0.140724,0.0249863,0.0121689,-9.97986,-0.00167847,-0.00514984,0.016098,0.133171,0.0325775,-0.0159454,0.0333405,-0.00240326
15,0,10.0097,0,0,-2.4305,0.0538499,-0.0765889,0.0516866,0.0685289,-0.0946723,0.143792,-0.127292,-0.0862325,0.0127029,0.0199127,0.016861,0.0134277,-0.00453949,0.145454,0.036087,0.0113297,-9.97986,0.00270844,-0.00389099,-0.00350952,0.13092,0.0362778,-0.0177765,0.0276566,-0.00530243
15,1,10.0097,0.000915527,0.000762939,-2.42867,0.0541551,-0.0765889,0.0519917,0.0697496,-0.0937568,0.144098,-0.126377,-0.0862325,0.0131226,0.0188446,0.0130463,0.0125504,-0.00938416,0.149918,0.0397491,0.0177383,-9.97986,0.00213623,-0.000801086,-0.0122452,0.136795,0.0364685,-0.021019,0.0248718,-0.00740051
15,2,10.0097,0.000305176,0.000457764,-2.42806,0.0553758,-0.0756734,0.0522969,0.0694445,-0.094062,0.144708,-0.126377,-0.0859274,0.0127029,0.0214767,0.015564,0.0149918,-0.010643,0.14267,0.0486374,0.0187683,-9.97986,0.00362396,-0.00453949,-0.0152969,0.140114,0.0335693,-0.0328064,0.0257874,-0.00488281
15,3,10.0097,0.000610352,0.00152588,-2.42684,0.0553758,-0.0756734,0.0535176,0.0694445,-0.0931465,0.145013,-0.127292,-0.0840963,0.0108719,0.0215149,0.0149155,0.0136948,-0.014534,0.144615,0.0543594,0.0151825,-9.97986,0.0179672,-0.0030899,-0.0268936,0.152359,0.034256,-0.0372314,0.024147,-0.00549316
15,4,10.0097,0.00213623,0.00152588,-2.42684,0.0559862,-0.0738423,0.0532125,0.0697496,-0.0928413,0.145013,-0.125156,-0.0840963,0.0111389,0.0228119,0.0148773,0.014267,-0.01297,0.138016,0.0531387,0.016861,-9.97986,0.0353622,-0.00217438,-0.0327301,0.164452,0.0259018,-0.039444,0.0232697,-0.000457764
15,5,10.0097,-0.000915527,0.00106812,-2.42592,0.0562914,-0.075063,0.0538228,0.0715807,-0.0919257,0.146234,-0.125766,-0.0822652,0.0152206,0.0236893,0.0180817,0.0162506,-0.0150681,0.131836,0.0546265,0.0132751,-9.97986,0.0386047,0.000305176,-0.0403595,0.174255,0.0206757,-0.0301361,0.0263214,0.00679016
15,6,10.0097,0.000305176,0.0012207,-2.42409,0.0559862,-0.0753682,0.0544332,0.0709703,-0.0928413,0.146844,-0.124546,-0.0810445,0.0141907,0.0183105,0.0193787,0.0140762,-0.0162888,0.125542,0.0458145,0.0202179,-9.97986,0.0320435,-0.00087738,-0.0424957,0.181732,0.0168991,-0.0294495,0.0204086,0.0063324
15,7,10.0097,0.000305176,0.000915527,-2.42531,0.0562914,-0.0744527,0.054128,0.072191,-0.0916206,0.145929,-0.124241,-0.0810445,0.0165939,0.0180435,0.0135422,0.0126648,-0.0144196,0.122452,0.0378799,0.0149536,-9.97986,0.0260925,-0.00434875,-0.0452042,0.19001,0.0186539,-0.0231171,0.0211716,0.00785828
15,8,10.0097,-0.000915527,0.00106812,-2.42623,0.0553758,-0.0738423,0.054128,0.0712755,-0.0925361,0.147455,-0.12363,-0.0810445,0.0181961,0.0212097,0.0146484,0.0147247,-0.0156784,0.118523,0.0435257,0.0183487,-9.97986,0.0191116,-0.00583649,-0.0476837,0.190086,0.0110626,-0.0232315,0.0191116,0.01194
15,9,10.0097,0.000610352,0.000762939,-2.42592,0.0562914,-0.075063,0.055959,0.0706652,-0.0910102,0.146539,-0.124546,-0.0804342,0.0162506,0.0204849,0.0182343,0.0127029,-0.0205231,0.111618,0.0408554,0.0178909,-9.97986,0.0157166,-0.00190735,-0.0540543,0.195198,0.0135803,-0.0162125,0.0175476,0.00984192
16,0,10.0097,0.000305176,-0.000305176,-2.42531,0.0553758,-0.0738423,0.0526021,0.0499132,-0.0955879,0.147149,-0.126072,-0.0822652,0.0144577,0.0178909,0.0207901,0.0139618,-0.0171661,0.101471,0.0388336,0.0172424,-9.97986,0.0152969,-0.00286102,-0.0556564,0.191498,0.00640869,-0.0154495,0.0138474,0.00652313
16,1,9.58699,0.000915527,-0.00167847,-2.42531,0.0569017,-0.0729268,0.0538228,0.0474718,-0.0928413,0.145929,-0.125461,-0.0816549,0.0171661,0.0233459,0.0175095,0.014534,-0.0141907,0.104446,0.0398254,0.0222397,-9.97986,0.0177383,7.62939e-005,-0.0537872,0.187683,0.00476837,-0.015564,0.014801,0.00831604
16,2,8.38857,0.000305176,-0.0012207,-2.42623,0.055681,-0.0747579,0.0544332,0.0572374,-0.0928413,0.146234,-0.125461,-0.0825704,0.00915527,0.0161362,0.0194168,0.0107574,-0.0170135,0.0943375,0.0356674,0.0189972,-9.97986,0.0190353,-0.00537872,-0.0503159,0.18486,0.00228882,-0.0339127,0.0190353,0.00663757
16,3,8.2491,0.00183105,-0.000305176,-2.42745,0.0553758,-0.0753682,0.0535176,0.0642565,-0.0919257,0.145318,-0.127292,-0.0834859,0.00743866,0.0191498,0.0150681,0.0106812,-0.014801,0.0868607,0.0378036,0.0194168,-9.97986,0.0172424,-0.00247955,-0.04673,0.182076,-0.0025177,-0.0357819,0.0161362,0.00541687
16,4,8.49782,0.000305176,-0.000457764,-2.42592,0.0562914,-0.0744527,0.054128,0.072191,-0.0928413,0.145013,-0.125766,-0.0831808,0.00297546,0.0207901,0.0182724,0.0153732,-0.0169754,0.0840378,0.037384,0.0149155,-9.97986,0.0163269,-0.0104904,-0.0501251,0.183907,-0.00377655,-0.039978,0.0127411,0.00831604
16,5,10.0097,0.000305176,0.000305176,-2.42653,0.0550706,-0.0756734,0.054128,0.0938585,-0.0900947,0.144098,-0.12363,-0.0840963,0.00694275,0.0208664,0.0127411,0.0161743,-0.0125504,0.0803757,0.0399017,0.0190735,-9.97986,0.0153732,-0.00587463,-0.0475693,0.171318,-0.0130463,-0.0481415,0.00911713,0.00282288
16,6,10.0097,0.000610352,0.000915527,-2.42928,0.0532396,-0.0753682,0.0529073,0.0859239,-0.094062,0.144098,-0.126377,-0.0862325,0.00850677,0.0217438,0.0177383,0.0118256,-0.0134277,0.0744247,0.0361252,0.0241089,-9.97986,0.0205612,-0.00179291,-0.042038,0.16922,-0.00717163,-0.0444412,0.0140762,-0.000915527
16,7,10.0097,0.000305176,-0.000305176,-2.42867,0.0547655,-0.0765889,0.0522969,0.0749376,-0.0955879,0.143792,-0.127292,-0.0877584,0.0120926,0.020256,0.0167847,0.0130463,-0.0140762,0.0643158,0.0394058,0.0233078,-9.97986,0.0191498,-0.00225067,-0.0448227,0.167007,-0.00793457,-0.0455093,0.0141907,0.00270844
16,8,10.0097,0.000915527,-0.00183105,-2.42928,0.0547655,-0.0747579,0.0522969,0.072191,-0.0955879,0.143792,-0.127903,-0.0865377,0.0177383,0.0216675,0.0140381,0.0101089,-0.0104141,0.0591278,0.0370407,0.0178909,-9.97986,0.0199509,-0.00587463,-0.0428772,0.150185,-0.00831604,-0.043602,0.00938416,-0.00301361
16,9,10.0097,0.000610352,-0.00106812,-2.42928,0.0532396,-0.0768941,0.0519917,0.0691393,-0.0943672,0.141046,-0.127292,-0.0874532,0.0224686,0.0224686,0.0184631,0.0121307,-0.00980377,0.0566101,0.0374985,0.0137711,-9.97986,0.0170898,-0.00961304,-0.0384903,0.141144,-0.0151825,-0.0385284,0.00766754,0.00167847
17,0,10.0097,-0.000610352,-0.000915527,-2.4302,0.0541551,-0.0765889,0.0519917,0.0691393,-0.0952827,0.142877,-0.127598,-0.0871481,0.0247192,0.0212479,0.0143433,0.0139236,-0.0050354,0.0435257,0.0383759,0.0148392,-9.97986,0.0144196,-0.00789642,-0.0401306,0.142899,-0.013237,-0.038414,0.00930786,0.00286102
17,1,10.0097,0.000610352,-0.000762939,-2.42928,0.0547655,-0.0756734,0.0532125,0.0688341,-0.094062,0.144708,-0.126987,-0.0862325,0.0221252,0.0157166,0.017662,0.0136566,-0.00377655,0.042038,0.0381851,0.00869751,-9.97986,0.0167847,-0.00461578,-0.0307083,0.137711,-0.0130844,-0.0325012,0.0116348,0.00221252
17,2,10.0097,0.000610352,-0.000457764,-2.42684,0.0535448,-0.0762837,0.0529073,0.0685289,-0.094062,0.144403,-0.126377,-0.085317,0.0228119,0.0144577,0.0154114,0.0126648,0.000267029,0.0392532,0.0358582,0.0141907,-9.97986,0.018425,-0.0118256,-0.0310898,0.13237,-0.00621796,-0.0310135,0.00968933,0.000953674
17,3,10.0097,-0.00213623,-0.000305176,-2.42745,0.0538499,-0.0753682,0.054128,0.0694445,-0.0931465,0.145013,-0.125766,-0.0840963,0.0170135,0.0172424,0.0173569,0.0117493,0.0018692,0.0402832,0.042305,0.0149536,-9.97986,0.0102615,-0.0108337,-0.0295258,0.125809,-0.00610352,-0.0323486,0.0088501,0.00217438
17,4,10.0097,0.000305176,-0.000610352,-2.42653,0.0550706,-0.0765889,0.0538228,0.0700548,-0.0934516,0.145624,-0.125156,-0.0837911,0.0206757,0.0138855,0.0180435,0.0173569,-0.000457764,0.0346375,0.0388336,0.0140762,-9.97986,0.00907898,-0.0161362,-0.0229645,0.120621,0.00160217,-0.0302124,0.0063324,0.0038147
17,5,10.0097,0,-0.000915527,-2.4244,0.0562914,-0.0747579,0.0544332,0.0706652,-0.0922309,0.149286,-0.125461,-0.0831808,0.0195313,0.0182343,0.0155258,0.0142288,0.00289917,0.0337982,0.0382614,0.0144958,-9.97986,0.00331879,-0.0138855,-0.0157547,0.109863,0.00255585,-0.0309372,0.0107193,-0.000991821
17,6,10.0097,0.000610352,0.000610352,-2.42531,0.055681,-0.0744527,0.0553487,0.0709703,-0.0922309,0.145318,-0.124241,-0.0810445,0.0114059,0.0210571,0.0159836,0.0107193,0.000190735,0.0341415,0.0394058,0.0173187,-9.97986,-0.001297,-0.0101089,-0.00286102,0.100403,0.00614166,-0.0284195,0.0140381,-0.0031662
17,7,10.0097,0.000610352,-0.000915527,-2.4244,0.0562914,-0.0747579,0.054128,0.0715807,-0.0903999,0.146234,-0.124241,-0.0816549,0.0157547,0.0114441,0.0158691,0.0178146,0.00350952,0.030098,0.0468826,0.0193024,-9.97986,0.0037384,-0.00717163,0.00720978,0.0924301,0.0105667,-0.0229645,0.0220871,-0.00133514
17,8,10.0097,0.000610352,-0.000610352,-2.42592,0.0578172,-0.0738423,0.0547383,0.0724962,-0.0919257,0.145318,-0.123935,-0.0819601,0.0121307,0.0153732,0.0137329,0.0127029,0.0100708,0.0312424,0.0443649,0.0217056,-9.97986,0.0117493,-0.00320435,0.00358582,0.0852203,0.0138474,-0.0226212,0.020256,-0.00255585
17,9,10.0097,0,-0.000152588,-2.4247,0.0572069,-0.0738423,0.055959,0.0709703,-0.0913154,0.14776,-0.12363,-0.0804342,0.0136185,0.0193787,0.0178528,0.0138474,0.0136948,0.0296783,0.0407028,0.0143051,-9.97986,0.0172806,0.00087738,0.00255585,0.0782013,0.016861,-0.0208664,0.0231171,-0.00331879
18,0,10.0097,0.000305176,-0.00106812,-2.42592,0.0559862,-0.0735371,0.0544332,0.0511339,-0.0946723,0.145624,-0.126377,-0.0828756,0.0113678,0.0180817,0.0156403,0.0128937,0.0152206,0.0253677,0.0411224,0.0195694,-9.97986,0.0204086,0.00823975,0.000419617,0.0790787,0.0177765,-0.018158,0.0243378,-0.00617981
18,1,9.66237,0.0012207,-0.00167847,-2.42592,0.0559862,-0.0735371,0.0544332,0.0474718,-0.094062,0.14898,-0.125156,-0.0819601,0.0102997,0.0183105,0.0108719,0.0116348,0.0141525,0.0261307,0.0363922,0.0221252,-9.97986,0.0131607,0.00858307,0.000610352,0.0769806,0.0131989,-0.02388,0.0297165,-0.00835419
18,2,8.42336,0,-0.00244141,-2.42562,0.0565965,-0.0747579,0.0544332,0.0544908,-0.0919257,0.144708,-0.126377,-0.0828756,0.00804901,0.0161743,0.0148773,0.0123596,0.0172806,0.0251007,0.038147,0.0219345,-9.97986,0.0112915,0.00751495,0.00705719,0.0656128,0.0143433,-0.0279999,0.0302124,-0.0143051
18,3,8.31227,-0.000305176,-0.00152588,-2.42653,0.0550706,-0.0704854,0.0538228,0.0639513,-0.094062,0.144708,-0.125461,-0.0828756,0.0116348,0.0156021,0.0146484,0.0125885,0.0182343,0.022583,0.0406647,0.0194931,-9.97986,0.00530243,0.00293732,0.0149155,0.0594711,0.0109863,-0.0225067,0.0307083,-0.0160599
18,4,8.5262,0.000915527,0.000152588,-2.42623,0.0553758,-0.0753682,0.0547383,0.0715807,-0.0919257,0.145929,-0.126072,-0.0834859,0.0103378,0.0212479,0.0131607,0.0135803,0.0250244,0.0191498,0.0396347,0.0206375,-9.97986,0.00965118,-0.00102997,0.0178528,0.0559235,0.00816345,-0.0253677,0.0270844,-0.0148773
18,5,10.0097,0.000305176,0.00137329,-2.42623,0.0547655,-0.0744527,0.055959,0.0938585,-0.0897895,0.144098,-0.125156,-0.0837911,0.00663757,0.0159073,0.014267,0.0133514,0.0222778,0.0242996,0.0428009,0.0167084,-9.97986,0.00858307,-0.00831604,0.0165939,0.0583649,0.00663757,-0.0273895,0.0224304,-0.0126648
18,6,10.0097,-0.000915527,0.00137329,-2.42959,0.0541551,-0.0799458,0.0529073,0.0871447,-0.0943672,0.145318,-0.125766,-0.0850118,0.00610352,0.0185013,0.0161743,0.0140762,0.0276184,0.0241852,0.0447464,0.023613,-9.97986,0.00915527,0.00320435,0.0222015,0.0637817,0.0128937,-0.0180054,0.0250244,-0.00221252
18,7,10.0097,0.000915527,-0.000152588,-2.42959,0.0532396,-0.0759786,0.0526021,0.0761583,-0.0946723,0.143487,-0.126377,-0.0862325,0.00679016,0.018692,0.0122452,0.00854492,0.0261688,0.0150681,0.0370407,0.0188446,-9.97986,0.0104141,-0.00530243,0.0238419,0.0513458,0.00320435,-0.0218582,0.0227737,-0.0117111
18,8,10.0097,0.0012207,-0.000457764,-2.42867,0.0535448,-0.0768941,0.0522969,0.0715807,-0.0946723,0.143792,-0.127292,-0.0868429,0.013504,0.0246811,0.0221634,0.0172424,0.0396347,0.0183868,0.047226,0.0260162,-9.97986,0.0311279,0.00152588,0.03582,0.0519562,0.00545502,-0.0156784,0.0270844,-0.0130081
18,9,10.0097,0.00183105,0,-2.42867,0.0541551,-0.0799458,0.0529073,0.0700548,-0.0949775,0.142877,-0.126987,-0.0859274,-0.00400543,0.0170898,0.0122833,0.00881195,0.0333405,0.00965118,0.0407791,0.0256348,-9.97986,0.0233459,-0.00804901,0.0344849,0.0593948,-0.00511169,-0.0165558,0.0210953,-0.0150681
19,0,10.0097,0,-0.000305176,-2.42867,0.0547655,-0.0756734,0.0526021,0.0691393,-0.0949775,0.142267,-0.128818,-0.0871481,-0.00751495,0.02285,0.0212479,0.0156784,0.0421906,0.0187683,0.0419235,0.031662,-9.97986,0.0200653,-0.0127411,0.0325394,0.056839,-0.00198364,-0.0116348,0.0202942,-0.00495911
19,1,10.0097,0,-0.000457764,-2.42837,0.0550706,-0.0744527,0.0519917,0.0694445,-0.0946723,0.144708,-0.127292,-0.0859274,-0.012207,0.0225449,0.0178146,0.014801,0.0475693,0.0167084,0.0395966,0.0432968,-9.97986,0.0225449,-0.00167847,0.0351715,0.0515747,0.00259399,-0.00892639,0.0148392,-0.00038147
19,2,10.0097,-0.000610352,0.000152588,-2.42806,0.0538499,-0.0744527,0.0535176,0.0694445,-0.0937568,0.145013,-0.126987,-0.085317,-0.0110626,0.0210571,0.0186157,0.0112915,0.0472641,0.0214767,0.0401688,0.0350952,-9.97986,0.0219727,0.00205994,0.0344849,0.0569916,0.0038147,-0.00854492,0.0138855,0.0018692
19,3,10.0097,0.000610352,-0.000305176,-2.42684,0.0544603,-0.0756734,0.0544332,0.0691393,-0.0934516,0.145013,-0.126072,-0.0844015,0.00442505,0.0260925,0.0170135,0.00671387,0.0648499,0.0153351,0.0339508,0.0389862,-9.97986,0.0205994,-0.000305176,0.0345612,0.0512695,0.00358582,-0.0102234,0.0124741,-0.00736237
19,4,10.0097,0.00213623,-0.000762939,-2.42745,0.0550706,-0.0756734,0.0538228,0.0706652,-0.0928413,0.145318,-0.126377,-0.0840963,0.0392914,0.0269699,0.0179672,0.0106049,0.066185,0.0202942,0.038414,0.0421524,-9.97986,0.0206375,-0.00713348,0.0343323,0.0279236,-0.00286102,-0.00713348,0.01194,-0.0183487
19,5,10.0097,0.000915527,-0.00106812,-2.42714,0.0559862,-0.0756734,0.0538228,0.0709703,-0.0928413,0.145318,-0.124851,-0.0828756,0.0377655,0.0229263,0.0235748,0.0106812,0.0681686,0.0175858,0.0333786,0.0460815,-9.97986,0.0252533,-0.000457764,0.0376129,0.0205231,-0.0031662,-0.0019455,0.0123596,-0.00976563
19,6,10.0097,-0.000305176,-0.000457764,-2.42501,0.0559862,-0.0735371,0.054128,0.07036,-0.0925361,0.146844,-0.124241,-0.0813497,0.0203705,0.0260544,0.0193787,0.0138092,0.0714493,0.0121689,0.0291443,0.0535202,-9.97986,0.0270844,-0.00495911,0.0389481,0.0193405,-0.00488281,-0.000305176,0.0088501,0.000457764
19,7,10.0097,0.000305176,0.000152588,-2.42531,0.0559862,-0.0741475,0.0547383,0.0709703,-0.0916206,0.146844,-0.123325,-0.0807394,0.00370026,0.0334549,0.023613,0.00518799,0.0692368,0.0213242,0.0341415,0.0540543,-9.97986,0.028801,-0.00823975,0.0352478,0.0105667,-0.00347137,0.00930786,0.00652313,0.0147247
19,8,10.0097,-0.000915527,-0.000305176,-2.4247,0.0572069,-0.075063,0.0550435,0.0712755,-0.0922309,0.148675,-0.124546,-0.0810445,0.00492096,0.0322723,0.0296021,0.0135422,0.0642014,0.0157928,0.0293732,0.0427246,-9.97986,0.0372314,-0.0056076,0.0363541,0.0125122,0.00305176,0.0163269,0.00926971,0.0256729
19,9,10.0097,0.00152588,0.000762939,-2.4247,0.0572069,-0.0747579,0.0544332,0.0715807,-0.090705,0.147149,-0.124546,-0.080129,0.0191879,0.0387192,0.0323105,0.0133133,0.0674438,0.0157547,0.0280762,0.0354004,-9.97986,0.0273132,-0.0139999,0.0362015,0.0203323,-0.000953674,0.0169754,0.0133133,0.0426865
20,0,10.0097,0.000610352,-0.000915527,-2.42653,0.0559862,-0.0741475,0.0529073,0.0486925,-0.0931465,0.146844,-0.126377,-0.0825704,0.032692,0.0362778,0.0243378,0.0139999,0.0647736,0.0263214,0.0276947,0.0299072,-9.97986,0.0231934,-0.019455,0.0255203,0.0180054,-0.0012207,0.0239563,0.0170135,0.0546646
20,1,9.30776,0.000915527,-0.00213623,-2.42653,0.0559862,-0.0710957,0.0535176,0.0465563,-0.0928413,0.146234,-0.126377,-0.0822652,0.0416946,0.031929,0.0297165,0.0154877,0.0603104,0.0271225,0.0255585,0.0235367,-9.97986,0.0177383,-0.0218964,0.028801,0.0166321,-0.00263214,0.0270081,0.0230789,0.0512695
20,2,8.13466,-0.000305176,-0.000152588,-2.42623,0.055681,-0.0744527,0.0547383,0.0554064,-0.0922309,0.146539,-0.125766,-0.0804342,0.0333786,0.037384,0.0291824,0.017128,0.062561,0.026741,0.0235748,0.0226974,-9.97986,0.0111008,-0.00778198,0.028038,0.0349045,-0.000495911,0.0357819,0.0247574,0.0312042
20,3,7.9778,0.000610352,0.00106812,-2.42653,0.055681,-0.0741475,0.0535176,0.0642565,-0.0928413,0.145318,-0.125766,-0.0828756,0.00778198,0.038681,0.0410461,0.0150299,0.0506592,0.0218201,0.0222397,0.0121307,-9.97986,0.00202179,0.00202179,0.034523,0.0520706,-0.00362396,0.0347519,0.0289917,0.0151062
20,4,8.22011,0.000305176,0.000762939,-2.42776,0.0544603,-0.0759786,0.0544332,0.0712755,-0.0931465,0.145318,-0.125461,-0.0822652,-0.026474,0.0389862,0.0355148,0.0159073,0.054512,0.0151062,0.0258255,-0.00297546,-9.97986,-0.0182343,0.0148773,0.0389481,0.0464249,-0.00556946,0.0330353,0.0344849,0.00453949
20,5,10.0097,-0.000305176,0.000915527,-2.4247,0.0550706,-0.0753682,0.0556539,0.094774,-0.090705,0.144708,-0.124546,-0.0840963,-0.0365448,0.0412369,0.0296402,0.0147247,0.0445175,0.0135422,0.0247955,-0.0152588,-9.97986,-0.0363159,0.0115204,0.0463486,0.0412369,0.000686646,0.0365448,0.043335,-0.00339508
20,6,10.0097,-0.0012207,0.000610352,-2.42928,0.0538499,-0.0762837,0.0519917,0.0908068,-0.0946723,0.143487,-0.126072,-0.0859274,0.00411987,0.037117,0.0321198,0.0163269,0.0370407,0.00701904,0.0226593,-0.0112152,-9.97986,-0.04776,0.00225067,0.0401306,0.0292587,0.00473022,0.0443268,0.0422287,-0.00709534
20,7,10.0097,0.000610352,-0.000457764,-2.42928,0.0541551,-0.0753682,0.0519917,0.075548,-0.0961982,0.143792,-0.127292,-0.0865377,0.03685,0.0387573,0.0334167,0.0161362,0.0311661,0.00827789,0.0261307,-0.0148773,-9.97986,-0.0505066,0.0043869,0.0569916,0.0159454,0.00400543,0.0437546,0.0365448,-0.0141525
20,8,10.0097,0.000305176,-0.000610352,-2.42867,0.0535448,-0.0756734,0.0529073,0.0712755,-0.0946723,0.143487,-0.127292,-0.0868429,0.0362396,0.0328827,0.030899,0.0156403,0.0234604,0.0177765,0.0202179,-0.0188828,-9.97986,-0.0460434,0.00354767,0.0626373,0.0101089,0.00259399,0.0459671,0.0328064,-0.0203705
20,9,10.0097,0.000305176,-0.00152588,-2.42928,0.0532396,-0.0759786,0.0522969,0.07036,-0.0952827,0.143792,-0.126377,-0.0874532,0.0358582,0.0339127,0.0260162,0.0163651,0.0174332,0.017395,0.0180054,-0.0262833,-9.97986,-0.0653076,-0.00183105,0.0450897,-0.00209808,-0.0025177,0.0475693,0.0340652,-0.0157166
21,0,10.0097,0.000915527,-0.000305176,-2.42837,0.0535448,-0.0747579,0.0510762,0.0688341,-0.0952827,0.143182,-0.126682,-0.0871481,0.01297,0.0284958,0.0213623,0.0136948,0.0140762,0.0188446,0.0194168,-0.0169754,-9.97986,-0.0780869,0.00537872,0.0379944,0.00320435,-0.000228882,0.0498962,0.0405121,-0.0117111
21,1,10.0097,0.000915527,-0.000305176,-2.42928,0.0538499,-0.0744527,0.0526021,0.0700548,-0.0952827,0.144403,-0.126682,-0.0868429,0.00785828,0.020752,0.0166702,0.00850677,0.0104904,0.0133896,0.0143051,-0.013237,-9.97986,-0.0758743,-0.00156403,0.0319672,0.00434875,-0.00144958,0.0520706,0.0378036,-0.0133133
21,2,10.0097,0.00152588,-0.000457764,-2.42776,0.0547655,-0.0756734,0.0532125,0.0694445,-0.0928413,0.144098,-0.125461,-0.085317,0.00610352,0.0191498,0.0149918,0.0135422,0.0094986,0.0138092,0.0117111,-7.62939e-005,-9.97986,-0.0515747,-0.00549316,0.0390244,-0.00133514,0.00362396,0.0583267,0.0356674,-0.0135803
21,3,10.0097,-0.000610352,-0.000457764,-2.42714,0.0541551,-0.0744527,0.0538228,0.0685289,-0.0931465,0.143792,-0.126377,-0.0847066,0.0018692,0.0139236,0.00736237,0.00911713,0.0198746,0.00995636,0.0131989,0.00171661,-9.97986,-0.0475693,-0.00114441,0.0483322,-0.0170517,0.00339508,0.0595856,0.0331116,-0.00915527
21,4,10.0097,0.000305176,-0.000610352,-2.42714,0.055681,-0.0753682,0.054128,0.0691393,-0.0928413,0.145929,-0.125766,-0.0850118,-0.00320435,0.00747681,7.62939e-005,0.00656128,0.00938416,0.00812531,0.0130081,-0.00717163,-9.97986,-0.0522232,-0.00255585,0.0448227,-0.0341415,-0.00270844,0.0636292,0.0282669,-0.00873566
21,5,10.0097,-0.000610352,-0.000915527,-2.42501,0.0559862,-0.0741475,0.0547383,0.0706652,-0.0919257,0.147149,-0.125156,-0.0831808,-0.010643,0.00392914,-0.00270844,0.00507355,0.0107956,0.00881195,0.00762939,-0.00038147,-9.97986,-0.0504684,0.00354767,0.0324631,-0.0427628,-0.00270844,0.0688171,0.0200653,-0.00652313
21,6,10.0097,0.000610352,-0.000152588,-2.42501,0.055681,-0.073232,0.054128,0.0718859,-0.0910102,0.146234,-0.123935,-0.0819601,-0.0131989,0.00461578,-0.00621796,0.00762939,0.0204849,0.00793457,0.00205994,-0.0038147,-9.97986,-0.00724792,0.00217438,0.0280762,-0.0522995,-0.00541687,0.067215,0.0163269,0.00087738
21,7,10.0097,0.000305176,-0.00152588,-2.4247,0.0575121,-0.0747579,0.0550435,0.0715807,-0.090705,0.147149,-0.125156,-0.0816549,-0.0141525,0.00202179,-0.0111389,0.0043869,0.0225449,0.00545502,0.00469208,-0.00339508,-9.97986,0.029335,-0.000305176,0.0232315,-0.0683975,-0.00896454,0.0629044,0.00808716,0.00648499
21,8,10.0097,-0.000305176,-0.00167847,-2.42501,0.055681,-0.0741475,0.0538228,0.0700548,-0.0922309,0.14776,-0.124546,-0.0819601,-0.00930786,0.00205994,-0.00404358,0.0063324,0.0217438,0.0135422,-0.00144958,-3.8147e-005,-9.97986,0.0395966,0.000915527,0.0296402,-0.0842667,-0.00988007,0.0598145,0.00499725,0.012207
21,9,10.0097,0.000305176,-0.0012207,-2.42501,0.0569017,-0.0744527,0.0556539,0.0724962,-0.0925361,0.147455,-0.123935,-0.0819601,0.0108719,0.00179291,-0.00587463,0.00804901,0.0185776,0.0118637,-0.000801086,0.00564575,-9.97986,0.0305176,-0.00267029,0.0258636,-0.093689,-0.0102234,0.0550079,0.00667572,0.00953674
22,0,10.0097,0.000610352,-0.0012207,-2.42653,0.0572069,-0.0744527,0.0532125,0.0505236,-0.0949775,0.146844,-0.125766,-0.0819601,0.0209427,0.00541687,-0.0056839,0.00831604,0.0241089,0.0140381,-0.00087738,0.0105667,-9.97986,0.0474548,-0.0031662,0.026207,-0.0937653,-0.0114441,0.0473022,0.00469208,0.00953674
22,1,9.40785,-0.000610352,-0.00213623,-2.42501,0.0559862,-0.0747579,0.0550435,0.0471666,-0.0931465,0.147455,-0.125766,-0.0810445,0.022316,0.0062561,-0.00495911,0.0082016,0.0239182,0.0153732,-0.000534058,0.0140381,-9.97986,0.071106,0.001297,0.0233459,-0.099678,-0.00614166,0.0435638,0.00858307,0.0183868
22,2,8.17189,0.000915527,-0.000457764,-2.42592,0.0559862,-0.0753682,0.0550435,0.0578478,-0.0934516,0.147149,-0.126072,-0.0822652,0.0224304,0.000762939,-0.00541687,0.0063324,0.0265503,0.0119781,-0.00473022,0.0222397,-9.97986,0.100937,-0.00408173,0.0242996,-0.0936508,-0.00823975,0.0419617,0.0136566,0.00938416
22,3,8.08095,0.0012207,0.000457764,-2.42653,0.055681,-0.0744527,0.0535176,0.0648668,-0.0922309,0.145624,-0.126377,-0.0819601,0.031662,0.00640869,-0.0038147,0.00610352,0.0284195,0.00953674,-0.0108337,0.0218582,-9.97986,0.120735,0.00125885,0.0289154,-0.0844955,-0.00843048,0.0395966,0.0120163,0.00720978
22,4,8.33913,0.000305176,0.000762939,-2.42714,0.0550706,-0.0741475,0.0547383,0.0724962,-0.0913154,0.145013,-0.125156,-0.0834859,0.0308609,0.00785828,-0.000228882,0.00637054,0.0215912,0.0104904,-0.0114441,0.0204468,-9.97986,0.113678,0.00133514,0.0292587,-0.0935745,-0.0114822,0.0354767,0.0105286,0.00854492
22,5,10.0097,0,0.000610352,-2.42745,0.0550706,-0.0759786,0.0550435,0.094774,-0.088874,0.144403,-0.123935,-0.0831808,0.0234604,0.00682831,-0.000495911,0.00911713,0.0255966,0.015564,-0.00862122,0.0203323,-9.97986,0.118523,0.001297,0.0214386,-0.106773,-0.0101852,0.0351715,0.00976563,0.0180054
22,6,10.0097,0,0,-2.42959,0.0532396,-0.0768941,0.0526021,0.0880602,-0.0946723,0.144098,-0.126377,-0.0859274,0.0214386,0.00972748,0.00488281,0.00801086,0.0203705,0.0112534,-0.0162506,0.0212479,-9.97986,0.108604,0,0.0233459,-0.111427,-0.00713348,0.0440216,0.0117874,0.0153351
22,7,10.0097,-0.000915527,-0.000457764,-2.42989,0.0538499,-0.0762837,0.0513814,0.075548,-0.0949775,0.144098,-0.126682,-0.0871481,0.018692,0.0138092,0.00686646,0.0063324,0.014267,0.00793457,-0.0125122,0.0254822,-9.97986,0.0894547,0.00324249,0.0293732,-0.120277,-0.00881195,0.0415802,0.0114441,0.0119019
22,8,10.0097,0.000915527,-0.000610352,-2.42837,0.0535448,-0.075063,0.0532125,0.0700548,-0.0952827,0.144403,-0.126682,-0.0880636,0.0159454,0.0155258,0.00370026,0.0133514,0.0132751,0.001297,-0.0167847,0.0217438,-9.97986,0.0818253,0.00614166,0.0320053,-0.127068,-0.00408173,0.0363541,0.00846863,0.015831
22,9,10.0097,-0.000305176,-0.0012207,-2.42989,0.0535448,-0.075063,0.0526021,0.0691393,-0.0946723,0.144098,-0.127292,-0.0874532,0.00976563,0.018959,0.00850677,0.00839233,0.0069809,0.00762939,-0.0166321,0.0234222,-9.97986,0.0756836,0.00167847,0.0352478,-0.13031,-0.00118256,0.0326538,0.00492096,0.0202942
23,0,10.0097,0.00152588,-0.0012207,-2.42989,0.0535448,-0.0747579,0.0532125,0.0688341,-0.0955879,0.144098,-0.128208,-0.0865377,0.0108337,0.0167084,0.016098,0.0135422,0.00267029,0.0094986,-0.0167847,0.0203705,-9.97986,0.0715256,0.00286102,0.0413895,-0.134964,-0.00591278,0.0302887,0.010643,0.0294113
23,1,10.0097,0,-0.000152588,-2.42959,0.0538499,-0.0759786,0.0529073,0.0694445,-0.0943672,0.145318,-0.126072,-0.0859274,0.00804901,0.0193405,0.0150681,0.0111389,0.0104523,0.0114441,-0.0239563,0.0171661,-9.97986,0.0656128,-0.00267029,0.0281525,-0.128479,-0.00339508,0.0294113,0.0177002,0.0291443
23,2,10.0097,0.00366211,0.000305176,-2.42806,0.0538499,-0.0753682,0.0535176,0.0688341,-0.0934516,0.143792,-0.126072,-0.0850118,0.0108337,0.0197601,0.0133514,0.00988007,0.0069046,0.0128174,-0.0341797,0.0244141,-9.97986,0.0600052,-0.00156403,0.0207901,-0.116234,-0.00938416,0.0273132,0.0178146,0.0281525
23,3,10.0097,-0.0012207,0.00198364,-2.42837,0.0553758,-0.0747579,0.0544332,0.0691393,-0.0946723,0.146234,-0.126072,-0.0844015,0.00835419,0.020256,0.0139618,0.0106812,0.00705719,0.00873566,-0.0358963,0.0283432,-9.97986,0.0637054,0.00656128,0.0199127,-0.0986099,-0.0037384,0.0261307,0.0159836,0.0291824
23,4,10.0097,-0.000305176,0.00137329,-2.42684,0.0553758,-0.0744527,0.0522969,0.0694445,-0.0937568,0.144098,-0.126377,-0.0828756,0.0108337,0.0212097,0.0198364,0.012207,0.00320435,0.00602722,-0.0330734,0.0232315,-9.97986,0.0634003,0.00297546,0.016098,-0.0792694,-0.00659943,0.0224686,0.0162888,0.0302887
23,5,10.0097,0.00244141,0.00228882,-2.42592,0.0569017,-0.0735371,0.054128,0.0715807,-0.0922309,0.145318,-0.125461,-0.0819601,0.0145721,0.0219727,0.0191498,0.0123215,0.00465393,-0.000457764,-0.0266647,0.0196075,-9.97986,0.0644684,0.00461578,0.0189972,-0.0664902,-0.00389099,0.0156021,0.0201035,0.0279999
23,6,10.0097,0.000305176,0.00137329,-2.42562,0.0569017,-0.0738423,0.0553487,0.07036,-0.0922309,0.146539,-0.125156,-0.0807394,0.0114441,0.0267029,0.0200653,0.00995636,0.00770569,-0.00297546,-0.0278473,0.026741,-9.97986,0.0544739,0.00526428,0.0231171,-0.0561523,-0.00434875,0.0128174,0.0214767,0.0223541
23,7,10.0097,0.00305176,0.00137329,-2.42562,0.0550706,-0.073232,0.0553487,0.0728014,-0.0922309,0.145929,-0.124241,-0.080129,0.0101471,0.0255966,0.021553,0.0182724,0.00312805,-0.00614166,-0.0225067,0.027504,-9.97986,0.041008,0.00289917,0.0331116,-0.0336456,-0.00255585,0.00915527,0.0284195,0.0286865
23,8,10.0097,0.000915527,0.00167847,-2.4247,0.0559862,-0.0735371,0.0556539,0.0712755,-0.0913154,0.14898,-0.124241,-0.0807394,0.0108337,0.0263977,0.0244904,0.0138855,0.00617981,-0.01091,-0.0158691,0.0265503,-9.97986,0.0303268,0.00038147,0.0400543,-0.0221252,0.000648499,0.0135803,0.0284958,0.0242615
23,9,10.0097,0.00152588,0,-2.42592,0.0565965,-0.0735371,0.054128,0.0706652,-0.0910102,0.146234,-0.124241,-0.0816549,0.010643,0.0289536,0.0258255,0.0129318,0.00804901,-0.00831604,-0.0110245,0.0268555,-9.97986,0.0192261,0.00213623,0.0482559,-0.0273895,-0.00305176,0.0100708,0.0279236,0.0222778
24,0,10.0097,-0.000915527,-0.000457764,-2.42592,0.0559862,-0.0744527,0.0538228,0.0505236,-0.0952827,0.146844,-0.125461,-0.0816549,0.0124359,0.0260162,0.0222397,0.0121689,0.00728607,-0.0182343,0.0018692,0.0234222,-9.97986,0.0138855,0.00637054,0.0457764,-0.0220871,0.00400543,0.0102997,0.0224304,0.0194168
24,1,9.72371,0.000610352,-0.000152588,-2.42562,0.0569017,-0.0738423,0.054128,0.0493029,-0.0928413,0.146539,-0.126377,-0.0813497,0.00904083,0.0271606,0.0191498,0.0115585,0.00152588,-0.0174713,0.00751495,0.0229263,-9.97986,0.0115585,-0.000457764,0.0308609,-0.0130844,0.00972748,0.00701904,0.0144577,0.0194168
24,2,8.52834,0,0.000305176,-2.42745,0.0559862,-0.075063,0.054128,0.0566271,-0.0919257,0.146539,-0.125766,-0.0825704,0.0063324,0.0283813,0.0239563,0.0126648,0.00423431,-0.0166702,0.017662,0.0192261,-9.97986,0.0115204,0.00545502,0.0245667,-0.00324249,0.00862122,0.00453949,0.0146866,0.00892639
24,3,8.46974,0,0.000610352,-2.42562,0.0553758,-0.0762837,0.055959,0.0642565,-0.0928413,0.146539,-0.125156,-0.0831808,0.00804901,0.0291443,0.0213242,0.0113678,-0.00389099,-0.0205994,0.0226974,0.0223541,-9.97986,0.00518799,0.000419617,0.0229263,0.0038147,0.0109482,0.00522614,0.0216293,0.0012207
24,4,8.75478,0.000915527,0.000610352,-2.42714,0.0553758,-0.0747579,0.0547383,0.0740221,-0.0922309,0.145929,-0.125156,-0.0834859,0.00434875,0.0266266,0.0242996,0.00869751,-0.00507355,-0.0178909,0.0194168,0.0223923,-9.97986,0.00453949,0.000495911,0.0247574,0.00102997,0.0106812,0.00423431,0.0228119,-0.00205994
24,5,10.0097,0.000915527,0.00228882,-2.42653,0.0553758,-0.0753682,0.054128,0.0950792,-0.088874,0.144708,-0.124546,-0.0828756,0.00816345,0.0259018,0.0267792,0.0126648,-0.00602722,-0.0186157,0.0133896,0.0191498,-9.97986,0.00427246,0.00148773,0.026474,0.0154114,0.00717163,0.00267029,0.0240707,0.00415802
24,6,10.0097,0.00183105,0.00228882,-2.42837,0.0538499,-0.0765889,0.0519917,0.0834825,-0.0943672,0.142877,-0.126377,-0.0862325,0.00957489,0.0324631,0.0260544,0.0139618,-0.0062561,-0.0194931,0.0136948,0.0219345,-9.97986,0.00240326,0.00190735,0.0266647,0.0374985,0.00598907,0.00652313,0.0270081,0.00652313
24,7,10.0097,0.00274658,0.000610352,-2.42959,0.0544603,-0.0759786,0.0529073,0.0752428,-0.0943672,0.143182,-0.126987,-0.0859274,0.00610352,0.0270462,0.0243759,0.0125122,-0.0106812,-0.0210571,0.0108719,0.0231552,-9.97986,-0.00183105,-0.00137329,0.0172806,0.0505447,0.00671387,0.00865936,0.0271988,0.00762939
24,8,10.0097,0.000610352,0.000305176,-2.42806,0.0547655,-0.0756734,0.0529073,0.0715807,-0.0952827,0.144708,-0.127292,-0.0865377,0.0107193,0.0284576,0.0210571,0.0143433,-0.00896454,-0.0304031,0.0082016,0.0201797,-9.97986,-0.00518799,-0.000610352,0.0166321,0.0469971,0.00545502,0.012207,0.0261307,0.00679016
24,9,10.0097,0.000610352,-0.00167847,-2.42959,0.0544603,-0.0759786,0.0513814,0.0700548,-0.0949775,0.137994,-0.126682,-0.0874532,0.0121689,0.0323486,0.0244904,0.0125122,-0.0104904,-0.0291061,0.0123978,0.0227356,-9.97986,-0.00301361,-0.00205994,0.0165558,0.0288391,0.00686646,0.00888824,0.0238037,0.00724792
25,0,10.0097,0.0012207,-0.00106812,-2.42806,0.0541551,-0.0759786,0.0529073,0.0688341,-0.0949775,0.143792,-0.124546,-0.0865377,0.00617981,0.0269318,0.0216675,0.00904083,-0.0115204,-0.0293732,0.00995636,0.021286,-9.97986,-0.00244141,0,0.0153351,0.0474167,0.00659943,0.00587463,0.0217819,0.00427246
25,1,10.0097,0.00152588,0.00167847,-2.42867,0.0532396,-0.0744527,0.0535176,0.0694445,-0.0934516,0.144403,-0.126072,-0.085317,0.0062561,0.0302887,0.0252151,0.00869751,-0.00843048,-0.028801,0.0138092,0.0212097,-9.97986,-0.00339508,-0.00476837,0.0161362,0.0786972,0.00957489,0.00408173,0.0226212,0.00247955
25,2,10.0097,0.000305176,0.00167847,-2.42714,0.0547655,-0.0753682,0.0532125,0.0694445,-0.0946723,0.140436,-0.126377,-0.0856222,0.00648499,0.0294876,0.0222778,0.0165558,-0.00522614,-0.0305939,0.00667572,0.0200653,-9.97986,-0.00881195,-0.00686646,0.0169754,0.0876617,0.0108719,0.00362396,0.0226974,0.00263214
25,3,10.0097,0.00183105,0.00106812,-2.42714,0.0550706,-0.0744527,0.0529073,0.0691393,-0.0934516,0.145318,-0.133091,-0.0847066,0.00984192,0.0310898,0.0242996,0.0154114,-0.00759125,-0.0272369,-0.00404358,0.0212097,-9.97986,-0.00202179,-0.00213623,0.0109863,0.082016,0.0102234,0.00419617,0.0232315,0.0094986
25,4,10.0097,-0.000305176,-0.000610352,-2.42653,0.0553758,-0.0744527,0.054128,0.0691393,-0.0931465,0.144708,-0.125766,-0.0837911,0.00850677,0.0272369,0.0276184,0.00991821,-0.00602722,-0.0298309,-0.00137329,0.0256348,-9.97986,-0.00415802,-0.00553131,0.00778198,0.0767899,0.0100708,0.00926971,0.020256,0.00339508
25,5,10.0097,0.000915527,0.000152588,-2.42684,0.0562914,-0.0738423,0.0544332,0.0706652,-0.0916206,0.140436,-0.125156,-0.0828756,0.011673,0.0252533,0.0214005,0.0113297,-0.00518799,-0.0258636,-0.00087738,0.0198746,-9.97986,-0.00537872,-0.00473022,0.00743866,0.0782776,0.0144958,0.00602722,0.022316,0.00644684
25,6,10.0097,-0.000610352,-0.000152588,-2.42531,0.0562914,-0.0741475,0.0547383,0.0709703,-0.0916206,0.145929,-0.127292,-0.0810445,0.0069809,0.030098,0.0270844,0.0151443,-0.000572205,-0.0281906,0.00270844,0.0252151,-9.97986,-0.00617981,-0.00797272,0.00778198,0.0960541,0.0142288,0.010643,0.018158,0.00694275
25,7,10.0097,0,0.000915527,-2.42562,0.0562914,-0.0759786,0.0544332,0.0709703,-0.0925361,0.146844,-0.124241,-0.0804342,0.00614166,0.0316238,0.0283813,0.0149536,0.000991821,-0.0253677,0.00965118,0.0209427,-9.97986,-0.00537872,-0.00190735,0.000801086,0.0954819,0.0151443,0.014801,0.018692,0.00354767
25,8,10.0097,0.0012207,-0.000305176,-2.42501,0.0562914,-0.073232,0.0574849,0.0718859,-0.0913154,0.145318,-0.12363,-0.0804342,0.0104141,0.031662,0.0234604,0.0152588,0.000915527,-0.0279999,0.0165176,0.0191116,-9.97986,-0.00335693,-0.000343323,0.00537872,0.0850677,0.0217056,0.0152969,0.0172043,0.00358582
25,9,10.0097,0.000610352,0.0012207,-2.42501,0.0572069,-0.0738423,0.0574849,0.0709703,-0.0900947,0.146539,-0.123325,-0.080129,0.00850677,0.0283432,0.019455,0.0171661,0.00736237,-0.0273132,0.0244904,0.0227737,-9.97986,0.000114441,-0.00267029,0.00652313,0.0851822,0.0170517,0.0202942,0.0214767,0.0019455
26,0,10.0097,-0.000610352,-0.000305176,-2.42684,0.0569017,-0.0723164,0.0522969,0.0499132,-0.094062,0.146234,-0.125766,-0.0825704,0.0101852,0.0291824,0.0239563,0.0133133,0.00713348,-0.0257874,0.0321198,0.0205994,-9.97986,-0.00366211,-0.00778198,0.00518799,0.082016,0.0242233,0.0239944,0.0243759,0.00431061
26,1,9.69777,0.00152588,-0.000915527,-2.42501,0.0559862,-0.075063,0.0587056,0.0486925,-0.094062,0.145624,-0.126072,-0.0813497,0.0123215,0.0297546,0.0214386,0.0116348,0.00247955,-0.0255203,0.0315094,0.0208282,-9.97986,-0.00106812,-0.00480652,0.00228882,0.0804901,0.026207,0.0180435,0.0194168,0.00507355
26,2,8.46425,-0.0012207,-0.00152588,-2.4247,0.055681,-0.0744527,0.054128,0.0557115,-0.0937568,0.145318,-0.125766,-0.0822652,0.00572205,0.0294876,0.0225449,0.0145721,0.0110245,-0.0254059,0.0336075,0.0263596,-9.97986,-0.00125885,-0.00511169,0.00225067,0.0873566,0.0268173,0.0267029,0.0192642,0.00289917
26,3,8.32814,0.00244141,0.000305176,-2.42562,0.0559862,-0.0714009,0.0544332,0.065172,-0.0925361,0.145929,-0.127292,-0.0825704,-0.00576019,0.0295639,0.026741,0.0139999,0.00614166,-0.0286102,0.0382233,0.0241852,-9.97986,0.000190735,-0.00148773,0.0075531,0.0898361,0.0276184,0.03685,0.0182724,0.00339508
26,4,8.63881,0.00152588,0.000610352,-2.42592,0.0553758,-0.0738423,0.0590108,0.072191,-0.0928413,0.143792,-0.125766,-0.0828756,-0.0151443,0.0248337,0.0233078,0.0121307,0.00564575,-0.0292969,0.0408936,0.017662,-9.97986,0.00499725,0.000190735,0.00617981,0.0907135,0.0344086,0.0420761,0.0192642,0.00370026
26,5,10.0097,0.000610352,0.00137329,-2.42653,0.0547655,-0.0741475,0.054128,0.0962999,-0.0903999,0.144098,-0.123935,-0.0837911,-0.0128555,0.0239563,0.0258255,0.0164413,0.00534058,-0.0239182,0.0315857,0.0265503,-9.97986,0.00377655,-0.00408173,0.00419617,0.0885391,0.0317383,0.0408173,0.0177383,-0.000648499
26,6,10.0097,-0.0012207,0.000457764,-2.42867,0.0535448,-0.0759786,0.0516866,0.0865343,-0.0943672,0.143487,-0.126072,-0.0871481,-0.00549316,0.0255966,0.0261688,0.0159836,0.00816345,-0.02491,0.0287247,0.0205994,-9.97986,0.00602722,-0.00499725,0.00537872,0.0789642,0.0415039,0.0358582,0.0146866,0.000572205
26,7,10.0097,0.000610352,0.000305176,-2.42806,0.0544603,-0.0768941,0.0568746,0.0752428,-0.0955879,0.147455,-0.127292,-0.0871481,7.62939e-005,0.0251007,0.0195313,0.0094223,0.00759125,-0.0230408,0.0221634,0.0205994,-9.97986,0.00244141,-0.00610352,0.00366211,0.0731277,0.0398254,0.0323105,0.017662,-0.0019455
26,8,10.0097,-0.000915527,-0.00167847,-2.42928,0.0538499,-0.0753682,0.0522969,0.0715807,-0.0943672,0.143182,-0.126377,-0.0862325,0.00247955,0.024147,0.0257874,0.0120544,0.0114441,-0.0217438,0.0265503,0.0187683,-9.97986,0.00705719,-0.00423431,0.00713348,0.0627518,0.0396729,0.0259018,0.0163651,-0.0038147
26,9,10.0097,0.00183105,-0.00106812,-2.42928,0.0538499,-0.0793355,0.0516866,0.0694445,-0.0937568,0.144098,-0.127292,-0.0868429,0.00675201,0.0275421,0.0203705,0.0142288,0.0152588,-0.0161743,0.0227737,0.0214386,-9.97986,0.00644684,-0.00530243,0.00881195,0.0595093,0.0482941,0.0196457,0.017128,-0.00270844
27,0,10.0097,-0.000305176,-0.00137329,-2.42898,0.0535448,-0.0756734,0.054128,0.0697496,-0.0946723,0.144098,-0.127292,-0.0871481,0.0163269,0.023613,0.0236893,0.0149536,0.0163269,-0.0183487,0.0184631,0.0168991,-9.97986,0.00175476,-0.00614166,0.0138474,0.0529861,0.0466156,0.0265503,0.0129318,-0.00320435
27,1,10.0097,0.000610352,-0.00167847,-2.42806,0.0547655,-0.0762837,0.0519917,0.0685289,-0.0946723,0.143792,-0.127292,-0.0868429,0.0212479,0.02388,0.0269699,0.0138092,0.0137329,-0.0126648,0.0163651,0.0244522,-9.97986,0.00202179,-0.00480652,0.0082016,0.046463,0.0515747,0.0296402,0.0146103,0.000495911
27,2,10.0097,0.00183105,0.000152588,-2.42684,0.0550706,-0.0796407,0.0532125,0.0691393,-0.0925361,0.143792,-0.125766,-0.0844015,0.0243378,0.0281525,0.0233078,0.0130463,0.0193405,-0.0117111,0.0186157,0.0233841,-9.97986,-0.000495911,-0.00701904,0.00968933,0.0495911,0.0579453,0.0278854,0.0131989,0.00156403
27,3,10.0097,0.000305176,0.000152588,-2.42776,0.0550706,-0.0759786,0.0498555,0.0694445,-0.0928413,0.14013,-0.127598,-0.0850118,0.0190735,0.0293732,0.0205231,0.0148392,0.0233841,-0.00713348,0.0156403,0.0247955,-9.97986,-0.00545502,-0.0100708,0.00701904,0.0495148,0.0547791,0.0276566,0.0134659,-0.000839233
27,4,10.0097,0.0012207,-0.000610352,-2.42592,0.055681,-0.075063,0.0529073,0.0688341,-0.0928413,0.144098,-0.125766,-0.0840963,0.0178528,0.0291061,0.0217819,0.0115585,0.0281143,-0.00289917,0.00991821,0.0295639,-9.97986,-0.00869751,-0.00663757,0.00598907,0.0392914,0.0505829,0.0226974,0.0133514,-0.000648499
27,5,10.0097,0.000610352,-0.000610352,-2.42531,0.055681,-0.0714009,0.0550435,0.0709703,-0.0937568,0.145318,-0.125461,-0.0834859,0.0113678,0.0263977,0.0200653,0.0102997,0.0350571,0.00118256,0.0115204,0.0330353,-9.97986,-0.00556946,-0.0056076,0.00617981,0.0322342,0.0479126,0.0148392,0.0128174,0.00354767
27,6,10.0097,0.000915527,-0.000762939,-2.42531,0.0581224,-0.0747579,0.0532125,0.0706652,-0.0922309,0.150201,-0.125461,-0.0816549,0.00915527,0.0230026,0.0193405,0.0121307,0.0388718,0.00114441,0.0145721,0.0297546,-9.97986,-0.00324249,-0.0030899,0.00499725,0.0245285,0.049057,0.0122452,0.0110245,0.00167847
27,7,10.0097,0.000610352,-0.00167847,-2.42592,0.0553758,-0.0741475,0.0550435,0.0718859,-0.0910102,0.147455,-0.12363,-0.0810445,0.0152969,0.0251389,0.0185394,0.010643,0.0396729,0.00160217,0.0154495,0.0340652,-9.97986,0.00530243,-0.00450134,0.00377655,0.0208282,0.0499725,0.00858307,0.0102615,-0.00221252
27,8,10.0097,-0.000610352,-0.00137329,-2.4244,0.055681,-0.0686543,0.054128,0.0718859,-0.0922309,0.145929,-0.124241,-0.0816549,0.0227737,0.0265884,0.0195694,0.0127029,0.040741,0.00354767,0.019989,0.033493,-9.97986,0.0120926,-0.00843048,0.00152588,0.0082016,0.045929,0.000457764,0.0101852,-0.00270844
27,9,10.0097,0.00152588,-0.000915527,-2.42501,0.0569017,-0.0735371,0.055959,0.07036,-0.0910102,0.146844,-0.124851,-0.0804342,0.0221252,0.033493,0.018959,0.0130844,0.0442886,0.00377655,0.0178528,0.030899,-9.97986,0.0180054,-7.62939e-005,0.00347137,-0.0118256,0.052948,0.00274658,0.00934601,-0.00038147
28,0,10.0097,-0.000305176,-0.00274658,-2.42714,0.0559862,-0.0741475,0.0532125,0.0486925,-0.0949775,0.147149,-0.126377,-0.0831808,0.0340271,0.0263977,0.0214005,0.0123978,0.045433,0.00476837,0.0161743,0.0262833,-9.97986,0.0174713,-0.00415802,-0.000801086,-0.0223541,0.0514984,0.00511169,0.00984192,-0.00202179
28,1,9.34285,0.000305176,-0.00244141,-2.42531,0.0553758,-0.0701802,0.054128,0.0468614,-0.0931465,0.14776,-0.125766,-0.0822652,0.0354004,0.0265884,0.0220871,0.0155258,0.0406265,0.00392914,0.0159454,0.0175858,-9.97986,0.0205994,-0.00648499,-0.00453949,-0.0337219,0.0506973,0.00701904,0.011673,-0.00423431
28,2,8.11452,-0.000305176,-0.00137329,-2.42531,0.0553758,-0.0747579,0.0535176,0.0566271,-0.0922309,0.146844,-0.125766,-0.0816549,0.0232315,0.0281525,0.0239944,0.0111771,0.0457382,0.00354767,0.0164413,0.0159836,-9.97986,0.0204086,-0.00659943,-0.000991821,-0.0453186,0.0528717,0.0113678,0.00637054,-0.00278473
28,3,8.00099,0.0012207,-0.00152588,-2.42592,0.0553758,-0.0741475,0.054128,0.0654772,-0.0916206,0.145318,-0.126377,-0.0837911,0.0146866,0.0223923,0.0205231,0.0171661,0.0428009,0.00823975,0.0153732,0.0062561,-9.97986,0.00511169,0.000991821,-0.00167847,-0.0531387,0.0531006,0.00179291,0.0146484,-0.00244141
28,4,8.22469,0.0012207,-0.000457764,-2.42623,0.0553758,-0.0765889,0.0544332,0.0718859,-0.0919257,0.145318,-0.124241,-0.0837911,0.00709534,0.0295639,0.0200272,0.0115967,0.0416183,0.00694275,0.0177002,0.00255585,-9.97986,-0.0118637,-0.00102997,0.000343323,-0.0606918,0.0511169,0.00518799,0.00793457,-0.00156403
28,5,10.0097,0.000915527,0,-2.42653,0.0535448,-0.0756734,0.055959,0.0950792,-0.090705,0.145013,-0.123935,-0.0831808,0.00473022,0.0209045,0.0218964,0.0121307,0.0456238,0.00347137,0.0219345,0.000572205,-9.97986,-0.0217819,-0.00240326,0.000419617,-0.066185,0.0499344,0.00217438,0.00938416,-0.00431061
28,6,10.0097,-0.000305176,0.000915527,-2.42989,0.0538499,-0.0759786,0.0532125,0.0889757,-0.0943672,0.143792,-0.125766,-0.0865377,0.00457764,0.0218201,0.02388,0.00961304,0.0448608,0.00102997,0.018959,-0.00102997,-9.97986,-0.0322342,-0.00808716,-0.0063324,-0.0662613,0.0504684,-0.00125885,0.0137711,-0.00392914
28,7,10.0097,0.000915527,0,-2.42928,0.0538499,-0.0735371,0.0532125,0.0758531,-0.0949775,0.145013,-0.125766,-0.0868429,0.00556946,0.0241852,0.0198364,0.0146484,0.0465775,0.00125885,0.02388,0.00114441,-9.97986,-0.0541306,-0.00511169,-0.00137329,-0.067215,0.0551987,0.000228882,0.0149155,-0.00267029
28,8,10.0097,0.000305176,0,-2.42959,0.0535448,-0.0762837,0.0538228,0.0718859,-0.0949775,0.145013,-0.127292,-0.0868429,0.00976563,0.0172806,0.018425,0.0094986,0.0463486,-0.001297,0.0255966,-0.00102997,-9.97986,-0.0558472,-0.00797272,-0.00198364,-0.063591,0.0538635,-0.00526428,0.0118637,-0.00133514
28,9,10.0097,0.00183105,-0.000305176,-2.42806,0.0535448,-0.0765889,0.0519917,0.0694445,-0.0943672,0.144098,-0.127598,-0.0877584,0.0167084,0.0197983,0.0203705,0.0156403,0.0358582,-0.00423431,0.0211334,0.00595093,-9.97986,-0.0394821,-0.00228882,-0.000228882,-0.0588226,0.0583267,-0.0069809,0.0153351,0.000610352
29,0,10.0097,-0.000610352,-0.000610352,-2.42867,0.0544603,-0.0787251,0.0519917,0.0697496,-0.0943672,0.142877,-0.126987,-0.0865377,0.0241852,0.0217056,0.0208664,0.0126266,0.0431442,-0.000991821,0.0232697,0.0107574,-9.97986,-0.0175858,-0.00652313,0.0031662,-0.0577164,0.0657654,-0.0181198,0.0125504,-0.001297
29,1,10.0097,0.000610352,-0.000152588,-2.42898,0.0544603,-0.0753682,0.0538228,0.0694445,-0.0925361,0.14837,-0.127598,-0.0868429,0.0209427,0.0204849,0.0136566,0.0101471,0.0466537,-0.0062561,0.0271225,0.0030899,-9.97986,0.000724792,-0.0056076,-0.00156403,-0.0563812,0.0587463,-0.0214767,0.0133896,-0.00328064
29,2,10.0097,0.000305176,-0.000457764,-2.42806,0.0559862,-0.0744527,0.0535176,0.0700548,-0.0943672,0.144403,-0.126987,-0.0856222,0.0120544,0.0199509,0.0164795,0.0108719,0.0414276,0.00164032,0.0229645,0.0094223,-9.97986,0.0320053,-0.00579834,0.00087738,-0.0569153,0.0569534,-0.0266266,0.0130463,-3.8147e-005
29,3,10.0097,-0.000305176,0,-2.42776,0.0547655,-0.0771993,0.0519917,0.07036,-0.0925361,0.144403,-0.126072,-0.0847066,0.000991821,0.0159454,0.0141144,0.00785828,0.0428391,-0.00419617,0.030899,0.00480652,-9.97986,0.0679779,-0.000915527,0.00255585,-0.0535583,0.0535965,-0.0252533,0.0147629,0.00148773
29,4,10.0097,-0.000305176,-0.000152588,-2.42714,0.0550706,-0.075063,0.0532125,0.0706652,-0.0934516,0.146234,-0.126072,-0.0837911,-0.00087738,0.0155258,0.0123215,0.0183868,0.0430298,0.00213623,0.0306702,0.00843048,-9.97986,0.0995636,-0.00259399,0.00175476,-0.0530624,0.0529861,-0.0353241,0.0128555,-0.000152588
29,5,10.0097,-0.000610352,0.000152588,-2.42501,0.0559862,-0.0741475,0.0547383,0.0709703,-0.0913154,0.145318,-0.124851,-0.0816549,0.0038147,0.0167847,0.0149155,0.0133133,0.0402069,0.00495911,0.0317764,0.00823975,-9.97986,0.112762,0.000648499,0.00434875,-0.0485229,0.0486374,-0.0368881,0.0113297,-0.000648499
29,6,10.0097,0.000610352,0.000457764,-2.42653,0.0562914,-0.0738423,0.054128,0.07036,-0.0913154,0.146539,-0.125156,-0.0804342,0.00427246,0.0195313,0.0135422,0.010376,0.0437164,0.00400543,0.0312042,0.00843048,-9.97986,0.0875473,0.00270844,0.00545502,-0.0350571,0.0495529,-0.0343704,0.0104141,0.00259399
29,7,10.0097,0,0.00137329,-2.42531,0.0550706,-0.0741475,0.054128,0.0706652,-0.0919257,0.146234,-0.124851,-0.0807394,0.00965118,0.0170898,0.0111771,0.0107574,0.0399017,0.00221252,0.0359726,0.00862122,-9.97986,0.0551987,-0.00354767,0.00598907,-0.0268936,0.0444031,-0.0349808,0.0106049,0.00141144
29,8,10.0097,-0.000305176,0.000610352,-2.4244,0.0562914,-0.075063,0.0547383,0.0691393,-0.0910102,0.147149,-0.123935,-0.0810445,0.0171661,0.0184631,0.0126648,0.0140381,0.044899,0.0102234,0.0471115,0.0141907,-9.97986,0.0305176,-0.00144958,0.00709534,-0.02388,0.0479126,-0.0323105,0.0134277,-0.001297
29,9,10.0097,0.000610352,0.00152588,-2.4244,0.0572069,-0.0741475,0.0550435,0.0709703,-0.0922309,0.147455,-0.123935,-0.0807394,0.0170135,0.0212097,0.0149155,0.0137711,0.0376892,0.00476837,0.0413132,0.0149918,-9.97986,0.0133133,-0.00259399,0.00587463,-0.0113678,0.0476837,-0.0292969,0.00846863,0.000419617
30,0,10.0097,-0.000305176,0.000305176,-2.42623,0.0553758,-0.0729268,0.0535176,0.0483873,-0.0943672,0.143182,-0.127598,-0.0825704,0.016098,0.0207138,0.0126648,0.0107574,0.0408936,0.00400543,0.0372696,0.0162506,-9.97986,0.021286,-0.00156403,0.000610352,-0.00553131,0.0430298,-0.0315857,0.00644684,0.0025177
30,1,9.39137,-0.000305176,-0.00106812,-2.42592,0.0569017,-0.0741475,0.054128,0.047777,-0.0919257,0.146539,-0.126377,-0.0813497,0.0146103,0.0159454,0.0183105,0.00900269,0.0415039,0.0110245,0.0357056,0.0154495,-9.97986,0.0249481,-0.00530243,0.00347137,-0.00453949,0.0440979,-0.0317383,0.00774384,0.00370026
30,2,8.16182,0.000610352,-0.000457764,-2.42623,0.0559862,-0.0723164,0.055959,0.0563219,-0.0916206,0.14776,-0.126377,-0.0816549,0.00652313,0.0146484,0.0145721,0.00968933,0.0352478,0.00888824,0.034256,0.00904083,-9.97986,0.0291824,-0.00228882,0.00778198,-0.00370026,0.0424576,-0.0344086,0.0082016,0.00350952
30,3,8.06111,0.000610352,0.000305176,-2.42592,0.0547655,-0.0747579,0.0544332,0.0639513,-0.0931465,0.143792,-0.124851,-0.0825704,0.00564575,0.0243759,0.0181961,0.0128555,0.0349808,0.0103378,0.0291824,0.0117111,-9.97986,0.0358582,-0.00518799,0.00743866,-0.00644684,0.037384,-0.0336456,0.00656128,0.00366211
30,4,8.34065,0.000915527,0.000915527,-2.42653,0.0550706,-0.0747579,0.0522969,0.0734117,-0.0922309,0.145318,-0.125766,-0.0834859,0.00164032,0.0190353,0.0155258,0.0123978,0.0365829,0.0108719,0.0320053,0.0137329,-9.97986,0.0357819,-0.00297546,0.0131226,0.00423431,0.0410843,-0.0364685,0.0108337,0.00263214
30,5,10.0097,0.000610352,0.000915527,-2.42623,0.0553758,-0.0768941,0.0544332,0.0962999,-0.0897895,0.145318,-0.123935,-0.0847066,-0.00823975,0.0141144,0.014267,0.01091,0.0350952,0.0117874,0.0324249,0.01091,-9.97986,0.0292587,-0.00221252,0.00850677,-0.00236511,0.0364685,-0.0453568,0.00740051,-0.00110626
30,6,10.0097,0.000915527,0.00137329,-2.42959,0.0526292,-0.0753682,0.0519917,0.0886705,-0.0946723,0.143487,-0.126072,-0.0865377,-0.00919342,0.0187683,0.0172806,0.0104141,0.0356674,0.0102997,0.0334167,0.0128174,-9.97986,0.0317764,-0.00442505,0.00988007,-0.00480652,0.0312042,-0.0446701,0.00507355,0.000572205
30,7,10.0097,0.00152588,0.000915527,-2.42989,0.0547655,-0.0759786,0.0522969,0.075548,-0.0952827,0.143792,-0.125766,-0.0862325,-0.00263214,0.0203705,0.0180435,0.014267,0.0370407,0.0130844,0.0379562,0.0107574,-9.97986,0.0196838,-0.00465393,0.00896454,0.00770569,0.0356674,-0.0450134,0.00644684,0.00427246
30,8,10.0097,-0.000305176,0.000152588,-2.42928,0.0541551,-0.0762837,0.0519917,0.0712755,-0.094062,0.144708,-0.126987,-0.0859274,0.00793457,0.0150681,0.019989,0.010376,0.0338745,0.0144196,0.0286484,0.0119781,-9.97986,0.000762939,-0.00476837,0.00862122,0.00404358,0.0314713,-0.0425339,0.00408173,0.00473022
30,9,10.0097,0.000305176,-0.000152588,-2.4302,0.0541551,-0.0759786,0.0519917,0.0694445,-0.095893,0.145624,-0.127292,-0.0865377,0.0136948,0.0213242,0.0182343,0.0111389,0.0322723,0.0149536,0.0308228,0.0136185,-9.97986,-0.00827789,-0.00656128,0.014267,0.00648499,0.033989,-0.0418091,0.00217438,0.00225067
31,0,10.0097,-0.000610352,0,-2.42959,0.0538499,-0.0756734,0.0532125,0.0676134,-0.0952827,0.144098,-0.128208,-0.0874532,0.00156403,0.0258255,0.0203705,0.0175095,0.0366974,0.0217438,0.0429535,0.0224686,-9.97986,-0.0043869,0.00221252,0.0219345,0.0148392,0.0378799,-0.0343323,0.00545502,0.00400543
31,1,10.0097,0.000305176,0,-2.42959,0.0538499,-0.0762837,0.0522969,0.0688341,-0.0946723,0.144098,-0.126987,-0.0868429,-0.0216293,0.0146866,0.0134277,0.00617981,0.0309372,0.013504,0.0310898,0.0122452,-9.97986,-0.0136566,-0.00667572,0.00976563,0.0140762,0.0257111,-0.0344849,-0.00144958,-3.8147e-005
31,2,10.0097,0,0.000457764,-2.42745,0.0538499,-0.0753682,0.0544332,0.0688341,-0.0943672,0.145013,-0.126987,-0.0847066,-0.0239182,0.0233078,0.0217819,0.0104523,0.0316238,0.0222778,0.0336456,0.0179672,-9.97986,-0.00827789,-0.000152588,0.0230026,0.020256,0.0281143,-0.0253677,0.00232697,0.00225067
31,3,10.0097,0.000610352,0,-2.42714,0.0547655,-0.0759786,0.0522969,0.0700548,-0.0934516,0.145318,-0.125461,-0.0850118,-0.0357819,0.0194168,0.0168228,0.0101089,0.0261307,0.0205612,0.0254059,0.0190353,-9.97986,-0.000343323,-0.00232697,0.0187683,0.0153351,0.0258255,-0.0244141,-0.00106812,-0.00137329
31,4,10.0097,0.000305176,0.000305176,-2.42623,0.0550706,-0.0744527,0.054128,0.0712755,-0.0937568,0.144708,-0.127292,-0.0834859,-0.0265503,0.0205231,0.0194168,0.0102615,0.0263977,0.0258636,0.026474,0.0184631,-9.97986,0.0204849,-0.00297546,0.0225449,0.0201416,0.0295258,-0.018158,-0.000152588,0.00328064
31,5,10.0097,-0.000610352,0.000762939,-2.42501,0.0544603,-0.075063,0.0538228,0.0718859,-0.0922309,0.148065,-0.125766,-0.0819601,-0.00839233,0.0238419,0.0191116,0.0116348,0.0269318,0.0281525,0.0273132,0.0202942,-9.97986,0.0483322,-0.00423431,0.0208282,0.0242996,0.0275803,-0.0238037,-0.000305176,0.00301361
31,6,10.0097,-0.000915527,0.000762939,-2.42562,0.055681,-0.0729268,0.054128,0.0737169,-0.0922309,0.145929,-0.123935,-0.0828756,0.0172424,0.0272751,0.0230408,0.0120544,0.0235748,0.0297165,0.0279617,0.0219345,-9.97986,0.0667572,-0.00602722,0.0213242,0.0242996,0.0244141,-0.0295258,-0.00370026,0.00133514
31,7,10.0097,0.000610352,0.000305176,-2.42409,0.055681,-0.0735371,0.0544332,0.0706652,-0.0922309,0.146539,-0.123325,-0.0804342,0.0423813,0.0199127,0.0257492,0.0122833,0.0230408,0.0231171,0.0317383,0.0241852,-9.97986,0.0617218,-0.00228882,0.0270462,0.0286865,0.0242996,-0.0371933,-0.00335693,0.00179291
31,8,10.0097,0,0.000610352,-2.42592,0.0562914,-0.0747579,0.0544332,0.0706652,-0.0913154,0.144403,-0.123935,-0.0819601,0.0404358,0.0292969,0.018425,0.0160217,0.0262833,0.0272369,0.0248337,0.0242615,-9.97986,0.0510406,0.00114441,0.0317383,0.0298691,0.0244522,-0.0356293,-0.0019455,0.00255585
31,9,10.0097,-0.000915527,0.000305176,-2.42501,0.0569017,-0.0744527,0.0544332,0.0718859,-0.0919257,0.147149,-0.122715,-0.0804342,0.0328064,0.0306702,0.0292969,0.0157547,0.028038,0.0284195,0.0213623,0.0199509,-9.97986,0.0346375,0.000305176,0.0318146,0.030632,0.0286102,-0.0354767,-0.00476837,0.001297
32,0,10.0097,-0.0012207,-0.00106812,-2.42653,0.0559862,-0.0753682,0.0532125,0.0483873,-0.0946723,0.145318,-0.126377,-0.0822652,0.00991821,0.0262833,0.0238419,0.0114441,0.0247574,0.0192261,0.0219345,0.0094223,-9.97986,0.0200272,-0.0069809,0.0346756,0.0298309,0.0273514,-0.0481415,-0.00663757,0.00247955
32,1,9.44539,0.000305176,-0.0012207,-2.42592,0.0565965,-0.0759786,0.0550435,0.0471666,-0.0937568,0.146234,-0.126072,-0.0810445,-0.0122833,0.0301361,0.0240707,0.0133514,0.0252151,0.0227737,0.0265121,0.00640869,-9.97986,0.0121689,-0.00980377,0.0335693,0.0294876,0.026741,-0.0509644,-0.00858307,0.00595093
32,2,8.19936,0.0012207,-0.00167847,-2.42623,0.0572069,-0.0735371,0.0547383,0.0563219,-0.0928413,0.145318,-0.126377,-0.0816549,-0.0193024,0.0283432,0.0223541,0.0169754,0.0189209,0.0232697,0.0349808,0.00396729,-9.97986,7.62939e-005,-0.00926971,0.0352097,0.0332642,0.0272751,-0.0529099,-0.00961304,0.000267029
32,3,8.09621,0,0,-2.42623,0.0553758,-0.073232,0.054128,0.0645616,-0.0916206,0.146234,-0.125156,-0.0834859,-0.00656128,0.0281906,0.0238037,0.0128555,0.0186539,0.0308228,0.0368881,0.00362396,-9.97986,-0.0222015,-0.00389099,0.0370407,0.0320816,0.0243378,-0.0535202,-0.0121689,0.00087738
32,4,8.3495,0.00183105,0.00106812,-2.42684,0.0550706,-0.0747579,0.0544332,0.0728014,-0.0910102,0.145318,-0.124851,-0.0831808,0.0180435,0.0270844,0.0261307,0.0137329,0.0171661,0.0314713,0.0348663,0.00785828,-9.97986,-0.0365067,-0.00812531,0.0395966,0.0384521,0.0266266,-0.059166,-0.0162888,0.00217438
32,5,10.0097,0.00152588,0.0012207,-2.42684,0.0541551,-0.0744527,0.0550435,0.0962999,-0.0910102,0.144708,-0.124241,-0.085317,0.0191498,0.0229263,0.0243759,0.00732422,0.0184631,0.0373077,0.0330353,0.00274658,-9.97986,-0.0579834,-0.00087738,0.0414276,0.0449371,0.0206757,-0.0629425,-0.0119781,0.00408173
32,6,10.0097,0.0012207,0.00167847,-2.42837,0.0535448,-0.075063,0.0526021,0.0874498,-0.0934516,0.144403,-0.126377,-0.0862325,0.02491,0.0209808,0.0189972,0.0151062,0.0243759,0.0379562,0.0298309,0.00457764,-9.97986,-0.0645828,-0.00221252,0.0401306,0.0465012,0.022049,-0.0656128,-0.013504,0.00938416
32,7,10.0097,0.0012207,0.000305176,-2.42928,0.0535448,-0.0765889,0.0526021,0.0761583,-0.0971137,0.144403,-0.126072,-0.0874532,0.0357819,0.0231934,0.0219345,0.0148773,0.0266647,0.0305176,0.0199127,0.00770569,-9.97986,-0.0761795,-0.000991821,0.0432205,0.0465012,0.0225449,-0.0623703,-0.0128937,0.00995636
32,8,10.0097,-0.000915527,0.000152588,-2.42867,0.0541551,-0.075063,0.0522969,0.0706652,-0.0946723,0.143487,-0.127903,-0.0850118,0.0263977,0.0225449,0.0238037,0.0122452,0.0283432,0.0312805,0.026741,0.00892639,-9.97986,-0.0816727,-0.00228882,0.0436783,0.0494385,0.0239563,-0.0549316,-0.01194,0.0164032
32,9,10.0097,0.000305176,0,-2.43233,0.0523241,-0.0762837,0.0510762,0.0691393,-0.0952827,0.144098,-0.127903,-0.0874532,0.00606537,0.0261688,0.0199127,0.00968933,0.0283051,0.0308609,0.0289536,0.0138855,-9.97986,-0.089035,7.62939e-005,0.043602,0.0497818,0.0222778,-0.0439453,-0.00911713,0.018692
33,0,10.0097,-0.000610352,-0.00106812,-2.42837,0.0535448,-0.0765889,0.0522969,0.0691393,-0.095893,0.144098,-0.127598,-0.0874532,0.00694275,0.0205231,0.018158,0.00705719,0.0304031,0.0304413,0.0311661,0.0129318,-9.97986,-0.0875473,0.00408173,0.0460052,0.0501633,0.0193024,-0.0375366,-0.00900269,0.0163651
33,1,10.0097,0.000915527,0.000152588,-2.42714,0.0541551,-0.0759786,0.0532125,0.0691393,-0.0943672,0.143487,-0.127292,-0.0862325,0.00766754,0.0230789,0.0153351,0.0130081,0.0362778,0.0285721,0.0318527,0.00988007,-9.97986,-0.0706482,-0.000152588,0.0435638,0.0450897,0.0190353,-0.0325012,-0.0129318,0.0113678
33,2,10.0097,0.000915527,-0.000457764,-2.42867,0.0547655,-0.0735371,0.0529073,0.07036,-0.0931465,0.144098,-0.125766,-0.0847066,0.00358582,0.024147,0.0131989,0.0127029,0.0410843,0.0308609,0.0305557,0.00946045,-9.97986,-0.0532532,0.00255585,0.0403214,0.0501633,0.0175858,-0.0278854,-0.0138474,0.0118256
33,3,10.0097,0.00152588,0.000305176,-2.42684,0.0550706,-0.0759786,0.0535176,0.0700548,-0.0934516,0.144403,-0.126377,-0.0834859,0.00408173,0.0191116,0.0101471,0.0145721,0.0403595,0.0388718,0.0282288,0.0154114,-9.97986,-0.0333405,0.0037384,0.0354004,0.0464249,0.0126648,-0.024147,-0.0145721,0.010376
33,4,10.0097,0.00274658,-0.000152588,-2.42684,0.0541551,-0.075063,0.0522969,0.0697496,-0.0910102,0.144403,-0.126072,-0.0859274,0.0218964,0.0165939,0.0162888,0.01091,0.0407791,0.0441742,0.0272369,0.0192642,-9.97986,0.0163651,0.00598907,0.0300217,0.0445938,0.00480652,-0.0236893,-0.0122833,0.0172806
33,5,10.0097,0.0012207,-0.000457764,-2.42562,0.0547655,-0.0756734,0.0544332,0.0734117,-0.0922309,0.146539,-0.124546,-0.0822652,0.0205994,0.0235367,0.0125504,0.0105667,0.034523,0.0379181,0.0253677,0.0183105,-9.97986,0.086174,0.0037384,0.0283432,0.0369263,0.00576019,-0.0239563,-0.00961304,0.0241089
33,6,10.0097,-0.000915527,-0.000305176,-2.42623,0.0572069,-0.0744527,0.0538228,0.0728014,-0.0910102,0.145929,-0.123935,-0.0813497,0.0249863,0.0230026,0.0075531,0.00873566,0.024147,0.045166,0.0257111,0.0242233,-9.97986,0.144806,0.00404358,0.0261688,0.0344467,0.00865936,-0.0243759,-0.00297546,0.0233078
33,7,10.0097,0,0,-2.4247,0.0565965,-0.0738423,0.0544332,0.0724962,-0.0913154,0.146844,-0.123935,-0.0813497,0.0487518,0.0244522,0.01194,0.0082016,0.0146866,0.0389099,0.0289536,0.0279617,-9.97986,0.157661,0.00476837,0.0309372,0.0354767,0.0177002,-0.028801,0.00766754,0.0150681
33,8,10.0097,0.00213623,0.000610352,-2.42013,0.0565965,-0.0747579,0.0565694,0.0709703,-0.0916206,0.146234,-0.123935,-0.0816549,0.0443268,0.0233841,0.0153732,0.0169754,0.00671387,0.0394058,0.0330734,0.0376511,-9.97986,0.148277,0.00701904,0.0435638,0.038681,0.0265884,-0.0283813,0.014534,0.00610352
33,9,10.0097,0.0012207,0.000610352,-2.42501,0.0562914,-0.0744527,0.0553487,0.0706652,-0.0919257,0.147455,-0.123325,-0.0819601,-0.0128555,0.0250244,0.0165558,0.0155258,0.00133514,0.0412369,0.0395584,0.0359344,-9.97986,0.146294,0.00465393,0.0548172,0.043869,0.0269699,-0.0317383,0.0110626,-0.0018692
34,0,10.0097,-0.000610352,-0.00167847,-2.42684,0.0562914,-0.0741475,0.0526021,0.0474718,-0.0943672,0.146539,-0.126987,-0.0810445,-0.0322342,0.0291443,0.0193787,0.0131989,-0.00370026,0.033493,0.0420761,0.0269699,-9.97986,0.136604,0.00411987,0.0397873,0.0414658,0.0232697,-0.0325775,-0.000915527,0.00312805
34,1,9.32729,-0.0012207,-0.00137329,-2.42592,0.055681,-0.075063,0.054128,0.0474718,-0.0946723,0.145318,-0.126072,-0.0816549,-0.000495911,0.0312042,0.022316,0.0152969,-0.00694275,0.0296021,0.0385284,0.0300217,-9.97986,0.120125,-0.000495911,0.0251389,0.0338745,0.0260162,-0.0320435,0.00766754,0.00408173
34,2,8.11238,0.00152588,-0.00167847,-2.42623,0.0553758,-0.0753682,0.0544332,0.0526598,-0.0913154,0.14776,-0.125766,-0.0837911,0.00785828,0.0326157,0.0225067,0.0139618,-0.013237,0.022316,0.0397873,0.026741,-9.97986,0.0966644,0.00202179,0.0297546,0.0363159,0.0235748,-0.0309372,0.0307083,0.00972748
34,3,8.04158,-0.00183105,-0.000457764,-2.42623,0.0559862,-0.0738423,0.0538228,0.0645616,-0.0913154,0.145318,-0.125766,-0.0828756,0.0284195,0.026207,0.0255203,0.013504,-0.0205612,0.0136185,0.0381088,0.0203705,-9.97986,0.0733566,-0.00648499,0.0304794,0.0343323,0.0204086,-0.0366592,0.0336075,0.00965118
34,4,8.26528,0.000915527,0.000152588,-2.4247,0.0553758,-0.0741475,0.0553487,0.0724962,-0.0922309,0.145318,-0.125156,-0.0834859,0.0541306,0.0283813,0.0224686,0.015831,-0.020752,0.00892639,0.0305176,0.0286484,-9.97986,0.0555038,-0.00133514,0.0302887,0.0409698,0.0219727,-0.033989,0.0308609,0.0127792
34,5,10.0097,0.00244141,0.000915527,-2.42745,0.0535448,-0.075063,0.0553487,0.0920275,-0.0894843,0.144708,-0.124546,-0.0837911,0.0833511,0.0292206,0.0222778,0.00804901,-0.0165939,0.00591278,0.0354004,0.0324249,-9.97986,0.0371552,-0.00156403,0.0347137,0.0384903,0.0174713,-0.0385666,0.0205994,0.00953674
34,6,10.0097,-0.000610352,0.00213623,-2.42867,0.0544603,-0.0771993,0.0519917,0.0883654,-0.0925361,0.142877,-0.125766,-0.0865377,0.0948334,0.0272369,0.0201416,0.0117874,-0.00614166,0.00858307,0.038681,0.0255585,-9.97986,0.0346375,0.000228882,0.0355148,0.034523,0.0152969,-0.037117,0.0117493,0.0115967
34,7,10.0097,0.0012207,0,-2.42989,0.0547655,-0.0765889,0.0510762,0.075548,-0.0955879,0.144403,-0.125461,-0.0868429,0.0847626,0.0307846,0.0230408,0.0138855,0.000686646,0.00663757,0.0346375,0.0122452,-9.97986,0.0107574,0.00320435,0.0374985,0.0377655,0.0139999,-0.0292969,0.0104904,0.0140762
34,8,10.0097,0.000305176,-0.000457764,-2.42898,0.0529344,-0.0753682,0.0519917,0.0734117,-0.0952827,0.143792,-0.127292,-0.0865377,0.0572968,0.0327301,0.0226974,0.0113297,0.00709534,0.00511169,0.0355148,-0.00259399,-9.97986,-0.0224304,-0.00270844,0.0356293,0.0375748,0.0127029,-0.0300598,0.00835419,0.0133514
34,9,10.0097,0.000915527,-0.000915527,-2.4305,0.0526292,-0.0747579,0.0513814,0.0673082,-0.0949775,0.143487,-0.126987,-0.0859274,0.0111008,0.0305939,0.0222778,0.0115204,0.0102997,0.00770569,0.0344849,-0.00717163,-9.97986,-0.0553131,-0.00305176,0.0427246,0.0333023,0.00980377,-0.0205612,0.0117111,0.0164795
35,0,10.0097,0,-0.000610352,-2.42806,0.0526292,-0.0762837,0.0522969,0.067003,-0.0952827,0.144098,-0.128208,-0.0871481,-0.051384,0.0296021,0.0199127,0.0124359,0.0142288,0.00564575,0.0322723,-0.00999451,-9.97986,-0.0762177,0.0104141,0.0370026,0.0272751,0.00671387,-0.0170898,0.00972748,0.0128174
35,1,10.0097,0.000305176,-0.000152588,-2.42776,0.0547655,-0.0753682,0.0532125,0.0712755,-0.0943672,0.142877,-0.127903,-0.0859274,-0.0682068,0.0276184,0.0218964,0.0115585,0.0187302,0.00301361,0.0327301,-0.00267029,-9.97986,-0.089798,0.00507355,0.0351715,0.0250626,0.0018692,-0.00999451,0.00961304,0.0145721
35,2,10.0097,0.0012207,-0.000152588,-2.42745,0.0529344,-0.0759786,0.0535176,0.0694445,-0.0925361,0.145013,-0.126377,-0.0850118,-0.057106,0.0273132,0.0243378,0.013504,0.0172043,0.00526428,0.0382996,-0.00785828,-9.97986,-0.104256,0.00556946,0.0325012,0.021553,0.00171661,-0.0037384,0.00659943,0.0213623
35,3,10.0097,0.0012207,-0.000305176,-2.42745,0.0547655,-0.0735371,0.054128,0.0697496,-0.0937568,0.145624,-0.126377,-0.0844015,-0.0448227,0.0263214,0.0180817,0.0133133,0.0146103,0.00610352,0.0380707,-0.0152588,-9.97986,-0.125923,0.00377655,0.0369644,0.0176239,0.00576019,-0.00610352,0.00831604,0.0153732
35,4,10.0097,0.00152588,0.000762939,-2.42623,0.0550706,-0.075063,0.0535176,0.0685289,-0.0925361,0.145624,-0.125766,-0.0847066,-0.0281143,0.0249481,0.0164795,0.0124741,0.0149536,0.000305176,0.0381851,-0.00301361,-9.97986,-0.119362,0.00583649,0.0341797,0.0223923,0.00408173,-0.00972748,0.00617981,0.0191498
35,5,10.0097,0.0012207,0.000457764,-2.42562,0.0559862,-0.0747579,0.0538228,0.0718859,-0.0931465,0.145929,-0.124241,-0.0819601,0.00709534,0.0226974,0.0176239,0.0120926,0.0209808,-0.001297,0.0365829,0.00171661,-9.97986,-0.0906372,0.0069046,0.0288391,0.0204468,0.00164032,-0.0102615,0.00709534,0.0164795
35,6,10.0097,0.0012207,0.000152588,-2.42562,0.0562914,-0.0744527,0.0544332,0.0712755,-0.0913154,0.145318,-0.124241,-0.0810445,0.0400162,0.0187683,0.0103378,0.0104523,0.0126266,-0.00587463,0.0331879,0.00724792,-9.97986,-0.0648499,0.00537872,0.029068,0.0135422,0.00476837,-0.0128174,0.0069046,0.0152206
35,7,10.0097,-0.000610352,0.000610352,-2.4247,0.0572069,-0.0729268,0.0550435,0.0737169,-0.0910102,0.146234,-0.124546,-0.0807394,0.0527954,0.0173187,0.0114822,0.0162506,0.0195313,-0.00988007,0.0354385,-0.00232697,-9.97986,-0.0192642,0.00141144,0.0302887,0.0177765,-0.000801086,-0.0087738,0.0082016,0.0175476
35,8,10.0097,0.00183105,0.000152588,-2.42531,0.0569017,-0.0744527,0.0544332,0.0728014,-0.0919257,0.146234,-0.124241,-0.0816549,0.032196,0.0149536,0.00297546,0.00984192,0.0146484,-0.0126266,0.0376511,-0.00370026,-9.97986,0.0460815,0.00686646,0.0315094,0.0197601,0.00198364,-0.00984192,0.0112534,0.0178146
35,9,10.0097,-0.000305176,0.000305176,-2.4247,0.0562914,-0.0753682,0.0544332,0.0718859,-0.0910102,0.14776,-0.124241,-0.0816549,0.0199127,0.01297,0.0100327,0.0101471,0.0169754,-0.00740051,0.0346375,-0.00339508,-9.97986,0.0864792,0.00217438,0.0301361,0.0150299,-0.00640869,-0.00862122,0.00663757,0.0196075
36,0,10.0097,0.000610352,-0.00167847,-2.42684,0.0550706,-0.0744527,0.0532125,0.0499132,-0.0965034,0.146844,-0.126987,-0.0831808,0.039711,0.0118637,0.00843048,0.0110245,0.0226974,-0.00392914,0.0403976,-0.00801086,-9.97986,0.120201,0.00148773,0.029068,0.0152588,-0.00782013,-0.00999451,0.00907898,0.0170517
36,1,9.37886,0.000305176,-0.00228882,-2.42531,0.0553758,-0.0738423,0.0550435,0.0474718,-0.0946723,0.147149,-0.125461,-0.0813497,0.0424194,0.0111771,0.00461578,0.00701904,0.0184631,-0.0114441,0.0383759,0.00137329,-9.97986,0.129471,0.000686646,0.030098,0.00499725,-0.0108337,-0.0101852,0.00823975,0.0202942
36,2,8.2079,-0.000305176,-0.000610352,-2.4247,0.0559862,-0.0741475,0.0547383,0.0563219,-0.0922309,0.145624,-0.125156,-0.0825704,0.0239944,0.00999451,0.00286102,0.0122452,0.0191116,-0.0100708,0.0340271,0.00221252,-9.97986,0.115547,-0.000457764,0.0267029,0.00858307,-0.0136566,-0.0124741,0.00999451,0.0169754
36,3,8.10445,0.00152588,0.000152588,-2.42562,0.055681,-0.0744527,0.0532125,0.0633409,-0.0934516,0.144708,-0.125461,-0.0831808,0.0100708,0.00968933,0.00202179,0.00930786,0.0162125,-0.0157928,0.0324631,0.00137329,-9.97986,0.105591,-0.00164032,0.0273514,0.0115585,-0.0120544,-0.010643,0.0118637,0.0164413
36,4,8.43617,-0.00152588,0.000152588,-2.42531,0.0562914,-0.0747579,0.0547383,0.0731066,-0.0919257,0.145624,-0.125461,-0.0822652,-0.0108337,0.00709534,0.000839233,0.00602722,0.0219727,-0.0167465,0.0376129,0.00621796,-9.97986,0.088768,-0.00247955,0.0272751,0.00289917,-0.0119019,-0.00850677,0.0125885,0.0186539
36,5,10.0097,-0.000610352,0.0012207,-2.42745,0.0541551,-0.0744527,0.0547383,0.0969103,-0.0897895,0.144708,-0.124546,-0.0844015,-0.0154114,0.00228882,-0.00259399,0.0069046,0.0163651,-0.0191498,0.0346375,0.00717163,-9.97986,0.0684738,-0.00156403,0.0276947,0.0025177,-0.0133896,-0.00976563,0.0147629,0.0193405
36,6,10.0097,0.000305176,0.00106812,-2.42776,0.0538499,-0.0759786,0.0526021,0.0850084,-0.0937568,0.143182,-0.126072,-0.0862325,-0.00869751,0.00629425,0.000724792,0.00549316,0.0170135,-0.0193024,0.0399017,0.0131607,-9.97986,0.0574493,0.000915527,0.0220108,-0.000762939,-0.00984192,-0.00728607,0.01194,0.0169373
36,7,10.0097,0.000915527,0.000305176,-2.42898,0.0529344,-0.0759786,0.0526021,0.0737169,-0.0961982,0.143182,-0.126987,-0.0874532,-0.0104523,0.0102615,0.00247955,0.00659943,0.0159073,-0.018425,0.0399399,0.0166321,-9.97986,0.0281525,-0.00427246,0.0245285,-0.00583649,-0.00747681,-0.0050354,0.0116348,0.0186157
36,8,10.0097,0.000610352,-0.000305176,-2.42898,0.0547655,-0.0756734,0.0522969,0.0712755,-0.0949775,0.143487,-0.127292,-0.0865377,-0.0106049,0.0146866,0.0038147,0.00808716,0.0183487,-0.0219727,0.0444794,0.0147247,-9.97986,0.00419617,-0.00450134,0.025444,-0.00637054,-0.00686646,-0.0130081,0.0147247,0.0151443
36,9,10.0097,0.000610352,-0.00152588,-2.4305,0.0541551,-0.0765889,0.0532125,0.0676134,-0.0943672,0.144098,-0.128208,-0.0874532,-0.0231171,0.017395,0.00804901,0.00587463,0.0178909,-0.0181961,0.043869,0.0178528,-9.97986,0.00171661,0.000267029,0.0278473,-0.00667572,-0.00850677,-0.0148773,0.0136948,0.0144958
37,0,10.0097,-0.000915527,-0.000457764,-2.42867,0.0529344,-0.0756734,0.0510762,0.0688341,-0.094062,0.144098,-0.126987,-0.0868429,-0.00404358,0.0183868,0.00900269,0.00747681,0.0209427,-0.0211716,0.049057,0.0162125,-9.97986,0.00354767,0.00202179,0.0263977,-0.00179291,-0.00465393,-0.0155258,0.0174332,0.0127029
37,1,10.0097,0.00152588,-0.000457764,-2.42989,0.0541551,-0.075063,0.0513814,0.0706652,-0.0943672,0.143792,-0.127292,-0.0859274,0.0269699,0.0158691,0.00801086,0.010376,0.0136185,-0.0250626,0.0393295,0.0167465,-9.97986,0.0167084,0.00335693,0.0276566,-0.00133514,-0.0043869,-0.0104141,0.0139618,0.0115585
37,2,10.0097,0.0012207,-0.000610352,-2.42592,0.0550706,-0.0747579,0.0532125,0.0700548,-0.094062,0.144403,-0.126072,-0.0850118,0.0400162,0.0160599,0.0168991,0.0102997,0.013237,-0.0238419,0.0413513,0.0247192,-9.97986,0.0396729,0.000495911,0.0273514,-0.0168991,-0.00652313,-0.00732422,0.0165558,0.00980377
37,3,10.0097,0,-0.000915527,-2.42806,0.055681,-0.0753682,0.0529073,0.0709703,-0.0919257,0.144708,-0.126987,-0.085317,0.0413895,0.0190353,0.0143433,0.0109863,0.0174713,-0.0259781,0.0326538,0.0215912,-9.97986,0.0634003,0.00423431,0.0267029,-0.0216675,-0.00724792,-0.00267029,0.0154114,0.0119781
37,4,10.0097,0.000305176,-0.000152588,-2.42592,0.0547655,-0.0747579,0.0538228,0.0700548,-0.0931465,0.145318,-0.125766,-0.0837911,0.0342941,0.0175476,0.0147247,0.00709534,0.0154877,-0.0260544,0.0267029,0.0220108,-9.97986,0.0944138,-0.00469208,0.0243378,-0.0204849,-0.0069046,0.00202179,0.0147247,0.00976563
37,5,10.0097,0.0012207,0.000610352,-2.42501,0.0562914,-0.0735371,0.054128,0.07036,-0.0925361,0.145929,-0.124241,-0.0831808,0.0248718,0.0249481,0.0164032,0.00743866,0.0170517,-0.0273895,0.032196,0.0240326,-9.97986,0.0999069,-0.00114441,0.0269318,-0.0159836,-0.00682831,0.00404358,0.0201035,0.00804901
37,6,10.0097,0.000610352,-0.000610352,-2.42501,0.0569017,-0.075063,0.0532125,0.0718859,-0.0922309,0.145624,-0.124546,-0.0819601,0.0311661,0.0254822,0.019989,0.00881195,0.0185394,-0.0274277,0.044899,0.0255966,-9.97986,0.0871658,-0.00236511,0.028801,-0.0170898,-0.00267029,0.0131607,0.0163651,0.0062561
37,7,10.0097,-0.000610352,0.000762939,-2.42592,0.0569017,-0.0738423,0.0550435,0.0697496,-0.0910102,0.146234,-0.124851,-0.0810445,0.0151825,0.0216293,0.0180817,0.0104904,0.0164795,-0.0327301,0.0468445,0.0318527,-9.97986,0.0666046,-0.00190735,0.0225449,-0.0138474,-0.000839233,0.0137329,0.0209427,0.00526428
37,8,10.0097,0.0012207,0.000915527,-2.42562,0.0569017,-0.075063,0.0550435,0.0691393,-0.0919257,0.146844,-0.123935,-0.0813497,-0.0156403,0.0260544,0.0199127,0.00862122,0.0161743,-0.0345612,0.0387573,0.0328064,-9.97986,0.0471115,0.00133514,0.0178909,-0.0025177,-0.00385284,0.0179672,0.0205994,0.000953674
37,9,10.0097,0,0.000305176,-2.42501,0.0569017,-0.0738423,0.0544332,0.0709703,-0.0913154,0.146539,-0.123935,-0.0807394,-0.0394058,0.0318909,0.0225067,0.0108337,0.019722,-0.0322723,0.0331116,0.0391388,-9.97986,0.0361252,-0.00221252,0.0173187,-0.00156403,-0.0062561,0.0178146,0.0230408,-0.000572205
38,0,10.0097,0.000915527,-0.000610352,-2.42653,0.0559862,-0.0744527,0.0526021,0.0480822,-0.0943672,0.146539,-0.125156,-0.0819601,-0.0404358,0.0271606,0.0214005,0.0102997,0.0138855,-0.0305176,0.0125122,0.038681,-9.97986,0.0195694,-0.00305176,0.0127411,-0.00263214,0.00312805,0.0187683,0.0241852,0.00453949
38,1,9.3868,-0.000305176,-0.00152588,-2.42562,0.055681,-0.0753682,0.0535176,0.0483873,-0.0937568,0.147455,-0.125766,-0.0819601,-0.0204849,0.0309753,0.0259399,0.00827789,0.0204086,-0.0297165,0.00389099,0.0361633,-9.97986,0.018158,-0.00228882,0.0118256,-0.00610352,0.00293732,0.0178909,0.0299835,-0.00228882
38,2,8.18349,0.000915527,-0.000915527,-2.4247,0.0569017,-0.0756734,0.0550435,0.0554064,-0.0919257,0.147149,-0.125766,-0.0825704,-0.00793457,0.0349426,0.0302124,0.0131226,0.018692,-0.0310516,0.00339508,0.0344467,-9.97986,0.0157928,-0.0025177,0.00507355,-0.0138855,0.00217438,0.0109863,0.0301743,-0.00701904
38,3,8.07302,0.000305176,0.000610352,-2.42714,0.0553758,-0.0741475,0.0550435,0.0645616,-0.0928413,0.145624,-0.125461,-0.0828756,-0.0148773,0.0354767,0.0321579,0.00991821,0.015564,-0.032692,0.00370026,0.0293732,-9.97986,0.0270844,-0.00247955,0.00907898,-0.0110245,0.00480652,0.0114822,0.0338745,-0.00514984
38,4,8.30831,0.000610352,0.000762939,-2.42653,0.0553758,-0.0747579,0.0538228,0.0731066,-0.0916206,0.145929,-0.125156,-0.0831808,-0.0151443,0.0357437,0.0336456,0.0133133,0.0141907,-0.0348282,0.00114441,0.026741,-9.97986,0.0351715,-0.00179291,0.00606537,-0.000190735,0.00667572,0.00213623,0.0355911,-0.00461578
38,5,10.0097,0.000610352,0.00167847,-2.42653,0.0550706,-0.075063,0.054128,0.0972155,-0.088874,0.146234,-0.123935,-0.0825704,0.0128937,0.0376511,0.033226,0.0164413,0.0104904,-0.0353622,0.0124359,0.0213623,-9.97986,0.0368881,-0.00392914,0.00495911,0.000343323,0.00553131,-0.00244141,0.0392914,-0.00366211
38,6,10.0097,0.0012207,-0.000152588,-2.42898,0.0541551,-0.0756734,0.0529073,0.0883654,-0.094062,0.143792,-0.126377,-0.0865377,0.0546265,0.0372696,0.0331497,0.017662,0.0111008,-0.0349426,0.0149536,0.0214386,-9.97986,0.0336456,-0.00484467,0.00431061,-0.014267,0.00652313,0.00534058,0.0396347,-0.00682831
38,7,10.0097,0.000915527,0,-2.42959,0.0529344,-0.0768941,0.0519917,0.0752428,-0.0943672,0.143792,-0.126987,-0.0874532,0.0614548,0.0421143,0.0337982,0.017128,0.0106049,-0.0390625,0.0133133,0.0137711,-9.97986,0.0277328,-0.00320435,0.0018692,-0.0236893,0.0123596,0.0104141,0.0378418,-0.00679016
38,8,10.0097,0.0012207,0.000305176,-2.42837,0.0547655,-0.0747579,0.0529073,0.07036,-0.0952827,0.143487,-0.127292,-0.0862325,0.0479507,0.0350189,0.0359344,0.0161362,0.0094223,-0.0410461,0.0127792,0.0231552,-9.97986,0.00751495,-0.00572205,0.00289917,-0.0203323,0.0183868,0.0167465,0.0456619,-0.00480652
38,9,10.0097,0.000610352,-0.000610352,-2.42867,0.0535448,-0.0759786,0.0522969,0.0688341,-0.0961982,0.144098,-0.127598,-0.0865377,0.0134277,0.0357819,0.0342178,0.0127029,0.00671387,-0.0418472,0.0160599,0.0220108,-9.97986,-0.0117111,-0.00404358,0.000915527,-0.0256729,0.0216293,0.0225067,0.0482941,-0.00862122
39,0,10.0097,0.00152588,0,-2.42898,0.0535448,-0.0762837,0.0526021,0.0673082,-0.095893,0.144708,-0.128208,-0.0874532,0.00469208,0.0363541,0.0304031,0.0149918,0.0147629,-0.0421906,0.0217819,0.0231171,-9.97986,-0.0464249,-0.0044632,-0.00202179,-0.0204086,0.0206757,0.0247574,0.0495529,-0.00644684
39,1,10.0097,0.00183105,0.000152588,-2.42898,0.0541551,-0.0747579,0.0516866,0.0694445,-0.0946723,0.143487,-0.126987,-0.0859274,0.0136948,0.0334549,0.0232697,0.0125122,0.0118256,-0.0400543,0.0260162,0.0194168,-9.97986,-0.0779343,-0.00541687,0.000953674,-0.0180435,0.0169754,0.0307083,0.0482559,-0.00694275
39,2,10.0097,0.000305176,0.000152588,-2.42837,0.0562914,-0.075063,0.0532125,0.0694445,-0.094062,0.145318,-0.126987,-0.0856222,0.0133514,0.0295639,0.0247955,0.0180435,0.0130463,-0.0346375,0.0233078,0.0258255,-9.97986,-0.0992966,-0.00907898,-0.00171661,-0.017395,0.0209045,0.0342178,0.0497818,-0.00530243
39,3,10.0097,0.0012207,-0.000762939,-2.42714,0.0553758,-0.075063,0.0535176,0.07036,-0.0931465,0.145013,-0.126377,-0.0844015,0.037117,0.0278091,0.0238419,0.0102997,0.0128937,-0.0396729,0.0144577,0.0236893,-9.97986,-0.110588,-0.00682831,-0.0056839,-0.0326538,0.019989,0.0335693,0.0499344,-0.00480652
39,4,10.0097,0.000610352,-0.000305176,-2.42684,0.055681,-0.0744527,0.0538228,0.0697496,-0.0928413,0.145318,-0.126377,-0.0850118,0.0351715,0.0264359,0.0188828,0.0102997,0.010643,-0.0422287,0.00995636,0.0179291,-9.97986,-0.11013,-0.00686646,-0.00389099,-0.045166,0.0212097,0.0366974,0.0507355,-0.00507355
39,5,10.0097,0.000915527,-0.000762939,-2.42531,0.0559862,-0.0738423,0.0556539,0.07036,-0.0919257,0.146234,-0.124546,-0.0816549,0.0218582,0.0274658,0.0178909,0.0115585,0.0115585,-0.0343323,0.00492096,0.013504,-9.97986,-0.10601,-0.00808716,-0.00797272,-0.0553131,0.0206375,0.0333786,0.0500107,-0.00621796
39,6,10.0097,0.0012207,-0.000610352,-2.42592,0.0565965,-0.0741475,0.054128,0.0712755,-0.0919257,0.145929,-0.124546,-0.0819601,0.0162125,0.0271988,0.0162125,0.0102997,0.0134277,-0.0375366,0.00972748,0.00602722,-9.97986,-0.0925064,-0.00614166,-0.00324249,-0.0660324,0.0191879,0.0357056,0.0523376,-0.00732422
39,7,10.0097,0,0.000152588,-2.42592,0.0562914,-0.0744527,0.0550435,0.072191,-0.0916206,0.145624,-0.123935,-0.0804342,0.0149155,0.0262451,0.0214005,0.0167847,0.011673,-0.0308228,0.0164032,0.00247955,-9.97986,-0.0760269,-0.0106049,-0.000953674,-0.0666809,0.0179672,0.0406265,0.050621,-0.00988007
39,8,10.0097,0.000305176,0.000457764,-2.42653,0.0553758,-0.0744527,0.0538228,0.0712755,-0.0910102,0.146234,-0.124851,-0.0810445,0.0415802,0.0253296,0.018425,0.0114822,0.0154495,-0.0331116,0.0154877,0.000839233,-9.97986,-0.0623703,-0.00408173,0.0030899,-0.0688171,0.018959,0.0396729,0.051918,-0.00602722
39,9,10.0097,0.000915527,-0.000610352,-2.42562,0.0578172,-0.073232,0.0544332,0.0718859,-0.0922309,0.146539,-0.12363,-0.0816549,0.0518036,0.02491,0.0206375,0.0139618,0.0149918,-0.0336838,0.0133896,0.00782013,-9.97986,-0.0511551,-0.0063324,-0.00312805,-0.0824738,0.0143814,0.04673,0.0525284,-0.00617981
40,0,10.0097,0.000305176,-0.00106812,-2.42592,0.0565965,-0.0738423,0.0538228,0.0468614,-0.094062,0.145624,-0.125766,-0.0816549,0.0296021,0.0265121,0.0196838,0.0120163,0.0151825,-0.0305557,0.0206375,0.0173569,-9.97986,-0.0241852,-0.00469208,0.00347137,-0.0822067,0.00926971,0.0434494,0.0513077,-0.00846863
40,1,9.18447,0.000610352,-0.00137329,-2.42562,0.0550706,-0.0738423,0.0522969,0.0480822,-0.0937568,0.146234,-0.126072,-0.0837911,0.00347137,0.0222397,0.0146484,0.00980377,0.0140381,-0.0276947,0.0204468,0.0259781,-9.97986,0.00167847,-0.0082016,0.000190735,-0.0892258,0.013237,0.0423813,0.0513458,-0.00873566
40,2,7.99672,0.00152588,-0.00106812,-2.42592,0.0553758,-0.0756734,0.0550435,0.0575426,-0.0928413,0.14776,-0.125766,-0.0825704,-0.00579834,0.0209427,0.0161362,0.0114059,0.0130081,-0.0244522,0.0271225,0.0236511,-9.97986,0.0462723,-0.00637054,-0.00087738,-0.0844574,0.00774384,0.0303268,0.0461197,-0.00980377
40,3,7.8716,-0.000610352,0.000152588,-2.42562,0.0553758,-0.0756734,0.0538228,0.065172,-0.0928413,0.145318,-0.125156,-0.0825704,-0.00469208,0.0202942,0.0132751,0.0088501,0.0178528,-0.0199509,0.028801,0.020752,-9.97986,0.0837708,-0.00682831,-0.00305176,-0.0728607,0.0121689,0.0157547,0.0508881,-0.00934601
40,4,8.16823,0.000915527,0.000762939,-2.42653,0.0553758,-0.0747579,0.0547383,0.0746324,-0.0916206,0.146234,-0.124546,-0.0825704,-0.00789642,0.0161362,0.00907898,0.0122452,0.0148392,-0.0199509,0.0245667,0.0165176,-9.97986,0.105515,-0.00663757,-0.00556946,-0.0751495,0.0141525,0.00957489,0.0499344,-0.00858307
