
Devices
1200
,,BP Load cell - Voltage,String Length - Voltage,Clutch Active - Voltage,#7 iPecs - Voltage,,,,,,,,,EMG 1-8 Left - Voltage,,,,,,,,Pylon Force - Voltage,EMG 9-16 Right - Voltage,,,,,,,,
Frame,Sub Frame,BP Load Cell,String Length,From Arduino Logic,A45,A135,A225,A315,S0,S90,S180,S270,ZSum,EMG 1 Glut Max,EMG 2 Glut Med,EMG 3 Biceps Femoris Long,EMG 4 Rectus Femoris,EMG 5 Vastus Medialis,EMG 6 Tib Ant,EMG 7 Med Gas,EMG 8 Soleus,Pylon volts,EMG 9 Glut Max,EMG 10 Glut Med,EMG 11 Biceps Femoris Long,EMG 12 Rectus Femoris,EMG 13 Vastus Medialis,EMG 14 Tib Ant,EMG 15 Med Gas,EMG 16 Soleus
,,V,V,V,V,V,V,V,V,V,V,V,V,V,V,V,V,V,V,V,V,V,V,V,V,V,V,V,V,V
1,0,-9.99003,0,0.000610352,-2.42562,0.055681,-0.0747579,0.055959,0.0898912,-0.0885688,0.145624,-0.124546,-0.0825704,0.00843048,0.0223923,0.0173569,0.0106049,0.0141525,0.00968933,0.0221252,0.0062561,-9.97986,0.00545502,-0.000457764,0.0127411,0.00839233,0.015831,-0.00133514,0.0151443,0.00213623
1,1,-5.93974,0,0.00396729,-2.42592,0.0541551,-0.0753682,0.0553487,0.142687,-0.0846015,0.144708,-0.121799,-0.0831808,0.0102615,0.0233459,0.0194931,0.00961304,0.0172806,0.0125885,0.0244141,0.0116348,-9.97986,0.0130463,0.00137329,0.0157928,0.00988007,0.0205994,0.00274658,0.018692,0.00862122
1,2,1.38448,0,0.0038147,-2.42745,0.0541551,-0.0753682,0.0544332,0.153368,-0.0870429,0.143182,-0.121189,-0.0850118,0.00827789,0.0238419,0.0171661,0.0113297,0.0178146,0.0105667,0.0206375,0.00972748,-9.97986,0.0108337,0.00114441,0.014534,0.00747681,0.0165176,-0.00236511,0.0127792,0.0044632
1,3,8.96626,-0.000610352,0.00411987,-2.42806,0.0535448,-0.0759786,0.0532125,0.153978,-0.090705,0.143182,-0.12241,-0.0856222,0.0144196,0.0256729,0.0208282,0.0137329,0.0155258,0.00888824,0.0215149,0.0121307,-9.97986,0.00968933,0.00339508,0.0142288,0.00850677,0.0144196,-0.000190735,0.0165176,0.0044632
1,4,10.0097,0.00152588,0.00289917,-2.43172,0.0532396,-0.0768941,0.050771,0.111559,-0.0971137,0.142572,-0.125156,-0.0886739,0.0113297,0.0228882,0.0163269,0.00736237,0.0189972,0.0111771,0.0207138,0.0154877,-9.97986,0.0175858,0.00247955,0.0172806,0.00835419,0.0166702,0.00354767,0.018158,0.00579834
1,5,10.0097,0.000915527,0.000610352,-2.42959,0.0532396,-0.0759786,0.050771,0.0850084,-0.0977241,0.144098,-0.126072,-0.0883688,0.0102234,0.0284576,0.0134659,0.0131989,0.0154877,0.00469208,0.0163269,0.0137711,-9.97986,0.0120926,-0.00217438,0.010376,0.00480652,0.0136566,-0.00267029,0.0162888,0.00362396
1,6,10.0097,0.000305176,-0.000152588,-2.4305,0.0535448,-0.0756734,0.050771,0.0761583,-0.0968086,0.144708,-0.126682,-0.0874532,0.00907898,0.0246429,0.0151825,0.00976563,0.0149536,0.00938416,0.0208282,0.0156403,-9.97986,0.0167084,-0.000610352,0.0160599,0.00545502,0.0156403,-0.000114441,0.0161362,0.00556946
1,7,10.0097,-0.000305176,-0.000305176,-2.42867,0.0535448,-0.075063,0.0522969,0.0724962,-0.094062,0.145013,-0.126682,-0.0868429,0.0189209,0.0270462,0.0233078,0.0150681,0.0128174,0.0139999,0.0208282,0.0221634,-9.97986,0.0157547,-0.000228882,0.0153732,0.0102234,0.0205231,-0.00156403,0.0208664,0.00671387
1,8,10.0097,0.000915527,-0.000152588,-2.42714,0.0541551,-0.0753682,0.0522969,0.0712755,-0.0946723,0.144403,-0.126072,-0.0856222,0.0135422,0.0248337,0.0192261,0.00995636,0.016098,0.0117111,0.0196075,0.0146866,-9.97986,0.0173187,-0.00167847,0.0132751,0.00751495,0.0169373,0.000190735,0.0117111,0.00255585
1,9,10.0097,-0.000610352,-0.000152588,-2.42714,0.0553758,-0.0738423,0.0532125,0.0706652,-0.0931465,0.144403,-0.125766,-0.0847066,0.0123596,0.0279236,0.0162125,0.0117874,0.019989,0.0125885,0.0186157,0.0173569,-9.97986,0.0208282,0.000572205,0.0135422,0.00270844,0.0171661,-0.00118256,0.0170517,0.00556946
2,0,10.0097,-0.0012207,0,-2.42684,0.0562914,-0.075063,0.0522969,0.0709703,-0.0937568,0.145624,-0.125156,-0.0834859,0.0138855,0.0222397,0.0157928,0.0133514,0.0192261,0.0139236,0.0191498,0.0191116,-9.97986,0.0194931,0.00328064,0.0147629,0.0104904,0.0221634,0.00213623,0.0127029,0.00774384
2,1,10.0097,0.00152588,-0.000457764,-2.42501,0.0559862,-0.0747579,0.054128,0.0718859,-0.0922309,0.146539,-0.124851,-0.0819601,0.0105667,0.0257874,0.0174713,0.00782013,0.0185013,0.0118256,0.0236511,0.0249863,-9.97986,0.019722,0.00289917,0.0123596,0.00297546,0.0187683,-0.000534058,0.0171661,0.00629425
2,2,10.0097,-0.00183105,0.000152588,-2.4247,0.0565965,-0.0729268,0.0547383,0.072191,-0.0913154,0.145929,-0.124851,-0.0810445,0.0163269,0.0251007,0.0214386,0.0144196,0.0182724,0.0115585,0.0191498,0.026474,-9.97986,0.0196075,-0.000762939,0.0112152,0.00724792,0.0173569,-0.0019455,0.0118256,0.00782013
2,3,10.0097,0.000305176,-0.000457764,-2.42837,0.055681,-0.0744527,0.0522969,0.0435045,-0.0968086,0.145929,-0.126377,-0.0825704,0.014267,0.0283051,0.0180817,0.0107956,0.0195313,0.0138474,0.021286,0.0266647,-9.97986,0.0221634,0.00400543,0.0120163,0.0069046,0.0205231,-0.00389099,0.0167847,0.00892639
2,4,6.58711,0.000610352,-0.00305176,-2.42745,0.0569017,-0.0738423,0.0519917,-0.00532361,-0.100165,0.146234,-0.129734,-0.0837911,0.0111771,0.0255966,0.0163269,0.0130463,0.0201416,0.011673,0.0232315,0.0262451,-9.97986,0.0225449,-0.00156403,0.00946045,0.00720978,0.0176239,-0.00362396,0.0164032,0.00728607
2,5,-1.44603,0.00152588,-0.00366211,-2.42653,0.0569017,-0.0735371,0.054128,-0.012953,-0.0974189,0.147149,-0.129734,-0.0831808,0.0124359,0.0252533,0.0190353,0.00900269,0.0177765,0.0128555,0.0200272,0.0209045,-9.97986,0.0187302,0.00495911,0.0157166,0.00991821,0.0138474,-0.00114441,0.0157547,0.00709534
2,6,-9.36381,0.000305176,-0.0050354,-2.4247,0.0562914,-0.0747579,0.0547383,-0.0092909,-0.095893,0.14837,-0.130039,-0.0804342,0.0134277,0.0225449,0.0196838,0.0136566,0.0161743,0.0109863,0.0218201,0.0208664,-9.97986,0.0166702,0.00240326,0.016098,0.00637054,0.0177002,-0.00198364,0.0157928,0.0062561
2,7,-9.99003,-0.000915527,-0.00274658,-2.4247,0.0559862,-0.0738423,0.0556539,0.0190905,-0.0931465,0.145013,-0.128208,-0.0816549,0.0131226,0.0218582,0.0168228,0.0107956,0.0170517,0.00965118,0.0214005,0.0156784,-9.97986,0.0150681,-0.000228882,0.0151825,0.00591278,0.00392914,0.000152588,0.014534,0.00518799
2,8,-9.99003,0.000915527,-0.0012207,-2.42592,0.0559862,-0.0747579,0.055959,0.0486925,-0.0913154,0.144708,-0.126072,-0.0804342,0.0109863,0.0257874,0.0187302,0.0142288,0.0208664,0.0138855,0.0246811,0.0107574,-9.97986,0.0119781,-0.00343323,0.00976563,0.00431061,-0.0106049,0.00141144,0.0139999,0.00522614
2,9,-9.99003,-0.000915527,-0.000457764,-2.42592,0.0553758,-0.0747579,0.0550435,0.0612047,-0.0916206,0.145318,-0.125461,-0.0825704,0.0117874,0.0267029,0.0179291,0.0138474,0.0192261,0.0121689,0.0200272,0.00827789,-9.97986,0.00965118,-0.00404358,0.014801,0.00335693,-0.0108719,0.00133514,0.0128174,0.00537872
3,0,-9.99003,0.000915527,0.000915527,-2.42684,0.0544603,-0.0747579,0.0556539,0.0911119,-0.0891792,0.146539,-0.123325,-0.0819601,0.0101471,0.0245667,0.0229263,0.0107193,0.017128,0.0113678,0.0202179,0.00732422,-9.97986,0.0127411,-0.00183105,0.0130844,0.00629425,0.013504,-0.00152588,0.0132751,0.00751495
3,1,-5.85582,-0.000610352,0.0038147,-2.42623,0.0541551,-0.0753682,0.0568746,0.144213,-0.0867378,0.144098,-0.12241,-0.0831808,0.00904083,0.024147,0.0200653,0.01091,0.0180817,0.0102615,0.0191116,0.00911713,-9.97986,0.0087738,-0.001297,0.0131607,0.00377655,0.0162888,0.00087738,0.0157547,0.00534058
3,2,1.54347,0.00274658,0.00427246,-2.42776,0.0544603,-0.0756734,0.0550435,0.155199,-0.0867378,0.143182,-0.121494,-0.085317,0.0128937,0.0237274,0.0182724,0.0127411,0.0172806,0.0123215,0.0251007,0.0101471,-9.97986,0.0113678,-0.0050354,0.0147629,0.00461578,0.0132751,0.00263214,0.0140762,0.00629425
3,3,9.04714,0.000610352,0.00396729,-2.42745,0.0538499,-0.0744527,0.0535176,0.155199,-0.0897895,0.144098,-0.122104,-0.0859274,0.0112915,0.0201416,0.0191116,0.0106049,0.0170517,0.0127792,0.0247955,0.0180817,-9.97986,0.00999451,-0.00556946,0.0147247,0.00522614,0.0133514,-0.00198364,0.0131226,0.00530243
3,4,10.0097,-0.000610352,0.00228882,-2.43172,0.0520189,-0.0771993,0.0492452,0.110948,-0.0965034,0.141351,-0.125766,-0.0889791,0.0094986,0.0229645,0.0167847,0.0122452,0.0160599,0.0118256,0.0230408,0.0170517,-9.97986,0.0104141,-0.00579834,0.0141144,0.0069046,0.0162506,0.000953674,0.0173187,0.00648499
3,5,10.0097,0.000915527,0.000915527,-2.4305,0.0544603,-0.0753682,0.050771,0.0856188,-0.0977241,0.142877,-0.126682,-0.0886739,0.0127411,0.0269318,0.0209045,0.0161743,0.0196075,0.0133896,0.0242996,0.0166321,-9.97986,0.0139999,-0.00221252,0.0163269,0.00415802,0.0186157,0.00133514,0.0158691,0.00862122
3,6,10.0097,-0.0012207,-0.000305176,-2.42959,0.0547655,-0.0768941,0.0513814,0.0767687,-0.0965034,0.143487,-0.126377,-0.0877584,0.00881195,0.0209808,0.0190353,0.0105286,0.0173187,0.0063324,0.0242233,0.0151062,-9.97986,0.0144196,-0.00137329,0.0144196,0.00522614,0.0162888,0.00102997,0.0136566,0.00629425
3,7,10.0097,0.0012207,0.000305176,-2.42776,0.0541551,-0.0765889,0.0513814,0.072191,-0.0937568,0.144708,-0.126987,-0.0856222,0.0104523,0.022316,0.0191879,0.0143814,0.0122833,0.0162888,0.02388,0.0157547,-9.97986,0.0162125,-0.0037384,0.0149536,0.00495911,0.0180435,-0.000686646,0.0174713,0.00804901
3,8,10.0097,0,0.000152588,-2.42745,0.0538499,-0.0753682,0.0538228,0.0712755,-0.0946723,0.145624,-0.126377,-0.0850118,0.010376,0.0207138,0.0188065,0.0132751,0.0173569,0.0125885,0.0215912,0.0147247,-9.97986,0.0157547,-0.010643,0.0144196,0.00473022,0.0152206,0.00537872,0.0169754,0.00499725
3,9,10.0097,0.00152588,0.000305176,-2.42714,0.0553758,-0.0759786,0.054128,0.0706652,-0.0937568,0.144403,-0.125766,-0.0840963,0.0115585,0.0199127,0.0150299,0.0144958,0.0186157,0.00934601,0.0183868,0.020752,-9.97986,0.0184631,-0.00396729,0.0122452,0.00507355,0.0147247,-0.00408173,0.0150681,0.00846863
4,0,10.0097,-0.000610352,0,-2.42623,0.0547655,-0.0756734,0.0544332,0.0709703,-0.0931465,0.144098,-0.125156,-0.0834859,0.00801086,0.0249481,0.0156403,0.0147247,0.0184631,0.0100708,0.0219345,0.0247574,-9.97986,0.0157547,-0.00209808,0.00972748,0.00694275,0.0205612,0.00148773,0.0158691,0.0069809
4,1,10.0097,0.000915527,0,-2.42501,0.0559862,-0.0738423,0.0553487,0.0728014,-0.0925361,0.145929,-0.123935,-0.0816549,0.0127411,0.0218582,0.0181198,0.0125504,0.0170135,0.0111771,0.0226212,0.0214005,-9.97986,0.0188446,-0.00286102,0.0162888,0.00720978,0.0170517,-0.000419617,0.0190353,0.00541687
4,2,10.0097,0.00152588,-0.000305176,-2.42501,0.0559862,-0.0738423,0.0550435,0.0724962,-0.0916206,0.147455,-0.124546,-0.0813497,0.0122452,0.0208282,0.0165558,0.0143433,0.021286,0.00846863,0.0238419,0.0272751,-9.97986,0.0260544,-0.00671387,0.0136566,0.00679016,0.0217819,-0.00331879,0.0145721,0.0108719
4,3,10.0097,0,-0.00137329,-2.42714,0.0553758,-0.075063,0.0522969,0.0404528,-0.0968086,0.145318,-0.126682,-0.0822652,0.0134659,0.0218964,0.0181961,0.00988007,0.0196075,0.0111771,0.0169754,0.0289536,-9.97986,0.0216293,-0.00408173,0.0120163,0.00461578,0.0218201,-0.00537872,0.0153732,0.00480652
4,4,6.29445,0.000915527,-0.00366211,-2.42837,0.0569017,-0.0762837,0.0513814,-0.00623914,-0.09925,0.145013,-0.130344,-0.0831808,0.00904083,0.0207901,0.0156021,0.0111008,0.0189972,0.0114822,0.0241852,0.0237656,-9.97986,0.0219727,-0.00141144,0.0170135,0.00392914,0.0152588,-0.00389099,0.0163651,0.0094223
4,5,-1.61571,-0.000610352,-0.00350952,-2.4247,0.0565965,-0.073232,0.0529073,-0.0141737,-0.0974189,0.146844,-0.128513,-0.0825704,0.0106049,0.0214005,0.0148773,0.0110245,0.017662,0.012207,0.0246048,0.0252151,-9.97986,0.017662,-0.00465393,0.0111389,0.0037384,0.0202179,-0.00514984,0.0163269,0.00652313
4,6,-9.59636,0.000305176,-0.00488281,-2.42501,0.0569017,-0.0738423,0.0547383,-0.00898572,-0.0949775,0.146539,-0.130649,-0.0807394,0.00980377,0.0258636,0.0219727,0.00976563,0.0150299,0.0110245,0.0256729,0.0217056,-9.97986,0.0160217,-0.00339508,0.0144958,0.00720978,0.0214767,-0.00293732,0.0140381,0.00709534
4,7,-9.99003,-0.000305176,-0.00274658,-2.4244,0.0569017,-0.0738423,0.0556539,0.020006,-0.0919257,0.146234,-0.127598,-0.0813497,0.00732422,0.0187683,0.0163269,0.00988007,0.0169754,0.0127792,0.0224304,0.0173569,-9.97986,0.0135422,-0.000419617,0.0111008,0.00751495,-0.00213623,-0.00419617,0.0146484,0.00926971
4,8,-9.99003,-0.000305176,-0.000915527,-2.42592,0.055681,-0.0738423,0.0553487,0.0514391,-0.0903999,0.146234,-0.126072,-0.0816549,0.00782013,0.0201797,0.0148773,0.00846863,0.0156784,0.00774384,0.0197983,0.0105286,-9.97986,0.0139618,-0.00808716,0.0150681,0.00667572,-0.0128555,-0.00614166,0.0149536,0.00644684
4,9,-9.99003,-0.000305176,-0.000305176,-2.42653,0.0541551,-0.0741475,0.054128,0.0615099,-0.0910102,0.145624,-0.126072,-0.0825704,0.0106812,0.0207901,0.0185776,0.0107956,0.0138474,0.0105286,0.0239182,0.0109863,-9.97986,0.00659943,-0.00598907,0.0144958,0.00461578,-0.0117111,-0.00396729,0.0169373,0.00793457
5,0,-9.99003,-0.000305176,0.00183105,-2.42531,0.0550706,-0.075063,0.0556539,0.0905016,-0.0891792,0.145013,-0.123935,-0.0825704,0.0113678,0.0250244,0.0149918,0.0121689,0.0203323,0.0119019,0.0233841,0.0108337,-9.97986,0.00938416,0.000801086,0.0160599,0.00606537,0.0152206,-0.00213623,0.0133896,0.00812531
5,1,-5.8665,-0.000305176,0.0038147,-2.42623,0.0547655,-0.0744527,0.055959,0.144823,-0.0852119,0.144403,-0.121494,-0.0834859,0.0114822,0.0210571,0.0162506,0.00965118,0.0209045,0.0104523,0.0228119,0.0132751,-9.97986,0.00999451,-0.00534058,0.0128937,0.0031662,0.0126266,-0.00576019,0.0178528,0.00682831
5,2,1.5511,0.0012207,0.00442505,-2.42776,0.0544603,-0.0753682,0.0553487,0.153978,-0.0864326,0.144403,-0.121494,-0.0850118,0.0118256,0.022316,0.0178909,0.00957489,0.0125122,0.00801086,0.0222778,0.0136185,-9.97986,0.0140381,-0.00160217,0.016098,0.0101471,0.0148773,-0.00282288,0.017395,0.00873566
5,3,9.11244,0.00213623,0.00473022,-2.42806,0.0532396,-0.0756734,0.0532125,0.156725,-0.0897895,0.142877,-0.121799,-0.0859274,0.00858307,0.0243378,0.0156784,0.0115204,0.0191498,0.0130844,0.022049,0.0136948,-9.97986,0.00988007,-0.000457764,0.0157928,0.00522614,0.0140381,-0.00370026,0.0156403,0.00728607
5,4,10.0097,0,0.00305176,-2.43142,0.0514085,-0.0771993,0.0504659,0.108507,-0.0971137,0.141351,-0.125461,-0.0895895,0.0106812,0.0249481,0.0148773,0.00972748,0.0150299,0.00640869,0.0188828,0.0122452,-9.97986,0.0175095,-0.00167847,0.01194,0.00652313,0.0160599,-0.00164032,0.0163269,0.0062561
5,5,10.0097,0.000610352,0.00152588,-2.42928,0.0529344,-0.0771993,0.050771,0.0847032,-0.0955879,0.142877,-0.125461,-0.0886739,0.0132751,0.0253296,0.0183868,0.00896454,0.0185013,0.00968933,0.0252151,0.0179672,-9.97986,0.0154495,-0.000190735,0.0159454,0.00862122,0.0166702,-0.00102997,0.0169754,0.00492096
5,6,10.0097,0.00183105,-0.000152588,-2.42928,0.0538499,-0.0735371,0.0510762,0.0761583,-0.0961982,0.142877,-0.126682,-0.0880636,0.00968933,0.021553,0.0180435,0.0136185,0.0185013,0.0109863,0.0209427,0.0168991,-9.97986,0.0107956,-0.00202179,0.0114441,0.00511169,0.0164795,-0.00270844,0.0130844,0.00770569
5,7,10.0097,0.00183105,-0.000152588,-2.42745,0.0544603,-0.075063,0.0513814,0.0712755,-0.0949775,0.143182,-0.126682,-0.0856222,0.0108337,0.0218582,0.0181198,0.0120544,0.0134659,0.00785828,0.0207901,0.0154495,-9.97986,0.0182343,0.00190735,0.0130081,0.00442505,0.0141907,-0.00480652,0.0169754,0.00686646
5,8,10.0097,-0.000305176,0.000152588,-2.42653,0.0553758,-0.0744527,0.0522969,0.0709703,-0.0928413,0.145318,-0.126072,-0.0844015,0.0134659,0.0244141,0.0206375,0.0122452,0.0215149,0.0108337,0.0217056,0.018158,-9.97986,0.0157166,0.00293732,0.0177383,0.00747681,0.0135422,-0.000839233,0.0184631,0.00637054
5,9,10.0097,0.000610352,0.000305176,-2.42714,0.0550706,-0.0747579,0.0529073,0.0709703,-0.094062,0.143792,-0.126072,-0.0844015,0.0112152,0.0275421,0.0152206,0.0124359,0.0166702,0.0100327,0.0201416,0.0193787,-9.97986,0.0206757,0.000305176,0.0136185,0.00617981,0.0189972,0.000991821,0.0180054,0.00545502
6,0,10.0097,0.000610352,0.000610352,-2.42592,0.0565965,-0.0744527,0.054128,0.072191,-0.0919257,0.145318,-0.125156,-0.0828756,0.00896454,0.0228119,0.0175858,0.00812531,0.0168991,0.00892639,0.019455,0.0173569,-9.97986,0.0125885,-0.00175476,0.0109482,0.00682831,0.0151062,-0.00324249,0.0147629,0.00488281
6,1,10.0097,0.00183105,-0.000305176,-2.42531,0.0562914,-0.075063,0.054128,0.0718859,-0.0916206,0.146234,-0.124851,-0.0813497,0.0151062,0.0289154,0.0115585,0.0104904,0.0201797,0.00736237,0.0242615,0.0233459,-9.97986,0.0203705,0.00259399,0.016861,0.00968933,0.0181961,-0.00102997,0.0181961,0.00671387
6,2,10.0097,0.0012207,0.000610352,-2.42531,0.055681,-0.0729268,0.0544332,0.0724962,-0.0913154,0.147455,-0.123935,-0.0816549,0.0124741,0.0258255,0.0165558,0.010376,0.0198746,0.00652313,0.0234985,0.0263214,-9.97986,0.0234985,-0.00038147,0.0134659,0.00576019,0.0180817,0.0012207,0.0143051,0.00839233
6,3,10.0097,-0.000610352,-0.000152588,-2.42714,0.0553758,-0.0744527,0.0516866,0.0419786,-0.0952827,0.146234,-0.127292,-0.0834859,0.0119019,0.0220871,0.0195313,0.0107574,0.0193787,0.0114822,0.0205231,0.0299835,-9.97986,0.0225449,-0.000915527,0.0149155,0.00911713,0.0190735,-0.00160217,0.0182343,0.0103378
6,4,6.37563,0.000610352,-0.00396729,-2.42776,0.055681,-0.0747579,0.0516866,-0.00684949,-0.100471,0.146234,-0.130649,-0.0831808,0.00720978,0.0233078,0.0133514,0.00888824,0.0214767,0.0138855,0.0241852,0.0271225,-9.97986,0.0214005,0.00343323,0.0149155,0.00591278,0.0149918,-0.00705719,0.0183487,0.00652313
6,5,-1.48204,-0.000915527,-0.00457764,-2.42501,0.0565965,-0.0747579,0.0522969,-0.0138685,-0.0977241,0.146234,-0.130344,-0.0834859,0.0117111,0.0240707,0.0195694,0.0100327,0.0163269,0.0113678,0.0212479,0.0191879,-9.97986,0.0153732,-0.00595093,0.0151443,0.00480652,0.0133896,-0.00350952,0.0160599,0.00919342
6,6,-9.47825,0.00183105,-0.00457764,-2.42501,0.0572069,-0.0726216,0.0547383,-0.00807019,-0.0943672,0.14776,-0.129429,-0.0810445,0.0121689,0.0227356,0.0185394,0.00854492,0.0144577,0.0113297,0.017662,0.0224686,-9.97986,0.0191879,0.00385284,0.0138092,0.00980377,0.0148392,-0.00766754,0.0174332,0.0102997
6,7,-9.99003,0.000305176,-0.00320435,-2.42501,0.0565965,-0.0747579,0.0553487,0.0206163,-0.0913154,0.145624,-0.128818,-0.0819601,0.0108719,0.0241089,0.0158691,0.0069809,0.0174332,0.0108337,0.0226212,0.0177765,-9.97986,0.0144577,-0.00179291,0.0130081,0.00621796,0.00656128,-0.00450134,0.0159454,0.0088501
6,8,-9.99003,0,-0.00106812,-2.42653,0.0565965,-0.0747579,0.0553487,0.0483873,-0.0903999,0.145013,-0.126072,-0.0810445,0.00850677,0.0228119,0.0194168,0.0131226,0.0187683,0.0107574,0.02285,0.0114059,-9.97986,0.0110245,-0.000419617,0.0150681,0.00450134,-0.00549316,-0.00671387,0.0154495,0.00415802
6,9,-9.99003,-0.000610352,-0.000305176,-2.42592,0.0550706,-0.0744527,0.0550435,0.0612047,-0.0916206,0.145929,-0.125156,-0.0822652,0.00907898,0.0214386,0.018158,0.00946045,0.0181961,0.0122452,0.0225067,0.0112915,-9.97986,0.00999451,-0.000610352,0.0152588,0.0056076,-0.0105667,-0.00904083,0.0164032,0.00595093
7,0,-9.99003,0,0.000915527,-2.42623,0.0538499,-0.0741475,0.0577901,0.0914171,-0.088874,0.145013,-0.12363,-0.0819601,0.0063324,0.0241852,0.0194168,0.0131989,0.0186539,0.00865936,0.0223541,0.00923157,-9.97986,0.00946045,-0.000343323,0.0152969,0.00358582,0.0120163,-0.00881195,0.0151443,0.00518799
7,1,-5.55949,0.000610352,0.00442505,-2.42684,0.0541551,-0.075063,0.0556539,0.144213,-0.0855171,0.143487,-0.12241,-0.0834859,0.00793457,0.0261307,0.0130081,0.0123596,0.0185776,0.00999451,0.0217056,0.0134659,-9.97986,0.0130463,-0.00141144,0.0152206,0.00965118,0.0143814,-0.00713348,0.017395,0.00511169
7,2,1.78273,0,0.00473022,-2.42867,0.0550706,-0.0759786,0.0544332,0.153978,-0.0882636,0.143182,-0.121799,-0.0847066,0.00926971,0.0244522,0.0170517,0.0166702,0.0193787,0.011673,0.0214005,0.0120544,-9.97986,0.0112915,-7.62939e-005,0.0140762,0.00667572,0.0164795,-0.00679016,0.0162125,0.00797272
7,3,9.26869,0.000610352,0.00442505,-2.42776,0.0559862,-0.0756734,0.0538228,0.154588,-0.0894843,0.143792,-0.121494,-0.0859274,0.0113297,0.0242615,0.0185394,0.0124359,0.0194931,0.00988007,0.0234604,0.0130463,-9.97986,0.0135803,0.00343323,0.0159073,0.00873566,0.0177765,-0.00637054,0.0165176,0.00576019
7,4,10.0097,0.000610352,0.00198364,-2.43203,0.0526292,-0.0768941,0.0504659,0.109422,-0.0971137,0.142572,-0.125766,-0.0895895,0.00923157,0.0210571,0.017662,0.0123215,0.0175095,0.0121307,0.0237274,0.0185013,-9.97986,0.00865936,-0.0030899,0.0143051,0.00614166,0.0160599,-0.00450134,0.0165176,0.00354767
7,5,10.0097,0.000610352,0.00106812,-2.4305,0.0523241,-0.0759786,0.050771,0.0847032,-0.0961982,0.142572,-0.127292,-0.0883688,0.00709534,0.0285339,0.0228882,0.0128937,0.0204849,0.0102997,0.0240707,0.013504,-9.97986,0.00965118,-0.000686646,0.0141907,0.00797272,0.0141144,-0.0069046,0.0108719,0.00553131
7,6,10.0097,-0.000610352,0.000152588,-2.42898,0.0538499,-0.0759786,0.0513814,0.075548,-0.0965034,0.144403,-0.127598,-0.0871481,0.0128937,0.0223541,0.0185394,0.0141907,0.0166321,0.00751495,0.0218201,0.016098,-9.97986,0.0130463,0.000762939,0.0154114,0.00606537,0.0141144,-0.00411987,0.0122833,0.00595093
7,7,10.0097,-0.0012207,0,-2.42867,0.0544603,-0.0744527,0.0516866,0.0737169,-0.0955879,0.144708,-0.126377,-0.0859274,0.00953674,0.0229645,0.0206375,0.0133514,0.0201035,0.0120926,0.0228119,0.0183868,-9.97986,0.0157166,-0.00286102,0.0128174,0.00682831,0.0153732,-0.00278473,0.016861,0.0069046
7,8,10.0097,-0.000915527,0,-2.42684,0.0547655,-0.075063,0.0532125,0.07036,-0.0934516,0.144708,-0.126072,-0.0840963,0.00915527,0.0266266,0.017128,0.0115585,0.0152206,0.00907898,0.0244904,0.014267,-9.97986,0.0110245,0.0019455,0.0105667,0.00804901,0.0185776,-0.0056076,0.01194,0.00720978
7,9,10.0097,0.000915527,0.000457764,-2.42776,0.0550706,-0.0753682,0.0535176,0.0709703,-0.0931465,0.144708,-0.125766,-0.0837911,0.00907898,0.0248718,0.0214767,0.0136185,0.0187683,0.0127411,0.0207138,0.018959,-9.97986,0.0133514,-0.00423431,0.0106049,0.00598907,0.0200653,-0.00141144,0.0153732,0.00469208
8,0,10.0097,0,0.000305176,-2.42623,0.055681,-0.0747579,0.054128,0.0715807,-0.0934516,0.146539,-0.126377,-0.0828756,0.0121307,0.0258636,0.0186539,0.0094223,0.0172043,0.0111008,0.0202179,0.0228882,-9.97986,0.00984192,-0.000114441,0.00991821,0.00778198,0.0180054,-0.0012207,0.0182343,0.00827789
8,1,10.0097,0.0012207,0.000152588,-2.42623,0.0572069,-0.0726216,0.0544332,0.0709703,-0.0913154,0.146539,-0.124546,-0.0822652,0.0143051,0.0247192,0.0204468,0.0124359,0.0196075,0.00984192,0.0233078,0.0232315,-9.97986,0.0183487,-0.00118256,0.0117874,0.0056839,0.015564,-0.00114441,0.0162888,0.00816345
8,2,10.0097,-0.000915527,0.000152588,-2.42409,0.0562914,-0.0735371,0.0547383,0.0728014,-0.0913154,0.145318,-0.124851,-0.0810445,0.00953674,0.0214767,0.0178528,0.0131989,0.0178909,0.0132751,0.022049,0.0272751,-9.97986,0.0218582,0.0050354,0.00995636,0.00782013,0.0190735,-0.000572205,0.0166702,0.00865936
8,3,10.0097,0.000610352,0,-2.42684,0.0550706,-0.0741475,0.0535176,0.0431993,-0.0965034,0.147149,-0.127292,-0.0834859,0.0138474,0.0218964,0.0183105,0.0154877,0.017128,0.00953674,0.026474,0.0257492,-9.97986,0.0242233,0.00240326,0.00789642,0.00736237,0.0179672,-0.00545502,0.0150299,0.00644684
8,4,6.43697,0.000610352,-0.0038147,-2.42745,0.0547655,-0.0747579,0.0513814,-0.00684949,-0.0995551,0.145929,-0.129734,-0.0831808,0.010376,0.021286,0.0213623,0.0139999,0.0188828,0.00743866,0.0288773,0.0217056,-9.97986,0.0202179,0.00564575,0.0141525,0.00801086,0.019989,-0.00144958,0.0140762,0.0087738
8,5,-1.45122,-0.00183105,-0.00396729,-2.42653,0.0572069,-0.0729268,0.0529073,-0.0132582,-0.0980293,0.146539,-0.129734,-0.0825704,0.0110245,0.0227356,0.0181961,0.0110245,0.0201035,0.00778198,0.0236893,0.0225449,-9.97986,0.0167465,0.0030899,0.00934601,0.00850677,0.0175095,-0.0043869,0.0107956,0.000534058
8,6,-9.37755,0.000305176,-0.00442505,-2.42531,0.0562914,-0.0729268,0.0553487,-0.0092909,-0.0937568,0.145929,-0.128513,-0.080129,0.0148392,0.0266266,0.022583,0.0167084,0.0212097,0.013237,0.0256729,0.0241089,-9.97986,0.0232315,0.00904083,0.0198364,0.0114059,0.0230408,0.00240326,0.0202179,0.0159836
8,7,-9.99003,0,-0.0038147,-2.4247,0.0569017,-0.0741475,0.0544332,0.0215319,-0.0922309,0.145929,-0.127903,-0.0813497,0.00701904,0.0196838,0.0156784,0.00576019,0.00965118,0.00606537,0.0205231,0.00999451,-9.97986,0.0056076,-0.00423431,0.00934601,0.000762939,0.00289917,-0.0117874,0.010643,0.000228882
8,8,-9.99003,0,-0.000610352,-2.42501,0.0562914,-0.0747579,0.0568746,0.0474718,-0.0910102,0.145318,-0.126682,-0.0813497,0.0113678,0.0219727,0.0216293,0.0157928,0.0172424,0.0101471,0.0270462,0.0149155,-9.97986,0.0139236,0.00553131,0.0164032,0.0082016,-0.00732422,-0.00164032,0.0178528,0.00778198
8,9,-9.99003,0.0012207,-0.000305176,-2.42592,0.0559862,-0.075063,0.0544332,0.0624254,-0.0922309,0.144708,-0.124851,-0.0825704,0.0100708,0.0230789,0.0178146,0.00595093,0.0137711,0.00720978,0.0234604,0.0106049,-9.97986,0.00545502,-3.8147e-005,0.0119781,0.00652313,-0.0063324,-0.00652313,0.0187683,0.00431061
9,0,-9.99003,-0.0012207,0.00152588,-2.42623,0.0559862,-0.0741475,0.0550435,0.0914171,-0.0885688,0.144708,-0.124241,-0.0834859,0.0104141,0.0253296,0.0164032,0.0136566,0.0153732,0.0130844,0.0242615,0.00858307,-9.97986,0.0113297,-0.00118256,0.00736237,0.00988007,0.0134659,-0.0030899,0.0154877,0.0038147
9,1,-5.32664,-0.000305176,0.00411987,-2.42653,0.0544603,-0.0744527,0.055959,0.143907,-0.0849067,0.144403,-0.121799,-0.0831808,0.0125122,0.0258255,0.0211334,0.0123978,0.014267,0.00682831,0.0234985,0.0101852,-9.97986,0.0109863,0.000991821,0.0121689,0.00728607,0.0151443,-0.00736237,0.0162888,0.00507355
9,2,2.05251,0.000610352,0.00457764,-2.42776,0.0544603,-0.0759786,0.0544332,0.156114,-0.0873481,0.144403,-0.121189,-0.0847066,0.00823975,0.0268936,0.0195313,0.00659943,0.0180435,0.0111771,0.0242615,0.0140762,-9.97986,0.0121307,-0.00404358,0.0164795,0.00679016,0.0186539,-0.00358582,0.0177383,0.0069046
9,3,9.60683,0.000305176,0.0038147,-2.42867,0.0541551,-0.0753682,0.0535176,0.154894,-0.0891792,0.143487,-0.120884,-0.0850118,0.00984192,0.0205231,0.0156784,0.0102615,0.0196457,0.0069046,0.0208664,0.0153732,-9.97986,0.00957489,-0.0037384,0.0139999,0.00827789,0.0175858,-0.00541687,0.0159836,0.00637054
9,4,10.0097,0.000305176,0.00274658,-2.43081,0.0535448,-0.0768941,0.0501607,0.106981,-0.0983344,0.142267,-0.125461,-0.0889791,0.0122452,0.0201035,0.0201797,0.0112915,0.0154877,0.0113678,0.0234222,0.0113678,-9.97986,0.0102615,0.000915527,0.0127029,0.00442505,0.0153732,-0.0037384,0.0143814,0.00423431
9,5,10.0097,0.00305176,0.000762939,-2.4302,0.0547655,-0.0762837,0.0516866,0.0847032,-0.0980293,0.142572,-0.126072,-0.0880636,0.0114059,0.0271988,0.0216293,0.0124741,0.0160599,0.0107574,0.024147,0.0175858,-9.97986,0.0170517,-0.00743866,0.0163269,0.00583649,0.0130081,-0.00392914,0.0122833,0.00278473
9,6,10.0097,-0.000305176,0.000457764,-2.42898,0.0526292,-0.0756734,0.0513814,0.0758531,-0.0949775,0.144098,-0.126682,-0.0874532,0.0114822,0.022583,0.0230408,0.0121689,0.0196075,0.00759125,0.0241852,0.017395,-9.97986,0.014801,-0.0050354,0.0133514,0.00953674,0.0188828,-0.00465393,0.0134277,0.00865936
9,7,10.0097,0.0012207,-0.000915527,-2.42776,0.055681,-0.0741475,0.0510762,0.0712755,-0.0943672,0.144098,-0.126682,-0.0862325,0.00873566,0.0236893,0.0181961,0.0114441,0.0197983,0.00843048,0.026741,0.0118637,-9.97986,0.014267,-0.00476837,0.0138092,0.00480652,0.0127029,-0.00362396,0.0183868,0.00541687
9,8,10.0097,-0.000305176,0.000152588,-2.42745,0.055681,-0.0753682,0.0535176,0.0712755,-0.0943672,0.145013,-0.126072,-0.0844015,0.0114822,0.0237274,0.0131226,0.0118256,0.0178528,0.00907898,0.0244522,0.017662,-9.97986,0.0196075,-0.00549316,0.0153351,0.00488281,0.0144196,-0.00587463,0.0181961,0.00576019
9,9,10.0097,-0.000305176,0.000305176,-2.42745,0.0541551,-0.0747579,0.0550435,0.0724962,-0.0922309,0.145013,-0.124851,-0.0840963,0.0162125,0.0216675,0.0181198,0.00984192,0.0149918,0.00854492,0.0214767,0.0183487,-9.97986,0.0179672,-0.00167847,0.0155258,0.00499725,0.017662,-0.00549316,0.0165176,0.00747681
10,0,10.0097,-0.000610352,0,-2.42623,0.055681,-0.0741475,0.0529073,0.0706652,-0.0943672,0.145624,-0.125766,-0.0837911,0.0117111,0.0252151,0.0196075,0.0107574,0.0148392,0.0112152,0.0233841,0.0153732,-9.97986,0.0136185,-0.00419617,0.0154114,0.0104141,0.0141144,-0.00743866,0.0170898,0.00549316
10,1,10.0097,-0.000305176,0.000457764,-2.42562,0.0559862,-0.0723164,0.0556539,0.0709703,-0.0919257,0.147455,-0.123935,-0.0822652,0.0135422,0.0227737,0.0173569,0.011673,0.0143051,0.00873566,0.0244904,0.0279236,-9.97986,0.0203323,-0.00301361,0.0130844,0.00873566,0.0169754,-0.0075531,0.0137711,0.00587463
10,2,10.0097,0.000610352,0.000305176,-2.4247,0.0562914,-0.073232,0.0544332,0.0712755,-0.090705,0.146234,-0.123935,-0.0819601,0.0109863,0.0230026,0.0224304,0.0125122,0.0169373,0.00797272,0.0220108,0.02388,-9.97986,0.02285,-0.00190735,0.0135422,0.00904083,0.0158691,-0.00743866,0.0155258,0.00526428
10,3,10.0097,0.000610352,0.000152588,-2.42714,0.0559862,-0.0744527,0.0529073,0.0401476,-0.0977241,0.145318,-0.127292,-0.0825704,0.0117874,0.0242615,0.0191498,0.0135803,0.0175095,0.00961304,0.019455,0.0268173,-9.97986,0.02491,-0.00389099,0.0153732,0.00812531,0.0158691,-0.00602722,0.0178146,0.00740051
10,4,6.04909,0.00152588,-0.00350952,-2.42684,0.0569017,-0.0747579,0.0513814,-0.00807019,-0.100471,0.144708,-0.130344,-0.0844015,0.00835419,0.0217819,0.0193024,0.011673,0.0134277,0.00991821,0.0199509,0.0225449,-9.97986,0.0186539,0.00118256,0.0139618,0.0063324,0.0187683,-0.00812531,0.0109863,0.00995636
10,5,-1.85405,0.00183105,-0.00350952,-2.42531,0.0575121,-0.0747579,0.054128,-0.0138685,-0.0968086,0.145624,-0.129734,-0.0819601,0.0109482,0.0243378,0.0187683,0.0155258,0.0130463,0.0063324,0.0207901,0.0213242,-9.97986,0.0186539,0.00465393,0.0188065,0.00637054,0.0167084,-0.00892639,0.0142288,0.00518799
10,6,-9.77061,0.000915527,-0.0050354,-2.42501,0.0572069,-0.0735371,0.0550435,-0.00959607,-0.0943672,0.146539,-0.129429,-0.0810445,0.012207,0.0251007,0.0205994,0.00915527,0.0176239,0.0124741,0.0191879,0.0239182,-9.97986,0.0127411,0,0.0109863,0.00434875,0.0177765,-0.00923157,0.0162506,0.00839233
10,7,-9.99003,-0.000610352,-0.00366211,-2.42531,0.0562914,-0.0741475,0.0553487,0.0212267,-0.0910102,0.145013,-0.127598,-0.0807394,0.0107193,0.0246048,0.022583,0.0140381,0.0174332,0.0130081,0.0220871,0.0162506,-9.97986,0.0106049,0.00335693,0.0168991,0.00804901,0.00114441,-0.00324249,0.0172806,0.00938416
10,8,-9.99003,-0.000915527,-0.00289917,-2.42501,0.055681,-0.0726216,0.0556539,0.0511339,-0.0910102,0.145013,-0.126072,-0.0813497,0.00652313,0.023613,0.018158,0.0116348,0.0175858,0.0117493,0.021553,0.0115967,-9.97986,0.0111008,0.00282288,0.0157928,0.0094986,-0.00656128,-0.00339508,0.0160217,0.00606537
10,9,-9.99003,0.00183105,-0.000305176,-2.42623,0.0553758,-0.075063,0.0562642,0.0605944,-0.090705,0.145929,-0.127292,-0.0813497,0.0111771,0.024147,0.0179672,0.0100327,0.0152206,0.00968933,0.0196457,0.00827789,-9.97986,0.00938416,-0.00133514,0.014534,0.00461578,-0.00427246,-0.0025177,0.0143814,0.00556946
11,0,-9.99003,0.000915527,0.0012207,-2.42684,0.0547655,-0.075063,0.0547383,0.0908068,-0.0885688,0.144403,-0.123935,-0.0831808,0.0112152,0.0260925,0.0169373,0.0111771,0.016861,0.0108337,0.0263977,0.0128937,-9.97986,0.00705719,0.000839233,0.0163651,0.00602722,0.0137711,-0.00404358,0.0117111,0.00480652
11,1,-5.73039,0,0.00411987,-2.42623,0.0544603,-0.0747579,0.0562642,0.142381,-0.0855171,0.144708,-0.121189,-0.0834859,0.00762939,0.0244141,0.0167847,0.00881195,0.0162888,0.00675201,0.0244522,0.0113678,-9.97986,0.0116348,-0.000114441,0.0151062,0.00648499,0.013504,-0.00385284,0.0167084,0.00522614
11,2,1.60909,0.000915527,0.00366211,-2.42745,0.0544603,-0.0759786,0.0538228,0.153978,-0.0870429,0.144403,-0.121189,-0.0837911,0.00682831,0.0246048,0.0200272,0.0172806,0.0180817,0.0126266,0.0244522,0.0108719,-9.97986,0.0120163,0.00312805,0.0182724,0.00766754,0.0193024,-0.00164032,0.0170517,0.00297546
11,3,9.07338,0,0.00442505,-2.42837,0.0535448,-0.0762837,0.054128,0.15642,-0.0894843,0.143487,-0.121189,-0.0868429,0.0101852,0.0214386,0.020752,0.0102234,0.014534,0.00728607,0.0267792,0.0153732,-9.97986,0.0141144,0.000648499,0.0138855,0.00892639,0.0149918,-0.000190735,0.017395,0.00831604
11,4,10.0097,-0.000610352,0.00259399,-2.43142,0.0529344,-0.0778096,0.0492452,0.109728,-0.0971137,0.141961,-0.125461,-0.0901998,0.0137711,0.0248718,0.017662,0.0114822,0.0126266,0.0118637,0.0229263,0.0153351,-9.97986,0.0141144,0.00492096,0.0153351,0.00583649,0.0157928,-0.00686646,0.0150681,0.00534058
11,5,10.0097,0.000610352,0.000762939,-2.4305,0.0535448,-0.0762837,0.0504659,0.0868395,-0.0971137,0.142267,-0.126377,-0.0889791,0.0121689,0.0229645,0.0184631,0.0105286,0.0197983,0.0108719,0.0229645,0.0165558,-9.97986,0.0107574,0.00247955,0.0155258,0.00659943,0.0137329,-0.000686646,0.0159454,0.00789642
11,6,10.0097,0.000915527,0.000305176,-2.42867,0.055681,-0.075063,0.0529073,0.0758531,-0.0965034,0.144708,-0.127292,-0.0877584,0.0128937,0.0240707,0.0196075,0.0130463,0.0172043,0.015831,0.0170135,0.0133896,-9.97986,0.0114059,-0.000915527,0.0173569,0.00919342,0.0141525,-0.00183105,0.0190353,0.00465393
11,7,10.0097,0.000915527,0,-2.42806,0.0547655,-0.0762837,0.0526021,0.0728014,-0.0946723,0.144098,-0.126072,-0.0862325,0.0126648,0.0217056,0.0238037,0.0123215,0.0189209,0.0119781,0.0212479,0.0239944,-9.97986,0.0195694,0.00270844,0.0149155,0.00854492,0.0152206,-0.00518799,0.0155258,0.00484467
11,8,10.0097,0.00152588,0,-2.42837,0.055681,-0.0756734,0.0532125,0.0718859,-0.0943672,0.145624,-0.126072,-0.085317,0.0147629,0.0227356,0.0216293,0.0138474,0.0166702,0.00991821,0.0232315,0.016098,-9.97986,0.0173187,0.00141144,0.0166702,0.00991821,0.0175476,-0.00549316,0.0176239,0.00411987
11,9,10.0097,0.0012207,0,-2.42745,0.0541551,-0.0747579,0.0535176,0.0715807,-0.0928413,0.145013,-0.125766,-0.0847066,0.0138092,0.0244522,0.0225449,0.0141525,0.0187302,0.0111771,0.0226593,0.0172806,-9.97986,0.0178146,-0.000648499,0.0165176,0.00648499,0.0175476,-0.00324249,0.0157166,0.0062561
12,0,10.0097,0,0.000457764,-2.42531,0.0547655,-0.0738423,0.054128,0.0706652,-0.0922309,0.145013,-0.126377,-0.0834859,0.0130463,0.0269318,0.0207138,0.0166321,0.0163269,0.0109863,0.0217056,0.0192261,-9.97986,0.0157166,-0.000724792,0.0138855,0.00923157,0.019989,-0.00240326,0.0152206,0.00629425
12,1,10.0097,-0.000610352,0.000305176,-2.42592,0.055681,-0.0741475,0.0553487,0.07036,-0.0916206,0.147149,-0.124546,-0.0816549,0.0119781,0.0227356,0.0169373,0.0162506,0.0178909,0.0115204,0.0218201,0.0243378,-9.97986,0.0191498,-0.0012207,0.0141144,0.00839233,0.0202942,0.001297,0.0185013,0.00801086
12,2,10.0097,0,0,-2.42501,0.0562914,-0.073232,0.0550435,0.0718859,-0.0913154,0.145318,-0.124241,-0.0804342,0.0112152,0.0227737,0.0169754,0.0159454,0.0159073,0.0112152,0.0212097,0.0279617,-9.97986,0.0230789,-0.000343323,0.0142288,0.00724792,0.0178146,-0.00404358,0.0163651,0.00671387
12,3,10.0097,-0.00152588,-0.000457764,-2.42653,0.0553758,-0.0747579,0.0522969,0.0407579,-0.0965034,0.145318,-0.127292,-0.0834859,0.0103378,0.0249481,0.0214767,0.0127792,0.018425,0.0125885,0.0202179,0.0243759,-9.97986,0.0228882,-0.0063324,0.0156784,0.00423431,0.0149155,-0.00488281,0.0157928,0.00865936
12,4,6.04299,0.000915527,-0.00305176,-2.42776,0.0559862,-0.0738423,0.0516866,-0.00837537,-0.100165,0.145624,-0.129123,-0.0831808,0.0122452,0.0214767,0.0203323,0.00717163,0.0160599,0.0149536,0.0203323,0.0251389,-9.97986,0.0237656,-0.00549316,0.0152588,0.00591278,0.0191498,-0.00171661,0.0152588,0.00911713
12,5,-1.71672,0.00152588,-0.0038147,-2.42623,0.0553758,-0.0738423,0.0526021,-0.0141737,-0.0971137,0.146234,-0.129429,-0.0822652,0.0116348,0.0221252,0.0183105,0.0133514,0.0164795,0.014534,0.0187302,0.0248718,-9.97986,0.0180435,-0.00205994,0.0126648,0.00404358,0.0231552,-0.00408173,0.0143051,0.00675201
12,6,-9.64,0.00213623,-0.00457764,-2.42562,0.0565965,-0.0738423,0.055959,-0.00593396,-0.0949775,0.14776,-0.129123,-0.0810445,0.01194,0.0260925,0.0165939,0.0116348,0.0177765,0.00926971,0.0210571,0.0205612,-9.97986,0.017395,-0.00259399,0.0165939,0.00598907,0.014801,0.00106812,0.0178146,0.00961304
12,7,-9.99003,0,-0.00274658,-2.42501,0.0569017,-0.0744527,0.0556539,0.021837,-0.0910102,0.145624,-0.127598,-0.0810445,0.00888824,0.0221252,0.0163269,0.0159836,0.0183868,0.0104141,0.0275421,0.0123215,-9.97986,0.0168991,-0.000457764,0.0183487,0.00644684,0.00400543,-0.00278473,0.016861,0.00617981
12,8,-9.99003,-0.00183105,-0.0012207,-2.4247,0.055681,-0.0747579,0.0547383,0.0499132,-0.0910102,0.144403,-0.126072,-0.0816549,0.0114441,0.0250626,0.0195313,0.0114822,0.0185776,0.0102234,0.0242233,0.0105667,-9.97986,0.0146866,-0.00133514,0.017128,0.00804901,-0.00717163,-0.00144958,0.0215149,0.00595093
12,9,-9.99003,0.000915527,0.000152588,-2.42592,0.0559862,-0.0747579,0.0568746,0.0630358,-0.0925361,0.145013,-0.124851,-0.0816549,0.00782013,0.0235367,0.0165939,0.0131226,0.0223541,0.00961304,0.020256,0.00656128,-9.97986,0.00564575,-0.00335693,0.018692,0.0094986,-0.00747681,-0.00362396,0.0171661,0.00705719
13,0,-9.99003,0,0.0012207,-2.42623,0.0553758,-0.0741475,0.0562642,0.0908068,-0.0879585,0.145929,-0.124546,-0.0837911,0.0105286,0.0245285,0.0158691,0.0148392,0.0177383,0.00953674,0.0207901,0.00923157,-9.97986,0.00980377,-0.00217438,0.0166702,0.00526428,0.0174332,-0.00675201,0.0157547,0.00431061
13,1,-5.19908,0.00244141,0.00350952,-2.42714,0.0532396,-0.0753682,0.0550435,0.141466,-0.0861274,0.144098,-0.12241,-0.0831808,0.011673,0.0246048,0.0144196,0.0143433,0.0201416,0.010376,0.0223541,0.00984192,-9.97986,0.00919342,-0.000724792,0.0104904,0.0025177,0.0157166,0.00259399,0.0161362,0.00812531
13,2,2.05281,0.000305176,0.00442505,-2.42653,0.0544603,-0.0756734,0.0544332,0.154588,-0.0882636,0.143792,-0.120578,-0.0844015,0.0117111,0.0189209,0.0183105,0.0132751,0.018692,0.0101471,0.0212479,0.00888824,-9.97986,0.0120544,-0.00514984,0.0131989,0.0069046,0.0152206,0.00255585,0.01297,0.0030899
13,3,9.4814,-0.000915527,0.00442505,-2.42806,0.0544603,-0.0762837,0.0544332,0.155809,-0.0894843,0.143182,-0.121189,-0.0862325,0.00629425,0.0256729,0.0171661,0.0130081,0.017128,0.00911713,0.0232697,0.014534,-9.97986,0.0143051,-0.00164032,0.0115967,0.00598907,0.0151443,0.00354767,0.0156784,0.00591278
13,4,10.0097,0.0012207,0.00244141,-2.43203,0.0538499,-0.0768941,0.0501607,0.106981,-0.0971137,0.141046,-0.126072,-0.0883688,0.0119019,0.0235748,0.0154877,0.0106049,0.0173187,0.0115585,0.0226593,0.0123978,-9.97986,0.0108337,-0.00087738,0.0149536,0.00793457,0.0147629,-0.00385284,0.0177383,0.00583649
13,5,10.0097,0.000915527,0.000457764,-2.4305,0.0538499,-0.0765889,0.0513814,0.0840929,-0.0968086,0.142267,-0.126072,-0.0886739,0.0126648,0.0238419,0.0204468,0.0116348,0.018425,0.0120544,0.020752,0.0148392,-9.97986,0.0153732,-0.001297,0.0123215,0.00896454,0.0177383,0.0012207,0.0173569,0.00587463
13,6,10.0097,0.000610352,-0.000610352,-2.42867,0.0541551,-0.0747579,0.0519917,0.0767687,-0.0961982,0.143792,-0.125766,-0.0871481,0.00999451,0.0234222,0.0163269,0.00888824,0.0141144,0.00797272,0.0217438,0.0178146,-9.97986,0.0149918,0.00244141,0.0149155,0.00656128,0.0193405,0.00339508,0.021286,0.00434875
13,7,10.0097,0.000610352,0.000152588,-2.42776,0.0547655,-0.0765889,0.0519917,0.0724962,-0.0946723,0.142572,-0.127598,-0.0862325,0.00904083,0.0212097,0.0186157,0.0112915,0.0175476,0.0107193,0.0238419,0.0177002,-9.97986,0.0140381,-0.00110626,0.0157547,0.0062561,0.0143051,0.00263214,0.0179291,0.00595093
13,8,10.0097,-0.000305176,0,-2.42806,0.0550706,-0.0744527,0.0532125,0.0715807,-0.0946723,0.145624,-0.126377,-0.0850118,0.00972748,0.0223541,0.0160217,0.0109482,0.0167847,0.0115967,0.0191879,0.0206375,-9.97986,0.0169754,-7.62939e-005,0.0176239,0.00770569,0.0159454,-0.0030899,0.0167847,0.00423431
13,9,10.0097,-0.0012207,0,-2.42745,0.0547655,-0.0756734,0.0522969,0.0709703,-0.0943672,0.144098,-0.125461,-0.0837911,0.00892639,0.0232315,0.0201797,0.0133133,0.0178528,0.00991821,0.0231171,0.0233078,-9.97986,0.019722,0.00148773,0.0185394,0.00831604,0.0181961,-0.00255585,0.0174713,0.00415802
14,0,10.0097,0.000915527,0.000152588,-2.42562,0.0541551,-0.0747579,0.054128,0.07036,-0.0928413,0.145318,-0.125156,-0.0828756,0.0136185,0.0217819,0.0183487,0.0107956,0.0168991,0.00679016,0.0209427,0.0175095,-9.97986,0.0194931,-0.00148773,0.017128,0.00480652,0.0186539,-0.0044632,0.0185394,0.00858307
14,1,10.0097,0.0012207,-0.000152588,-2.42592,0.0559862,-0.0738423,0.054128,0.0715807,-0.0919257,0.146234,-0.124851,-0.0810445,0.0123978,0.0240326,0.0219727,0.0120926,0.0157547,0.010643,0.0204086,0.0241089,-9.97986,0.018158,0.000114441,0.0154114,0.00492096,0.0150299,-0.00247955,0.0164413,0.00720978
14,2,10.0097,0.00152588,-0.000152588,-2.42531,0.0565965,-0.0744527,0.0550435,0.0718859,-0.0916206,0.14776,-0.12363,-0.0810445,0.0152969,0.0189209,0.0156021,0.0105286,0.0172424,0.0127029,0.0215912,0.0293732,-9.97986,0.0193024,0.00209808,0.014801,0.00862122,0.0168228,-0.000648499,0.018692,0.00648499
14,3,10.0097,0,-0.000457764,-2.42653,0.0559862,-0.0744527,0.0510762,0.0395372,-0.0961982,0.143792,-0.126987,-0.0822652,0.0113297,0.0191116,0.0197983,0.0125885,0.0198746,0.010376,0.0177002,0.0260925,-9.97986,0.0210571,-0.00244141,0.0113678,0.00495911,0.0167465,-0.00457764,0.0152588,0.00583649
14,4,5.93282,0.000305176,-0.00320435,-2.42837,0.0553758,-0.0741475,0.0513814,-0.00898572,-0.101691,0.145624,-0.129123,-0.0837911,0.0121689,0.0212479,0.0209427,0.0107574,0.0126648,0.0110245,0.0205994,0.0260162,-9.97986,0.0231552,-0.000801086,0.0151825,0.00846863,0.0142288,-0.00255585,0.0178146,0.00343323
14,5,-1.80797,0.000610352,-0.0038147,-2.42653,0.0562914,-0.0738423,0.0535176,-0.0144789,-0.0971137,0.146844,-0.130649,-0.0822652,0.00946045,0.0209427,0.0194168,0.0107574,0.0108337,0.0130081,0.0194931,0.0188065,-9.97986,0.0202179,-0.001297,0.0155258,0.0111771,0.0184631,-0.00370026,0.0178909,0.00679016
14,6,-9.75261,0.000610352,-0.00457764,-2.4247,0.0572069,-0.0735371,0.0550435,-0.00593396,-0.094062,0.147455,-0.129429,-0.0807394,0.0105286,0.022049,0.0224686,0.0149918,0.0167847,0.0101089,0.0219345,0.0199509,-9.97986,0.018692,0.001297,0.0187683,0.00640869,0.0174332,-0.0031662,0.0214767,0.00679016
14,7,-9.99003,0.000610352,-0.00244141,-2.42501,0.0581224,-0.0744527,0.0565694,0.021837,-0.0928413,0.146844,-0.127903,-0.0804342,0.00534058,0.0249863,0.0204468,0.0139618,0.0146103,0.0114059,0.0229263,0.0188446,-9.97986,0.0133514,0.00160217,0.0165176,0.00865936,0.00389099,-0.00419617,0.0180817,0.00606537
14,8,-9.99003,-0.000915527,-0.00106812,-2.42531,0.0541551,-0.0735371,0.0562642,0.049608,-0.090705,0.145624,-0.126377,-0.0819601,0.00461578,0.0250244,0.0159836,0.0100708,0.0167465,0.0107193,0.0215912,0.00926971,-9.97986,0.00720978,-0.00286102,0.0149536,0.0119019,-0.0109863,-0.00396729,0.0183487,0.00556946
14,9,-9.99003,0.00305176,0,-2.42684,0.0565965,-0.0744527,0.0553487,0.0605944,-0.0919257,0.145624,-0.126072,-0.0831808,0.00785828,0.0253677,0.0169754,0.0117874,0.0143814,0.0094986,0.0201416,0.00846863,-9.97986,0.00743866,-0.00255585,0.0118637,0.00801086,-0.0111771,-0.0043869,0.0194168,0.00648499
15,0,-9.99003,0.000610352,0.00152588,-2.42653,0.0559862,-0.0756734,0.0562642,0.0914171,-0.0894843,0.145013,-0.124546,-0.0828756,0.0100327,0.020752,0.0205612,0.0102234,0.0199127,0.0104523,0.019722,0.00572205,-9.97986,0.00705719,-0.0012207,0.01091,0.0103378,0.0151062,-0.00209808,0.0154495,0.00553131
15,1,-5.15758,0.00183105,0.00320435,-2.42623,0.0544603,-0.0756734,0.0553487,0.142381,-0.0867378,0.143792,-0.121494,-0.0850118,0.00812531,0.0211334,0.0212097,0.00968933,0.0116348,0.00911713,0.0191498,0.00682831,-9.97986,0.0119781,-0.00659943,0.0161743,0.00961304,0.0154114,-0.0062561,0.0178909,0.00812531
15,2,2.10256,0.00183105,0.00442505,-2.42776,0.0541551,-0.0756734,0.0544332,0.154283,-0.0876533,0.145318,-0.121494,-0.0850118,0.00705719,0.0225067,0.0182724,0.0119781,0.0154495,0.00991821,0.0252533,0.0107956,-9.97986,0.0100708,-0.00278473,0.0121307,0.00953674,0.0149918,-0.00759125,0.0168228,0.00610352
15,3,9.57936,0.000305176,0.00442505,-2.42776,0.0535448,-0.0759786,0.0538228,0.155809,-0.0891792,0.143182,-0.120884,-0.0865377,0.00946045,0.0232315,0.0216293,0.010643,0.0192642,0.0143051,0.0268555,0.0150299,-9.97986,0.013237,-0.00350952,0.0135422,0.00587463,0.0132751,-0.0037384,0.0160217,0.00343323
15,4,10.0097,0.000305176,0.00198364,-2.43233,0.0529344,-0.0768941,0.050771,0.107897,-0.0977241,0.142877,-0.125766,-0.0889791,0.00717163,0.0246048,0.0207901,0.0144196,0.0181961,0.00900269,0.018692,0.0121307,-9.97986,0.015831,-0.00297546,0.0130081,0.00530243,0.0174332,-0.00392914,0.0183868,0.00461578
15,5,10.0097,0.00213623,0.000762939,-2.43081,0.0532396,-0.0768941,0.050771,0.0840929,-0.0968086,0.143792,-0.126987,-0.0880636,0.0113678,0.0209808,0.0219345,0.0165558,0.0177002,0.00709534,0.0214386,0.015831,-9.97986,0.0147247,-0.00259399,0.0106812,0.00831604,0.014801,-0.000801086,0.0174332,0.00675201
15,6,10.0097,0.00152588,0.000610352,-2.42989,0.0538499,-0.0756734,0.050771,0.0758531,-0.0946723,0.143792,-0.127598,-0.0862325,0.00957489,0.0231934,0.0169373,0.0154495,0.0171661,0.0144196,0.0187302,0.0165939,-9.97986,0.0138855,-0.00400543,0.0104904,0.00968933,0.0189209,-0.00270844,0.0184631,0.00396729
15,7,10.0097,0.000305176,-0.000457764,-2.42776,0.0553758,-0.0756734,0.0510762,0.072191,-0.0968086,0.144098,-0.126682,-0.085317,0.0102997,0.0214767,0.0189972,0.00984192,0.0163651,0.00637054,0.0209427,0.0196075,-9.97986,0.0185013,-0.00244141,0.0154877,0.00640869,0.0177383,-0.00450134,0.0160217,0.00591278
15,8,10.0097,0.000305176,0.000152588,-2.42714,0.055681,-0.0744527,0.0544332,0.0718859,-0.0946723,0.143487,-0.125156,-0.0840963,0.0114822,0.0256348,0.0203705,0.0127792,0.016861,0.00736237,0.0207901,0.0221634,-9.97986,0.0117874,-0.00305176,0.0160599,0.0105286,0.0143051,-0.00240326,0.0139236,0.00694275
15,9,10.0097,-0.000305176,-0.000305176,-2.42592,0.0550706,-0.0747579,0.0529073,0.0715807,-0.0934516,0.145318,-0.125461,-0.0844015,0.0114822,0.0223923,0.0157928,0.0174332,0.0163651,0.0100708,0.0234604,0.0169754,-9.97986,0.0130463,-0.00320435,0.0139999,0.0104141,0.0122833,-0.00297546,0.0161743,0.00537872
16,0,10.0097,0.000305176,-0.000152588,-2.42684,0.0553758,-0.0741475,0.0538228,0.0706652,-0.0922309,0.144708,-0.126377,-0.0831808,0.0140762,0.0237656,0.0201416,0.0100708,0.0204086,0.00865936,0.0258255,0.0224686,-9.97986,0.0167084,-0.00190735,0.0177002,0.00789642,0.0153732,-0.0019455,0.0137329,0.00720978
16,1,10.0097,-0.000915527,-0.000610352,-2.42531,0.0569017,-0.0735371,0.054128,0.0724962,-0.0922309,0.145929,-0.124851,-0.0819601,0.014267,0.0247574,0.0187302,0.0109482,0.0161743,0.00610352,0.0204468,0.0224686,-9.97986,0.0204086,-0.00545502,0.0124741,0.00102997,0.0179291,-0.00171661,0.0174332,0.00984192
16,2,10.0097,-0.000305176,0.000305176,-2.4247,0.0569017,-0.075063,0.0535176,0.0709703,-0.0919257,0.145624,-0.12363,-0.0813497,0.0138855,0.0237274,0.019989,0.0165939,0.0180817,0.00911713,0.0192642,0.0276566,-9.97986,0.0211716,-0.00274658,0.0139618,0.00366211,0.0178528,-0.00785828,0.0179672,0.00541687
16,3,10.0097,-0.000305176,-0.000152588,-2.42623,0.0572069,-0.0762837,0.0532125,0.0398424,-0.0968086,0.146234,-0.126682,-0.0837911,0.0120926,0.0225449,0.0196457,0.0104141,0.0163269,0.00938416,0.0210953,0.0252533,-9.97986,0.0245285,-0.000419617,0.0143814,0.00545502,0.01297,-0.00396729,0.0165176,0.00934601
16,4,5.98165,0.00244141,-0.00350952,-2.42745,0.0553758,-0.075063,0.0522969,-0.0105116,-0.101081,0.145929,-0.129429,-0.0831808,0.0118256,0.02388,0.0202179,0.0123978,0.0207138,0.0107574,0.0229645,0.0232697,-9.97986,0.0190735,-7.62939e-005,0.0149536,0.00873566,0.0198364,-0.00202179,0.0157928,0.00961304
16,5,-1.83696,0.00183105,-0.00442505,-2.42562,0.0562914,-0.0744527,0.0532125,-0.0135634,-0.0961982,0.145624,-0.130039,-0.0819601,0.0157928,0.0252914,0.020752,0.0102234,0.0188065,0.00881195,0.019722,0.0235748,-9.97986,0.0189972,-0.000839233,0.0168991,0.00221252,0.0178909,-0.00530243,0.0181961,0.00793457
16,6,-9.65312,-0.0012207,-0.00488281,-2.42531,0.0565965,-0.0729268,0.054128,-0.00654431,-0.0931465,0.146234,-0.129734,-0.0810445,0.0104141,0.0228119,0.0169754,0.012207,0.0180817,0.0104523,0.0245285,0.0178146,-9.97986,0.0178146,-7.62939e-005,0.0136185,0.0094223,0.0192261,-0.00293732,0.0150299,0.0087738
16,7,-9.99003,0,-0.00427246,-2.42531,0.0562914,-0.0735371,0.0553487,0.021837,-0.0931465,0.145929,-0.127292,-0.0819601,0.0111008,0.0259018,0.0202179,0.0123978,0.0202179,0.0112915,0.0218964,0.0149536,-9.97986,0.00961304,-0.00305176,0.0127792,0.00858307,0.00141144,-0.00114441,0.0128937,0.00465393
16,8,-9.99003,0,-0.00106812,-2.42531,0.0562914,-0.0741475,0.0550435,0.0480822,-0.0897895,0.147149,-0.126682,-0.0816549,0.00831604,0.026741,0.017395,0.00968933,0.0165176,0.00801086,0.0235748,0.0126648,-9.97986,0.00934601,0.000953674,0.0152206,0.0118637,-0.00846863,-0.0030899,0.0151443,0.00518799
16,9,-9.99003,-0.000305176,0,-2.42562,0.055681,-0.075063,0.0544332,0.0615099,-0.0919257,0.145013,-0.126377,-0.0825704,0.0111008,0.0208282,0.0172043,0.00896454,0.0162888,0.00923157,0.0154877,0.0101852,-9.97986,0.00972748,0.000190735,0.0113678,0.00659943,-0.0118256,-0.0019455,0.0152206,0.00717163
17,0,-9.99003,0.0012207,0.00152588,-2.42623,0.0553758,-0.075063,0.0550435,0.0923326,-0.0897895,0.146539,-0.124241,-0.0828756,0.0125122,0.0245285,0.0167084,0.0110626,0.0181961,0.01091,0.0210953,0.00946045,-9.97986,0.0101089,0.00282288,0.0112152,0.0031662,0.0165176,-0.000724792,0.0182724,0.00873566
17,1,-4.88109,-0.0012207,0.00396729,-2.42562,0.0535448,-0.0753682,0.0550435,0.142381,-0.0858222,0.143792,-0.121799,-0.0834859,0.0128937,0.02285,0.0163269,0.0117493,0.0195694,0.00827789,0.0257874,0.014801,-9.97986,0.00934601,0.00202179,0.0169754,0.00385284,0.015564,-0.00144958,0.0146103,0.00404358
17,2,2.32106,0,0.00396729,-2.42837,0.0535448,-0.0756734,0.0547383,0.155504,-0.0870429,0.144708,-0.120884,-0.0844015,0.0123215,0.0220871,0.0162125,0.0123215,0.0193405,0.011673,0.0252914,0.012207,-9.97986,0.0118256,-0.00110626,0.0137329,0.00598907,0.0172043,-0.00244141,0.018425,0.00789642
17,3,9.71761,-0.000610352,0.00427246,-2.42806,0.0535448,-0.0759786,0.0544332,0.155809,-0.0897895,0.144098,-0.122715,-0.0865377,0.00919342,0.0246048,0.0152969,0.00831604,0.016861,0.00701904,0.0235367,0.0139618,-9.97986,0.0110626,-0.00499725,0.0153732,0.00453949,0.0141907,-0.000686646,0.0154877,0.00793457
17,4,10.0097,0,0.00106812,-2.43111,0.0520189,-0.0762837,0.0495503,0.104845,-0.0986396,0.141656,-0.124851,-0.0886739,0.00717163,0.0234985,0.0175476,0.0102234,0.0185394,0.0120544,0.0225449,0.0186157,-9.97986,0.0141907,-0.00198364,0.0119781,0.00629425,0.016861,0.00148773,0.0179291,0.00720978
17,5,10.0097,-0.000305176,0.000762939,-2.42989,0.0538499,-0.0775044,0.0495503,0.0840929,-0.0965034,0.142572,-0.127292,-0.0889791,0.00907898,0.0249481,0.0154495,0.00988007,0.0188446,0.00732422,0.0210953,0.0173569,-9.97986,0.0143814,-0.00282288,0.0154495,0.0030899,0.0141144,0.000457764,0.0128555,0.00587463
17,6,10.0097,0.0012207,-0.000610352,-2.42714,0.0544603,-0.0759786,0.0522969,0.0764635,-0.0955879,0.144403,-0.126682,-0.0880636,0.00904083,0.0218201,0.0155258,0.00995636,0.0183868,0.00881195,0.0193405,0.019989,-9.97986,0.0159073,0.00267029,0.0130463,0.00606537,0.0149536,-0.00350952,0.0117493,0.00595093
17,7,10.0097,0.000305176,-0.000610352,-2.42867,0.0529344,-0.0756734,0.0513814,0.0724962,-0.0946723,0.144708,-0.126072,-0.0856222,0.0137711,0.0227737,0.0204849,0.00865936,0.0168228,0.0113678,0.0223541,0.0189209,-9.97986,0.0156021,0.000572205,0.0139236,0.00263214,0.016098,0.00164032,0.0154877,0.00659943
17,8,10.0097,0.000305176,-0.000305176,-2.42714,0.0553758,-0.0747579,0.0535176,0.0712755,-0.0946723,0.144708,-0.126377,-0.0847066,0.00907898,0.0252533,0.0197601,0.0131989,0.0197601,0.00904083,0.0263977,0.0190735,-9.97986,0.0152588,-0.00152588,0.0151443,0.00965118,0.0162506,0.000991821,0.0127029,0.00736237
17,9,10.0097,0.000610352,0.000610352,-2.42745,0.0553758,-0.075063,0.054128,0.0706652,-0.0928413,0.146234,-0.125461,-0.0844015,0.00972748,0.0291824,0.0186157,0.0104904,0.0223541,0.0119019,0.0218582,0.0205612,-9.97986,0.0215149,-0.00190735,0.0150681,0.00675201,0.0189209,0.0043869,0.0179672,0.00759125
18,0,10.0097,0.000305176,0.000305176,-2.42684,0.0553758,-0.0738423,0.054128,0.07036,-0.094062,0.145624,-0.125766,-0.0831808,0.0094986,0.025177,0.0180817,0.0094223,0.0168991,0.0129318,0.0216293,0.0213623,-9.97986,0.0161362,0.00106812,0.0125885,0.00511169,0.016098,0.00190735,0.0162506,0.00457764
18,1,10.0097,0.00152588,0.000305176,-2.4247,0.0553758,-0.075063,0.0553487,0.0709703,-0.0931465,0.147149,-0.125156,-0.0828756,0.0145721,0.0257492,0.0168228,0.0115204,0.0180435,0.0110245,0.0231934,0.0255966,-9.97986,0.0193787,0.000610352,0.0124359,0.00587463,0.0129318,-0.000534058,0.0133896,0.00843048
18,2,10.0097,0.000305176,0,-2.42531,0.0575121,-0.0741475,0.0544332,0.0706652,-0.0922309,0.146234,-0.124241,-0.0813497,0.0119781,0.0246429,0.021286,0.0111771,0.0172806,0.013504,0.021019,0.0270844,-9.97986,0.0231552,-0.000114441,0.0134659,0.00659943,0.0167847,-0.00240326,0.013504,0.00640869
18,3,10.0097,-0.000305176,-0.000610352,-2.42837,0.0559862,-0.0741475,0.0526021,0.0383165,-0.0965034,0.145318,-0.127903,-0.0831808,0.0180054,0.02491,0.0196838,0.00965118,0.0169754,0.0094223,0.019455,0.0281906,-9.97986,0.020256,0.000534058,0.017128,0.00553131,0.0182724,-0.00331879,0.0154495,0.00774384
18,4,5.74483,0.000305176,-0.00305176,-2.42806,0.0559862,-0.0738423,0.0495503,-0.011122,-0.0998603,0.146234,-0.130039,-0.0837911,0.0123215,0.022583,0.0209808,0.0112152,0.0212097,0.0130463,0.0231552,0.0252533,-9.97986,0.02491,0.00328064,0.0134277,0.0056839,0.0173569,-0.00289917,0.015831,0.00850677
18,5,-2.03441,-0.000915527,-0.00457764,-2.42592,0.0572069,-0.0738423,0.0532125,-0.0126478,-0.0971137,0.145929,-0.130039,-0.0819601,0.0123978,0.0264359,0.0214386,0.0125885,0.0154877,0.0134659,0.0199509,0.0242996,-9.97986,0.0200653,0.00148773,0.0100327,0.00576019,0.0194168,-0.00621796,0.0163651,0.00469208
18,6,-9.85301,0.00274658,-0.00396729,-2.42409,0.0572069,-0.0729268,0.0544332,-0.00562879,-0.0934516,0.147455,-0.129429,-0.0804342,0.00938416,0.0224304,0.0172043,0.00644684,0.016098,0.0101089,0.0191498,0.0226593,-9.97986,0.0185013,0.00217438,0.0109482,0.00526428,0.0162506,-0.00335693,0.0156021,0.00640869
18,7,-9.99003,0,-0.00289917,-2.42501,0.0547655,-0.0738423,0.0547383,0.0227526,-0.0928413,0.145929,-0.127598,-0.0813497,0.0102615,0.027504,0.0187683,0.00984192,0.0181198,0.00991821,0.019455,0.014267,-9.97986,0.0108337,0.00167847,0.0131607,0.00484467,-0.000686646,-0.00442505,0.0136185,0.0063324
18,8,-9.99003,0.000305176,-0.000915527,-2.42562,0.0547655,-0.0738423,0.0556539,0.0502184,-0.0913154,0.145013,-0.126377,-0.0819601,0.0111389,0.0219345,0.020256,0.0101089,0.0154114,0.0115204,0.0209427,0.00965118,-9.97986,0.00991821,0.00301361,0.0160599,0.00434875,-0.00644684,-0.0018692,0.0123215,0.00656128
18,9,-9.99003,-0.000610352,0.000152588,-2.42592,0.0553758,-0.0747579,0.0550435,0.0602892,-0.090705,0.145929,-0.126377,-0.0822652,0.00968933,0.0240707,0.0164032,0.00968933,0.0139618,0.0109482,0.0208282,0.0125885,-9.97986,0.0114059,0.00350952,0.0140762,0.00797272,-0.00808716,-0.00549316,0.0174332,0.00545502
19,0,-9.99003,0,0.000915527,-2.42562,0.0538499,-0.0744527,0.0556539,0.0935533,-0.0885688,0.145624,-0.123935,-0.0822652,0.00984192,0.0202942,0.0148773,0.0088501,0.0155258,0.0105286,0.0219345,0.00541687,-9.97986,0.00511169,0.00190735,0.0149155,0.00370026,0.0196457,-0.00270844,0.0150681,0.00461578
19,1,-4.75017,0.000915527,0.00411987,-2.42745,0.0541551,-0.0756734,0.0547383,0.142076,-0.0879585,0.145929,-0.121799,-0.0837911,0.00751495,0.0215912,0.0206375,0.00930786,0.0204468,0.00938416,0.0244904,0.0170135,-9.97986,0.00892639,-0.00038147,0.0102234,0.00461578,0.0139999,-0.00598907,0.0153732,0.00213623
19,2,2.49105,0.0012207,0.00427246,-2.42684,0.0547655,-0.075063,0.0535176,0.154588,-0.0882636,0.143487,-0.120578,-0.0847066,0.00789642,0.021019,0.0230789,0.0102615,0.0224686,0.010643,0.0250244,0.0146103,-9.97986,0.0125885,-0.00106812,0.0157928,0.00431061,0.020256,-0.00343323,0.0162506,0.00480652
19,3,9.82839,0.00213623,0.00442505,-2.42806,0.0541551,-0.0756734,0.0532125,0.15764,-0.0897895,0.144098,-0.121494,-0.085317,0.0102997,0.02285,0.0166321,0.0114822,0.0176239,0.00965118,0.0211334,0.014267,-9.97986,0.0126266,0.00259399,0.0161743,0.00862122,0.0188065,-0.00312805,0.0177765,0.00598907
19,4,10.0097,0.000305176,0.00152588,-2.4305,0.0535448,-0.0771993,0.0498555,0.104845,-0.0971137,0.142572,-0.125461,-0.0898946,0.0122452,0.0206757,0.0194931,0.00656128,0.0204086,0.0122452,0.0213623,0.0126648,-9.97986,0.0111008,-0.00232697,0.0120544,0.00495911,0.0161743,-0.000305176,0.0164032,0.00679016
19,5,10.0097,0,-0.000152588,-2.43081,0.0532396,-0.0747579,0.050771,0.0850084,-0.0965034,0.143792,-0.126377,-0.0886739,0.0119019,0.02491,0.0196075,0.0125122,0.0193024,0.0146484,0.0244522,0.0183105,-9.97986,0.017662,-0.00125885,0.0144196,0.00514984,0.0172806,0.000686646,0.0154114,0.00663757
19,6,10.0097,0.000915527,0.000457764,-2.4302,0.055681,-0.0759786,0.0516866,0.0761583,-0.0961982,0.143487,-0.126682,-0.0871481,0.0101471,0.0237656,0.0218582,0.0136566,0.0150681,0.0105667,0.0265121,0.0169373,-9.97986,0.0158691,0.00385284,0.0138855,0.00789642,0.0178146,0.0031662,0.0134659,0.00686646
19,7,10.0097,-0.000610352,-0.000152588,-2.42776,0.0535448,-0.075063,0.0526021,0.0731066,-0.0946723,0.143182,-0.126072,-0.0859274,0.0162506,0.02388,0.019455,0.0129318,0.0180435,0.0121689,0.0260925,0.0159454,-9.97986,0.0148392,0.00278473,0.0136566,0.00701904,0.0172424,7.62939e-005,0.0172424,0.00816345
19,8,10.0097,-0.000305176,0.000305176,-2.42837,0.0550706,-0.0738423,0.0529073,0.0718859,-0.0952827,0.144098,-0.126987,-0.0847066,0.00862122,0.0216293,0.0189972,0.00926971,0.0201797,0.0110626,0.0230408,0.0180435,-9.97986,0.0141144,0.00202179,0.0137711,0.00766754,0.0147247,-0.00366211,0.0173187,0.00583649
19,9,10.0097,0.000610352,0.000152588,-2.42776,0.0559862,-0.0753682,0.0529073,0.0712755,-0.0931465,0.144708,-0.126072,-0.0844015,0.0114059,0.0242615,0.0192642,0.00862122,0.0187302,0.011673,0.0206757,0.019455,-9.97986,0.0157547,-0.000991821,0.015564,0.00392914,0.0181961,0.000305176,0.0152588,0.00461578
20,0,10.0097,0.000305176,0.000152588,-2.42623,0.0562914,-0.0747579,0.054128,0.0715807,-0.0928413,0.145929,-0.124241,-0.0828756,0.0118256,0.0219727,0.0189209,0.0150299,0.0222015,0.0104523,0.021019,0.0217438,-9.97986,0.0193024,-0.00347137,0.0153351,0.00549316,0.0172424,-0.00110626,0.0108719,0.00667572
20,1,10.0097,0.00183105,0.000305176,-2.42653,0.0559862,-0.0744527,0.0550435,0.0724962,-0.0928413,0.145624,-0.125766,-0.0819601,0.0134659,0.0228882,0.0221252,0.0127792,0.0172424,0.00827789,0.0214386,0.0210953,-9.97986,0.02388,-0.00411987,0.0154495,0.00534058,0.0179672,0.00137329,0.015831,0.0056076
20,2,10.0097,0.00183105,-0.000152588,-2.4244,0.0562914,-0.0744527,0.054128,0.0712755,-0.0925361,0.14837,-0.124546,-0.0816549,0.0126266,0.0170517,0.0171661,0.00980377,0.0185394,0.00961304,0.022583,0.0294495,-9.97986,0.0231171,-0.00427246,0.0157928,0.00682831,0.0206757,-0.000801086,0.0177765,0.00946045
20,3,10.0097,-0.00274658,-0.000610352,-2.42745,0.055681,-0.0753682,0.0513814,0.0370958,-0.0974189,0.145929,-0.126987,-0.0828756,0.0151062,0.0222778,0.0208664,0.010376,0.0162506,0.0112915,0.0210571,0.0257874,-9.97986,0.0224686,-0.00617981,0.0173569,0.00602722,0.018692,-0.00358582,0.018692,0.00587463
20,4,5.41432,0.00152588,-0.00366211,-2.42837,0.0565965,-0.075063,0.0522969,-0.0120375,-0.100471,0.145929,-0.13126,-0.0831808,0.0104141,0.0245285,0.0208282,0.0154877,0.0181961,0.0127029,0.0229645,0.0215912,-9.97986,0.0179672,-0.00766754,0.0144577,0.00370026,0.0163269,-0.0043869,0.0144958,0.00980377
20,5,-2.25047,0.000610352,-0.0038147,-2.4247,0.0572069,-0.0735371,0.0529073,-0.0147841,-0.0986396,0.145318,-0.129734,-0.0822652,0.010376,0.0173187,0.0196075,0.0127029,0.0149155,0.0102615,0.0173187,0.0232315,-9.97986,0.0161362,-0.00865936,0.0151825,0.00572205,0.0164795,-0.00255585,0.0159073,0.00530243
20,6,-9.99003,-0.00152588,-0.0050354,-2.4247,0.0572069,-0.0726216,0.0550435,-0.00318738,-0.0931465,0.148065,-0.128513,-0.0810445,0.01297,0.0257492,0.015831,0.0102615,0.0164032,0.0102234,0.0253296,0.0210571,-9.97986,0.0124359,-0.00808716,0.0142288,0.00740051,0.0194931,-0.00392914,0.0161362,0.00766754
20,7,-9.99003,0.00213623,-0.00305176,-2.42501,0.055681,-0.0738423,0.0556539,0.0230577,-0.0922309,0.146539,-0.128208,-0.0810445,0.0125504,0.0249481,0.022316,0.00904083,0.016861,0.0130463,0.0200272,0.0173187,-9.97986,0.0127792,-0.0110626,0.0154495,0.00606537,-0.00232697,3.8147e-005,0.0188828,0.0087738
20,8,-9.99003,-0.000610352,-0.00106812,-2.42501,0.0553758,-0.0741475,0.0550435,0.0511339,-0.0897895,0.145624,-0.126377,-0.0813497,0.0130463,0.0241852,0.0209045,0.0121307,0.0139999,0.0124359,0.0247192,0.0114059,-9.97986,0.00881195,-0.00415802,0.0133514,0.0062561,-0.00759125,-0.0018692,0.0163651,0.00656128
20,9,-9.99003,0.0012207,-0.000152588,-2.42714,0.0550706,-0.073232,0.0553487,0.0608995,-0.090705,0.146234,-0.126377,-0.0828756,0.00793457,0.0229645,0.0178528,0.0131226,0.0136566,0.00816345,0.0229263,0.00518799,-9.97986,0.0087738,-0.00602722,0.0136948,0.00217438,-0.00999451,-0.00610352,0.0156021,0.00400543
21,0,-9.99003,0.000610352,0.00137329,-2.42714,0.0550706,-0.0756734,0.0553487,0.0923326,-0.088874,0.145318,-0.124546,-0.0831808,0.0138855,0.026741,0.0226974,0.0180435,0.0201035,0.0165558,0.0248718,0.0115585,-9.97986,0.00869751,-0.00408173,0.0170135,0.00919342,0.0190353,0.00038147,0.0204468,0.00934601
21,1,-4.99186,0.000915527,0.0038147,-2.42653,0.0538499,-0.0753682,0.0553487,0.142076,-0.0867378,0.144708,-0.121494,-0.0847066,0.00663757,0.0197601,0.0153351,0.00476837,0.0133896,0.00701904,0.0174713,0.00713348,-9.97986,0.00305176,-0.00846863,0.00659943,0.00225067,0.010376,-0.00919342,0.0109863,0.00137329
21,2,2.20693,-0.000305176,0.00457764,-2.42837,0.0544603,-0.0747579,0.055959,0.153368,-0.0882636,0.143792,-0.121189,-0.0844015,0.010376,0.022583,0.0209808,0.0137711,0.0187302,0.0143051,0.0243378,0.0151443,-9.97986,0.0104904,0,0.0156403,0.0111771,0.0182724,0.000991821,0.0212097,0.00728607
21,3,9.52016,0.000305176,0.00442505,-2.42776,0.0544603,-0.0756734,0.0544332,0.15764,-0.0894843,0.143792,-0.120884,-0.0850118,0.0111389,0.0213623,0.0156021,0.0116348,0.0182343,0.00793457,0.0246429,0.013504,-9.97986,0.0133514,-0.00408173,0.0183868,0.0063324,0.0142288,-0.00183105,0.0136948,0.00617981
21,4,10.0097,0.000305176,0.00183105,-2.4305,0.0538499,-0.0771993,0.0495503,0.107286,-0.0971137,0.141961,-0.124851,-0.0889791,0.00823975,0.0256348,0.0201416,0.0120163,0.0157547,0.0110626,0.0246048,0.0147247,-9.97986,0.0118256,-0.00114441,0.0113678,0.00968933,0.013237,-0.00259399,0.0140381,0.00553131
21,5,10.0097,-0.000305176,0.000915527,-2.43081,0.0538499,-0.0759786,0.0501607,0.0843981,-0.0974189,0.142877,-0.126377,-0.0889791,0.0112534,0.0218964,0.018158,0.00938416,0.0123978,0.010376,0.0183868,0.0170898,-9.97986,0.0109863,0.000534058,0.0157547,0.00900269,0.00988007,-0.0044632,0.0171661,0.00675201
21,6,10.0097,-0.000915527,0,-2.43081,0.0535448,-0.0765889,0.0519917,0.077379,-0.0946723,0.143792,-0.126072,-0.0880636,0.0119019,0.0219727,0.0183868,0.0131989,0.0179291,0.0134277,0.0226212,0.0191498,-9.97986,0.0166321,0.00209808,0.0131226,0.0088501,0.0143051,0.000534058,0.0193787,0.00526428
21,7,10.0097,0.0012207,-0.000610352,-2.42806,0.0559862,-0.0765889,0.0526021,0.0728014,-0.0937568,0.145013,-0.127292,-0.0856222,0.00385284,0.021019,0.0197601,0.0123978,0.0174713,0.0102234,0.0243378,0.0154114,-9.97986,0.016098,0.00038147,0.0156403,0.00652313,0.0168228,0.00297546,0.0151062,0.00602722
21,8,10.0097,0.000305176,0.000305176,-2.42776,0.0532396,-0.0738423,0.0526021,0.0718859,-0.0955879,0.143792,-0.126072,-0.0856222,0.0102234,0.0236893,0.02285,0.0144196,0.0205994,0.0115204,0.0203323,0.0172043,-9.97986,0.01194,0.00339508,0.0177765,0.0105667,0.0156403,-0.000228882,0.0187302,0.00572205
21,9,10.0097,0.00183105,0.000305176,-2.42623,0.0550706,-0.075063,0.0538228,0.0712755,-0.0937568,0.144098,-0.126377,-0.0837911,0.00938416,0.02285,0.0223923,0.0128555,0.0152588,0.00850677,0.0202942,0.021286,-9.97986,0.0158691,-0.000457764,0.0172043,0.00743866,0.0115585,0.00270844,0.0180435,0.00434875
22,0,10.0097,0.000915527,0.000305176,-2.42745,0.0547655,-0.0738423,0.0535176,0.0706652,-0.0925361,0.145013,-0.124851,-0.0834859,0.0101471,0.021286,0.017128,0.00904083,0.0149155,0.00900269,0.0229645,0.0157166,-9.97986,0.0184631,0.00434875,0.0175858,0.00484467,0.013237,0.00190735,0.0143814,0.00343323
22,1,10.0097,0.000610352,-0.000457764,-2.42562,0.0562914,-0.0744527,0.054128,0.07036,-0.0916206,0.146234,-0.124851,-0.0822652,0.00644684,0.022316,0.0201035,0.0124741,0.0164413,0.0115967,0.0226974,0.0247192,-9.97986,0.0193405,0.00137329,0.0140762,0.0104523,0.0191498,0.00137329,0.0188446,0.00602722
22,2,10.0097,0.000610352,0.000152588,-2.42531,0.0562914,-0.0747579,0.0544332,0.0706652,-0.0925361,0.146844,-0.123935,-0.0810445,0.00766754,0.0236511,0.0187683,0.0142288,0.0175476,0.010643,0.0177002,0.0276184,-9.97986,0.0212479,0.00640869,0.014267,0.00247955,0.0205612,0.00312805,0.0188065,0.00862122
22,3,10.0097,0.00152588,-0.00106812,-2.42562,0.0559862,-0.0756734,0.0529073,0.037401,-0.0980293,0.145013,-0.126987,-0.0834859,0.00728607,0.0208282,0.0196457,0.0128555,0.0163269,0.0114822,0.0181198,0.0290298,-9.97986,0.0203323,0.00396729,0.0173187,0.00747681,0.0147247,-0.00144958,0.0159073,0.00724792
22,4,5.69509,0.000610352,-0.00457764,-2.42837,0.0565965,-0.0756734,0.0498555,-0.0117323,-0.100165,0.146844,-0.130649,-0.0837911,0.00751495,0.023613,0.0175858,0.0108337,0.0166321,0.0100708,0.0188446,0.0233459,-9.97986,0.0200272,0.00377655,0.0116348,0.00499725,0.0177765,-0.00179291,0.0110626,0.0069046
22,5,-2.10643,0.000305176,-0.0038147,-2.42531,0.0565965,-0.0738423,0.054128,-0.0147841,-0.0977241,0.145929,-0.130649,-0.0822652,0.0087738,0.0269318,0.0193024,0.0123215,0.0151062,0.00720978,0.0247574,0.0214386,-9.97986,0.0191879,0.00404358,0.0142288,0.00522614,0.0133896,0.00125885,0.011673,0.0044632
22,6,-9.99003,0,-0.0050354,-2.42409,0.0565965,-0.0747579,0.0550435,-0.00257703,-0.0949775,0.147149,-0.127903,-0.0807394,0.00652313,0.0254059,0.0156784,0.00926971,0.0152588,0.0118256,0.0251389,0.0215912,-9.97986,0.0142288,-7.62939e-005,0.0128555,0.00766754,0.0177002,-0.00133514,0.0181198,0.00476837
22,7,-9.99003,0.000915527,-0.00228882,-2.42592,0.055681,-0.0744527,0.0553487,0.0242784,-0.0922309,0.145624,-0.127598,-0.0807394,0.00926971,0.0237274,0.0173569,0.0101471,0.016861,0.0130463,0.0213242,0.0195313,-9.97986,0.0134659,0.0012207,0.0208282,0.00667572,-0.00263214,-0.00240326,0.0172043,0.00778198
22,8,-9.99003,-0.000610352,-0.00152588,-2.42501,0.0553758,-0.0738423,0.0550435,0.0499132,-0.0903999,0.145929,-0.126987,-0.0816549,0.00671387,0.0230408,0.015831,0.00904083,0.0180054,0.0107193,0.0217056,0.010643,-9.97986,0.0105286,-0.00133514,0.0133514,0.00961304,-0.00846863,3.8147e-005,0.0175476,0.00793457
22,9,-9.99003,-0.000305176,0.000152588,-2.42592,0.0550706,-0.0747579,0.0547383,0.0615099,-0.0919257,0.144403,-0.125156,-0.0822652,0.0107574,0.0218582,0.0152588,0.00846863,0.0146103,0.00762939,0.0215912,0.0103378,-9.97986,0.0056839,-0.00637054,0.0138092,0.00980377,-0.00732422,-0.00183105,0.0153351,0.00350952
23,0,-9.99003,0.000915527,0.00106812,-2.42592,0.0550706,-0.0747579,0.0547383,0.0926378,-0.0879585,0.145318,-0.125461,-0.0825704,0.00595093,0.0242615,0.0180435,0.013504,0.0116348,0.00850677,0.0249863,0.00850677,-9.97986,0.00869751,-0.00209808,0.0139236,0.00247955,0.017395,-0.00171661,0.0150681,0.00751495
23,1,-4.65434,0,0.00396729,-2.42623,0.0535448,-0.0747579,0.0547383,0.141771,-0.0867378,0.142572,-0.121799,-0.0834859,0.0088501,0.0248337,0.0172806,0.00930786,0.0171661,0.0143051,0.0208282,0.0152588,-9.97986,0.0124359,-0.00213623,0.0130463,0.00587463,0.0157547,-0.00591278,0.0162888,0.00350952
23,2,2.52034,0.000305176,0.00427246,-2.42837,0.0538499,-0.0756734,0.0553487,0.155504,-0.0885688,0.143792,-0.121189,-0.0850118,0.0101852,0.0204086,0.0173187,0.00564575,0.0163651,0.00831604,0.0215912,0.0161743,-9.97986,0.0107956,-0.00411987,0.0134659,0.00427246,0.0153732,-0.0038147,0.0131226,0.00610352
23,3,9.82564,-0.000915527,0.00442505,-2.42806,0.0535448,-0.075063,0.0526021,0.15703,-0.0894843,0.144098,-0.121189,-0.085317,0.013237,0.0247955,0.0192642,0.0104523,0.0115967,0.0104904,0.021019,0.0192642,-9.97986,0.014534,0.00175476,0.0120544,0.0069809,0.0157547,-0.00549316,0.0151062,0.00728607
23,4,10.0097,0.000915527,0.00228882,-2.43081,0.0529344,-0.0765889,0.0498555,0.10515,-0.0977241,0.143792,-0.126072,-0.0889791,0.0116348,0.0244522,0.0167084,0.0124359,0.0182724,0.01091,0.0248718,0.0181198,-9.97986,0.0138474,-0.000724792,0.0172424,0.00587463,0.0147629,-0.00102997,0.0140762,0.00488281
23,5,10.0097,0,0.000610352,-2.42959,0.0550706,-0.0765889,0.050771,0.0834825,-0.0965034,0.142877,-0.126072,-0.0877584,0.0108337,0.0242233,0.0201416,0.0155258,0.0152206,0.00999451,0.0242996,0.0118256,-9.97986,0.0117874,-0.000534058,0.0157928,0.00534058,0.0193405,-0.00278473,0.0185013,0.00427246
23,6,10.0097,0.00152588,0.000305176,-2.42837,0.0538499,-0.0756734,0.0513814,0.075548,-0.0961982,0.144098,-0.126072,-0.0877584,0.0102615,0.0189972,0.0174713,0.00961304,0.0120926,0.0122833,0.0201416,0.0222015,-9.97986,0.0131226,-0.00110626,0.0165558,0.00656128,0.0152206,-0.0019455,0.0146484,0.00434875
23,7,10.0097,0.000305176,-0.000305176,-2.42837,0.0535448,-0.0762837,0.0526021,0.0734117,-0.0955879,0.145013,-0.126377,-0.0859274,0.00892639,0.0227356,0.0200653,0.0136948,0.0173187,0.0100708,0.0239944,0.0172806,-9.97986,0.0152969,-0.00484467,0.0153732,0.00923157,0.0131989,0.00335693,0.0177765,0.00846863
23,8,10.0097,0.00152588,0.000305176,-2.42745,0.0547655,-0.0765889,0.0526021,0.0712755,-0.0937568,0.144708,-0.126072,-0.0844015,0.0082016,0.0232697,0.0186157,0.0128555,0.0178909,0.0088501,0.0218582,0.0185776,-9.97986,0.0107193,0.00152588,0.0122452,0.00766754,0.0177383,-0.000610352,0.0153732,0.00923157
23,9,10.0097,0.000305176,0,-2.42684,0.0553758,-0.0747579,0.0516866,0.0709703,-0.0925361,0.145318,-0.126072,-0.0850118,0.00904083,0.0228119,0.0186539,0.0114822,0.0123978,0.00579834,0.0228119,0.0190353,-9.97986,0.0156784,-0.00320435,0.0149536,0.00465393,0.0127411,-0.00137329,0.0186539,0.00583649
24,0,10.0097,-0.000610352,0.000457764,-2.42623,0.0541551,-0.0747579,0.054128,0.0709703,-0.0931465,0.145929,-0.125461,-0.0825704,0.00812531,0.0258255,0.0173187,0.0172424,0.0164795,0.0108337,0.0218582,0.0211716,-9.97986,0.0181961,-0.00511169,0.0107574,0.00587463,0.0157928,-0.00286102,0.0162506,0.00679016
24,1,10.0097,0.0012207,-0.000457764,-2.42501,0.055681,-0.073232,0.0556539,0.0718859,-0.0919257,0.146234,-0.124546,-0.0819601,0.00686646,0.0182724,0.0194168,0.00919342,0.0172043,0.00972748,0.0242996,0.0261688,-9.97986,0.0190735,-0.000495911,0.00988007,0.00831604,0.0176239,0.0025177,0.0162506,0.00453949
24,2,10.0097,0.000305176,0,-2.42592,0.0562914,-0.0729268,0.0550435,0.0712755,-0.0916206,0.146539,-0.124241,-0.0810445,0.0154114,0.0257111,0.0183487,0.0140762,0.0197983,0.0138855,0.0231171,0.0275803,-9.97986,0.0167847,0.00259399,0.0149918,0.00556946,0.0188828,-0.00286102,0.0156784,0.00511169
24,3,10.0097,-0.00366211,-0.000915527,-2.42653,0.055681,-0.0741475,0.0526021,0.0352648,-0.0971137,0.144403,-0.126377,-0.0837911,0.00961304,0.0292969,0.0148773,0.0118637,0.0159836,0.013504,0.0247955,0.0222015,-9.97986,0.0201797,-0.00183105,0.0136948,0.0043869,0.0187302,-0.00495911,0.0189972,0.0124359
24,4,5.27761,-0.000610352,-0.00366211,-2.42837,0.0562914,-0.0747579,0.0516866,-0.0123427,-0.100471,0.146234,-0.130344,-0.0837911,0.0131607,0.0239563,0.0199509,0.0141525,0.015564,0.0112915,0.0201416,0.022316,-9.97986,0.0205231,0.00205994,0.0140762,0.00457764,0.0197601,-0.0043869,0.0166321,0.0088501
24,5,-2.42442,-0.000915527,-0.00411987,-2.42592,0.0569017,-0.073232,0.0535176,-0.0141737,-0.0977241,0.146844,-0.130649,-0.0822652,0.00549316,0.0229263,0.0170135,0.00904083,0.0166321,0.0125885,0.0217438,0.0225067,-9.97986,0.0231171,-0.00152588,0.0139618,0.00724792,0.022049,-0.00553131,0.0136948,0.00835419
24,6,-9.99003,-0.000305176,-0.00488281,-2.42409,0.0559862,-0.0735371,0.0550435,-0.0028822,-0.0943672,0.14776,-0.128513,-0.0807394,0.00789642,0.0229263,0.015564,0.0134277,0.0133514,0.0141144,0.0194168,0.0183105,-9.97986,0.0197983,0.000610352,0.0159836,0.00511169,0.0182724,-0.00320435,0.014267,0.00766754
24,7,-9.99003,0,-0.00213623,-2.42501,0.0547655,-0.0738423,0.0547383,0.025194,-0.0922309,0.145929,-0.126377,-0.0807394,0.00888824,0.0242996,0.0180817,0.0143433,0.0146103,0.00957489,0.0240326,0.0136185,-9.97986,0.0125122,-0.000343323,0.0121307,0.00480652,-0.00114441,-0.000457764,0.0163651,0.00789642
24,8,-9.99003,0.000610352,-0.000457764,-2.42562,0.0559862,-0.0747579,0.0553487,0.0511339,-0.0894843,0.145318,-0.126987,-0.0810445,0.0118256,0.0250244,0.0214386,0.0157547,0.017662,0.0103378,0.0214005,0.00926971,-9.97986,0.0125885,-0.00217438,0.0150681,0.00724792,-0.00419617,-0.00274658,0.0154114,0.00782013
24,9,-9.99003,0.000610352,-0.000610352,-2.42714,0.0550706,-0.0735371,0.054128,0.0621202,-0.0916206,0.146234,-0.125766,-0.0831808,0.00873566,0.0218582,0.0178146,0.0147629,0.0136948,0.013237,0.0240326,0.00728607,-9.97986,0.00812531,-0.00442505,0.0159836,0.00717163,-0.0130844,-0.00331879,0.0146103,0.00610352
25,0,-9.99003,0.000610352,0.000610352,-2.42653,0.0559862,-0.0759786,0.0547383,0.0923326,-0.088874,0.146234,-0.124546,-0.0819601,0.010643,0.0247574,0.0190353,0.0141144,0.0172424,0.0088501,0.0203323,0.00610352,-9.97986,0.00648499,-0.00305176,0.0156403,0.00682831,0.0174713,0.000495911,0.0167465,0.00587463
25,1,-4.66502,0.000915527,0.00427246,-2.42745,0.0535448,-0.0756734,0.0550435,0.141161,-0.0870429,0.144708,-0.122104,-0.0840963,0.0139236,0.0201797,0.0165939,0.0117874,0.0182724,0.0075531,0.0178909,0.00797272,-9.97986,0.0101471,-0.00228882,0.0173187,0.00614166,0.0168228,-0.00274658,0.0162125,0.0050354
25,2,2.59358,0.0012207,0.00457764,-2.42806,0.0544603,-0.0753682,0.0544332,0.155504,-0.0882636,0.144403,-0.121189,-0.0850118,0.00591278,0.0185013,0.0131607,0.0132751,0.0147629,0.0101852,0.0237274,0.0152206,-9.97986,0.0101089,-0.00240326,0.0140762,0.00812531,0.0183868,-0.00114441,0.017128,0.0050354
25,3,9.96022,0.00152588,0.00457764,-2.42714,0.0529344,-0.0765889,0.0544332,0.157335,-0.0900947,0.143792,-0.121189,-0.0850118,0.00816345,0.0184631,0.0168228,0.0138092,0.0163651,0.0117874,0.0189209,0.0142288,-9.97986,0.0137329,0.000762939,0.0132751,0.00801086,0.0167465,-0.00183105,0.0159073,0.00801086
25,4,10.0097,0.000305176,0.00228882,-2.43081,0.0532396,-0.0768941,0.0504659,0.10515,-0.09925,0.142572,-0.126377,-0.0892843,0.0131989,0.0238037,0.0216675,0.0128555,0.0160599,0.0115204,0.0236511,0.0120544,-9.97986,0.0147629,-0.00267029,0.0142288,0.0038147,0.0150681,0.000495911,0.0159454,0.00537872
25,5,10.0097,-0.000915527,0.000610352,-2.42989,0.0541551,-0.0765889,0.0501607,0.0843981,-0.0974189,0.143792,-0.126682,-0.0877584,0.00514984,0.0237656,0.0185394,0.00923157,0.0182343,0.00720978,0.0191498,0.0190735,-9.97986,0.0149155,-0.00495911,0.0139618,0.00469208,0.01297,0.001297,0.0145721,0.00354767
25,6,10.0097,0,-0.000152588,-2.42959,0.0535448,-0.0753682,0.0532125,0.0761583,-0.095893,0.143182,-0.126377,-0.0874532,0.0102615,0.0220108,0.0158691,0.0102234,0.0149155,0.00392914,0.0188828,0.0162506,-9.97986,0.0147247,-0.00133514,0.0108337,0.00385284,0.0168228,-0.00125885,0.0159836,0.00549316
25,7,10.0097,-0.00152588,-0.000152588,-2.42776,0.0550706,-0.0753682,0.0519917,0.0718859,-0.0952827,0.144708,-0.126987,-0.0865377,0.0088501,0.0213242,0.0179672,0.0156021,0.0174713,0.00980377,0.022049,0.0187302,-9.97986,0.0152588,-0.00133514,0.0110626,0.00389099,0.0151825,-0.00232697,0.0128937,0.00534058
25,8,10.0097,-0.000610352,-0.000610352,-2.42745,0.0553758,-0.075063,0.0538228,0.0712755,-0.094062,0.145929,-0.126072,-0.0837911,0.0107956,0.0235367,0.0182343,0.0117111,0.0156021,0.0113297,0.0230789,0.0170898,-9.97986,0.0223541,0.000343323,0.00972748,0.00774384,0.0186539,-0.00221252,0.0156021,0.00663757
25,9,10.0097,0.000915527,0.000457764,-2.42714,0.0538499,-0.0744527,0.0538228,0.0715807,-0.0922309,0.144403,-0.126682,-0.0840963,0.00835419,0.0186539,0.0180054,0.0144577,0.0205994,0.00709534,0.0238037,0.0169373,-9.97986,0.0181961,0.00537872,0.00980377,0.0094986,0.0174713,-0.000610352,0.017395,0.00606537
26,0,10.0097,0.00152588,-0.000610352,-2.42684,0.0553758,-0.0741475,0.054128,0.07036,-0.0946723,0.145318,-0.126072,-0.0828756,0.00396729,0.0211716,0.0185394,0.0112915,0.0181198,0.00904083,0.0212479,0.0217438,-9.97986,0.0180435,-0.001297,0.0101852,0.00411987,0.0159454,-0.00411987,0.0168991,0.00263214
26,1,10.0097,0.000915527,0.000457764,-2.42592,0.0559862,-0.0747579,0.0553487,0.0709703,-0.0913154,0.146844,-0.124546,-0.0813497,0.00976563,0.0278473,0.0193787,0.0136185,0.019722,0.0104523,0.0223541,0.028801,-9.97986,0.022049,-0.000953674,0.0142288,0.00411987,0.018692,-0.000648499,0.0144196,0.00629425
26,2,10.0097,-0.000305176,-0.000305176,-2.42501,0.0562914,-0.0735371,0.0547383,0.072191,-0.090705,0.146844,-0.123935,-0.0810445,0.0082016,0.0252533,0.0183487,0.0157547,0.0149536,0.0120544,0.02388,0.0286102,-9.97986,0.017395,0.00259399,0.0128555,0.00461578,0.0216293,-0.00286102,0.0156403,0.00938416
26,3,10.0097,0,-0.000610352,-2.42837,0.0553758,-0.075063,0.0526021,0.0349596,-0.0974189,0.146234,-0.128818,-0.0831808,0.0101471,0.0247955,0.0143814,0.0144196,0.0138474,0.00881195,0.0218964,0.0274277,-9.97986,0.0251007,-0.00232697,0.0130463,0.00679016,0.0185013,-0.00431061,0.013237,0.00644684
26,4,5.35054,0.000305176,-0.00350952,-2.42714,0.0559862,-0.0744527,0.0513814,-0.0135634,-0.0998603,0.145318,-0.130344,-0.0834859,0.0118637,0.0242996,0.0204086,0.0133133,0.0188446,0.0106049,0.0235748,0.0244141,-9.97986,0.0230026,-0.000114441,0.0143051,0.00804901,0.0205231,-0.00183105,0.0189972,0.00686646
26,5,-2.41252,0,-0.00366211,-2.42684,0.0562914,-0.0747579,0.0529073,-0.0141737,-0.0974189,0.146234,-0.130344,-0.0819601,0.00793457,0.0233078,0.0151062,0.0113678,0.0115967,0.0154114,0.0210571,0.0251389,-9.97986,0.0190735,-0.00545502,0.0125885,0.00141144,0.0180817,-0.00297546,0.0184631,0.00904083
26,6,-9.99003,-0.000610352,-0.0050354,-2.42501,0.0575121,-0.0729268,0.0556539,0.000169553,-0.094062,0.146539,-0.129123,-0.0810445,0.0104141,0.0231552,0.0177765,0.0136185,0.0211334,0.00896454,0.0235367,0.0223541,-9.97986,0.0175858,-0.00450134,0.0132751,0.00644684,0.0205994,-0.00118256,0.0168228,0.00522614
26,7,-9.99003,0.00183105,-0.00289917,-2.4247,0.055681,-0.0738423,0.054128,0.0245836,-0.0919257,0.145929,-0.126987,-0.080129,0.00843048,0.0201797,0.0198364,0.0110245,0.020752,0.0121689,0.0217438,0.0147629,-9.97986,0.0169754,-0.00156403,0.0104141,0.00556946,0.001297,-0.00354767,0.0171661,0.00831604
26,8,-9.99003,-0.000305176,-0.00198364,-2.42531,0.0562914,-0.0741475,0.0565694,0.0502184,-0.0916206,0.145624,-0.126682,-0.0822652,0.00431061,0.0238419,0.0168991,0.0157547,0.0191879,0.0133514,0.0193024,0.0140762,-9.97986,0.00740051,-0.00339508,0.0126648,0.00522614,-0.0113297,-0.000801086,0.0139236,0.00640869
26,9,-9.99003,0.000305176,-0.000305176,-2.42592,0.0562914,-0.075063,0.0547383,0.0630358,-0.0903999,0.145929,-0.126072,-0.0831808,0.00888824,0.0242996,0.0186157,0.012207,0.0167847,0.0107574,0.0183487,0.0112152,-9.97986,0.00499725,-0.00240326,0.0138855,0.00331879,-0.0163651,-0.00118256,0.016861,0.00480652
27,0,-9.99003,0.000305176,0.00152588,-2.42623,0.0559862,-0.0744527,0.0553487,0.0932482,-0.0882636,0.146539,-0.123935,-0.0831808,0.0044632,0.0248337,0.0184631,0.0133896,0.0193024,0.0128937,0.0193024,0.00785828,-9.97986,0.0111008,0.000190735,0.0149536,0.00892639,0.0174713,-0.00209808,0.0183868,0.0082016
27,1,-4.50267,0.000305176,0.00442505,-2.42745,0.0538499,-0.075063,0.054128,0.139635,-0.0861274,0.144098,-0.121494,-0.0834859,0.0101471,0.0198364,0.0186157,0.0149918,0.0175095,0.0100708,0.0233841,0.0141525,-9.97986,0.012207,0.00183105,0.0132751,0.00858307,0.0153732,-0.00366211,0.0143433,0.00564575
27,2,2.70284,0,0.00457764,-2.42806,0.0547655,-0.0762837,0.0553487,0.153978,-0.0885688,0.144708,-0.120884,-0.0847066,0.0129318,0.0190735,0.0188065,0.0117493,0.0181961,0.0114441,0.0224304,0.0146866,-9.97986,0.0112534,-0.000839233,0.00984192,0.00549316,0.0146103,-0.00663757,0.0164795,0.0075531
27,3,9.94985,0.0012207,0.00350952,-2.42776,0.0544603,-0.0765889,0.0526021,0.15764,-0.0891792,0.145013,-0.120884,-0.0850118,0.00995636,0.0247955,0.018425,0.0121689,0.0222015,0.00732422,0.0228119,0.0119019,-9.97986,0.0136566,0.00541687,0.00957489,0.00961304,0.0178909,-0.00534058,0.0197983,0.0044632
27,4,10.0097,0.0012207,0.00198364,-2.43142,0.0517137,-0.0765889,0.0504659,0.10454,-0.0974189,0.142572,-0.125766,-0.0892843,0.00953674,0.0200653,0.0191116,0.0128937,0.0216675,0.0102615,0.025444,0.0129318,-9.97986,0.015564,-0.00354767,0.00991821,0.00476837,0.0112915,-0.00514984,0.0174713,0.00572205
27,5,10.0097,0.00183105,0.000457764,-2.4302,0.0541551,-0.0753682,0.0513814,0.0840929,-0.0965034,0.143182,-0.126072,-0.0886739,0.0108337,0.0225067,0.0185394,0.0114822,0.0210953,0.0147629,0.019455,0.0146103,-9.97986,0.0108337,0.0030899,0.0113678,0.00453949,0.0154877,-0.00202179,0.014267,0.00537872
27,6,10.0097,0.00183105,0.000762939,-2.42837,0.0550706,-0.0762837,0.0522969,0.0761583,-0.0955879,0.144098,-0.127292,-0.0871481,0.0145721,0.0241089,0.0183105,0.0129318,0.0184631,0.0104141,0.0201035,0.0156784,-9.97986,0.0141907,0.00209808,0.0113678,0.00377655,0.0139618,-0.00453949,0.0168991,0.00572205
27,7,10.0097,0.000610352,-0.000762939,-2.42837,0.0547655,-0.0756734,0.0529073,0.0728014,-0.0943672,0.144403,-0.125461,-0.0856222,0.00873566,0.0241089,0.0178528,0.00915527,0.0172806,0.00793457,0.0208282,0.0143051,-9.97986,0.0167084,-0.00476837,0.0157928,0.00713348,0.016861,-0.00461578,0.0160217,0.00659943
27,8,10.0097,0.000305176,-0.000152588,-2.42776,0.0550706,-0.0753682,0.0529073,0.0712755,-0.0937568,0.145013,-0.126377,-0.085317,0.0138855,0.0209427,0.0207138,0.0123978,0.0173569,0.00797272,0.0259399,0.016098,-9.97986,0.0164413,0.00221252,0.0141907,0.00545502,0.0174713,-0.00347137,0.0136185,0.00801086
27,9,10.0097,0.000915527,0.000305176,-2.42623,0.0547655,-0.0747579,0.0532125,0.0697496,-0.0922309,0.145013,-0.126377,-0.0837911,0.0125122,0.0245285,0.0229263,0.0088501,0.0151062,0.0136566,0.0232315,0.0175858,-9.97986,0.0182343,0.000228882,0.0146484,0.00720978,0.0160217,-0.00659943,0.0152206,0.00602722
28,0,10.0097,0.000305176,0.000152588,-2.42653,0.0553758,-0.0738423,0.0544332,0.0700548,-0.0943672,0.145318,-0.124241,-0.0837911,0.016861,0.0263214,0.0187302,0.0152588,0.0173569,0.0143051,0.0206375,0.0196838,-9.97986,0.0203323,0.000801086,0.0118637,0.0037384,0.0152588,-0.00419617,0.0138092,0.0050354
28,1,10.0097,0,0,-2.42562,0.0565965,-0.0747579,0.0544332,0.0718859,-0.0922309,0.145318,-0.124241,-0.0813497,0.0123978,0.0247955,0.0214005,0.0145721,0.0183487,0.00907898,0.0209045,0.0256729,-9.97986,0.0193787,0.000343323,0.0137329,0.00595093,0.0174332,-0.00389099,0.0126648,0.00442505
28,2,10.0097,0.000610352,0.000610352,-2.42562,0.0559862,-0.073232,0.0538228,0.0715807,-0.0919257,0.147149,-0.123935,-0.0816549,0.00862122,0.0237656,0.0213242,0.0115967,0.0220108,0.0107956,0.0228882,0.0289917,-9.97986,0.0219727,-0.00286102,0.0109482,0.0063324,0.0192642,-0.00770569,0.0167465,0.00740051
28,3,10.0097,-0.000610352,-0.0012207,-2.42776,0.0553758,-0.0753682,0.0522969,0.0343492,-0.09925,0.145318,-0.127292,-0.0834859,0.0136185,0.020256,0.018959,0.00839233,0.0183105,0.0148392,0.0206375,0.0251007,-9.97986,0.0200272,0.00133514,0.0119019,0.00778198,0.0157166,-0.00736237,0.0134277,0.00938416
28,4,5.22206,0.000305176,-0.00366211,-2.42714,0.0559862,-0.0747579,0.0513814,-0.0135634,-0.101081,0.146844,-0.130954,-0.0837911,0.0123978,0.0240707,0.0204849,0.0122833,0.0207901,0.0140381,0.0231552,0.025177,-9.97986,0.0213623,-0.00175476,0.0131607,0.00514984,0.0159073,-0.00350952,0.0156784,0.00740051
28,5,-2.51262,-0.000305176,-0.00473022,-2.42623,0.0562914,-0.0738423,0.0535176,-0.0163099,-0.0974189,0.146844,-0.130039,-0.0822652,0.00926971,0.024147,0.0194168,0.0106049,0.0199509,0.0120163,0.0236893,0.0239563,-9.97986,0.0210953,-0.00328064,0.0144958,0.00289917,0.0205231,-0.00247955,0.0153351,0.00659943
28,6,-9.99003,0.00152588,-0.00427246,-2.4244,0.0569017,-0.0738423,0.0556539,-0.000745974,-0.0946723,0.147149,-0.129123,-0.0810445,0.012207,0.0256729,0.0189209,0.00846863,0.021553,0.00743866,0.0201416,0.0210953,-9.97986,0.0175858,-0.000953674,0.0151825,0.00614166,0.0141144,-0.00545502,0.0157928,0.0102615
28,7,-9.99003,0.0012207,-0.00228882,-2.4247,0.0559862,-0.0735371,0.0562642,0.0242784,-0.0910102,0.147149,-0.127292,-0.0813497,0.0101471,0.0247955,0.0214386,0.0151825,0.0195313,0.011673,0.0182724,0.0157928,-9.97986,0.0156021,-0.0043869,0.0131989,0.00804901,-0.0062561,-0.00198364,0.0158691,0.00827789
28,8,-9.99003,0.000305176,-0.00137329,-2.42623,0.0550706,-0.0744527,0.0550435,0.0517443,-0.0913154,0.146234,-0.127598,-0.0810445,0.0094223,0.0244904,0.0206375,0.0111389,0.0209045,0.01091,0.0242996,0.0111008,-9.97986,0.0075531,-0.000419617,0.0152969,0.00770569,-0.00988007,-0.00198364,0.0173187,0.00686646
28,9,-9.99003,-0.000305176,0.000152588,-2.42714,0.0553758,-0.075063,0.0550435,0.0602892,-0.0913154,0.145013,-0.125766,-0.0825704,0.00843048,0.0231934,0.0215149,0.00873566,0.0170517,0.0101852,0.0198746,0.00766754,-9.97986,0.00846863,0.00152588,0.0155258,0.00522614,-0.0101089,-0.00198364,0.0107574,0.00476837
29,0,-9.99003,0,0.00106812,-2.42714,0.0553758,-0.0738423,0.0553487,0.092943,-0.0879585,0.145318,-0.123935,-0.0828756,0.00907898,0.0244141,0.0164413,0.00961304,0.0151443,0.00873566,0.0177002,0.00827789,-9.97986,0.0075531,7.62939e-005,0.014801,0.00724792,0.0139236,-0.0030899,0.0117493,0.00469208
29,1,-4.44804,0.00366211,0.0038147,-2.42653,0.0538499,-0.0753682,0.0547383,0.138109,-0.0876533,0.145318,-0.12241,-0.0837911,0.00846863,0.0271225,0.0173187,0.010643,0.021553,0.0104523,0.0178528,0.00694275,-9.97986,0.0128555,-0.00125885,0.0139236,0.00919342,0.0167465,-0.00221252,0.0170135,0.0050354
29,2,2.66561,0.000610352,0.00427246,-2.42714,0.0535448,-0.0759786,0.0553487,0.154283,-0.0885688,0.142877,-0.120273,-0.0844015,0.0133133,0.0256348,0.017662,0.0102234,0.0169754,0.0113297,0.024147,0.0121307,-9.97986,0.0114059,-0.000839233,0.0151825,0.00736237,0.0138474,-0.00423431,0.0165939,0.00621796
29,3,9.94191,-0.000305176,0.00427246,-2.42867,0.0532396,-0.0753682,0.0535176,0.15703,-0.0897895,0.143792,-0.120884,-0.085317,0.00999451,0.0273132,0.0202942,0.0105286,0.019455,0.0113678,0.0196838,0.0123978,-9.97986,0.0134277,-0.00087738,0.0139618,0.00545502,0.0143433,-0.00480652,0.017662,0.00495911
29,4,10.0097,0.00152588,0.00198364,-2.43111,0.0535448,-0.0762837,0.0504659,0.103624,-0.0971137,0.141351,-0.125766,-0.0889791,0.0109863,0.0278473,0.0193405,0.0123215,0.0177765,0.0112534,0.0196838,0.0127792,-9.97986,0.0127029,0.00171661,0.01297,0.00602722,0.0168991,-0.00377655,0.0152206,0.00610352
29,5,10.0097,0.000305176,0.00106812,-2.42898,0.0529344,-0.0762837,0.0513814,0.0840929,-0.095893,0.143182,-0.126072,-0.0883688,0.0114822,0.0218582,0.0205994,0.0134277,0.0183868,0.00892639,0.0210953,0.0139236,-9.97986,0.0119781,-0.00179291,0.0125885,0.00789642,0.0175476,-0.000762939,0.013237,0.00972748
29,6,10.0097,0.00213623,-0.000610352,-2.42928,0.0541551,-0.0778096,0.0510762,0.0749376,-0.095893,0.144708,-0.126682,-0.0865377,0.0102615,0.0266266,0.0184631,0.00915527,0.0172424,0.00976563,0.0194931,0.015564,-9.97986,0.0160217,0.00137329,0.0147247,0.00396729,0.0184631,-0.00411987,0.0161743,0.0063324
29,7,10.0097,0,0.000305176,-2.42837,0.0544603,-0.075063,0.0529073,0.0724962,-0.0952827,0.144708,-0.126682,-0.085317,0.0106812,0.0258636,0.019722,0.0109482,0.0217056,0.0125885,0.0226974,0.0191116,-9.97986,0.0167847,0.000152588,0.0141907,0.00846863,0.0164032,-0.000228882,0.0136948,0.00354767
29,8,10.0097,0,-0.000152588,-2.42837,0.0547655,-0.075063,0.0532125,0.0706652,-0.0934516,0.144403,-0.126377,-0.0847066,0.0104523,0.0266647,0.0210953,0.00846863,0.0141525,0.0117874,0.0214005,0.011673,-9.97986,0.0177765,-0.00267029,0.0125504,0.00576019,0.018158,-0.00244141,0.0178909,0.00572205
29,9,10.0097,0.0012207,0,-2.42684,0.0547655,-0.0747579,0.0535176,0.0700548,-0.0937568,0.144098,-0.125766,-0.0850118,0.0121307,0.0249863,0.0206757,0.0123978,0.0211716,0.0127029,0.0239944,0.0217819,-9.97986,0.0157166,-0.00236511,0.0154877,0.00862122,0.0167084,-0.00331879,0.0160217,0.00564575
30,0,10.0097,0.000915527,0.000305176,-2.42623,0.055681,-0.0741475,0.0535176,0.0697496,-0.0934516,0.146234,-0.124851,-0.0834859,0.0127792,0.0232697,0.0240326,0.0101089,0.02285,0.0111771,0.0209427,0.0207138,-9.97986,0.0186539,-0.00385284,0.0102615,0.00396729,0.0189972,-0.00377655,0.0164795,0.00980377
30,1,10.0097,0.000305176,0.000915527,-2.42653,0.0553758,-0.075063,0.0538228,0.0728014,-0.0913154,0.147455,-0.123935,-0.0816549,0.0138474,0.0269699,0.02285,0.0114822,0.0172043,0.0117111,0.0246048,0.0275421,-9.97986,0.0178909,-0.00545502,0.0123978,0.00591278,0.0199127,-0.0025177,0.0164795,0.00907898
30,2,10.0097,-0.000610352,-0.000305176,-2.42531,0.0559862,-0.0735371,0.0550435,0.0728014,-0.0900947,0.146234,-0.123935,-0.0807394,0.00839233,0.022583,0.0196838,0.0150299,0.0197983,0.0112915,0.0264359,0.026474,-9.97986,0.0209808,-0.00328064,0.00953674,0.0087738,0.0201035,-0.00125885,0.0159836,0.00595093
30,3,10.0097,-0.000610352,-0.0012207,-2.42714,0.0565965,-0.0753682,0.0516866,0.0334337,-0.0977241,0.145013,-0.126987,-0.0819601,0.0123596,0.0236511,0.0192642,0.0108337,0.0158691,0.00694275,0.0276566,0.0224304,-9.97986,0.0268173,-0.00198364,0.0167847,0.0069046,0.018425,-0.00213623,0.0177383,0.00907898
30,4,4.92696,-0.000305176,-0.00366211,-2.42714,0.0562914,-0.0747579,0.0516866,-0.0141737,-0.101081,0.147455,-0.130039,-0.0834859,0.0123596,0.0245667,0.020256,0.0104904,0.0156784,0.0143433,0.0246048,0.02285,-9.97986,0.0212479,-0.00293732,0.0139618,0.00347137,0.015564,-0.00297546,0.0130844,0.00579834
30,5,-2.70976,-0.000305176,-0.00427246,-2.42531,0.0562914,-0.0735371,0.0535176,-0.0150892,-0.0977241,0.145318,-0.130039,-0.0828756,0.0113297,0.018692,0.0183868,0.00930786,0.0157928,0.0125122,0.0226974,0.0234604,-9.97986,0.0200653,-0.00205994,0.0159454,0.00934601,0.0161743,0.00110626,0.0147247,0.00904083
30,6,-9.99003,0.0012207,-0.00396729,-2.42501,0.0572069,-0.0729268,0.0547383,-0.000745974,-0.0934516,0.14776,-0.128818,-0.080129,0.0126266,0.0246429,0.0205612,0.0110626,0.01297,0.0141144,0.019722,0.021019,-9.97986,0.0206757,0.00144958,0.0123215,0.0087738,0.0181961,-0.00202179,0.0156021,0.00492096
30,7,-9.99003,-0.000610352,-0.00198364,-2.42531,0.0572069,-0.073232,0.0556539,0.0248888,-0.0913154,0.147149,-0.128513,-0.0807394,0.00991821,0.0285339,0.0231171,0.0115967,0.0165939,0.0128937,0.0183868,0.016861,-9.97986,0.0129318,-0.00228882,0.0143433,0.00488281,-0.00396729,-0.000762939,0.0129318,0.00724792
30,8,-9.99003,0.0012207,-0.000610352,-2.42562,0.0562914,-0.0744527,0.0556539,0.0508287,-0.0897895,0.145624,-0.126377,-0.0822652,0.011673,0.0230408,0.0165558,0.00953674,0.0182724,0.00923157,0.0255585,0.0101089,-9.97986,0.00534058,0.000305176,0.0151825,0.00904083,-0.00774384,0.000801086,0.0106049,0.00453949
30,9,-9.99003,0.000610352,-0.000152588,-2.42623,0.0553758,-0.075063,0.0547383,0.0602892,-0.0919257,0.146539,-0.126377,-0.0819601,0.00988007,0.0232697,0.0151825,0.0101471,0.0138855,0.0063324,0.0245285,0.00900269,-9.97986,0.00911713,-0.00255585,0.0168991,0.00671387,-0.0100327,-0.00652313,0.0133896,0.0069809
31,0,-9.99003,0.00152588,0.00152588,-2.42714,0.0550706,-0.0744527,0.0550435,0.0935533,-0.0885688,0.145929,-0.125156,-0.0831808,0.0132751,0.0231934,0.0143051,0.0114822,0.0160599,0.00694275,0.0248718,0.0133896,-9.97986,0.00873566,0.00461578,0.0141144,-0.000915527,0.0179291,-0.000419617,0.0123978,0.00644684
31,1,-4.39067,-0.0012207,0.00366211,-2.42714,0.0532396,-0.0741475,0.0553487,0.139025,-0.0870429,0.143792,-0.121799,-0.0840963,0.00923157,0.0217819,0.0180435,0.00679016,0.0175476,0.0141144,0.0209427,0.0146866,-9.97986,0.00602722,-3.8147e-005,0.0173187,0.00415802,0.0169373,-0.00534058,0.0162888,0.00595093
31,2,2.72512,0.0012207,0.00442505,-2.42714,0.0535448,-0.0759786,0.0556539,0.154283,-0.0885688,0.144708,-0.121494,-0.0850118,0.0102997,0.0268555,0.0205231,0.0104141,0.0147247,0.00965118,0.0191498,0.0115204,-9.97986,0.00980377,-0.000686646,0.0138855,0.00793457,0.0172806,0.000419617,0.0139618,0.00198364
31,3,9.98372,0.000305176,0.00411987,-2.42806,0.0541551,-0.0759786,0.0535176,0.158251,-0.0897895,0.143792,-0.121189,-0.0859274,0.0115204,0.025177,0.0202179,0.0140762,0.0168991,0.00850677,0.0217819,0.0139999,-9.97986,0.0115967,0.00225067,0.0165939,0.0082016,0.0185013,3.8147e-005,0.0161362,0.00743866
31,4,10.0097,0.0012207,0.00183105,-2.43203,0.0532396,-0.0771993,0.0498555,0.104845,-0.09925,0.141961,-0.126072,-0.0889791,0.0114059,0.0246429,0.0172424,0.00934601,0.0130463,0.00682831,0.0169373,0.0125122,-9.97986,0.01194,0.00133514,0.0162506,0.00679016,0.0174713,-0.00354767,0.0146103,0.00556946
31,5,10.0097,0.000305176,0.000915527,-2.42928,0.0541551,-0.0768941,0.0513814,0.0837877,-0.0974189,0.142877,-0.126682,-0.0883688,0.00934601,0.0268555,0.0237274,0.00534058,0.0224686,0.00804901,0.0205612,0.0179291,-9.97986,0.0161362,0.000114441,0.0209045,0.00751495,0.019722,-0.00179291,0.0135422,0.00904083
31,6,10.0097,0.0012207,-0.000305176,-2.42898,0.0535448,-0.0759786,0.0516866,0.0776842,-0.0955879,0.143182,-0.126377,-0.0868429,0.0094986,0.0260925,0.0146866,0.00988007,0.0168991,0.0113297,0.0203323,0.0143433,-9.97986,0.0128555,-0.00247955,0.0144958,0.00644684,0.0180054,-0.00335693,0.0162888,0.00183105
31,7,10.0097,0.000305176,0.000762939,-2.42806,0.0547655,-0.075063,0.0519917,0.0718859,-0.0946723,0.144403,-0.126377,-0.0856222,0.0123978,0.0263596,0.0191879,0.00999451,0.0165176,0.00995636,0.0212479,0.0209808,-9.97986,0.0158691,0.000953674,0.0146103,0.0069046,0.0174713,-0.0025177,0.0123596,0.0025177
31,8,10.0097,0.0012207,0.000305176,-2.42684,0.0547655,-0.0738423,0.0532125,0.072191,-0.0913154,0.144098,-0.126072,-0.085317,0.0134277,0.0242996,0.0169754,0.0106812,0.0123215,0.00679016,0.019722,0.0153351,-9.97986,0.0166702,-0.00640869,0.0161362,0.00366211,0.0185013,-0.0012207,0.0163269,0.00530243
31,9,10.0097,-0.000305176,0.000152588,-2.42776,0.055681,-0.075063,0.0526021,0.0709703,-0.0925361,0.146234,-0.126377,-0.0847066,0.00743866,0.0254059,0.0201416,0.0120163,0.0136566,0.0094223,0.0235748,0.0183105,-9.97986,0.0178909,0.00240326,0.0143051,0.00617981,0.0156021,-0.00389099,0.0146866,0.0062561
32,0,10.0097,0.00244141,0.000762939,-2.42653,0.055681,-0.0744527,0.0529073,0.0712755,-0.0922309,0.144403,-0.124851,-0.0834859,0.0117874,0.0239563,0.0169754,0.0128937,0.0174332,0.010376,0.0236511,0.0236511,-9.97986,0.0181198,0.00274658,0.0127029,0.00484467,0.0172043,-0.000724792,0.0160599,0.00720978
32,1,10.0097,0.0012207,-0.000152588,-2.42562,0.0559862,-0.0741475,0.054128,0.0706652,-0.0913154,0.147455,-0.124851,-0.0816549,0.013237,0.0234985,0.0207901,0.0116348,0.0204849,0.00850677,0.0231934,0.0250244,-9.97986,0.018425,0.00141144,0.0152969,0.00740051,0.0191879,-0.00423431,0.0131226,0.00713348
32,2,10.0097,0.000915527,0.000305176,-2.42501,0.0565965,-0.0735371,0.0556539,0.072191,-0.0900947,0.14776,-0.12363,-0.0810445,0.00812531,0.0205231,0.0170517,0.00850677,0.0131607,0.00823975,0.0180817,0.027504,-9.97986,0.0196075,0.00404358,0.0154114,0.00434875,0.0214767,-0.00534058,0.0136948,0.0112534
32,3,10.0097,-0.000305176,-0.00106812,-2.42684,0.0550706,-0.0762837,0.0516866,0.0337389,-0.0995551,0.145013,-0.126987,-0.0831808,0.0136566,0.0212097,0.0193405,0.0141525,0.0171661,0.0108337,0.022583,0.0253677,-9.97986,0.0179291,0.000953674,0.0130081,0.00137329,0.0144958,-0.00789642,0.0120926,0.00480652
32,4,5.12166,0.000610352,-0.00366211,-2.42867,0.0562914,-0.0747579,0.0516866,-0.0147841,-0.100165,0.146234,-0.13126,-0.0834859,0.0146484,0.0267792,0.0206757,0.0149918,0.0227737,0.0130081,0.0262833,0.0289917,-9.97986,0.022583,0.00526428,0.0204849,0.0113297,0.022049,0.00106812,0.0210571,0.0124359
32,5,-2.653,-0.0012207,-0.00427246,-2.42531,0.0559862,-0.0744527,0.0532125,-0.0144789,-0.0971137,0.145624,-0.130039,-0.0822652,0.00904083,0.0206757,0.0182724,0.0129318,0.0128174,0.0103378,0.0224304,0.0208282,-9.97986,0.0172806,-0.00087738,0.0107574,0.00621796,0.0173569,-0.00576019,0.0140762,0.00370026
32,6,-9.99003,0.000610352,-0.00457764,-2.42348,0.0575121,-0.0729268,0.0553487,-0.000745974,-0.0934516,0.146844,-0.127598,-0.0807394,0.0130081,0.023613,0.0182343,0.0112152,0.0143051,0.00846863,0.0188065,0.0172424,-9.97986,0.018959,0.00236511,0.016861,0.00465393,0.0167084,-0.00484467,0.0118637,0.00576019
32,7,-9.99003,-0.000610352,-0.00213623,-2.4247,0.0559862,-0.073232,0.0562642,0.027025,-0.0919257,0.147149,-0.127598,-0.0813497,0.00778198,0.0214005,0.0185013,0.00782013,0.0114441,0.0112915,0.0206375,0.0161362,-9.97986,0.0117493,-0.000228882,0.0164413,0.00881195,-0.00522614,-0.0063324,0.0150299,0.00621796
32,8,-9.99003,-0.000610352,-0.000762939,-2.42653,0.0547655,-0.0735371,0.0550435,0.0505236,-0.0910102,0.145013,-0.127292,-0.0816549,0.0124741,0.019989,0.0217438,0.013237,0.0175476,0.0104904,0.0201035,0.0161362,-9.97986,0.0143433,-0.000228882,0.0128555,0.00629425,-0.00839233,-0.00328064,0.0192261,0.00732422
32,9,-9.99003,0.0012207,0.000152588,-2.42592,0.0544603,-0.0741475,0.0553487,0.0627306,-0.0919257,0.145013,-0.125766,-0.0822652,0.0142288,0.0230789,0.0175858,0.0137711,0.0187683,0.014267,0.0200653,0.0129318,-9.97986,0.00923157,0.000114441,0.0205612,0.00904083,-0.00434875,-0.000534058,0.0193787,0.0082016
33,0,-9.99003,0.000610352,0.000915527,-2.42531,0.0541551,-0.0747579,0.0550435,0.0938585,-0.0894843,0.144403,-0.124241,-0.0828756,0.00850677,0.0181961,0.0130081,0.00675201,0.00732422,0.00789642,0.0191498,0.00343323,-9.97986,0.00396729,-0.00148773,0.00835419,0.00415802,0.0129318,-0.00816345,0.0100708,0.000495911
33,1,-4.06749,-0.000305176,0.0038147,-2.42745,0.0532396,-0.0759786,0.055959,0.138719,-0.0873481,0.143182,-0.12241,-0.0837911,0.0144958,0.023613,0.0247955,0.0161362,0.0158691,0.0101471,0.0282669,0.00511169,-9.97986,0.0135422,0.00549316,0.0185394,0.00873566,0.0195313,0.000457764,0.0230789,0.0101852
33,2,3.08034,0.00305176,0.00427246,-2.42837,0.0535448,-0.075063,0.0532125,0.155809,-0.0882636,0.144403,-0.121494,-0.0847066,0.0094223,0.0234222,0.0187302,0.00717163,0.0146866,0.0104141,0.0205231,0.0163269,-9.97986,0.0146103,0.00518799,0.0175476,0.00804901,0.0175476,-0.00164032,0.0163651,0.00518799
33,3,10.0097,-0.00152588,0.00427246,-2.42806,0.0532396,-0.0756734,0.0535176,0.155809,-0.088874,0.143792,-0.120884,-0.0847066,0.0130463,0.0254822,0.0178528,0.0105667,0.0173569,0.00846863,0.0233841,0.0141525,-9.97986,0.00782013,-0.00404358,0.015564,0.00282288,0.00793457,-0.00408173,0.0118637,0.00339508
33,4,10.0097,0.000915527,0.00213623,-2.43172,0.0535448,-0.0775044,0.0498555,0.103319,-0.095893,0.142572,-0.125766,-0.0889791,0.0105667,0.0214386,0.0204468,0.0138474,0.0193787,0.0109863,0.0250626,0.0151062,-9.97986,0.0104904,0.00682831,0.0192261,0.00465393,0.0185394,0.0031662,0.0193787,0.00900269
33,5,10.0097,-0.000305176,0.000915527,-2.4305,0.0538499,-0.0756734,0.050771,0.082567,-0.0977241,0.143182,-0.126987,-0.0886739,0.00930786,0.0191116,0.0149918,0.0104904,0.0150299,0.00694275,0.0233078,0.0154114,-9.97986,0.0106812,0.000457764,0.0143433,0.00652313,0.0144958,-0.0025177,0.0139236,0.00495911
33,6,10.0097,0.00183105,-0.000457764,-2.42989,0.0544603,-0.0756734,0.0522969,0.0749376,-0.095893,0.143487,-0.126987,-0.0871481,0.0141144,0.0202942,0.0201797,0.0149536,0.0121689,0.0115204,0.0214386,0.0205231,-9.97986,0.0128555,0.00038147,0.0144577,0.00637054,0.0153351,-0.00434875,0.0185394,0.00915527
33,7,10.0097,0,-0.000457764,-2.42867,0.0547655,-0.0744527,0.0519917,0.0724962,-0.0946723,0.144708,-0.126377,-0.0862325,0.0136948,0.0238419,0.0205612,0.0121689,0.015831,0.0132751,0.016861,0.0181961,-9.97986,0.0159073,0.0037384,0.0143814,0.00549316,0.0146103,0.00179291,0.019455,0.00537872
33,8,10.0097,0,0.000152588,-2.42837,0.0559862,-0.0768941,0.0538228,0.0718859,-0.0934516,0.145013,-0.126987,-0.0847066,0.0123215,0.0220108,0.0205231,0.0103378,0.0165939,0.0138855,0.0218964,0.0162125,-9.97986,0.0139236,0.00453949,0.0172424,0.00602722,0.0152969,0.000495911,0.0150299,0.00728607
33,9,10.0097,0.000610352,0,-2.42714,0.0550706,-0.0756734,0.0529073,0.0728014,-0.0931465,0.145318,-0.126682,-0.0844015,0.0133133,0.0186539,0.0177002,0.0144196,0.0154114,0.0104904,0.0219727,0.0183105,-9.97986,0.0152969,0.00549316,0.0149918,0.00640869,0.0156784,0.000495911,0.0180054,0.00606537
34,0,10.0097,0.00213623,0.000457764,-2.42623,0.0572069,-0.0741475,0.0535176,0.0712755,-0.0925361,0.145318,-0.125461,-0.0828756,0.01297,0.0263977,0.0195313,0.0115967,0.0164032,0.010643,0.0245667,0.021553,-9.97986,0.0154114,0.000114441,0.0130844,0.00598907,0.0145721,0.00160217,0.0167084,0.00492096
34,1,10.0097,-0.000305176,0,-2.42531,0.0559862,-0.0744527,0.0538228,0.0709703,-0.0919257,0.145624,-0.124241,-0.0819601,0.0162506,0.0181961,0.0195694,0.0104523,0.0157928,0.0113297,0.0220108,0.0283051,-9.97986,0.0179291,0.0063324,0.0133133,0.00484467,0.0171661,-0.00331879,0.0159073,0.00545502
34,2,10.0097,0.000610352,0,-2.42501,0.0565965,-0.0738423,0.0547383,0.0728014,-0.0913154,0.145624,-0.12363,-0.0810445,0.0171661,0.0181961,0.0180817,0.00946045,0.0165939,0.00873566,0.0211334,0.0220108,-9.97986,0.019722,-0.00114441,0.0159073,0.00709534,0.0174713,0.000190735,0.0177002,0.00846863
34,3,10.0097,-0.000915527,-0.00106812,-2.42837,0.0559862,-0.0741475,0.0516866,0.0312975,-0.0980293,0.145624,-0.126987,-0.0825704,0.0114059,0.0252914,0.0210571,0.0102615,0.0169373,0.0138855,0.021553,0.0282288,-9.97986,0.021019,-0.00133514,0.0139618,0.00404358,0.0151825,-0.00637054,0.0157547,0.00724792
34,4,4.98067,-0.0012207,-0.00411987,-2.42684,0.0562914,-0.0747579,0.050771,-0.0144789,-0.101081,0.146539,-0.130649,-0.0837911,0.0118637,0.0201035,0.0183487,0.00888824,0.0157166,0.0087738,0.021286,0.0244904,-9.97986,0.0204849,0.000686646,0.0188828,0.00270844,0.0194168,-0.0063324,0.0168991,0.0094223
34,5,-2.77995,0,-0.00396729,-2.42684,0.0569017,-0.0738423,0.0519917,-0.0144789,-0.0971137,0.146539,-0.129734,-0.0813497,0.0125885,0.02491,0.0202179,0.0134659,0.0151825,0.0105667,0.0227737,0.0221634,-9.97986,0.0124359,0.00301361,0.0159454,0.00766754,0.0169754,-0.000495911,0.0156021,0.00675201
34,6,-9.99003,0.0012207,-0.00457764,-2.4244,0.0562914,-0.0738423,0.0556539,-0.000135623,-0.0934516,0.14776,-0.129429,-0.0804342,0.0119019,0.0221252,0.0165558,0.0113678,0.0173569,0.0110626,0.018959,0.018692,-9.97986,0.0146484,0.00434875,0.0141525,0.00556946,0.0201035,-0.00595093,0.0170135,0.00907898
34,7,-9.99003,0.00183105,-0.00320435,-2.42501,0.0565965,-0.0738423,0.0556539,0.0264147,-0.090705,0.146539,-0.127292,-0.0804342,0.0111771,0.0219345,0.0180435,0.0116348,0.0163651,0.0127792,0.0200272,0.0162506,-9.97986,0.012207,0.00244141,0.0147629,0.00930786,-0.00629425,-0.0038147,0.0173187,0.00789642
34,8,-9.99003,0.000915527,0,-2.42562,0.0562914,-0.0741475,0.0547383,0.052965,-0.0903999,0.146844,-0.126072,-0.0807394,0.00896454,0.0188446,0.0153351,0.00587463,0.0131607,0.00934601,0.0179672,0.0114059,-9.97986,0.0104904,0.000610352,0.0154114,0.00526428,-0.0124359,-0.00423431,0.0146484,0.00576019
34,9,-9.99003,0,-0.000152588,-2.42592,0.0547655,-0.0741475,0.0547383,0.0618151,-0.0922309,0.145318,-0.125766,-0.0825704,0.0106049,0.0222015,0.0144958,0.0136948,0.0183105,0.0118256,0.0222015,0.0132751,-9.97986,0.00679016,0.00347137,0.0157547,0.00644684,-0.0102997,-0.00301361,0.0168228,0.00759125
35,0,-9.99003,0.000305176,0.00213623,-2.42592,0.0553758,-0.0756734,0.0562642,0.0953844,-0.0882636,0.145624,-0.12302,-0.0831808,0.00808716,0.0261688,0.019989,0.0122833,0.0181961,0.00701904,0.0172806,0.00839233,-9.97986,0.0115967,-0.000228882,0.0159836,0.00823975,0.0115585,-0.00354767,0.0144577,0.0038147
35,1,-4.09892,-0.0012207,0.00427246,-2.42806,0.0541551,-0.075063,0.0556539,0.140245,-0.0879585,0.144403,-0.121799,-0.0837911,0.0122452,0.0204849,0.0193787,0.0146103,0.0145721,0.00629425,0.0226212,0.00602722,-9.97986,0.0129318,7.62939e-005,0.0170517,0.00835419,0.0172043,-0.00179291,0.0156403,0.00564575
35,2,3.05043,0.00183105,0.00457764,-2.42745,0.0541551,-0.0753682,0.054128,0.154894,-0.0879585,0.143182,-0.121494,-0.0850118,0.0115204,0.0214005,0.0182724,0.00900269,0.0154495,0.00675201,0.0192642,0.00961304,-9.97986,0.00957489,-0.00087738,0.0162506,0.00419617,0.0136948,-0.000534058,0.016861,0.00305176
35,3,10.0097,0.000610352,0.00396729,-2.42806,0.0538499,-0.075063,0.0532125,0.156114,-0.0897895,0.144098,-0.121189,-0.0868429,0.0126266,0.0223541,0.016861,0.00450134,0.0208282,0.00816345,0.0212097,0.0151443,-9.97986,0.0134659,-0.00133514,0.0175858,0.0101852,0.0138474,-0.00358582,0.0171661,0.00598907
35,4,10.0097,0.0012207,0.00259399,-2.4305,0.0523241,-0.0775044,0.0501607,0.103014,-0.0980293,0.142267,-0.126682,-0.0883688,0.0123978,0.0209427,0.0218964,0.00926971,0.0194168,0.010643,0.019722,0.0139999,-9.97986,0.0112152,-0.00564575,0.0101471,0.00808716,0.0101471,-0.00183105,0.0134659,0.00541687
35,5,10.0097,0.000610352,0.000305176,-2.4305,0.0541551,-0.0762837,0.050771,0.0840929,-0.0971137,0.143792,-0.126072,-0.0886739,0.0101852,0.0224686,0.0209808,0.0101471,0.0138474,0.0056839,0.0251389,0.0155258,-9.97986,0.0137329,-0.00549316,0.0178909,0.00766754,0.0145721,-0.00228882,0.0142288,0.00408173
35,6,10.0097,0.000610352,0.000457764,-2.43111,0.0538499,-0.0756734,0.0532125,0.0758531,-0.0961982,0.143792,-0.125766,-0.0862325,0.0148392,0.022049,0.0182343,0.0128937,0.0162125,0.00801086,0.0210953,0.0148392,-9.97986,0.0154114,-0.0038147,0.0167084,0.00549316,0.0147629,-0.00141144,0.0173187,0.0069809
35,7,10.0097,0.000610352,-0.000305176,-2.42776,0.0541551,-0.0753682,0.0519917,0.0712755,-0.0931465,0.144098,-0.126072,-0.0856222,0.0131989,0.021019,0.0202179,0.0135422,0.0192642,0.0110626,0.023613,0.0155258,-9.97986,0.0162888,-0.00835419,0.0157547,0.00530243,0.0122452,0.00179291,0.0127792,0.00312805
35,8,10.0097,-0.000915527,0.000457764,-2.42714,0.0550706,-0.0759786,0.0510762,0.0715807,-0.0931465,0.144098,-0.126377,-0.0850118,0.0120163,0.0237274,0.0183868,0.0150299,0.0188065,0.0110245,0.0271606,0.0177765,-9.97986,0.0165939,-0.00579834,0.0173569,0.0114822,0.0171661,0.000686646,0.0139236,0.00659943
35,9,10.0097,0,0.000152588,-2.42806,0.0544603,-0.0747579,0.0519917,0.0700548,-0.094062,0.144403,-0.126377,-0.0840963,0.01194,0.0255585,0.0164795,0.00930786,0.0146866,0.00629425,0.0234222,0.0202179,-9.97986,0.016861,-0.00957489,0.0151825,0.00751495,0.0152206,-0.00102997,0.0152588,0.00556946
36,0,10.0097,0.00274658,0.000305176,-2.42653,0.0553758,-0.0741475,0.0535176,0.0724962,-0.0925361,0.146234,-0.124851,-0.0822652,0.0110245,0.0193405,0.017395,0.0120926,0.0198364,0.0104523,0.0231552,0.016098,-9.97986,0.0186157,-0.0103378,0.014801,0.00938416,0.0154114,0.00164032,0.0174332,0.00774384
36,1,10.0097,0,-0.000305176,-2.42531,0.0569017,-0.0741475,0.0553487,0.07036,-0.0925361,0.146539,-0.126377,-0.0816549,0.0108337,0.0243759,0.0200272,0.0105286,0.0210953,0.0107574,0.0211334,0.022583,-9.97986,0.0196075,-0.00431061,0.0170135,0.00782013,0.0172806,-0.00205994,0.0169373,0.00652313
36,2,10.0097,0.000305176,0.000457764,-2.42592,0.0562914,-0.0735371,0.0550435,0.072191,-0.0916206,0.145929,-0.123935,-0.0810445,0.00953674,0.0225067,0.0198746,0.010643,0.0185776,0.00736237,0.018959,0.0296021,-9.97986,0.0267029,-0.00621796,0.0144577,0.00507355,0.018158,0.000190735,0.0139236,0.00801086
36,3,10.0097,-0.000915527,-0.00137329,-2.42776,0.0550706,-0.0762837,0.0516866,0.0328234,-0.0986396,0.146539,-0.127598,-0.0837911,0.0112915,0.021019,0.0172043,0.00976563,0.0181961,0.00846863,0.0206757,0.0252533,-9.97986,0.0214386,-0.0056839,0.00915527,0.00740051,0.0170898,-0.00190735,0.014534,0.00442505
36,4,4.91445,0.0012207,-0.0038147,-2.42653,0.0559862,-0.075063,0.0519917,-0.0150892,-0.101081,0.146234,-0.130344,-0.0840963,0.0159073,0.0197601,0.0197601,0.00831604,0.0224686,0.00915527,0.0220871,0.0257492,-9.97986,0.0234985,-0.00576019,0.00896454,0.0112534,0.0168228,-0.000991821,0.0181961,0.00686646
36,5,-2.76988,0,-0.00427246,-2.42653,0.0569017,-0.0741475,0.0532125,-0.0147841,-0.0971137,0.146234,-0.130954,-0.0822652,0.0111389,0.0237656,0.0170135,0.0124741,0.020256,0.0125885,0.0192642,0.0236511,-9.97986,0.0182343,-0.00705719,0.0120544,0.00774384,0.019989,-0.00617981,0.0159454,0.00709534
36,6,-9.99003,0.000305176,-0.00442505,-2.4247,0.055681,-0.0735371,0.0568746,0.00169543,-0.0931465,0.147455,-0.128208,-0.0804342,0.0149536,0.026741,0.019455,0.0075531,0.0198746,0.0106812,0.0226593,0.0203323,-9.97986,0.017128,-0.00385284,0.0134659,0.00923157,0.0193405,0.00179291,0.0188446,0.00934601
36,7,-9.99003,-0.000305176,-0.00244141,-2.42531,0.0565965,-0.0741475,0.0550435,0.0264147,-0.0910102,0.145013,-0.127903,-0.0804342,0.0088501,0.021553,0.0216293,0.00938416,0.0118637,0.01091,0.0200653,0.0149918,-9.97986,0.0105667,-0.00667572,0.012207,0.0050354,-0.00358582,-0.00324249,0.0157928,0.00782013
36,8,-9.99003,0.000305176,-0.0012207,-2.42562,0.0559862,-0.0741475,0.0553487,0.0505236,-0.0900947,0.145318,-0.127292,-0.0816549,0.0116348,0.0255585,0.0209427,0.00915527,0.0185013,0.00648499,0.0234985,0.0102997,-9.97986,0.0114441,-0.00167847,0.0139618,0.00904083,-0.00514984,-0.000495911,0.0188828,0.00617981
36,9,-9.99003,0.000305176,0.000305176,-2.4244,0.0547655,-0.0747579,0.0547383,0.0618151,-0.0897895,0.145624,-0.126072,-0.0822652,0.0122452,0.0204849,0.0212479,0.0102997,0.0200272,0.00751495,0.019722,0.010643,-9.97986,0.00980377,-0.00579834,0.0135803,0.00930786,-0.00694275,-0.00152588,0.0190353,0.00682831
37,0,-9.99003,0.000610352,0.00152588,-2.42653,0.0538499,-0.0744527,0.0544332,0.0959947,-0.0894843,0.144403,-0.124241,-0.0834859,0.00904083,0.0238037,0.0177765,0.00946045,0.0157166,0.0087738,0.0200272,0.00862122,-9.97986,0.00854492,-0.00358582,0.0132751,0.00686646,0.0151443,-0.00205994,0.015564,0.00648499
37,1,-3.74919,0.000305176,0.00442505,-2.42806,0.0544603,-0.0753682,0.0553487,0.139635,-0.088874,0.145013,-0.122715,-0.0840963,0.0106049,0.0281143,0.0170517,0.00854492,0.0165939,0.0125504,0.0217056,0.00881195,-9.97986,0.0107193,-0.00461578,0.0166702,0.00648499,0.0180435,-0.000724792,0.0159454,0.00713348
37,2,3.32418,0.00152588,0.00427246,-2.42714,0.0541551,-0.075063,0.0544332,0.154588,-0.0882636,0.143487,-0.121799,-0.0840963,0.0146866,0.0194931,0.0182724,0.00572205,0.0183105,0.00774384,0.0212097,0.0088501,-9.97986,0.0094223,-0.00511169,0.0157547,0.00843048,0.0164032,-0.000839233,0.0149155,0.00648499
37,3,10.0097,0.000915527,0.00518799,-2.42837,0.0544603,-0.0753682,0.0535176,0.15703,-0.088874,0.143487,-0.120884,-0.0840963,0.00965118,0.0233841,0.0204849,0.00694275,0.0118256,0.00770569,0.0198364,0.0112152,-9.97986,0.0129318,0.000495911,0.0145721,0.00888824,0.0140381,0.00270844,0.0139618,0.00656128
37,4,10.0097,-0.00152588,0.00244141,-2.43203,0.0526292,-0.0765889,0.0495503,0.102709,-0.0977241,0.142877,-0.126682,-0.0895895,0.0120544,0.0234985,0.0192261,0.0109863,0.0141144,0.0107574,0.0234604,0.0171661,-9.97986,0.0118256,-0.00343323,0.01297,0.00766754,0.0141907,0.0019455,0.0148392,0.00591278
37,5,10.0097,0.000610352,0.000457764,-2.4305,0.0532396,-0.0753682,0.0495503,0.082567,-0.0977241,0.143487,-0.126072,-0.0889791,0.0130081,0.0238419,0.0162506,0.0138092,0.0177002,0.00717163,0.0258636,0.0167084,-9.97986,0.0152588,-0.00354767,0.0173187,0.00534058,0.018959,0.00263214,0.0172424,0.00404358
37,6,10.0097,0.000305176,0,-2.42837,0.0541551,-0.0756734,0.0516866,0.0752428,-0.0965034,0.144098,-0.126682,-0.0874532,0.0115967,0.0176239,0.0180435,0.00919342,0.0127792,0.00804901,0.023613,0.0141144,-9.97986,0.0166702,-0.00110626,0.0119781,0.0069046,0.0193405,-0.0019455,0.017662,0.00835419
37,7,10.0097,0,0,-2.42837,0.0550706,-0.0762837,0.0516866,0.072191,-0.094062,0.144708,-0.125156,-0.0862325,0.0147629,0.0230789,0.0193787,0.0114441,0.0200272,0.0115967,0.0233459,0.0189972,-9.97986,0.0157166,-0.000839233,0.0134277,0.0108719,0.0181198,0.00148773,0.016861,0.0069809
37,8,10.0097,0.000305176,-0.000610352,-2.42653,0.0559862,-0.0747579,0.0532125,0.0718859,-0.0952827,0.145013,-0.126072,-0.0850118,0.00537872,0.0189972,0.014534,0.0056839,0.0126648,0.00663757,0.0219727,0.0186157,-9.97986,0.0197601,-0.00118256,0.013237,0.00934601,0.0160599,-0.00411987,0.0161362,0.00492096
37,9,10.0097,0.00213623,0.000305176,-2.42714,0.0550706,-0.0747579,0.0532125,0.0709703,-0.0931465,0.145318,-0.126377,-0.0834859,0.00892639,0.0209045,0.0158691,0.00862122,0.0148392,0.00434875,0.0221634,0.0160599,-9.97986,0.0134659,-0.00118256,0.015831,0.0062561,0.0169754,-0.00171661,0.0154495,0.00461578
38,0,10.0097,-0.000610352,0.000762939,-2.42623,0.0559862,-0.075063,0.0547383,0.0709703,-0.0922309,0.144708,-0.124546,-0.0834859,0.0131226,0.0212479,0.0218201,0.0110626,0.0211334,0.00679016,0.0188828,0.0207138,-9.97986,0.017395,-0.00343323,0.0162506,0.00774384,0.0147247,0.0012207,0.0179291,0.00640869
38,1,10.0097,0.000305176,0.000305176,-2.42531,0.0565965,-0.0735371,0.0544332,0.0715807,-0.0919257,0.146539,-0.123935,-0.0819601,0.0129318,0.0227737,0.018425,0.00652313,0.0164795,0.00724792,0.0206757,0.0220108,-9.97986,0.0202942,-0.00396729,0.0142288,0.00915527,0.0165558,-0.000762939,0.0161362,0.00797272
38,2,10.0097,0.000610352,-0.000152588,-2.4247,0.0575121,-0.0726216,0.0556539,0.0709703,-0.0910102,0.146539,-0.12363,-0.080129,0.0138092,0.0266266,0.0214386,0.00713348,0.0200653,0.0114822,0.0217438,0.029335,-9.97986,0.0215149,0.000686646,0.0135803,0.00648499,0.0194168,-0.00461578,0.0178528,0.00812531
38,3,10.0097,-0.000915527,-0.00106812,-2.42745,0.0559862,-0.075063,0.0516866,0.0334337,-0.0971137,0.143792,-0.127598,-0.0834859,0.0138092,0.0242615,0.0192642,0.0112534,0.0180435,0.0075531,0.0189209,0.0250244,-9.97986,0.0182724,-0.00152588,0.0156784,0.00736237,0.0165176,-0.00347137,0.0157166,0.00511169
38,4,4.9056,0,-0.00396729,-2.42745,0.0569017,-0.0735371,0.0519917,-0.0156996,-0.100471,0.147455,-0.130039,-0.0837911,0.0108337,0.0231171,0.0172806,0.0101852,0.0188446,0.0112152,0.0222397,0.0219727,-9.97986,0.0194168,0.000686646,0.0145721,0.0109863,0.0175476,-0.00087738,0.0152588,0.00923157
38,5,-2.82634,0,-0.00411987,-2.4247,0.055681,-0.0747579,0.0535176,-0.0147841,-0.0977241,0.146539,-0.129734,-0.0822652,0.01091,0.0243378,0.0208282,0.0123215,0.0175476,0.0122833,0.0214005,0.0231552,-9.97986,0.0204468,-0.000190735,0.0104523,0.00900269,0.0173569,-0.00637054,0.0190353,0.00793457
38,6,-9.99003,0.000610352,-0.00411987,-2.4247,0.0572069,-0.0747579,0.0556539,0.000474729,-0.0937568,0.146234,-0.128818,-0.0798238,0.00892639,0.0222778,0.0154114,0.014534,0.0170898,0.00915527,0.0197983,0.0154114,-9.97986,0.0203705,0.000305176,0.0121689,0.00869751,0.0238419,-0.00362396,0.0159454,0.00652313
38,7,-9.99003,-0.000610352,-0.00259399,-2.42531,0.0553758,-0.0729268,0.0565694,0.0267198,-0.0922309,0.145318,-0.127292,-0.0813497,0.0110626,0.0221634,0.0185013,0.0141907,0.0164795,0.00804901,0.0212097,0.00888824,-9.97986,0.0111771,0.00488281,0.0144196,0.00778198,0.00114441,-0.00423431,0.0191879,0.00610352
38,8,-9.99003,0.00213623,-0.000610352,-2.42592,0.055681,-0.0747579,0.0562642,0.0508287,-0.0916206,0.145013,-0.126072,-0.0822652,0.00774384,0.0218582,0.0175476,0.0117874,0.0141144,0.0075531,0.0197601,0.010643,-9.97986,0.00823975,0.00400543,0.0162125,0.0088501,-0.00404358,-0.00297546,0.0155258,0.00671387
38,9,-9.99003,0.000610352,-0.000610352,-2.42623,0.055681,-0.0741475,0.0550435,0.0630358,-0.0900947,0.145929,-0.126377,-0.0822652,0.00705719,0.0215912,0.0113297,0.0069809,0.0126648,0.0113678,0.0240707,0.012207,-9.97986,0.00904083,0.00228882,0.0101471,0.0101852,-0.00534058,-0.00133514,0.0168228,0.00843048
39,0,-9.99003,0.00244141,0.00152588,-2.42592,0.0544603,-0.0744527,0.0550435,0.0959947,-0.0882636,0.147149,-0.12363,-0.0828756,0.00926971,0.0239944,0.0135422,0.0102615,0.0156784,0.0120926,0.0234222,0.00720978,-9.97986,0.00583649,0.00141144,0.01194,0.00797272,0.0212097,-0.00328064,0.0131989,0.00640869
39,1,-3.75468,-0.000305176,0.0038147,-2.42714,0.0535448,-0.0756734,0.0544332,0.138414,-0.0882636,0.144403,-0.121799,-0.0844015,0.00999451,0.0208282,0.0138092,0.0120544,0.014267,0.00900269,0.0218582,0.00843048,-9.97986,0.00774384,0.00450134,0.0163651,0.00965118,0.0195313,-0.00453949,0.0214005,0.00610352
39,2,3.36843,0.000915527,0.00442505,-2.42837,0.0547655,-0.0747579,0.054128,0.153063,-0.0882636,0.144403,-0.121494,-0.0850118,0.0135422,0.0217819,0.0153732,0.00728607,0.0166702,0.00900269,0.0174713,0.0108337,-9.97986,0.00724792,0.00133514,0.0154877,0.00659943,0.0178528,-0.00255585,0.0192261,0.00629425
39,3,10.0097,-0.000915527,0.00427246,-2.42745,0.0535448,-0.0762837,0.054128,0.15764,-0.0897895,0.144403,-0.121494,-0.085317,0.0136566,0.021553,0.0191879,0.0125885,0.0133896,0.0106049,0.0186539,0.0137329,-9.97986,0.0143433,-0.000190735,0.0117874,0.00782013,0.0169754,-0.00434875,0.0166321,0.00495911
39,4,10.0097,0.000305176,0.00198364,-2.43081,0.0538499,-0.0756734,0.0495503,0.101793,-0.0989448,0.141656,-0.126072,-0.0898946,0.0101852,0.0258636,0.0175858,0.00923157,0.0174713,0.00682831,0.0209427,0.0174713,-9.97986,0.0131989,0.00225067,0.0143814,0.00823975,0.0188446,-0.00267029,0.018692,0.00209808
39,5,10.0097,0.000915527,0.00106812,-2.4302,0.0535448,-0.0768941,0.050771,0.0819567,-0.0974189,0.142267,-0.126377,-0.0880636,0.0102997,0.0234604,0.0164032,0.0126648,0.0175858,0.0107193,0.022583,0.0151443,-9.97986,0.0131989,0.00167847,0.0143814,0.00816345,0.0165939,-0.00320435,0.018158,0.00675201
39,6,10.0097,0,0,-2.42837,0.0535448,-0.0762837,0.0519917,0.0758531,-0.0961982,0.144403,-0.126682,-0.0874532,0.0117111,0.0276566,0.0167084,0.0121307,0.0156403,0.01091,0.0222397,0.0167847,-9.97986,0.0164032,0.00152588,0.0125885,0.00801086,0.0192261,-0.00164032,0.0157547,0.00785828
39,7,10.0097,-0.000305176,-0.000610352,-2.42745,0.0553758,-0.0747579,0.0529073,0.0724962,-0.0949775,0.143182,-0.126072,-0.0859274,0.00812531,0.022583,0.0170517,0.0110626,0.0180817,0.0138474,0.0157547,0.0136566,-9.97986,0.0131989,-0.00297546,0.0123978,0.00724792,0.0159073,-0.00511169,0.0101089,0.00453949
39,8,10.0097,0.000305176,0.000305176,-2.42776,0.0532396,-0.075063,0.0532125,0.0715807,-0.0937568,0.144403,-0.124851,-0.0856222,0.0132751,0.0257874,0.016861,0.0111389,0.0154114,0.00988007,0.0218964,0.0175095,-9.97986,0.0152206,-0.00278473,0.0165176,0.00713348,0.0150299,-0.00328064,0.0151062,0.00572205
39,9,10.0097,-0.000915527,0.000152588,-2.42653,0.0541551,-0.075063,0.0529073,0.0712755,-0.0934516,0.145013,-0.125766,-0.0834859,0.0119781,0.021286,0.0143433,0.0144958,0.0121307,0.0113678,0.0199509,0.0174332,-9.97986,0.0187302,0.000762939,0.0117111,0.00736237,0.0156403,0.00038147,0.0141525,0.00518799
40,0,10.0097,0.00274658,0.000610352,-2.42531,0.0550706,-0.0747579,0.0535176,0.07036,-0.0925361,0.145013,-0.125766,-0.0831808,0.0137329,0.0219345,0.0165939,0.0144958,0.0177383,0.00999451,0.0217056,0.0188446,-9.97986,0.023613,-0.00328064,0.0150681,0.00644684,0.0174713,-0.00488281,0.0168228,0.00576019
40,1,10.0097,0.000305176,0.000915527,-2.42623,0.0562914,-0.0738423,0.0553487,0.072191,-0.0919257,0.146234,-0.124241,-0.0810445,0.00923157,0.0240707,0.0172424,0.0117874,0.0198364,0.0127029,0.0256729,0.0232697,-9.97986,0.0246429,-0.0012207,0.0131989,0.00213623,0.0192642,-0.00408173,0.0183487,0.00553131
40,2,10.0097,0.000305176,-0.000305176,-2.4244,0.0581224,-0.0741475,0.0553487,0.0724962,-0.0922309,0.146539,-0.125156,-0.0804342,0.00999451,0.0239563,0.0174713,0.0119019,0.0159073,0.00411987,0.0247574,0.0280762,-9.97986,0.0167465,-0.00228882,0.0150681,0.00667572,0.0170135,-0.000839233,0.0143051,0.00572205
40,3,10.0097,0.000610352,-0.000610352,-2.42745,0.0547655,-0.075063,0.0526021,0.0316027,-0.0986396,0.144098,-0.127598,-0.0831808,0.0144958,0.0266266,0.0231552,0.0156021,0.019989,0.0123596,0.0234985,0.0271606,-9.97986,0.0203323,-0.00148773,0.0147629,0.00854492,0.0205994,-0.00709534,0.0151062,0.00774384
40,4,4.75972,0.000610352,-0.00396729,-2.42806,0.0565965,-0.0753682,0.0516866,-0.0160048,-0.101081,0.146234,-0.130344,-0.0834859,0.0148773,0.0270462,0.0170517,0.0144577,0.0112915,0.0108337,0.0239944,0.0241089,-9.97986,0.0172806,0.000457764,0.0157547,0.00488281,0.0187683,-0.00278473,0.0197983,0.00812531
40,5,-2.93315,-0.000915527,-0.00320435,-2.42653,0.0559862,-0.0744527,0.0532125,-0.0141737,-0.0955879,0.14776,-0.130039,-0.0822652,0.0110245,0.0270462,0.0170898,0.0130081,0.0162125,0.0136948,0.0213623,0.0284958,-9.97986,0.0191116,0.00244141,0.014267,0.00396729,0.0168228,-0.000343323,0.0167847,0.00843048
