
Devices
1200
,,BP Load cell - Voltage,String Length - Voltage,Clutch Active - Voltage,#7 iPecs - Voltage,,,,,,,,,EMG 1-8 Left - Voltage,,,,,,,,Pylon Force - Voltage,EMG 9-16 Right - Voltage,,,,,,,,
Frame,Sub Frame,BP Load Cell,String Length,From Arduino Logic,A45,A135,A225,A315,S0,S90,S180,S270,ZSum,EMG 1 Glut Max,EMG 2 Glut Med,EMG 3 Biceps Femoris Long,EMG 4 Rectus Femoris,EMG 5 Vastus Medialis,EMG 6 Tib Ant,EMG 7 Med Gas,EMG 8 Soleus,Pylon volts,EMG 9 Glut Max,EMG 10 Glut Med,EMG 11 Biceps Femoris Long,EMG 12 Rectus Femoris,EMG 13 Vastus Medialis,EMG 14 Tib Ant,EMG 15 Med Gas,EMG 16 Soleus
,,V,V,V,V,V,V,V,V,V,V,V,V,V,V,V,V,V,V,V,V,V,V,V,V,V,V,V,V,V
1,0,10.0097,-0.000305176,-0.00442505,-2.42592,0.0547655,-0.0735371,0.054128,0.0718859,-0.0900947,0.146539,-0.124851,-0.0825704,0.00862122,0.042038,0.0198746,0.0261307,0.0748825,0.0817108,0.250969,0.0124359,-9.97986,0.0182343,-0.0189209,-0.135612,-0.393677,-0.118675,-0.00038147,0.0350189,0.0495148
1,1,10.0097,-0.000305176,-0.00488281,-2.42653,0.0562914,-0.0744527,0.0538228,0.0590685,-0.0934516,0.145318,-0.125156,-0.0828756,0.0216293,0.037384,0.0168228,0.0228882,0.0717545,0.0680542,0.243263,-0.0529861,-9.97986,0.0263214,-0.0181198,-0.129013,-0.440292,-0.114861,0.001297,0.0500107,0.0498962
1,2,10.0097,0,-0.00579834,-2.42562,0.0553758,-0.0741475,0.054128,0.0608995,-0.0928413,0.145013,-0.125156,-0.0837911,0.0281525,0.0325012,0.00980377,0.0252533,0.062561,0.0514221,0.236931,-0.0485611,-9.97986,0.0259781,-0.0105667,-0.125961,-0.499039,-0.11219,0.00259399,0.0619125,0.0450516
1,3,10.0097,-0.000610352,-0.0062561,-2.42623,0.0553758,-0.0756734,0.0544332,0.0673082,-0.090705,0.146539,-0.126072,-0.0847066,0.0275421,0.0287247,0.0189209,0.0239944,0.0592804,0.026474,0.231781,0.000305176,-9.97986,0.0153732,-0.01194,-0.127945,-0.564041,-0.108032,0.00148773,0.0769043,0.045433
1,4,10.0097,0,-0.00457764,-2.42653,0.0550706,-0.075063,0.0538228,0.0731066,-0.0916206,0.145013,-0.125766,-0.0859274,0.0148392,0.0301743,0.0301361,0.0268555,0.0490189,0.0094986,0.22419,0.0126266,-9.97986,0.0119019,-0.0178909,-0.124664,-0.617943,-0.112267,0.00686646,0.0896454,0.0457764
1,5,10.0097,-0.000610352,-0.00549316,-2.42837,0.0550706,-0.0756734,0.0522969,0.0865343,-0.0919257,0.144708,-0.125156,-0.0865377,0.00423431,0.0318909,0.0364304,0.0291443,0.0419998,-0.0110245,0.218201,-0.00282288,-9.97986,0.00282288,-0.0062561,-0.123253,-0.693741,-0.112762,0.000114441,0.107956,0.0448227
1,6,10.0097,0,-0.00579834,-2.42745,0.0535448,-0.0759786,0.0529073,0.0749376,-0.0952827,0.143792,-0.127292,-0.0877584,0.00164032,0.0329208,0.0387955,0.0209427,0.0429916,-0.0336838,0.212288,-0.0437164,-9.97986,-0.00267029,0.0120544,-0.119858,-0.747032,-0.108414,0.00175476,0.120697,0.0478363
1,7,10.0097,-0.000305176,-0.00656128,-2.42898,0.0535448,-0.0762837,0.0522969,0.0706652,-0.0955879,0.142572,-0.125766,-0.0883688,-0.00183105,0.0302124,0.0346375,0.0110245,0.0419617,-0.0592422,0.205612,-0.0836182,-9.97986,-0.00240326,0.00736237,-0.118828,-0.816345,-0.112267,-0.00263214,0.133018,0.0465393
1,8,10.0097,-0.0012207,-0.00854492,-2.42898,0.0550706,-0.075063,0.0526021,0.0685289,-0.0949775,0.143792,-0.126987,-0.0892843,-0.00320435,0.0241089,0.0234604,0.0179291,0.0402832,-0.0839233,0.193825,-0.0855255,-9.97986,0.00465393,-0.00881195,-0.12085,-0.916367,-0.105629,-0.00576019,0.149345,0.0457764
1,9,10.0097,0.0012207,-0.0088501,-2.42928,0.0538499,-0.0759786,0.0526021,0.0694445,-0.0946723,0.144403,-0.127598,-0.0895895,0.00602722,0.0240326,0.00759125,0.021286,0.0408173,-0.108871,0.172157,-0.0361633,-9.97986,0.00888824,-0.0228882,-0.118027,-1.00224,-0.105171,-0.00576019,0.152969,0.0447464
2,0,10.0097,-0.00213623,-0.00808716,-2.42959,0.0535448,-0.075063,0.0516866,0.0688341,-0.0955879,0.143487,-0.127598,-0.0883688,0.0146484,0.0235748,-0.00217438,0.0104141,0.0474167,-0.134506,0.157013,-0.0131226,-9.97986,0.0168228,-0.0190353,-0.119057,-1.07269,-0.101242,-0.00850677,0.163879,0.0429153
2,1,10.0097,-0.000610352,-0.00686646,-2.42867,0.0544603,-0.0747579,0.0529073,0.0682238,-0.0937568,0.144708,-0.126987,-0.0883688,0.0231934,0.0157547,-0.00988007,-0.00598907,0.0504303,-0.155869,0.143356,-0.00823975,-9.97986,0.0299454,-0.020752,-0.125771,-1.12778,-0.0971985,-0.00457764,0.169144,0.0434113
2,2,10.0097,0.000305176,-0.00518799,-2.42623,0.0541551,-0.0759786,0.0529073,0.0706652,-0.0928413,0.143487,-0.126987,-0.0865377,0.0263596,0.0141144,-0.0087738,-0.0177383,0.0489044,-0.17437,0.124474,0.00549316,-9.97986,0.0450516,-0.0148392,-0.119247,-1.17104,-0.0921249,-0.00148773,0.174065,0.0402069
2,3,10.0097,0,-0.00564575,-2.42776,0.0550706,-0.075063,0.0529073,0.0712755,-0.0937568,0.145318,-0.126377,-0.0856222,0.0265884,0.0163269,-0.00640869,-0.0429535,0.0500107,-0.197525,0.112076,0.00106812,-9.97986,0.055809,0.00156403,-0.12558,-1.2302,-0.0857544,-0.00148773,0.17868,0.0390244
2,4,10.0097,0,-0.00610352,-2.42714,0.0553758,-0.0753682,0.054128,0.0688341,-0.0934516,0.144708,-0.126682,-0.085317,0.0164032,0.00789642,-0.00175476,-0.0522614,0.0486374,-0.207024,0.105515,-0.00595093,-9.97986,0.058403,-0.000152588,-0.130234,-1.25,-0.0820541,0.00427246,0.181198,0.0366211
2,5,10.0097,0.0012207,-0.00656128,-2.42531,0.0562914,-0.075063,0.0562642,0.0697496,-0.0919257,0.146234,-0.124851,-0.0850118,0.000114441,0.0112152,0.00148773,-0.05867,0.0462341,-0.215492,0.100021,0.00617981,-9.97986,0.0508118,0.00293732,-0.127678,-1.25,-0.0785065,0.00167847,0.18074,0.0323105
2,6,10.0097,0.000610352,-0.00442505,-2.42562,0.0550706,-0.0738423,0.0550435,0.0706652,-0.0910102,0.146844,-0.125766,-0.0825704,-0.00804901,0.00751495,0.0102615,-0.0592041,0.0351334,-0.215797,0.0852966,0.00831604,-9.97986,0.0422287,0.0368118,-0.129509,-1.25,-0.0703049,-0.000267029,0.179329,0.0325012
2,7,10.0097,0,-0.00366211,-2.4247,0.055681,-0.073232,0.0547383,0.0706652,-0.0900947,0.146234,-0.123935,-0.0822652,-0.0050354,0.0105667,0.0105286,-0.0460815,0.0167084,-0.212021,0.0701904,0.00602722,-9.97986,0.037384,0.0268936,-0.133553,-1.25,-0.0640106,0.00259399,0.175056,0.0291443
2,8,10.0097,0.000305176,-0.00305176,-2.42379,0.0578172,-0.0735371,0.0538228,0.0712755,-0.0922309,0.14776,-0.123325,-0.0822652,0.00507355,0.0117493,0.0125504,-0.0344086,0,-0.203705,0.0568771,-0.00255585,-9.97986,0.0321579,-0.023613,-0.138702,-1.25,-0.0570679,0.0018692,0.163956,0.0272751
2,9,10.0097,0.000305176,-0.00198364,-2.42562,0.0575121,-0.0735371,0.0562642,0.0709703,-0.0916206,0.147455,-0.123325,-0.0813497,0.0019455,0.0173569,0.0218201,-0.0302887,-0.0215149,-0.184174,0.0484085,-0.00354767,-9.97986,0.0209045,-0.0473404,-0.136566,-1.25,-0.0507736,0.00724792,0.158768,0.0233841
3,0,10.0097,0.000305176,-0.00198364,-2.4247,0.055681,-0.0744527,0.0547383,0.0706652,-0.0919257,0.145929,-0.12363,-0.0810445,0.0111389,0.0204849,0.0231171,-0.0341034,-0.041275,-0.166016,0.0380325,0.00358582,-9.97986,0.00938416,-0.0640488,-0.142593,-1.25,-0.0425339,0.00343323,0.150032,0.0212097
3,1,10.0097,0.000915527,0.000152588,-2.42623,0.0565965,-0.0747579,0.054128,0.0575426,-0.0931465,0.146234,-0.126072,-0.0810445,0.0196457,0.0208282,0.0272751,-0.0356674,-0.0577545,-0.148582,0.0288391,0.00713348,-9.97986,0.00827789,-0.0654221,-0.139465,-1.25,-0.0370789,0.00190735,0.140305,0.019455
3,2,10.0097,0.000610352,0.00396729,-2.42653,0.0562914,-0.073232,0.0544332,0.0608995,-0.0919257,0.146234,-0.125461,-0.0804342,0.0142288,0.0153732,0.0243759,-0.0261688,-0.0708389,-0.120621,0.0164413,0.0184631,-9.97986,0.0154877,-0.0169754,-0.133095,-1.25,-0.0291443,0.0037384,0.128021,0.0174713
3,3,10.0097,0.0012207,0.00656128,-2.42745,0.0559862,-0.075063,0.054128,0.0645616,-0.0922309,0.145624,-0.125156,-0.0816549,0.02491,0.00835419,0.0266647,-0.0262451,-0.0795746,-0.0909042,0.00648499,0.0410843,-9.97986,0.0212479,-0.0102615,-0.138321,-1.25,-0.0228119,0.00682831,0.11837,0.0106049
3,4,10.0097,0.00244141,0.0111389,-2.42684,0.0569017,-0.075063,0.0532125,0.0731066,-0.0913154,0.145624,-0.124546,-0.0789083,0.0317764,0.0168991,0.0394821,-0.0159454,-0.0933075,-0.0605392,-0.0043869,0.0490952,-9.97986,0.0352478,-0.017128,-0.138702,-1.11458,-0.0143814,0.00492096,0.103722,0.0104141
3,5,10.0097,0.00244141,0.025177,-2.42806,0.0547655,-0.0747579,0.0532125,0.0874498,-0.0913154,0.144403,-0.125156,-0.0764669,0.0215149,0.0216293,0.0434113,-0.000152588,-0.10582,-0.0342178,-0.0124359,0.0501251,-9.97986,0.0331879,-0.0230026,-0.142212,-0.760117,-0.0121307,0.00209808,0.092926,0.00679016
3,6,10.0097,0.000305176,0.0331116,-2.42806,0.0541551,-0.0744527,0.0529073,0.0743273,-0.0943672,0.145318,-0.126072,-0.0767721,0.0180817,0.0240707,0.0431824,0.0263214,-0.112839,-0.00621796,-0.0148773,0.0564957,-9.97986,0.0234985,-0.0241089,-0.145149,-0.36232,0.00221252,0.000228882,0.0779343,0.00656128
3,7,10.0097,-0.000305176,0.0224304,-2.42837,0.0544603,-0.0759786,0.0532125,0.0706652,-0.094062,0.143792,-0.127292,-0.0834859,0.0204849,0.0289154,0.0459671,0.0457382,-0.124931,0.0282669,-0.0348663,0.0471115,-9.97986,0.0172424,-0.0130463,-0.144272,-0.231819,0.00522614,-0.00362396,0.0644684,0.00377655
3,8,10.0097,0.0012207,-0.00198364,-2.42776,0.0535448,-0.0759786,0.0526021,0.0706652,-0.0949775,0.144098,-0.126987,-0.0886739,0.0169754,0.0357437,0.0437164,0.0357056,-0.13279,0.0583649,-0.0426483,0.0423813,-9.97986,0.0192261,-0.00125885,-0.134888,-0.409775,0.0188446,-0.000419617,0.0510025,0.00301361
3,9,10.0097,0.0012207,-0.00869751,-2.43111,0.0532396,-0.0762837,0.0519917,0.0688341,-0.095893,0.145013,-0.128208,-0.0871481,0.0110245,0.0362015,0.0409317,-0.0150299,-0.137672,0.091095,-0.0463867,0.0243759,-9.97986,0.0282669,-0.00751495,-0.131187,-0.496941,0.025177,-0.00171661,0.0354004,-0.00038147
4,0,10.0097,0.0012207,0.0125122,-2.42837,0.0538499,-0.0762837,0.0532125,0.0685289,-0.095893,0.142877,-0.128208,-0.0816549,0.00713348,0.0419235,0.0432205,-0.0477219,-0.153198,0.124588,-0.0590515,0.0160217,-9.97986,0.0284958,-0.0231934,-0.126839,-0.227623,0.0334167,0.000610352,0.0226593,-0.00320435
4,1,10.0097,0.000305176,0.0285339,-2.42806,0.0535448,-0.0753682,0.0529073,0.0697496,-0.0928413,0.144708,-0.126987,-0.0773824,0.00782013,0.0421143,0.0549316,-0.0180054,-0.157471,0.156174,-0.0609589,0.018425,-9.97986,0.0342941,-0.0378418,-0.117531,0.166893,0.0361252,0,0.00965118,-0.00530243
4,2,10.0097,0.00274658,0.0358582,-2.42714,0.0547655,-0.0759786,0.0532125,0.0697496,-0.094062,0.144708,-0.126987,-0.0737203,0.0114059,0.0385284,0.0653839,0.0236893,-0.161781,0.188904,-0.0691223,0.0414658,-9.97986,0.0471497,-0.0218582,-0.114708,0.593071,0.0424957,0.00263214,-0.00213623,-0.0062561
4,3,10.0097,0.00244141,0.0378418,-2.42714,0.0541551,-0.0756734,0.0526021,0.0694445,-0.0931465,0.145929,-0.126987,-0.0755514,0.0147629,0.0364304,0.0703812,0.0366592,-0.168991,0.217285,-0.0771713,0.0510025,-9.97986,0.0640488,-0.023613,-0.111809,0.98896,0.0490189,0.00297546,-0.014801,-0.0108719
4,4,10.0097,0.000610352,0.0267029,-2.42714,0.0547655,-0.0759786,0.0529073,0.0694445,-0.0934516,0.145013,-0.126682,-0.0776876,0.0135422,0.0346756,0.0673676,0.0439835,-0.173569,0.241318,-0.0766754,0.0431442,-9.97986,0.0490189,-0.0458145,-0.107155,1.18431,0.0619125,-0.00087738,-0.0252914,-0.00980377
4,5,10.0097,0.000305176,0.0198364,-2.42531,0.0559862,-0.0726216,0.0553487,0.0694445,-0.0910102,0.145318,-0.125156,-0.0767721,0.0109482,0.0327301,0.0661087,0.0218582,-0.182343,0.269394,-0.0801849,0.0434875,-9.97986,0.0302887,-0.0616455,-0.0987625,1.24996,0.0593185,0.00217438,-0.0337982,-0.0118637
4,6,10.0097,-0.000610352,0.018158,-2.42531,0.0559862,-0.0735371,0.0535176,0.0700548,-0.0919257,0.146539,-0.124546,-0.0758566,0.0128937,0.0292969,0.0590897,0.0113297,-0.182343,0.290184,-0.0839615,0.0196457,-9.97986,0.0157928,-0.0596237,-0.0907516,1.24996,0.0657272,0.00362396,-0.0426483,-0.0130081
4,7,10.0097,0.000915527,0.0146484,-2.4244,0.0559862,-0.0747579,0.0556539,0.0709703,-0.0913154,0.146844,-0.123935,-0.0767721,0.0146484,0.0278473,0.0479507,0.0431061,-0.186195,0.302658,-0.0859451,-0.03479,-9.97986,0.014534,-0.045166,-0.0832367,1.24996,0.076828,-0.00225067,-0.044136,-0.0146866
4,8,10.0097,0.000915527,0.012207,-2.42623,0.055681,-0.073232,0.0550435,0.07036,-0.0903999,0.146539,-0.12363,-0.0786031,0.0146866,0.0368881,0.0359726,0.0666428,-0.18383,0.322456,-0.0944519,-0.0254822,-9.97986,0.0209045,-0.043869,-0.0729752,1.24996,0.0821304,0.00514984,-0.0505447,-0.0140762
4,9,10.0097,0.000610352,0.012207,-2.42501,0.0587328,-0.0729268,0.0522969,0.0715807,-0.0913154,0.146234,-0.12363,-0.0773824,0.0156403,0.0271606,0.0141144,0.0614166,-0.183754,0.338173,-0.0922394,0.0209808,-9.97986,0.0297165,-0.0373077,-0.0644302,1.24996,0.0918961,-0.00152588,-0.0580978,-0.0138855
5,0,10.0097,0.0012207,0.00976563,-2.42531,0.0565965,-0.0744527,0.0556539,0.0712755,-0.0913154,0.146234,-0.123935,-0.0792135,0.00743866,0.0297928,0.00732422,0.0497055,-0.180435,0.335884,-0.0920486,0.0518417,-9.97986,0.0339508,-0.0300598,-0.0618744,1.24996,0.0920868,-0.00286102,-0.0613785,-0.014267
5,1,10.0097,0.000305176,0.00686646,-2.42714,0.0553758,-0.0729268,0.0535176,0.0572374,-0.0928413,0.146234,-0.125461,-0.0813497,0.00556946,0.0239944,-0.00270844,0.0402451,-0.182953,0.331612,-0.0933838,0.0586319,-9.97986,0.0314713,-0.0151825,-0.0551224,1.24996,0.0933456,-0.00350952,-0.0701523,-0.0194168
5,2,10.0097,0,0.00473022,-2.42623,0.0559862,-0.0735371,0.0577901,0.0605944,-0.0934516,0.145624,-0.125461,-0.0810445,0.00495911,0.0203705,-0.0118637,0.0344849,-0.179787,0.328751,-0.0966644,0.04673,-9.97986,0.0295258,-0.00286102,-0.042305,1.24996,0.0940323,-0.00579834,-0.075798,-0.0173187
5,3,10.0097,-0.000305176,0.00488281,-2.42592,0.0553758,-0.0741475,0.054128,0.0654772,-0.0919257,0.145318,-0.125156,-0.0813497,0.00389099,0.00946045,-0.0201416,0.0345612,-0.173759,0.325928,-0.0980377,0.0356293,-9.97986,0.0276184,-0.00663757,-0.0340652,1.24996,0.0917053,-0.00480652,-0.0819778,-0.0197601
5,4,10.0097,-0.000610352,0.00534058,-2.42653,0.0538499,-0.075063,0.0556539,0.0749376,-0.0931465,0.146234,-0.124851,-0.0825704,0.00797272,0.00846863,-0.0257492,0.030365,-0.16758,0.310097,-0.0905991,0.0413132,-9.97986,0.0199127,-0.0143433,-0.0268173,1.24996,0.0938416,-0.00728607,-0.0783157,-0.0200272
5,5,10.0097,0.00152588,0.000915527,-2.42776,0.0535448,-0.075063,0.0529073,0.0853136,-0.0922309,0.144098,-0.125766,-0.085317,0.0105286,0.00587463,-0.0240707,0.0154495,-0.164528,0.305176,-0.092392,0.0416946,-9.97986,0.00495911,-0.0210953,-0.0265503,1.24996,0.0978851,-0.00686646,-0.079689,-0.0203705
5,6,10.0097,0,-0.00289917,-2.42837,0.0544603,-0.0756734,0.0522969,0.0746324,-0.0949775,0.144403,-0.126987,-0.0874532,0.0100708,0.0140381,-0.0203705,0.0117111,-0.15976,0.295525,-0.0907516,0.0426483,-9.97986,0.00480652,-0.0107574,-0.019989,1.24996,0.100403,-0.00160217,-0.0751114,-0.0181961
5,7,10.0097,0.000610352,-0.00396729,-2.42837,0.0538499,-0.0768941,0.0529073,0.0715807,-0.0955879,0.143792,-0.126377,-0.0874532,0.00923157,0.0205994,-0.0188828,0.00274658,-0.150185,0.282936,-0.0869751,0.0331116,-9.97986,0.00350952,-0.00480652,-0.0112534,1.24996,0.0972366,-0.000801086,-0.0629425,-0.0164413
5,8,10.0097,0.000915527,-0.00335693,-2.42776,0.0541551,-0.0759786,0.0529073,0.07036,-0.0934516,0.146844,-0.126987,-0.0868429,0.00961304,0.0255585,-0.0188446,-0.00843048,-0.145683,0.266647,-0.0840759,0.0242996,-9.97986,0.00263214,-0.000991821,-0.00865936,1.24996,0.098114,-0.00305176,-0.0572205,-0.0166321
5,9,10.0097,-0.00183105,-0.0050354,-2.42898,0.0547655,-0.0756734,0.0519917,0.0688341,-0.0952827,0.143792,-0.126072,-0.0877584,0.00930786,0.0231934,-0.0212097,-0.0151443,-0.13382,0.25219,-0.0811386,0.0302887,-9.97986,0.0103378,-0.0128937,-0.00213623,1.24996,0.105934,-0.00347137,-0.0462341,-0.0187302
6,0,10.0097,0.000915527,-0.00701904,-2.42928,0.0541551,-0.0796407,0.0522969,0.0688341,-0.0946723,0.141351,-0.128208,-0.0877584,0.0105286,0.000305176,-0.0175095,-0.033493,-0.124397,0.239563,-0.0786209,0.0292969,-9.97986,0.0094223,-0.0178146,0.00038147,1.24996,0.103912,-0.000724792,-0.03685,-0.0147247
6,1,10.0097,0.000915527,-0.00396729,-2.42837,0.0538499,-0.075063,0.0532125,0.0712755,-0.0934516,0.143487,-0.126987,-0.0865377,0.00904083,-0.0146484,-0.0167084,-0.0587463,-0.118752,0.227242,-0.0730896,0.0236511,-9.97986,0.0143814,0.000152588,0,1.24996,0.105591,0.00167847,-0.0295258,-0.014267
6,2,10.0097,0.000915527,-0.00289917,-2.42714,0.0550706,-0.0753682,0.0532125,0.07036,-0.0925361,0.145013,-0.127292,-0.0862325,0.0102234,-0.00480652,-0.00789642,-0.0408554,-0.10582,0.214233,-0.0750732,0.0178146,-9.97986,0.0216675,0.00793457,0.00976563,1.24996,0.10128,0.00156403,-0.0201416,-0.0152969
6,3,10.0097,0.00183105,-0.0038147,-2.42714,0.0550706,-0.0741475,0.0538228,0.0694445,-0.0934516,0.144098,-0.126072,-0.0859274,0.00595093,0.000457764,-0.000648499,-0.0329971,-0.0952911,0.200272,-0.0678635,0.0271988,-9.97986,0.022316,0.0114441,0.00694275,1.24996,0.106697,3.8147e-005,-0.0110245,-0.0181961
6,4,10.0097,-0.000305176,-0.00518799,-2.42684,0.055681,-0.0753682,0.0538228,0.0694445,-0.0931465,0.143487,-0.125461,-0.085317,0.0118637,0.00591278,0.00938416,-0.0413895,-0.0857162,0.188637,-0.0637054,0.0276184,-9.97986,0.0154877,0.00812531,0.0121689,1.24996,0.103188,0.000801086,-0.00469208,-0.016098
6,5,10.0097,0,-0.00442505,-2.42531,0.0569017,-0.075063,0.0535176,0.0700548,-0.0916206,0.145624,-0.124546,-0.0834859,0.00976563,0.00640869,0.0174332,-0.0509644,-0.0728989,0.171738,-0.0625992,0.0239944,-9.97986,0.00484467,0.0012207,0.0142288,1.24996,0.101509,0.000495911,0.00110626,-0.0154495
6,6,10.0097,0.00183105,-0.00823975,-2.42592,0.0562914,-0.075063,0.0544332,0.0709703,-0.0913154,0.145929,-0.124241,-0.0840963,0.0124359,0.011673,0.0106812,-0.0682449,-0.0626755,0.162392,-0.0592422,0.0191879,-9.97986,0.00190735,-0.00526428,0.0185013,1.24996,0.100937,0.00289917,0.00465393,-0.0150681
6,7,10.0097,0.000305176,-0.0120544,-2.4247,0.0578172,-0.0735371,0.0547383,0.0715807,-0.0919257,0.147149,-0.123935,-0.0850118,0.0104904,0.0161743,0.0115204,-0.0241089,-0.0474167,0.148849,-0.0550461,0.0217056,-9.97986,0.00419617,-0.0115967,0.0214005,1.24996,0.103455,0.00259399,0.00984192,-0.0153351
6,8,10.0097,0.000305176,-0.0119019,-2.42531,0.0569017,-0.0747579,0.0538228,0.0712755,-0.0922309,0.144403,-0.12363,-0.0847066,0.00984192,0.0102997,0.0146866,0.0347519,-0.0408173,0.133057,-0.0536346,0.0155258,-9.97986,-0.000267029,-0.0151443,0.0211334,1.16886,0.0987244,-0.00473022,0.00419617,-0.0200272
6,9,10.0097,0.00183105,-0.0117493,-2.42531,0.0565965,-0.0726216,0.0550435,0.0709703,-0.0916206,0.14837,-0.124241,-0.0837911,0.0145721,0.016098,0.0237656,0.0143814,-0.0284958,0.118141,-0.0436401,0.0124359,-9.97986,0.000228882,-0.00141144,0.0275421,1.04446,0.103874,0.00465393,0.0133133,-0.0117874
7,0,10.0097,0.000305176,-0.0114441,-2.4244,0.0559862,-0.0747579,0.055959,0.0718859,-0.090705,0.146234,-0.123935,-0.0837911,0.0120163,0.020752,0.0275421,-0.0417709,-0.0215912,0.103455,-0.0395966,0.0112915,-9.97986,-0.00564575,-0.000228882,0.0277328,0.925713,0.092926,-0.00171661,0.00778198,-0.0150299
7,1,10.0097,0.00183105,-0.00991821,-2.42653,0.0559862,-0.0744527,0.0532125,0.0575426,-0.0937568,0.147149,-0.125156,-0.0847066,0.0176239,0.00549316,0.0368118,-0.0851059,-0.0102615,0.0855255,-0.0365067,0.0138855,-9.97986,-0.00484467,-0.000457764,0.0306702,0.84938,0.0963974,0.00225067,0.00869751,-0.0139999
7,2,10.0097,0.000915527,-0.00823975,-2.42623,0.055681,-0.0744527,0.0547383,0.0593737,-0.0922309,0.146234,-0.126377,-0.0840963,0.0108337,0.0125122,0.0579834,-0.087738,-0.00717163,0.0684738,-0.0336456,0.0088501,-9.97986,-0.00541687,0.00480652,0.0318909,0.786095,0.0963211,0.0037384,0.00549316,-0.0133133
7,3,10.0097,0,-0.00610352,-2.42714,0.0553758,-0.0747579,0.0538228,0.0666979,-0.0931465,0.144403,-0.125156,-0.0847066,0.0116348,0.0166321,0.0703812,-0.0583267,0.00244141,0.0476456,-0.0201416,0.0170898,-9.97986,0.000495911,0.00873566,0.038681,0.723839,0.0944519,0.00465393,0.00545502,-0.0137329
7,4,10.0097,-0.000305176,-0.00534058,-2.42623,0.0550706,-0.0753682,0.0544332,0.0743273,-0.0922309,0.145318,-0.124851,-0.0847066,0.0094223,0.0191879,0.0712967,-0.0212097,0.0141525,0.0329971,-0.0169754,0.0191879,-9.97986,0.000801086,0.0222015,0.0358582,0.677567,0.0917053,0.00301361,0.00774384,-0.0123978
7,5,10.0097,-0.000610352,-0.0012207,-2.42745,0.055681,-0.0753682,0.0538228,0.0859239,-0.0913154,0.145318,-0.125461,-0.0844015,0.0146103,0.0239944,0.0718689,0.036087,0.016861,0.0150681,-0.0120163,0.018692,-9.97986,-0.00175476,0.025444,0.0383377,0.67421,0.0914383,0.00289917,0.00728607,-0.0157928
7,6,10.0097,-0.000610352,-0.00213623,-2.42867,0.0541551,-0.0744527,0.0529073,0.0749376,-0.0937568,0.143792,-0.127292,-0.0874532,0.0123215,0.0359726,0.0675583,0.0844955,0.0260925,-0.0025177,-0.01297,0.0276184,-9.97986,-0.000648499,0.0272369,0.0460434,0.649757,0.0921631,0.00587463,0.0069046,-0.0135803
7,7,10.0097,-0.000305176,-0.00366211,-2.42837,0.0544603,-0.0765889,0.0532125,0.0688341,-0.0952827,0.142267,-0.126987,-0.0871481,0.0106049,0.0333405,0.0520706,0.119972,0.0273895,-0.018692,-0.0112534,0.0432968,-9.97986,-0.00141144,0.0218582,0.0416946,0.596504,0.0917053,0.00160217,0.00679016,-0.0157547
7,8,10.0097,0.000610352,-0.00473022,-2.42837,0.0535448,-0.0753682,0.0522969,0.0694445,-0.0946723,0.143792,-0.126072,-0.0868429,0.00232697,0.039444,0.0476074,0.139771,0.0340271,-0.0296402,-0.0120163,0.0429535,-9.97986,0.000953674,0.0217438,0.0459671,0.553856,0.0929642,0.00106812,0.00923157,-0.0140762
7,9,10.0097,0.0012207,-0.00534058,-2.42989,0.0547655,-0.0729268,0.0516866,0.0682238,-0.095893,0.143182,-0.126987,-0.0883688,0.00450134,0.0417709,0.0499725,0.130844,0.0388336,-0.0355911,-0.00740051,0.0383377,-9.97986,0.00415802,0.00583649,0.0514984,0.497627,0.0922012,0.00255585,0.014534,-0.0151825
8,0,10.0097,0.000305176,-0.00534058,-2.42989,0.0535448,-0.0759786,0.0522969,0.0679186,-0.0949775,0.144403,-0.128208,-0.0883688,0.00587463,0.0409698,0.0487518,0.0957108,0.048027,-0.0438309,-0.00328064,0.0444794,-9.97986,0.0030899,-0.0030899,0.0553513,0.452232,0.0907516,0.00484467,0.0197983,-0.0151062
8,1,10.0097,0.000915527,-0.00747681,-2.42776,0.0547655,-0.0759786,0.0532125,0.0676134,-0.0946723,0.144098,-0.126682,-0.0880636,0.00747681,0.0398254,0.0470352,0.0632095,0.0519562,-0.0548172,-0.0050354,0.0488663,-9.97986,0.00198364,-0.00267029,0.0560379,0.354767,0.08564,0.00236511,0.0219345,-0.0154877
8,2,10.0097,0,-0.0111389,-2.42806,0.0544603,-0.0756734,0.0526021,0.0694445,-0.0952827,0.144098,-0.126682,-0.0880636,0.00293732,0.0487137,0.0371552,0.0470352,0.0517654,-0.0667572,-0.00278473,0.051651,-9.97986,-0.00747681,0.00385284,0.0569153,0.230331,0.0852585,-0.0019455,0.0226593,-0.0170898
8,3,10.0097,-0.000610352,-0.0112915,-2.42898,0.0544603,-0.0756734,0.0532125,0.0685289,-0.0934516,0.144708,-0.126682,-0.0880636,0.0102997,0.0446701,0.0251389,0.0365829,0.0664139,-0.0646973,0.00156403,0.0553131,-9.97986,0.00293732,0.0115967,0.0575638,0.102043,0.0889969,0,0.028801,-0.0128555
8,4,10.0097,-0.000610352,-0.0140381,-2.42653,0.0544603,-0.0744527,0.0538228,0.07036,-0.0925361,0.144708,-0.125156,-0.0880636,0.0182724,0.0389862,0.0075531,0.0145721,0.0678635,-0.0690842,-0.00522614,0.034256,-9.97986,0.0111008,0.0147247,0.0655365,-0.0674057,0.0840759,-0.00358582,0.0340271,-0.0177765
8,5,10.0097,0.000915527,-0.0108337,-2.42562,0.055681,-0.0762837,0.0544332,0.0691393,-0.0931465,0.144403,-0.124851,-0.085317,0.0163651,0.0313187,-0.000724792,0.00354767,0.0692749,-0.0751877,0.00312805,0.0337982,-9.97986,0.00911713,0.0143051,0.0658035,-0.148735,0.0818253,-0.00534058,0.034256,-0.0174332
8,6,10.0097,0,-0.00976563,-2.42592,0.0572069,-0.075063,0.0538228,0.0712755,-0.0913154,0.146234,-0.125156,-0.085317,0.00900269,0.0250244,-0.0105286,0.0134659,0.0852966,-0.08255,0.00106812,0.0188446,-9.97986,0.0148392,0.0144196,0.0675583,-0.264053,0.0730896,-0.0107193,0.0363159,-0.019722
8,7,10.0097,0.000915527,-0.018158,-2.42592,0.0559862,-0.0738423,0.0547383,0.0718859,-0.0913154,0.146234,-0.124241,-0.0871481,0.0114822,0.0153732,-0.0109863,0.0230026,0.0880814,-0.0845337,0.00228882,0.00831604,-9.97986,0.0184631,0.00801086,0.0686264,-0.48008,0.0657272,-0.00972748,0.0434494,-0.0189972
8,8,10.0097,0.000610352,-0.0189209,-2.4244,0.0565965,-0.0741475,0.054128,0.0706652,-0.0922309,0.145929,-0.125156,-0.0862325,0.00553131,0.0127029,-0.0188065,0.0187683,0.0939178,-0.0922775,0.00644684,0.00957489,-9.97986,0.0156403,0.0123215,0.0754166,-0.699272,0.0617599,-0.0043869,0.0478363,-0.0177002
8,9,10.0097,-0.0012207,-0.0224304,-2.42531,0.0562914,-0.0729268,0.0550435,0.072191,-0.0922309,0.145013,-0.12363,-0.0880636,0.00160217,0.0124359,-0.0195313,0.00270844,0.101471,-0.0879288,0.00228882,0.0296021,-9.97986,0.0234985,0.0169373,0.074501,-0.950928,0.0548935,-0.00526428,0.0509644,-0.0162888
9,0,10.0097,0.000610352,-0.0184631,-2.4247,0.0581224,-0.075063,0.0550435,0.0709703,-0.0919257,0.146844,-0.125156,-0.0856222,0.00640869,0.0166702,-0.0172424,-0.0192642,0.10601,-0.0906372,0.00160217,0.0551987,-9.97986,0.023613,0.0176239,0.0794983,-1.10466,0.046196,-0.00511169,0.0596237,-0.0193787
9,1,10.0097,0.000610352,-0.0114441,-2.42653,0.0547655,-0.0741475,0.054128,0.0590685,-0.0925361,0.145318,-0.124851,-0.0847066,0.00530243,0.0132751,-0.0156784,-0.0350571,0.108986,-0.095787,-0.00152588,0.0415802,-9.97986,0.0310516,0.0216675,0.0847244,-1.17203,0.0402832,-0.0030899,0.0601196,-0.018959
9,2,10.0097,0,-0.00946045,-2.42562,0.0559862,-0.0747579,0.0535176,0.0605944,-0.0928413,0.145318,-0.125766,-0.0844015,0.0108719,0.0154877,-0.0105286,-0.0446701,0.11528,-0.0949097,-0.00427246,0.0159454,-9.97986,0.0323486,0.026207,0.0877762,-1.25,0.0365829,-0.00339508,0.0636292,-0.0196457
9,3,10.0097,-0.000610352,-0.00473022,-2.42684,0.0559862,-0.0756734,0.0547383,0.0660875,-0.0922309,0.144708,-0.126377,-0.0840963,0.00587463,0.00972748,-0.0123596,-0.0359344,0.120811,-0.0972748,-0.0101471,0.00480652,-9.97986,0.02491,0.0254059,0.0909805,-1.25,0.027771,0.00274658,0.0622177,-0.0211716
9,4,10.0097,-0.000915527,-0.00152588,-2.42592,0.0541551,-0.0747579,0.0547383,0.0728014,-0.0922309,0.144708,-0.125461,-0.0834859,0.0133133,0.0138855,-0.014801,-0.0291824,0.128288,-0.100288,-0.00728607,0.00179291,-9.97986,0.0226212,0.0256729,0.0943375,-1.25,0.0221634,0.00377655,0.068512,-0.0240707
9,5,10.0097,0.00213623,0.00106812,-2.42898,0.0541551,-0.0759786,0.0532125,0.0834825,-0.0925361,0.143792,-0.126377,-0.0834859,0.0222778,0.0187302,-0.0102234,-0.0369644,0.129013,-0.0980377,0.00736237,0.0050354,-9.97986,0.0211716,0.0272751,0.0998688,-1.21735,0.0131226,0.00534058,0.0673294,-0.0299454
9,6,10.0097,0.00152588,0.00274658,-2.42867,0.0538499,-0.0744527,0.0522969,0.0731066,-0.0928413,0.143487,-0.126682,-0.0862325,0.030632,0.018959,-0.00221252,-0.0622559,0.130272,-0.0973511,0.0365067,-0.00751495,-9.97986,0.0225067,0.0300598,0.106697,-1.18237,0.0101089,0.0103378,0.0681305,-0.0267792
9,7,10.0097,0.00183105,0.00274658,-2.42837,0.0535448,-0.0759786,0.0522969,0.0706652,-0.0949775,0.144708,-0.127598,-0.0850118,0.0211334,0.00850677,0.0094986,-0.0867081,0.13298,-0.0931168,0.0667953,-0.0193024,-9.97986,0.0233078,0.0287628,0.101433,-1.13983,0.00865936,0.00988007,0.0715256,-0.026207
9,8,10.0097,0.00152588,0.00335693,-2.42928,0.0538499,-0.0765889,0.0529073,0.0688341,-0.0943672,0.144403,-0.126377,-0.0859274,0.0196075,0.0109482,0.0157547,-0.132217,0.137405,-0.0893021,0.0920868,-0.0191498,-9.97986,0.0226593,0.0308228,0.108223,-1.1058,0.00610352,0.0109863,0.0702667,-0.0257492
9,9,10.0097,0.0012207,0.00137329,-2.42989,0.0532396,-0.075063,0.0516866,0.0676134,-0.0934516,0.144708,-0.127292,-0.0874532,0.0135422,0.0162506,0.020752,-0.200272,0.139275,-0.0856781,0.12043,0.00328064,-9.97986,0.0177765,0.0314331,0.110741,-1.08467,-0.000457764,0.0127792,0.0709534,-0.0260544
10,0,10.0097,0.000915527,0.00656128,-2.42806,0.0526292,-0.0762837,0.0529073,0.0682238,-0.0937568,0.142572,-0.129123,-0.0840963,0.0178909,0.019455,0.0214005,-0.166588,0.137329,-0.0803757,0.143204,0.013237,-9.97986,0.0185013,0.0339508,0.113411,-0.978775,-0.0104523,0.0120926,0.0685501,-0.0276184
10,1,10.0097,0.0012207,0.0100708,-2.42806,0.0550706,-0.0762837,0.0526021,0.0688341,-0.0943672,0.144708,-0.127598,-0.0828756,0.0175476,0.0201797,0.0178146,-0.0325775,0.145378,-0.07164,0.155334,0.0152588,-9.97986,0.026474,0.0267792,0.118561,-0.848579,-0.0138855,0.0141144,0.0655365,-0.0266266
10,2,10.0097,0.00152588,0.00930786,-2.42745,0.0541551,-0.0768941,0.0516866,0.0691393,-0.0946723,0.144098,-0.126682,-0.0825704,0.0167084,0.0138092,0.0115967,0.052948,0.139465,-0.0650406,0.164185,0.0150299,-9.97986,0.0375748,0.0311661,0.120392,-0.747986,-0.0170898,0.0101471,0.0656509,-0.0282288
10,3,10.0097,-0.0012207,0.00930786,-2.42684,0.055681,-0.0717061,0.054128,0.0685289,-0.0928413,0.145013,-0.126072,-0.0822652,0.0165558,0.0185394,0.00850677,0.0766754,0.145531,-0.0580978,0.171432,0.00648499,-9.97986,0.0370789,0.0226212,0.123177,-0.661049,-0.0273895,0.0126648,0.0613403,-0.0258255
10,4,10.0097,0.000915527,0.00930786,-2.42684,0.0553758,-0.0744527,0.0529073,0.0694445,-0.0928413,0.145624,-0.126072,-0.0813497,0.0156021,0.0287628,0.00427246,0.0816727,0.150223,-0.0518417,0.168533,0.0194168,-9.97986,0.0333023,0.0207138,0.126114,-0.560455,-0.0299454,0.00991821,0.0605011,-0.0261307
10,5,10.0097,0.000610352,0.0134277,-2.42501,0.055681,-0.0747579,0.0529073,0.0718859,-0.0931465,0.146539,-0.124851,-0.078298,0.0140381,0.0310135,0.000152588,0.0896454,0.146713,-0.0424194,0.168495,0.018959,-9.97986,0.0150299,0.0147629,0.126839,-0.38662,-0.0302124,0.00736237,0.0547791,-0.0248718
10,6,10.0097,0.00183105,0.0157166,-2.42531,0.0562914,-0.0741475,0.0553487,0.0715807,-0.0916206,0.145929,-0.124241,-0.0776876,0.0144958,0.0336838,0.00679016,0.0967026,0.147972,-0.0331879,0.161629,0.02388,-9.97986,0.0120544,0.00579834,0.125275,-0.210571,-0.0370407,0.000801086,0.0524521,-0.026741
10,7,10.0097,0.000915527,0.0160217,-2.42592,0.0565965,-0.0729268,0.0544332,0.0700548,-0.0910102,0.146539,-0.124241,-0.0770773,0.0146484,0.0415421,0.022583,0.10498,0.147247,-0.0263596,0.15934,0.0187683,-9.97986,0.0177765,0.00617981,0.122681,-0.0353622,-0.0396729,0.00209808,0.0453568,-0.0269699
10,8,10.0097,0,0.0135803,-2.42531,0.0559862,-0.0744527,0.0547383,0.0706652,-0.0919257,0.146844,-0.123935,-0.0773824,0.0114822,0.0414276,0.0351715,0.0946045,0.143661,-0.0137329,0.152435,0.0187683,-9.97986,0.0222015,0.0018692,0.12188,0.0801468,-0.0470734,0.000152588,0.0413895,-0.0275421
10,9,10.0097,0.00183105,0.0119019,-2.4244,0.0565965,-0.0735371,0.0553487,0.072191,-0.0922309,0.147455,-0.12302,-0.0776876,0.0119781,0.0427628,0.0439072,0.0592422,0.141716,-0.0107956,0.142136,0.0265884,-9.97986,0.0283813,0.0122833,0.125237,0.182953,-0.0489807,0.00232697,0.034256,-0.0267029
11,0,10.0097,0.00152588,0.0123596,-2.4244,0.0562914,-0.075063,0.0532125,0.0715807,-0.0913154,0.145318,-0.12302,-0.0758566,0.00656128,0.0402832,0.0469971,0.0621033,0.144539,-0.00156403,0.134888,0.0284576,-9.97986,0.0273514,0.00389099,0.12413,0.316582,-0.0460815,0.00480652,0.0271606,-0.0295258
11,1,10.0097,0.0012207,0.00732422,-2.42653,0.0562914,-0.075063,0.0544332,0.0575426,-0.0937568,0.146234,-0.125766,-0.0795187,0.00209808,0.0319672,0.044632,0.105057,0.134773,-0.00213623,0.129089,0.0244904,-9.97986,0.0196075,-0.0114441,0.118752,0.368156,-0.0493622,0.00656128,0.0211334,-0.0307846
11,2,10.0097,0.000305176,0.0050354,-2.42592,0.0553758,-0.0744527,0.0544332,0.059984,-0.0928413,0.146539,-0.125766,-0.0810445,0.00965118,0.0296021,0.0531006,0.12989,0.135918,0.00343323,0.122681,0.0271606,-9.97986,0.0166321,0.00038147,0.121536,0.408478,-0.0505829,0.0124359,0.0158691,-0.0271988
11,3,10.0097,0.000610352,0.00366211,-2.42562,0.0553758,-0.0753682,0.0532125,0.0660875,-0.0925361,0.145013,-0.125766,-0.0819601,0.00965118,0.0232697,0.0686646,0.112114,0.124855,0.0130081,0.116386,0.0286102,-9.97986,0.0124741,0.0193024,0.121422,0.425339,-0.0469971,0.0172043,0.00846863,-0.027504
11,4,10.0097,0.00152588,0.00152588,-2.42653,0.0562914,-0.0744527,0.054128,0.0737169,-0.0919257,0.145624,-0.125461,-0.0825704,0.0147247,0.0244904,0.0807953,0.0819778,0.120888,0.0137329,0.104866,0.0312042,-9.97986,0.0147247,0.0328827,0.12188,0.419502,-0.0443649,0.01194,0.00167847,-0.0283813
11,5,10.0097,0.000305176,0.0012207,-2.42837,0.0544603,-0.0753682,0.0538228,0.0865343,-0.0913154,0.148675,-0.125156,-0.0844015,0.010643,0.0247574,0.112762,0.0722885,0.112381,0.0126648,0.101585,0.0295258,-9.97986,0.0128937,0.0255203,0.120735,0.408974,-0.0413513,0.019989,-0.00549316,-0.0284958
11,6,10.0097,0.000305176,-0.00137329,-2.42806,0.0544603,-0.0759786,0.0522969,0.0749376,-0.0946723,0.142877,-0.126682,-0.0862325,0.00679016,0.0270081,0.138206,0.122681,0.107613,0.00671387,0.0962448,0.0288773,-9.97986,0.0165939,0.0118637,0.114822,0.377655,-0.0379944,0.00907898,-0.0107193,-0.0297546
11,7,10.0097,0.0012207,-0.000457764,-2.42837,0.0535448,-0.0762837,0.0529073,0.0709703,-0.0946723,0.144403,-0.126682,-0.0859274,0.00209808,0.0212479,0.151901,0.143127,0.105095,-0.00499725,0.0875092,0.0270081,-9.97986,0.0170135,0.00869751,0.113716,0.389023,-0.0345612,0.00858307,-0.0171661,-0.0322342
11,8,10.0097,-0.00152588,0.00320435,-2.42928,0.0544603,-0.0756734,0.0516866,0.0706652,-0.0946723,0.143487,-0.127292,-0.085317,0.000724792,0.0227737,0.141602,0.124397,0.0981903,-0.0108337,0.0846481,0.0094223,-9.97986,0.0233459,0.00900269,0.113754,0.456581,-0.0273514,0.00392914,-0.0240707,-0.0295639
11,9,10.0097,0.00152588,0.00473022,-2.42837,0.0541551,-0.0753682,0.0529073,0.0700548,-0.0946723,0.138604,-0.127598,-0.0856222,0.00404358,0.0340652,0.114861,0.103416,0.0911331,-0.0201416,0.070343,-0.00461578,-9.97986,0.0218582,0.00270844,0.112381,0.511475,-0.0298691,-0.000572205,-0.0247955,-0.0294876
12,0,10.0097,-0.000915527,0.00228882,-2.42928,0.0550706,-0.0759786,0.0519917,0.0679186,-0.0952827,0.142572,-0.128208,-0.0871481,0.00492096,0.0476456,0.0841904,0.0778198,0.0823975,-0.0297546,0.0691605,-0.0120163,-9.97986,0.0200653,0.00141144,0.108643,0.514679,-0.0270844,-0.00869751,-0.0334167,-0.0283813
12,1,10.0097,-0.00152588,-0.00167847,-2.42806,0.0541551,-0.0768941,0.0522969,0.067003,-0.095893,0.142877,-0.127292,-0.0862325,0.00740051,0.0499344,0.0447845,0.0650787,0.0820923,-0.0446701,0.0645065,-0.0208282,-9.97986,0.0209427,-0.00530243,0.107918,0.47226,-0.0188065,-0.00370026,-0.0328827,-0.0302505
12,2,10.0097,-0.00305176,-0.00274658,-2.42776,0.0553758,-0.0744527,0.0529073,0.0691393,-0.0937568,0.143792,-0.127598,-0.0862325,0.00419617,0.0275421,-0.0143814,0.0553513,0.0674438,-0.0596237,0.0641251,-0.0289917,-9.97986,0.0173187,-0.0196075,0.101738,0.438614,-0.0203323,-0.00370026,-0.0411224,-0.0257111
12,3,10.0097,-0.0012207,-0.000305176,-2.42714,0.055681,-0.0738423,0.054128,0.07036,-0.0937568,0.145013,-0.126072,-0.0844015,0.00133514,0.018959,-0.0683212,0.0466537,0.0628662,-0.0805664,0.0665665,-0.0350571,-9.97986,0.0148773,-0.0131226,0.104256,0.453796,-0.0190735,-0.00164032,-0.042038,-0.0258636
12,4,10.0097,-0.000610352,0.00137329,-2.42714,0.0535448,-0.0759786,0.054128,0.0691393,-0.094062,0.143792,-0.125766,-0.0837911,0.00797272,0.0194168,-0.110588,0.0341797,0.0546646,-0.094223,0.0585938,-0.0392532,-9.97986,0.0152969,0.00488281,0.10231,0.469437,-0.0127411,0.000457764,-0.0431061,-0.0257492
12,5,10.0097,0.00213623,0.00183105,-2.4247,0.0565965,-0.0738423,0.0544332,0.0706652,-0.0928413,0.146234,-0.125766,-0.0822652,0.00637054,0.0133514,-0.130157,0.0337219,0.0483322,-0.109673,0.0612259,-0.0387955,-9.97986,0.0147629,0.00709534,0.0988007,0.491524,-0.0141144,0.00350952,-0.045929,-0.0247574
12,6,10.0097,0.00183105,0.00427246,-2.42714,0.0565965,-0.0744527,0.0550435,0.0712755,-0.0910102,0.146234,-0.124241,-0.0804342,0.00946045,0.0115585,-0.115623,0.0252914,0.0440979,-0.12352,0.0530624,-0.0432587,-9.97986,0.0101471,0.00606537,0.0944901,0.549202,-0.0112152,0.00930786,-0.0492477,-0.0211716
12,7,10.0097,0,0.00411987,-2.42592,0.0565965,-0.0723164,0.0547383,0.0706652,-0.090705,0.146844,-0.12363,-0.0810445,0.00812531,0.0133133,-0.0949097,0.015564,0.0388336,-0.139084,0.0498962,-0.0487518,-9.97986,0.0104904,0.0115967,0.0917053,0.586662,-0.0133514,0.0146484,-0.0538635,-0.0204849
12,8,10.0097,0.00152588,0.00183105,-2.4247,0.0562914,-0.0735371,0.0547383,0.0709703,-0.0922309,0.146539,-0.124851,-0.0813497,0.00995636,0.0123215,-0.07061,0.0107574,0.0296783,-0.152626,0.0424957,-0.0565338,-9.97986,0.0105667,0.00701904,0.0891876,0.586662,-0.00926971,0.014267,-0.0534058,-0.018425
12,9,10.0097,-0.000915527,0.0012207,-2.42501,0.0575121,-0.0744527,0.0547383,0.0709703,-0.0925361,0.147149,-0.124241,-0.0810445,0.0044632,0.0031662,-0.055542,0.00705719,0.0257111,-0.166359,0.0416565,-0.0427246,-9.97986,0.00961304,-0.014267,0.0859451,0.583878,-0.00835419,0.0134277,-0.0570297,-0.0200653
13,0,10.0097,0.0012207,0.000915527,-2.42409,0.0572069,-0.073232,0.0547383,0.0709703,-0.0916206,0.145318,-0.12363,-0.080129,0.00572205,0.0025177,-0.0357819,0.00606537,0.0165176,-0.174789,0.0311661,-0.0492477,-9.97986,0.00545502,-0.0148773,0.0806046,0.596352,-0.0133896,0.0114059,-0.0562286,-0.0189209
13,1,10.0097,0.000305176,0,-2.42684,0.0553758,-0.0747579,0.0532125,0.058153,-0.0925361,0.145624,-0.125156,-0.0810445,3.8147e-005,0.0062561,-0.018692,-0.000572205,0.0169373,-0.182114,0.0338745,-0.0642776,-9.97986,0.00686646,0.00217438,0.0800705,0.598946,-0.0152969,0.00640869,-0.0556564,-0.0133514
13,2,10.0097,0.000915527,0.00213623,-2.4247,0.0569017,-0.0747579,0.054128,0.0602892,-0.0922309,0.146539,-0.125156,-0.0810445,0.00637054,0.0136566,-0.0044632,-0.00217438,0.0105286,-0.190506,0.0264359,-0.102196,-9.97986,0.0105667,-0.00133514,0.0755692,0.633545,-0.0155258,0.00556946,-0.0576401,-0.0112915
13,3,10.0097,-0.000305176,0.00457764,-2.42684,0.0559862,-0.0747579,0.0538228,0.0663927,-0.0934516,0.145929,-0.125156,-0.0828756,0.00946045,0.019455,0.00953674,-0.00984192,0.00598907,-0.195694,0.0244141,-0.151482,-9.97986,0.00610352,-0.0204086,0.0708771,0.694084,-0.0182724,0.000724792,-0.0561142,-0.00862122
13,4,10.0097,0.000610352,0.00274658,-2.42562,0.0559862,-0.0744527,0.0544332,0.0746324,-0.0928413,0.147149,-0.125766,-0.0825704,0.00732422,0.0243759,0.0188065,-0.00804901,-0.00202179,-0.199509,0.0222015,-0.14782,-9.97986,0.00675201,-0.0206757,0.0658798,0.700493,-0.0215149,-0.0044632,-0.0535583,-0.00713348
13,5,10.0097,-0.00213623,0,-2.42837,0.0538499,-0.0765889,0.0529073,0.0834825,-0.0922309,0.144708,-0.125766,-0.085317,0.0114441,0.0292206,0.0194168,-0.00907898,-0.0106812,-0.201111,0.0172424,-0.188026,-9.97986,0.00335693,-0.0122452,0.0668335,0.666313,-0.0150681,-0.00736237,-0.0502777,-0.00293732
13,6,10.0097,-0.00427246,-0.00411987,-2.42837,0.0532396,-0.0756734,0.0526021,0.0746324,-0.0952827,0.143487,-0.126682,-0.0880636,0.014534,0.0244522,0.00930786,-0.0100708,-0.0167847,-0.200768,0.0170517,-0.333176,-9.97986,0.00289917,-0.00766754,0.0614548,0.601807,-0.0150299,-0.00751495,-0.0501251,-0.00232697
13,7,10.0097,-0.000305176,-0.00701904,-2.42837,0.0547655,-0.075063,0.0529073,0.0709703,-0.0943672,0.143182,-0.127292,-0.0883688,0.0251007,0.021286,0.00339508,-0.01091,-0.0202179,-0.198479,0.0143051,-0.410805,-9.97986,0.00171661,-0.00411987,0.0609589,0.511818,-0.0123596,-0.00823975,-0.0429535,-0.00236511
13,8,10.0097,-0.000610352,-0.00396729,-2.42837,0.0535448,-0.075063,0.0519917,0.0700548,-0.0949775,0.144098,-0.126072,-0.0871481,0.022583,0.0281906,0.0236511,-0.0197601,-0.0213242,-0.193634,0.0107956,-0.447083,-9.97986,0.0012207,-0.0038147,0.0575256,0.486221,-0.0182724,-0.0120163,-0.0427628,-0.00263214
13,9,10.0097,0.000915527,-0.00396729,-2.42867,0.0544603,-0.0753682,0.0513814,0.0688341,-0.094062,0.143487,-0.127598,-0.0883688,0.0138092,0.0354385,0.0357437,-0.0192261,-0.0267792,-0.186729,0.00843048,-0.510025,-9.97986,0.00350952,0.00205994,0.0556564,0.447884,-0.0174332,-0.00335693,-0.0402832,0.00350952
14,0,10.0097,0,-0.00595093,-2.42867,0.0535448,-0.0756734,0.0529073,0.0685289,-0.0949775,0.144403,-0.126377,-0.0877584,0.0115585,0.0347519,0.0391006,-0.0191498,-0.0337219,-0.184822,0.00858307,-0.57827,-9.97986,0.00183105,-0.00804901,0.0492859,0.382042,-0.0233459,-0.00537872,-0.0375748,0.00514984
14,1,10.0097,0.000610352,-0.00198364,-2.42867,0.0535448,-0.0759786,0.0529073,0.0691393,-0.0946723,0.144403,-0.126987,-0.0859274,0.0118637,0.0462723,0.0439453,-0.0187302,-0.0377655,-0.17601,0.00946045,-0.626411,-9.97986,0.00343323,-0.0082016,0.0537109,0.386086,-0.0201797,-0.00602722,-0.0317383,0.00705719
14,2,10.0097,0.000305176,-0.00228882,-2.42776,0.0553758,-0.0756734,0.0522969,0.0673082,-0.0946723,0.144098,-0.126987,-0.0859274,0.00205994,0.0508118,0.0399017,-0.0213623,-0.0395966,-0.169258,0.00640869,-0.641937,-9.97986,0.00587463,-0.00331879,0.0460815,0.360222,-0.0224686,-0.00705719,-0.0271225,0.00789642
14,3,10.0097,-0.000305176,-0.00350952,-2.42623,0.0547655,-0.0753682,0.0538228,0.0694445,-0.0934516,0.144708,-0.126377,-0.0862325,0.00087738,0.0617218,0.029068,-0.0218201,-0.0405502,-0.162048,0.00465393,-0.62973,-9.97986,0.00507355,0.00286102,0.0470734,0.30983,-0.0179291,-0.00671387,-0.0269699,0.0100327
14,4,10.0097,0.00183105,-0.00640869,-2.42714,0.0547655,-0.075063,0.0495503,0.0694445,-0.0931465,0.145318,-0.126072,-0.0865377,-0.00431061,0.0533676,0.0168991,-0.0186539,-0.0415039,-0.153732,0.00167847,-0.574951,-9.97986,0.00160217,-0.00297546,0.0423431,0.227699,-0.0185013,0.00114441,-0.021553,0.0164413
14,5,10.0097,0,-0.00946045,-2.42623,0.0569017,-0.0744527,0.0526021,0.0715807,-0.0916206,0.145013,-0.125156,-0.0850118,0.00850677,0.033493,0.00282288,-0.0204468,-0.0463867,-0.150795,0.000610352,-0.520973,-9.97986,0.00247955,-0.016861,0.0373459,0.0998306,-0.0152969,0.00419617,-0.0239944,0.0144958
14,6,10.0097,-0.000305176,-0.010376,-2.42501,0.0550706,-0.0744527,0.0538228,0.0718859,-0.0928413,0.146844,-0.125156,-0.0840963,0.018158,0.0304413,0.00480652,-0.0227737,-0.043869,-0.143471,3.8147e-005,-0.486984,-9.97986,0.00282288,-0.0255585,0.0356293,-0.00782013,-0.0121689,0.00453949,-0.0163269,0.0180817
14,7,10.0097,-0.000305176,-0.010376,-2.4244,0.055681,-0.0744527,0.055959,0.072191,-0.090705,0.14837,-0.124546,-0.085317,0.0151062,0.0364304,0.0165558,-0.0163651,-0.0526047,-0.136719,-0.00549316,-0.459595,-9.97986,0.00576019,-0.0242615,0.0317383,-0.128174,-0.00957489,0.000839233,-0.0123215,0.0188446
14,8,10.0097,0.000610352,-0.0128174,-2.42501,0.0559862,-0.0741475,0.0538228,0.0709703,-0.0903999,0.145929,-0.12363,-0.0847066,0.018158,0.0413132,0.0157166,-0.0138855,-0.0481415,-0.127487,-0.00480652,-0.460777,-9.97986,0.0106049,-0.0205612,0.0310516,-0.268364,-0.00709534,-0.000114441,-0.0104141,0.0213242
14,9,10.0097,0.00366211,-0.0115967,-2.42501,0.0562914,-0.0738423,0.0547383,0.0709703,-0.0903999,0.145624,-0.125156,-0.0834859,0.0144577,0.0254822,0.00762939,-0.0151443,-0.0429916,-0.11692,-0.00396729,-0.433998,-9.97986,0.00938416,-0.016098,0.0304413,-0.3862,-0.0101471,-0.0063324,-0.00926971,0.0244522
15,0,10.0097,0.0012207,-0.0115967,-2.42501,0.0569017,-0.0729268,0.0501607,0.0697496,-0.0913154,0.145624,-0.123325,-0.0834859,0.0124741,-0.00541687,0.00236511,-0.016098,-0.0532532,-0.103531,-0.00408173,-0.402412,-9.97986,0.00545502,-0.0131989,0.0257492,-0.485306,-0.0116348,-0.00892639,-0.00469208,0.0272751
15,1,10.0097,0.000610352,-0.0109863,-2.42501,0.0550706,-0.0744527,0.0538228,0.0578478,-0.0922309,0.144708,-0.125766,-0.0856222,0.00839233,-0.0182724,0.00347137,-0.0178146,-0.0636292,-0.103264,-0.00930786,-0.409813,-9.97986,0.0043869,-0.0173569,0.0256729,-0.586243,-0.0100708,-0.0175858,-0.00450134,0.0305939
15,2,10.0097,0,-0.0114441,-2.42562,0.0562914,-0.0735371,0.0538228,0.0590685,-0.0928413,0.146539,-0.125156,-0.085317,-0.000228882,-0.0183105,0.0069809,-0.0195313,-0.0634384,-0.0919724,-0.00495911,-0.415306,-9.97986,0.00240326,-0.0193405,0.024147,-0.705681,-0.00442505,-0.0273514,-0.00343323,0.0320053
15,3,10.0097,0.00213623,-0.0108337,-2.42623,0.0553758,-0.0738423,0.0538228,0.0666979,-0.0928413,0.146539,-0.125766,-0.085317,-0.00640869,0,0.0151443,-0.0253677,-0.0771332,-0.0772476,-0.0056076,-0.407028,-9.97986,-0.00198364,-0.0182343,0.019722,-0.808067,-0.00225067,-0.0236511,-0.00106812,0.0323105
15,4,10.0097,0.0012207,-0.00762939,-2.42623,0.0547655,-0.0744527,0.0532125,0.0740221,-0.0919257,0.142267,-0.125766,-0.0859274,0.000915527,0.0271988,0.0226974,-0.0238419,-0.0735855,-0.0665283,-0.00461578,-0.369339,-9.97986,-0.010643,-0.00862122,0.015564,-0.874977,0.00671387,-0.0227737,0.00480652,0.0354767
15,5,10.0097,0.00152588,-0.00518799,-2.42745,0.0553758,-0.075063,0.0547383,0.0847032,-0.0910102,0.145013,-0.125766,-0.0862325,-0.000419617,0.0179672,0.0231171,-0.0170898,-0.0786591,-0.0460815,-0.00793457,-0.31826,-9.97986,-0.00801086,-0.0037384,0.0133896,-0.932236,0.00450134,-0.0180435,-0.00164032,0.0337219
15,6,10.0097,0.000610352,-0.00595093,-2.42928,0.0544603,-0.0759786,0.0519917,0.0740221,-0.0946723,0.143487,-0.126377,-0.0874532,-0.001297,0.00564575,0.0339127,-0.0125122,-0.0829315,-0.0397873,-0.00823975,-0.324402,-9.97986,-0.00240326,-0.00167847,0.00808716,-0.98114,0.0185394,-0.0138092,0.00232697,0.037117
15,7,10.0097,-0.000305176,-0.00579834,-2.42989,0.0544603,-0.0762837,0.0526021,0.0718859,-0.0943672,0.144403,-0.127598,-0.0883688,0.00244141,0.00801086,0.0354767,-0.00831604,-0.0775909,-0.0229645,-0.00480652,-0.345306,-9.97986,-0.00453949,-0.00732422,0.00701904,-1.02886,0.0221634,-0.00938416,0.00587463,0.0408936
15,8,10.0097,0.00183105,-0.00213623,-2.4302,0.0538499,-0.0753682,0.0526021,0.0697496,-0.0946723,0.143792,-0.126377,-0.0865377,0.00686646,0.0252914,0.0419235,-0.00179291,-0.0849915,-0.00980377,-0.00701904,-0.335236,-9.97986,-0.00106812,-0.0126648,0.00938416,-1.02688,0.0305939,-0.00431061,0.00488281,0.0400925
15,9,10.0097,0.00244141,-0.000457764,-2.4302,0.0532396,-0.0753682,0.0510762,0.0697496,-0.0949775,0.143792,-0.127292,-0.0868429,0.0102615,0.0286484,0.0456238,-0.00679016,-0.0890732,0.000991821,-0.00888824,-0.298538,-9.97986,0.0141907,-0.00576019,0.000190735,-1.00163,0.0340271,-0.00785828,0.00347137,0.0408173
16,0,10.0097,0.00183105,0.000762939,-2.42898,0.0541551,-0.0741475,0.0516866,0.0676134,-0.0955879,0.143487,-0.129429,-0.0874532,0.00705719,0.0289154,0.0424194,-0.00556946,-0.0914001,0.0191116,-0.00415802,-0.252686,-9.97986,0.0232697,-0.000267029,-0.00324249,-0.976486,0.0365067,-0.0157547,0.00232697,0.041008
16,1,10.0097,0.000305176,0.00167847,-2.42806,0.0541551,-0.075063,0.0519917,0.0697496,-0.0937568,0.143792,-0.127598,-0.085317,0.00720978,0.0385284,0.0376511,-0.00492096,-0.0858688,0.0278473,-0.00911713,-0.253983,-9.97986,0.0312424,-0.00324249,-0.00343323,-0.943565,0.0388336,-0.0236893,0.00366211,0.042305
16,2,10.0097,0.00274658,0.00457764,-2.42714,0.0547655,-0.0747579,0.0538228,0.0700548,-0.0943672,0.145318,-0.127292,-0.0844015,0.00297546,0.0533295,0.0495148,-0.0166702,-0.0859833,0.0455093,-0.00740051,-0.234146,-9.97986,0.0350189,-0.00167847,-0.000991821,-0.87513,0.0429916,-0.0251389,0.00614166,0.0378418
16,3,10.0097,0.00183105,0.00488281,-2.42714,0.0538499,-0.0753682,0.0532125,0.0682238,-0.094062,0.143792,-0.123325,-0.0834859,0.00461578,0.0460052,0.0553513,-0.016861,-0.0815964,0.0625992,-0.00537872,-0.180969,-9.97986,0.0225449,-0.000610352,-0.00862122,-0.821877,0.0485229,-0.0419235,0.00518799,0.0382233
16,4,10.0097,0.00274658,0.00289917,-2.42714,0.0550706,-0.0744527,0.0532125,0.0691393,-0.0931465,0.144708,-0.126682,-0.0834859,0.00793457,0.0289536,0.0531006,-0.0234985,-0.0783157,0.0780487,-0.00392914,-0.149765,-9.97986,0.0185013,0.000534058,-0.00843048,-0.788422,0.0507355,-0.0650406,0.00385284,0.0376129
16,5,10.0097,0.0012207,0.00350952,-2.4244,0.0559862,-0.0744527,0.0550435,0.0718859,-0.0934516,0.145013,-0.125156,-0.0810445,0.0131989,0.0380325,0.0443649,-0.00926971,-0.0708008,0.0948334,-0.00576019,-0.14637,-9.97986,0.0163651,0.00816345,-0.0106812,-0.754204,0.0528717,-0.0659561,0.00785828,0.0383377
16,6,10.0097,0.000915527,0.00244141,-2.42623,0.055681,-0.0738423,0.054128,0.0709703,-0.090705,0.146234,-0.124851,-0.0813497,0.0245667,0.0537491,0.0333023,-0.00476837,-0.0661469,0.104141,-0.00476837,-0.207405,-9.97986,0.0181198,0.00583649,-0.0182724,-0.747719,0.0514221,-0.0685501,0.00640869,0.0371552
16,7,10.0097,0.0012207,-0.000915527,-2.42501,0.0569017,-0.0738423,0.054128,0.0706652,-0.0922309,0.146844,-0.124546,-0.0819601,0.0181198,0.0651932,0.0257111,0.000686646,-0.0600433,0.116692,-0.0094223,-0.223427,-9.97986,0.0204468,0.00164032,-0.017395,-0.768776,0.0469589,-0.0622559,0.00640869,0.0374222
16,8,10.0097,0.000915527,-0.00183105,-2.42531,0.0559862,-0.0744527,0.0553487,0.0724962,-0.090705,0.145624,-0.123325,-0.0816549,0.0124741,0.0503159,0.0197983,0.00591278,-0.0440598,0.122147,-0.0172424,-0.139656,-9.97986,0.0218201,0.000267029,-0.0200272,-0.812912,0.0463486,-0.0547791,0.00549316,0.0404739
16,9,10.0097,0.00518799,-0.00259399,-2.42714,0.0559862,-0.0741475,0.0553487,0.0706652,-0.090705,0.143792,-0.124241,-0.0822652,0.00835419,-0.0135422,0.0144958,0.00347137,-0.0350952,0.125923,-0.0162888,-0.0752258,-9.97986,0.0276184,0.00854492,-0.0267792,-0.842972,0.0404358,-0.0410843,0.00926971,0.0409698
17,0,10.0097,0.0012207,-0.00259399,-2.42531,0.0559862,-0.0744527,0.0553487,0.07036,-0.0910102,0.146234,-0.124546,-0.0813497,0.00961304,-0.0437927,0.0101471,0.0100708,-0.0328827,0.122604,-0.0180817,-0.016861,-9.97986,0.0312424,0.0161743,-0.0242233,-0.877914,0.0352097,-0.0279999,0.00988007,0.0423813
17,1,10.0097,0.000915527,-0.00640869,-2.42501,0.0565965,-0.0747579,0.0535176,0.0569322,-0.0931465,0.144098,-0.126072,-0.0847066,0.00198364,-0.0400543,0.00331879,0.0134277,-0.0328827,0.123405,-0.0161743,0.0466156,-9.97986,0.0295639,0.0146484,-0.0271225,-0.94738,0.0349426,-0.0204468,0.0154114,0.0470352
17,2,10.0097,-0.000915527,-0.00762939,-2.42592,0.0572069,-0.0738423,0.0544332,0.0605944,-0.0934516,0.147149,-0.125156,-0.0844015,0.00213623,-0.0332642,-0.00667572,0.017128,-0.0286484,0.123024,-0.0154114,0.0844193,-9.97986,0.0240707,0.0194168,-0.0281906,-1.02676,0.032196,-0.0286865,0.0144958,0.0465393
17,3,10.0097,0.000610352,-0.00671387,-2.42714,0.0559862,-0.0756734,0.054128,0.0673082,-0.0928413,0.148675,-0.126987,-0.085317,-0.00545502,-0.0382233,-0.00717163,0.0144958,-0.0292969,0.122185,-0.0138855,0.0774765,-9.97986,0.0157547,0.0193405,-0.0281143,-1.10413,0.0320435,-0.0318909,0.0144577,0.0460434
17,4,10.0097,0.00152588,-0.00808716,-2.42592,0.0553758,-0.0747579,0.0547383,0.0746324,-0.0919257,0.145929,-0.124851,-0.0859274,0.00198364,-0.043602,0.00392914,0.0124741,-0.0276184,0.120506,-0.0112534,0.0676346,-9.97986,0.00823975,0.0115204,-0.0380325,-1.19102,0.0307846,-0.0317764,0.0173187,0.0455856
17,5,10.0097,0.00152588,-0.00488281,-2.42653,0.0535448,-0.0759786,0.0532125,0.0843981,-0.0928413,0.145929,-0.125156,-0.0859274,0.0141907,0.0258636,0.012207,0.0109482,-0.0251007,0.128708,-0.0143051,0.103378,-9.97986,0.00831604,0.0154495,-0.0374985,-1.24321,0.0294495,-0.0314713,0.0186157,0.0431061
17,6,10.0097,0,-0.00396729,-2.42837,0.0538499,-0.0747579,0.0532125,0.0746324,-0.0946723,0.143792,-0.126987,-0.0871481,0.00709534,0.0803375,0.029068,0.00469208,-0.019989,0.134048,-0.0152206,0.126839,-9.97986,0.0134659,0.0248337,-0.0360489,-1.25,0.0260162,-0.0317764,0.019989,0.0405121
17,7,10.0097,-0.00213623,-0.00167847,-2.42867,0.0535448,-0.075063,0.0516866,0.0718859,-0.0949775,0.142572,-0.127292,-0.0859274,-0.00133514,0.0475693,0.0335693,0.00534058,-0.0200653,0.14164,-0.0205994,0.111923,-9.97986,0.0138092,0.0247192,-0.0391388,-1.24218,0.0201035,-0.0331497,0.0200272,0.0397873
17,8,10.0097,0.000915527,0.00350952,-2.42867,0.0535448,-0.0753682,0.0513814,0.0688341,-0.0961982,0.141961,-0.127292,-0.0850118,0.00396729,-0.00232697,0.0366974,-0.00289917,-0.0146103,0.144196,-0.0183487,0.0910187,-9.97986,0.0171661,0.0334167,-0.0406265,-1.17153,0.0107193,-0.0312042,0.0234604,0.0360489
17,9,10.0097,0.00305176,0.00137329,-2.42867,0.0538499,-0.0756734,0.0519917,0.0682238,-0.0937568,0.143487,-0.126377,-0.0874532,0.0138474,0.00465393,0.032196,-0.0124741,-0.00514984,0.144348,-0.0206757,0.127907,-9.97986,0.0148773,0.0268555,-0.0407028,-1.17065,0.0107574,-0.0296402,0.030098,0.0327301
18,0,10.0097,0.000915527,-0.00137329,-2.42959,0.0532396,-0.0762837,0.0513814,0.0700548,-0.0949775,0.144708,-0.127292,-0.0877584,0.0182724,0.0302505,0.0372314,-0.00812531,0.00541687,0.150909,-0.0151062,0.184364,-9.97986,0.0196838,0.0199127,-0.0277328,-1.19892,0.0120926,-0.023613,0.0373459,0.0286484
18,1,10.0097,0.00152588,0.000610352,-2.42806,0.0526292,-0.075063,0.0535176,0.0691393,-0.094062,0.145013,-0.127903,-0.0859274,0.0151062,0.0445175,0.0366974,-0.011673,0.0154877,0.150604,-0.0198746,0.17067,-9.97986,0.0272369,0.0210953,-0.0196075,-1.17649,0.0037384,-0.0230026,0.0352478,0.0332642
18,2,10.0097,0.00274658,0,-2.42684,0.0538499,-0.0747579,0.0526021,0.0709703,-0.0925361,0.144403,-0.126072,-0.0865377,0.0185776,0.0698853,0.0196075,-0.0249863,0.0274277,0.15274,-0.00957489,0.190125,-9.97986,0.0299454,0.0224686,-0.00980377,-1.18057,0.0136566,-0.0149536,0.0317001,0.0370789
18,3,10.0097,0.000610352,-0.00213623,-2.42776,0.0544603,-0.0747579,0.0535176,0.07036,-0.0937568,0.144098,-0.126987,-0.0850118,0.0247955,0.060463,0.00915527,-0.0338745,0.0352859,0.1577,-0.0115204,0.240211,-9.97986,0.0412369,0.0127792,-0.0114441,-1.21872,0.00923157,-0.00961304,0.03685,0.0370407
18,4,10.0097,0.000305176,-0.00183105,-2.42653,0.0550706,-0.075063,0.0529073,0.0700548,-0.0922309,0.143792,-0.126072,-0.0847066,0.0222397,0.0303268,0.0152969,-0.0176239,0.0442505,0.163841,-0.0131607,0.277214,-9.97986,0.0499344,0.000724792,-0.0206757,-1.24107,0.00190735,-0.00923157,0.0330353,0.0387573
18,5,10.0097,0.00152588,-0.00198364,-2.42653,0.0559862,-0.0738423,0.0532125,0.0694445,-0.0928413,0.145318,-0.125156,-0.0831808,0.0204849,0.0265884,0.00667572,-0.00492096,0.0551224,0.160103,-0.00869751,0.297203,-9.97986,0.0534821,0.00106812,-0.0285721,-1.25,-0.00392914,-0.00179291,0.0387955,0.038414
18,6,10.0097,-0.0012207,-0.00213623,-2.42592,0.0565965,-0.0729268,0.0556539,0.072191,-0.0922309,0.145624,-0.123325,-0.0819601,0.012207,-0.014801,-0.0191498,-0.00198364,0.0653458,0.156441,-0.0108719,0.316772,-9.97986,0.0506973,0.00434875,-0.0304413,-1.25,-0.00457764,-0.00175476,0.042038,0.0396729
18,7,10.0097,0.00244141,-0.000762939,-2.4244,0.0569017,-0.0744527,0.0550435,0.0709703,-0.0916206,0.146234,-0.125156,-0.0810445,0.0167847,-0.0372314,-0.0202179,0.0146103,0.0705719,0.161476,-0.00709534,0.342522,-9.97986,0.0534439,0.00991821,-0.0326157,-1.25,-0.0069809,-0.00183105,0.0399399,0.0447464
18,8,10.0097,0.000610352,0.00167847,-2.42562,0.055681,-0.0741475,0.0556539,0.0709703,-0.0922309,0.14776,-0.12363,-0.0807394,0.0136948,0.00228882,-0.0102997,0.0069809,0.0737,0.159874,-0.00854492,0.353012,-9.97986,0.0409698,0.0104141,-0.0350952,-1.23474,-0.0062561,0.000114441,0.0383377,0.0434113
18,9,10.0097,0.0012207,0.00396729,-2.42562,0.0562914,-0.0729268,0.054128,0.0706652,-0.0916206,0.146234,-0.12363,-0.0789083,0.0165176,0.0235367,-0.0037384,-0.0209045,0.0807953,0.157127,-0.00659943,0.368729,-9.97986,0.0382996,0.0130844,-0.0314331,-1.1808,-0.00732422,-0.000915527,0.0381851,0.0458145
19,0,10.0097,-0.000610352,0.00595093,-2.42501,0.0572069,-0.0738423,0.0550435,0.0706652,-0.0916206,0.14776,-0.123935,-0.0786031,0.0161362,0.00789642,-0.00808716,-0.0418854,0.0774002,0.15831,-0.00450134,0.383415,-9.97986,0.0309372,0.0172806,-0.0359726,-1.10531,-0.0087738,-0.00167847,0.0370789,0.0484848
19,1,10.0097,0.0012207,0.00595093,-2.42592,0.0559862,-0.0741475,0.0538228,0.0578478,-0.0919257,0.147455,-0.125766,-0.080129,0.0128174,-0.00770569,-0.0043869,-0.0355148,0.0785828,0.155373,-0.00133514,0.392876,-9.97986,0.0416946,0.0293732,-0.0300598,-1.02573,-0.00457764,-0.00415802,0.042038,0.0553894
19,2,10.0097,-0.0012207,0.00518799,-2.42653,0.0565965,-0.0747579,0.0532125,0.0596788,-0.0925361,0.144708,-0.126072,-0.0804342,0.00873566,-0.0367355,-0.00518799,-0.0244904,0.0751877,0.150795,-0.00766754,0.401993,-9.97986,0.0248718,0.0232315,-0.0405884,-0.96981,-0.0127792,-0.0102234,0.027504,0.0444794
19,3,10.0097,0.0012207,0.00762939,-2.42684,0.0550706,-0.0735371,0.0535176,0.0660875,-0.0925361,0.145318,-0.124851,-0.080129,0.0140381,-0.0464249,-0.0206375,-0.0063324,0.0807571,0.153427,-0.000534058,0.422821,-9.97986,0.0273132,0.0429535,-0.0315475,-0.879898,-0.00411987,-0.00118256,0.0337982,0.0537872
19,4,10.0097,-0.000610352,0.00778198,-2.4244,0.0559862,-0.0744527,0.0538228,0.0737169,-0.0916206,0.144708,-0.125461,-0.0813497,0.0114441,-0.0461578,-0.0385284,0.00255585,0.0749588,0.145721,-0.000534058,0.435677,-9.97986,0.0255585,0.0288773,-0.0353241,-0.804329,-0.0133896,-0.00114441,0.0307465,0.0537872
19,5,10.0097,-0.000305176,0.00930786,-2.42837,0.0559862,-0.0759786,0.0526021,0.0859239,-0.0928413,0.143792,-0.126072,-0.0816549,0.0111771,-0.0372314,-0.0333786,-0.00434875,0.075798,0.145111,0.00293732,0.44754,-9.97986,0.0202942,0.0175095,-0.0299454,-0.7201,-0.00228882,0.0038147,0.0289154,0.0531387
19,6,10.0097,0,0.00793457,-2.42959,0.0544603,-0.0765889,0.0529073,0.0746324,-0.0961982,0.143487,-0.125156,-0.0837911,0.00938416,-0.0460434,-0.0205612,-0.0233841,0.0802612,0.147896,0.00274658,0.451241,-9.97986,0.0209808,0.00831604,-0.0324631,-0.641785,-0.00564575,-0.00244141,0.0284958,0.0562668
19,7,10.0097,0.000305176,0.00717163,-2.42806,0.0535448,-0.0762837,0.0519917,0.0694445,-0.0943672,0.144098,-0.126987,-0.0844015,0.013504,-0.0342178,-0.0202942,-0.0516891,0.0802231,0.14843,0.00389099,0.459785,-9.97986,0.018158,0.00991821,-0.0302124,-0.568466,0.00102997,0.00530243,0.0255585,0.0576019
19,8,10.0097,0.000305176,0.00640869,-2.42989,0.0538499,-0.0753682,0.0529073,0.0685289,-0.0952827,0.143792,-0.127292,-0.0856222,0.0131989,-0.0202942,-0.0255203,-0.0628281,0.0801849,0.148926,0.00770569,0.462646,-9.97986,0.0172043,-0.00156403,-0.0296783,-0.505066,-0.00259399,0.0133514,0.0196457,0.0569534
19,9,10.0097,-0.000915527,0.00518799,-2.42867,0.0547655,-0.0762837,0.0522969,0.0682238,-0.0928413,0.144708,-0.127292,-0.085317,0.0133514,0.0138474,-0.0112534,-0.00831604,0.0775528,0.145912,0.0100327,0.445175,-9.97986,0.0140381,-0.00328064,-0.0268936,-0.448608,-0.00347137,0.0212479,0.0167084,0.0551605
20,0,10.0097,-0.000915527,0.00534058,-2.42928,0.0541551,-0.0756734,0.0526021,0.0688341,-0.0943672,0.145013,-0.127598,-0.0850118,0.0206757,0.0557327,0.00190735,0.0932312,0.0806427,0.145111,0.0115204,0.428047,-9.97986,0.00556946,0.00297546,-0.028801,-0.389671,-0.0038147,0.0278473,0.0139618,0.0563812
20,1,10.0097,0.000305176,0.00595093,-2.42928,0.0535448,-0.0747579,0.0529073,0.0691393,-0.0946723,0.144098,-0.126987,-0.0844015,0.0208282,0.0692368,0.00469208,0.135918,0.0825119,0.140038,0.00808716,0.410538,-9.97986,0.00907898,0.00587463,-0.0239182,-0.316658,-0.00431061,0.0299454,0.018158,0.0574875
20,2,10.0097,0.000915527,0.00640869,-2.42653,0.0559862,-0.0756734,0.0532125,0.0691393,-0.0919257,0.144098,-0.126682,-0.0837911,0.0160599,0.0548172,0.0120163,0.113602,0.0806808,0.136719,0.00759125,0.429611,-9.97986,0.00839233,0.0043869,-0.0228882,-0.238647,-0.000228882,0.040741,0.0159836,0.0548172
20,3,10.0097,0.000915527,0.00762939,-2.42745,0.0547655,-0.0744527,0.054128,0.0718859,-0.0937568,0.144098,-0.126377,-0.0819601,0.0151062,0.0188065,0.0143433,0.107498,0.0827789,0.131798,0.0107574,0.453873,-9.97986,0.00225067,0.017395,-0.0223923,-0.16037,0.00476837,0.0365067,0.0195694,0.0505447
20,4,10.0097,0.00396729,0.00839233,-2.42714,0.055681,-0.0747579,0.0538228,0.0694445,-0.0925361,0.145624,-0.125766,-0.0819601,0.0165176,0.00709534,0.0228119,0.10891,0.0827408,0.121346,0.0130463,0.460396,-9.97986,0.00343323,0.025177,-0.0205231,-0.0725174,0.00782013,0.0278473,0.0228882,0.0456238
20,5,10.0097,0.00305176,0.00839233,-2.42623,0.055681,-0.0738423,0.0535176,0.0715807,-0.0919257,0.145624,-0.125766,-0.080129,0.0239182,0.0134277,0.0340652,0.0855637,0.0847244,0.117035,0.0120163,0.516548,-9.97986,0.00770569,0.00701904,-0.0205612,0.00511169,0.0117111,0.0143814,0.0285339,0.0455475
20,6,10.0097,0.000610352,0.00762939,-2.4247,0.055681,-0.0741475,0.0556539,0.0706652,-0.0916206,0.145624,-0.123935,-0.0789083,0.0231934,0.0148773,0.0455093,0.0511169,0.0820541,0.109138,0.00724792,0.560532,-9.97986,0.00804901,-0.00663757,-0.0108337,0.0761795,0.0191879,0.00709534,0.0346756,0.0392151
20,7,10.0097,0.000305176,0.00778198,-2.42623,0.0562914,-0.0741475,0.054128,0.07036,-0.0903999,0.147149,-0.125156,-0.0789083,0.0199127,0.0286102,0.057869,0.0272369,0.0865555,0.104446,0.014534,0.576363,-9.97986,0.00541687,0.00606537,-0.0102997,0.153084,0.0251007,0.0062561,0.0412369,0.0354385
20,8,10.0097,0.000305176,0.00747681,-2.42592,0.0565965,-0.0741475,0.054128,0.0718859,-0.0913154,0.147455,-0.12363,-0.0795187,0.0177383,0.0424194,0.0524521,0.0252151,0.0852203,0.0973511,0.00778198,0.606956,-9.97986,0.0117874,0.0309753,-0.00988007,0.218697,0.0318146,0.0173187,0.0464249,0.0302887
20,9,10.0097,-0.000915527,0.00686646,-2.42531,0.0572069,-0.0738423,0.054128,0.0715807,-0.0913154,0.147149,-0.124851,-0.0786031,0.0166702,0.0545883,0.0463486,-0.00576019,0.0846481,0.0891113,0.0127792,0.601425,-9.97986,0.00579834,0.0445557,-0.0106049,0.283775,0.0428009,0.0263596,0.0517654,0.0238037
21,0,10.0097,-0.000610352,0.00701904,-2.4244,0.0559862,-0.0729268,0.0562642,0.0718859,-0.0910102,0.146539,-0.124241,-0.0795187,0.0128174,0.0606537,0.0469208,-0.0393677,0.0908279,0.0899887,0.0161362,0.557823,-9.97986,-0.00934601,0.0408936,-0.00968933,0.351639,0.0605392,0.0297546,0.0570297,0.0205994
21,1,10.0097,-0.000915527,0.00488281,-2.42501,0.055681,-0.0744527,0.0538228,0.0572374,-0.0928413,0.14776,-0.125156,-0.080129,0.0129318,0.073967,0.0391006,0.00934601,0.0908661,0.0836945,0.0118637,0.528412,-9.97986,-0.0270844,0.0226593,-0.0069809,0.398026,0.0620651,0.0343704,0.0601196,0.0168991
21,2,10.0097,-0.00305176,0.00473022,-2.42592,0.0553758,-0.0744527,0.0553487,0.0596788,-0.0922309,0.145929,-0.125766,-0.0807394,0.000991821,0.101547,0.0301361,0.0347137,0.0940704,0.0791168,0.0183487,0.425911,-9.97986,-0.03685,0.0217438,-0.00511169,0.444069,0.0579453,0.0309753,0.0653458,0.0143051
21,3,10.0097,-0.000610352,0.00534058,-2.42562,0.0550706,-0.0738423,0.0529073,0.0676134,-0.0931465,0.145318,-0.125461,-0.0816549,-0.0062561,0.0837708,0.026207,0.0294495,0.0920486,0.0783539,0.0167847,0.315895,-9.97986,-0.0353241,0.0246048,-0.00297546,0.493202,0.0647354,0.0260925,0.0729752,0.0115967
21,4,10.0097,0.00183105,0.0050354,-2.42562,0.0553758,-0.0747579,0.0550435,0.0740221,-0.0919257,0.144098,-0.125461,-0.0816549,-0.00579834,0.0535965,0.0372696,0.0520706,0.092659,0.0749207,0.0199509,0.306854,-9.97986,-0.0386429,-0.00713348,-0.00427246,0.524178,0.0649261,0.0186539,0.0755692,0.00667572
21,5,10.0097,-0.000305176,0.00350952,-2.42776,0.0547655,-0.0762837,0.0538228,0.0837877,-0.0922309,0.145013,-0.127292,-0.0859274,-0.00789642,0.0628281,0.0552368,0.0836563,0.0930786,0.0730896,0.0229645,0.258636,-9.97986,-0.0319672,-0.0352478,-0.00125885,0.534935,0.0619507,0.0063324,0.0727463,0.000991821
21,6,10.0097,0.000915527,0.00244141,-2.42959,0.0535448,-0.0759786,0.0532125,0.0746324,-0.095893,0.144098,-0.126987,-0.0859274,0.00293732,0.0554276,0.0652695,0.0763702,0.0904083,0.0706482,0.0162506,0.221901,-9.97986,-0.0201416,-0.0133896,-0.00305176,0.550003,0.061264,-0.00232697,0.0730133,-0.00278473
21,7,10.0097,-0.0012207,0.000457764,-2.42928,0.0535448,-0.0756734,0.0522969,0.0709703,-0.0946723,0.144708,-0.127292,-0.0865377,0.00934601,0.0334167,0.0695419,0.0457382,0.0960541,0.0721359,0.0180817,0.177345,-9.97986,0.00659943,-0.000190735,-0.00324249,0.546532,0.0633621,-0.00305176,0.0702667,-0.00694275
21,8,10.0097,0,-0.000915527,-2.42837,0.0535448,-0.075063,0.0526021,0.0694445,-0.0949775,0.143182,-0.128208,-0.0874532,0.0154114,0.034256,0.0769806,0.0396729,0.096817,0.0683594,0.0175858,0.0799179,-9.97986,0.0225067,-0.00747681,-0.00434875,0.533752,0.0668716,-0.000114441,0.0701904,-0.00606537
21,9,10.0097,0.00305176,-0.00152588,-2.42959,0.0547655,-0.0771993,0.0519917,0.0728014,-0.0949775,0.142267,-0.127292,-0.0874532,0.0111389,0.038681,0.0711441,0.0517654,0.0946426,0.0606155,0.017395,0.0727463,-9.97986,0.0302505,-0.0314713,-0.0043869,0.509834,0.0762939,-0.00144958,0.0689697,-0.0100327
22,0,10.0097,0.000610352,-0.00183105,-2.42837,0.0544603,-0.0756734,0.0522969,0.0688341,-0.0937568,0.143182,-0.126987,-0.0874532,0.00667572,0.0189972,0.060463,0.0075531,0.0967407,0.0588608,0.0203323,0.141106,-9.97986,0.0302887,-0.0483322,-0.00789642,0.488205,0.0751114,0.00411987,0.071907,-0.014534
22,1,10.0097,0.0012207,-0.00228882,-2.42867,0.0538499,-0.0771993,0.0522969,0.0679186,-0.0946723,0.143182,-0.127292,-0.0865377,0.0152206,-0.00263214,0.0452805,-0.0645065,0.0930023,0.0572205,0.0192642,0.181274,-9.97986,0.0299072,-0.0222015,-0.00473022,0.460854,0.082016,0.00843048,0.0762558,-0.0152588
22,2,10.0097,0.000305176,-0.00198364,-2.42776,0.0541551,-0.0756734,0.0532125,0.0715807,-0.0937568,0.144708,-0.126682,-0.0859274,0.0155258,0.00236511,0.0326157,-0.0873566,0.0904465,0.0535965,0.0147247,0.218925,-9.97986,0.0225449,-0.0109482,-0.0056076,0.437927,0.078125,0.0108719,0.0720978,-0.0222778
22,3,10.0097,-0.000915527,-0.00335693,-2.42745,0.055681,-0.0756734,0.0529073,0.0709703,-0.0934516,0.145318,-0.125766,-0.0847066,0.0120544,0.0140381,0.0261307,-0.0538254,0.0867462,0.0504303,0.019722,0.243912,-9.97986,0.0239182,-0.00137329,-0.00202179,0.39444,0.0811005,0.0123978,0.0712967,-0.0214005
22,4,10.0097,-0.000305176,-0.00289917,-2.42653,0.055681,-0.0741475,0.0532125,0.0706652,-0.0931465,0.144403,-0.126072,-0.0840963,0.0130844,0.00499725,0.00911713,-0.0325012,0.0837326,0.039444,0.0162888,0.234833,-9.97986,0.0276566,0.00408173,-0.00286102,0.36499,0.080452,0.00732422,0.0709915,-0.0242996
22,5,10.0097,0.00213623,-0.00289917,-2.42592,0.055681,-0.0744527,0.0544332,0.0731066,-0.0919257,0.146539,-0.124546,-0.0834859,0.0150299,-0.0113678,-0.0148392,-0.0136566,0.0826645,0.0328064,0.0139618,0.242043,-9.97986,0.030365,0.00774384,-0.00282288,0.340385,0.0809479,7.62939e-005,0.0714874,-0.0257492
22,6,10.0097,0.000305176,-0.00198364,-2.42501,0.0553758,-0.073232,0.0565694,0.07036,-0.0922309,0.145624,-0.124546,-0.0828756,0.0185394,-0.013504,-0.0111008,-0.0244904,0.0802994,0.0297928,0.0157928,0.26062,-9.97986,0.0345612,0.00244141,0.00198364,0.313454,0.0818253,0.00190735,0.0630951,-0.0285339
22,7,10.0097,0.000915527,-0.00137329,-2.42501,0.0559862,-0.0747579,0.0550435,0.0731066,-0.0916206,0.146844,-0.123935,-0.0819601,0.0204468,0.00415802,0.00587463,-0.0377655,0.076828,0.0256348,0.0156403,0.2668,-9.97986,0.0254822,-0.00480652,0.00347137,0.309486,0.0860977,0.000343323,0.0650406,-0.034256
22,8,10.0097,0.000305176,0.000152588,-2.4247,0.0575121,-0.0735371,0.054128,0.0706652,-0.0922309,0.145318,-0.124546,-0.0819601,0.018692,0.0302887,0.00415802,-0.0585938,0.0746918,0.0226593,0.0110626,0.262947,-9.97986,0.0288391,-0.0043869,0.00457764,0.307579,0.0856018,-0.00377655,0.0569534,-0.0362396
22,9,10.0097,0,0.000305176,-2.4244,0.0559862,-0.0735371,0.0553487,0.0700548,-0.0913154,0.146234,-0.123935,-0.0807394,0.0167847,0.0496292,-0.012207,-0.0716019,0.0734711,0.0198364,0.00751495,0.238724,-9.97986,0.0280762,-0.00102997,0.0019455,0.306091,0.0905609,-0.00358582,0.058136,-0.0364304
23,0,10.0097,0.00274658,0,-2.42776,0.055681,-0.0735371,0.055959,0.07036,-0.0913154,0.146539,-0.12363,-0.0810445,0.0125122,0.041008,-0.017395,0.0319672,0.064888,0.0128174,0.00476837,0.241241,-9.97986,0.0300217,-0.0198364,0.000953674,0.313148,0.0910187,-0.0037384,0.046463,-0.0370789
23,1,10.0097,0.00274658,-0.000915527,-2.42592,0.0569017,-0.0741475,0.0535176,0.0584581,-0.0931465,0.144403,-0.126072,-0.0816549,0.00976563,0.0304413,-0.00133514,0.139236,0.0611877,0.00873566,0.00305176,0.305557,-9.97986,0.0322723,-0.0308609,0.00705719,0.300598,0.0909805,-0.00747681,0.0447845,-0.0367737
23,2,10.0097,0.00305176,-0.000915527,-2.42714,0.0562914,-0.0747579,0.054128,0.0596788,-0.0928413,0.145318,-0.126072,-0.0822652,0.00396729,-0.00709534,0.000915527,0.148926,0.0614548,0.000534058,0.00915527,0.390091,-9.97986,0.0249863,-0.025444,0.00682831,0.292015,0.0976181,-0.0111389,0.0387955,-0.0425339
23,3,10.0097,0.00152588,-0.000610352,-2.42348,0.0559862,-0.0741475,0.0544332,0.0660875,-0.0934516,0.145318,-0.125156,-0.0828756,0.00751495,-0.0186539,0.000839233,0.101395,0.0566101,-0.00110626,0.0125122,0.464287,-9.97986,0.00812531,-0.0193024,0.00598907,0.28038,0.100441,-0.00423431,0.0374222,-0.0421906
23,4,10.0097,-0.000610352,-0.000915527,-2.42684,0.0559862,-0.0744527,0.0544332,0.0743273,-0.0919257,0.146539,-0.125461,-0.0834859,0.00663757,0.00778198,0.0204468,0.0855637,0.0542068,-0.00804901,0.0122833,0.438652,-9.97986,0.0019455,-0.000534058,0.00637054,0.26989,0.0983429,-0.00152588,0.0331116,-0.0432587
23,5,10.0097,-0.0012207,-0.000305176,-2.42776,0.0535448,-0.0762837,0.0544332,0.0834825,-0.0928413,0.144403,-0.124851,-0.0840963,-0.000267029,0.038414,0.0273132,0.151711,0.0487137,-0.0126266,0.0177383,0.357552,-9.97986,-0.00400543,0.0355911,0.0132751,0.259247,0.0992203,0.00457764,0.0287628,-0.0423431
23,6,10.0097,-0.00335693,-0.000915527,-2.42714,0.0541551,-0.0759786,0.0513814,0.0731066,-0.0949775,0.144098,-0.126987,-0.0865377,-0.0120163,0.0639725,0.0338745,0.145378,0.0515747,-0.0226212,0.0164413,0.263596,-9.97986,-0.0082016,0.06073,0.0126648,0.246315,0.0997162,-0.000991821,0.0259781,-0.0445938
23,7,10.0097,-0.0012207,-0.000305176,-2.42867,0.0532396,-0.0759786,0.0526021,0.07036,-0.0946723,0.145013,-0.126987,-0.0862325,0.0025177,0.0608063,0.0443268,0.11631,0.0469589,-0.02491,0.0207901,0.131874,-9.97986,-0.0131989,0.0504303,0.0191879,0.239677,0.101166,0.00270844,0.0167465,-0.0469208
23,8,10.0097,-0.00213623,-0.00152588,-2.42776,0.0541551,-0.0756734,0.0532125,0.0679186,-0.0943672,0.144403,-0.126072,-0.0871481,0.015564,0.0802994,0.0702286,0.11692,0.0432205,-0.0353241,0.0268555,0.0550461,-9.97986,-0.0075531,0.0345993,0.0146866,0.22686,0.0994492,-0.00366211,0.0175095,-0.0452042
23,9,10.0097,-0.00213623,-0.00183105,-2.42898,0.0544603,-0.0762837,0.0516866,0.07036,-0.0952827,0.145624,-0.126682,-0.0868429,0.0210571,0.110512,0.0771713,0.0819016,0.0435638,-0.0367737,0.0258636,-0.0183487,-9.97986,0.00171661,0.0115967,0.0149536,0.211372,0.0995255,-0.00865936,0.0136185,-0.0460815
24,0,10.0097,0,-0.00167847,-2.42837,0.0544603,-0.0756734,0.0519917,0.07036,-0.0931465,0.143792,-0.128513,-0.0868429,0.0160217,0.0964737,0.0765228,0.055542,0.0355148,-0.0461197,0.0283432,-0.0273132,-9.97986,0.0151825,-0.0367737,0.0219727,0.194359,0.105438,-0.00747681,0.0130844,-0.0443268
24,1,10.0097,0.00335693,-0.00213623,-2.42837,0.0538499,-0.0759786,0.0526021,0.0682238,-0.0946723,0.142877,-0.127598,-0.0859274,0.0146866,0.0626755,0.0722122,0.0476456,0.0336838,-0.050354,0.0320816,0.0804138,-9.97986,0.0112915,-0.0737381,0.0246048,0.1791,0.099411,-0.00461578,0.00923157,-0.04673
24,2,10.0097,0.00152588,-0.00228882,-2.42806,0.0547655,-0.0753682,0.0529073,0.07036,-0.0937568,0.143487,-0.126072,-0.0856222,0.0094986,0.0384521,0.0821686,0.0286484,0.0301361,-0.0499344,0.0372696,0.155106,-9.97986,0.00473022,-0.0650406,0.020256,0.154343,0.0961304,0.00282288,0.0056076,-0.0460434
24,3,10.0097,0.000305176,-0.00152588,-2.42684,0.0559862,-0.0753682,0.0535176,0.0697496,-0.0919257,0.144098,-0.125766,-0.0856222,0.00759125,0.0369644,0.0996017,0.000152588,0.0276566,-0.0636673,0.0383759,0.168877,-9.97986,0.00534058,-0.0189209,0.022049,0.133705,0.0924301,0.00232697,0.00831604,-0.0453568
24,4,10.0097,0.000610352,-0.00137329,-2.42684,0.0550706,-0.0741475,0.0529073,0.0700548,-0.0937568,0.145929,-0.125461,-0.0840963,0.0165558,0.067215,0.122032,-0.0365448,0.0263596,-0.0641251,0.0369644,0.164375,-9.97986,0.00205994,-0.00846863,0.0249481,0.125198,0.0864792,0.00228882,0.0102615,-0.0466919
24,5,10.0097,0.0012207,-0.000152588,-2.42379,0.0550706,-0.0747579,0.0547383,0.0709703,-0.0916206,0.149591,-0.124851,-0.0828756,0.0306702,0.138016,0.150337,-0.0277328,0.0235748,-0.0701523,0.0383759,0.148201,-9.97986,0.000228882,-0.0118256,0.0274277,0.111771,0.0871277,0.000457764,0.00926971,-0.0465393
24,6,10.0097,-0.000610352,-0.0012207,-2.42592,0.0569017,-0.0744527,0.054128,0.0715807,-0.0922309,0.148065,-0.124851,-0.0825704,0.0147247,0.194969,0.174408,0.0240326,0.0196838,-0.0752258,0.0455093,0.136948,-9.97986,-0.00160217,-0.0272369,0.0273132,0.098381,0.0824356,-0.0025177,0.0069046,-0.0450134
24,7,10.0097,0.000305176,-0.0012207,-2.4247,0.0575121,-0.0744527,0.0547383,0.0709703,-0.0910102,0.145318,-0.125461,-0.0819601,0.0150299,0.133095,0.14946,0.0383377,0.0133896,-0.0812912,0.0429153,0.117645,-9.97986,0.000801086,-0.0389099,0.0270462,0.0851822,0.0785828,-0.00350952,0.00862122,-0.0433731
24,8,10.0097,-0.00213623,-0.000915527,-2.4244,0.0559862,-0.0744527,0.0538228,0.0706652,-0.0928413,0.142267,-0.124851,-0.0816549,0.0170135,0.00114441,0.0952911,0.00530243,0.013504,-0.0796127,0.0437546,0.0550461,-9.97986,0.0111389,-0.0346375,0.0292206,0.0775528,0.076828,0.000610352,0.00610352,-0.041275
24,9,10.0097,-0.0012207,-0.000457764,-2.42501,0.055681,-0.0735371,0.0550435,0.0709703,-0.0931465,0.142572,-0.124241,-0.0813497,0.0152206,-0.086174,0.060463,-0.0111389,0.0146866,-0.0886154,0.0414276,-0.00442505,-9.97986,0.0209427,-0.0574875,0.0318527,0.0725555,0.0727844,0.00518799,0.00743866,-0.0395203
25,0,10.0097,-0.000610352,-0.000610352,-2.42501,0.0569017,-0.0735371,0.0553487,0.07036,-0.0922309,0.147149,-0.124241,-0.0810445,0.0128174,-0.0634003,0.0434875,-0.0417328,0.012207,-0.0899124,0.0444794,-0.0472641,-9.97986,0.0199127,-0.0610733,0.0291443,0.0749969,0.065918,-0.000152588,0.00930786,-0.0421143
25,1,10.0097,0.000610352,-0.000152588,-2.42623,0.0562914,-0.0744527,0.0532125,0.0566271,-0.0934516,0.146234,-0.124851,-0.0819601,0.0110245,0.0407791,0.0254822,-0.0525665,0.010643,-0.0947571,0.0382233,-0.0399017,-9.97986,0.0206375,-0.0107574,0.0295258,0.0793076,0.0510025,-0.00198364,0.00465393,-0.0365829
25,2,10.0097,0.000305176,0.000915527,-2.42684,0.0559862,-0.0741475,0.0550435,0.0608995,-0.0913154,0.14776,-0.125461,-0.0819601,0.0113678,0.12085,-0.00297546,-0.0214767,0.00934601,-0.0895691,0.0436401,-0.00228882,-9.97986,0.0224686,0.0400543,0.0285721,0.100212,0.050087,0.00164032,0.00240326,-0.0363541
25,3,10.0097,0,0.00152588,-2.42714,0.0559862,-0.0744527,0.0538228,0.0679186,-0.0916206,0.145929,-0.125461,-0.0807394,0.0143433,0.141716,-0.0374985,-0.0254822,0.00751495,-0.0875473,0.0391006,0.0167084,-9.97986,0.0289536,0.0603104,0.0282669,0.117226,0.0392914,0.000686646,0.00572205,-0.0342941
25,4,10.0097,-0.000305176,0.00289917,-2.42623,0.0547655,-0.0756734,0.0538228,0.0749376,-0.0931465,0.144403,-0.125156,-0.0831808,0.0194931,0.074501,-0.0616837,-0.0417709,0.0031662,-0.0857162,0.0360489,0.0163651,-9.97986,0.0427628,0.0585938,0.0282288,0.137062,0.0384521,0.00484467,0.00377655,-0.0302887
25,5,10.0097,-0.000915527,0.00198364,-2.42837,0.0541551,-0.0759786,0.0526021,0.0850084,-0.0922309,0.143182,-0.126377,-0.0840963,0.0201035,0.0120163,-0.0889206,0.000839233,0.00434875,-0.0886536,0.041275,0.0208664,-9.97986,0.0513458,0.04673,0.0226212,0.158806,0.0295639,-0.000762939,0.00347137,-0.0284958
25,6,10.0097,0.000915527,0.00259399,-2.42928,0.0541551,-0.075063,0.0526021,0.0737169,-0.0946723,0.143182,-0.126072,-0.085317,0.0315094,0.00549316,-0.109215,0.0634003,0.00530243,-0.0895309,0.0391388,0.0384903,-9.97986,0.0528717,-0.00900269,0.0243759,0.178604,0.0236893,-0.00141144,0.00564575,-0.0269699
25,7,10.0097,0.000915527,0.00198364,-2.42867,0.0532396,-0.075063,0.0516866,0.0697496,-0.0961982,0.141961,-0.127598,-0.0868429,0.0282669,-0.0503159,-0.106049,0.0658417,-0.00572205,-0.085907,0.0425339,0.0748444,-9.97986,0.0516891,-0.10128,0.0263214,0.193939,0.0219727,0.00476837,0.00289917,-0.0243759
25,8,10.0097,-0.000610352,0.00213623,-2.42867,0.0541551,-0.0765889,0.0526021,0.0694445,-0.0937568,0.142572,-0.126987,-0.085317,0.0106049,-0.139961,-0.0910187,0.0131607,0.0019455,-0.088501,0.0417328,0.115547,-9.97986,0.0513458,-0.0928497,0.0214386,0.225296,0.0221252,0.00480652,0.00335693,-0.0229263
25,9,10.0097,0.000610352,0.00213623,-2.4305,0.0544603,-0.075063,0.0526021,0.0691393,-0.0952827,0.142877,-0.127903,-0.0859274,0.00324249,-0.167656,-0.088768,-0.0348282,-0.00198364,-0.0763321,0.0361252,0.113297,-9.97986,0.0428772,-0.0315475,0.0229645,0.263748,0.0139999,0.00263214,-0.000572205,-0.0189209
26,0,10.0097,0.000915527,0.00274658,-2.42837,0.0547655,-0.0756734,0.0516866,0.0697496,-0.0937568,0.144708,-0.128513,-0.0871481,0.00217438,-0.11898,-0.0916672,-0.0508881,-0.00492096,-0.0757599,0.0367355,0.0749588,-9.97986,0.0280762,0.0308228,0.0168991,0.291328,0.0112152,0.00350952,0.000915527,-0.0196457
26,1,10.0097,0.000305176,0.00274658,-2.42714,0.0550706,-0.0753682,0.0532125,0.0685289,-0.094062,0.144708,-0.126377,-0.0856222,0.00232697,-0.0623322,-0.084343,-0.0368881,-0.00701904,-0.0756836,0.0387573,0.0237656,-9.97986,0.026474,0.0879669,0.0191116,0.326118,0.00415802,0.00534058,-0.00125885,-0.0162888
26,2,10.0097,0.00152588,0.00350952,-2.42745,0.0553758,-0.075063,0.0529073,0.07036,-0.094062,0.144708,-0.126377,-0.0840963,0.0101852,-0.0444794,-0.0646973,-0.0541306,-0.00572205,-0.0717926,0.0351334,0.0056839,-9.97986,0.0149918,0.118904,0.0209427,0.368881,0.00392914,0.00839233,0.00324249,-0.0111008
26,3,10.0097,0.00274658,0.00366211,-2.42806,0.0550706,-0.0762837,0.0535176,0.0700548,-0.0937568,0.146234,-0.126377,-0.0834859,0.0075531,-0.0113297,-0.0376511,-0.0991821,-0.00724792,-0.0704575,0.0360107,0.0414276,-9.97986,0.0123978,0.137215,0.0201416,0.404167,-0.00213623,-0.000953674,-0.000152588,-0.00869751
26,4,10.0097,0.00213623,0.00396729,-2.42684,0.0550706,-0.0747579,0.0544332,0.0697496,-0.094062,0.145929,-0.125766,-0.0822652,0.00862122,0.0518417,-0.0234222,-0.127106,-0.00434875,-0.0692368,0.0314331,0.0778198,-9.97986,0.00682831,0.1194,0.0185776,0.445061,-0.0075531,-0.00293732,-0.00144958,-0.00839233
26,5,10.0097,0.000610352,0.00473022,-2.42562,0.0562914,-0.0747579,0.0547383,0.0709703,-0.0928413,0.146539,-0.125156,-0.0810445,0.00984192,0.0627899,-0.0243759,-0.141869,-0.00514984,-0.0580978,0.0301361,0.0564957,-9.97986,0.000190735,0.108643,0.0204849,0.490112,-0.00812531,-0.00419617,0.000801086,-0.00648499
26,6,10.0097,0.000305176,0.00427246,-2.42501,0.0562914,-0.0744527,0.0556539,0.0715807,-0.0919257,0.146844,-0.124241,-0.0807394,0.0134277,0.0114441,-0.0234222,-0.168571,-0.00835419,-0.057373,0.0265503,0.0537872,-9.97986,0.00740051,0.0613785,0.0139618,0.529671,-0.00907898,-0.00511169,-0.00366211,-0.00404358
26,7,10.0097,0.00152588,0.00411987,-2.4247,0.0565965,-0.0735371,0.0538228,0.0715807,-0.0916206,0.145318,-0.123935,-0.0795187,0.0263596,-0.0318527,-0.00976563,-0.187912,-0.00305176,-0.0462341,0.030365,0.121956,-9.97986,0.00873566,-0.0906754,0.0144196,0.578041,-0.0159454,-0.0138855,-0.00331879,-0.00179291
26,8,10.0097,0.00213623,0.00473022,-2.42562,0.0572069,-0.0741475,0.0544332,0.0709703,-0.0913154,0.146844,-0.125156,-0.0804342,0.032959,-0.0325012,0.00541687,-0.0945663,0.00434875,-0.0374985,0.0294876,0.136223,-9.97986,0.00850677,-0.166664,0.0178909,0.625191,-0.0155258,-0.0152588,-0.00709534,-0.00164032
26,9,10.0097,-0.0012207,0.0050354,-2.42409,0.055681,-0.0735371,0.0556539,0.0715807,-0.090705,0.145624,-0.124241,-0.0786031,0.0216675,-0.0392532,0.0260544,0.0572968,0.000305176,-0.0365448,0.026741,0.0911713,-9.97986,0.0177383,-0.142746,0.0166702,0.66925,-0.0167465,-0.0210571,-0.00415802,0.00175476
27,0,10.0097,-0.000305176,0.00427246,-2.42592,0.0562914,-0.0726216,0.054128,0.0706652,-0.0931465,0.146539,-0.124851,-0.0798238,0.01194,-0.0536346,0.0374985,0.0804901,-0.00141144,-0.0266266,0.0255585,0.0385666,-9.97986,0.0175858,-0.116653,0.0137329,0.712318,-0.0185394,-0.0257111,-0.00846863,0.00461578
27,1,10.0097,-0.00213623,0.00305176,-2.42562,0.055681,-0.0729268,0.0538228,0.0563219,-0.0937568,0.147455,-0.124546,-0.0813497,0.0131607,0.00198364,0.0573349,0.0304031,-0.0106812,-0.0241089,0.0328827,-0.0122833,-9.97986,0.0198746,-0.0828934,0.0108719,0.74791,-0.0189209,-0.0319672,-0.00637054,0.00545502
27,2,10.0097,0.00152588,0.00259399,-2.42653,0.0553758,-0.0741475,0.0532125,0.0605944,-0.0928413,0.147455,-0.125156,-0.0807394,0.0140381,0.0662994,0.0705338,0.0508499,-0.0136185,-0.0201416,0.0281525,0.00545502,-9.97986,0.0121307,-0.054245,0.0153351,0.773201,-0.0203705,-0.0210571,-0.00984192,0.00980377
27,3,10.0097,0,0.00244141,-2.42592,0.0562914,-0.0741475,0.0547383,0.0688341,-0.0916206,0.14776,-0.125766,-0.0813497,0.00801086,0.120697,0.0511551,0.0895691,-0.0172424,-0.0173187,0.0322723,0.0360107,-9.97986,0.010376,-0.00946045,0.01194,0.785027,-0.0224686,-0.01194,-0.0102997,0.0107574
27,4,10.0097,-0.0012207,0.00274658,-2.42745,0.0550706,-0.075063,0.054128,0.0743273,-0.0916206,0.146234,-0.125156,-0.0825704,0.00171661,0.137177,0.0333786,0.111275,-0.0214005,-0.0164413,0.0299072,-0.00602722,-9.97986,0.0110245,0.0178528,0.0119781,0.803719,-0.0240326,0.00305176,-0.0139236,0.0141144
27,5,10.0097,-0.00244141,0.00259399,-2.42837,0.0541551,-0.0744527,0.0535176,0.0853136,-0.0928413,0.141961,-0.125156,-0.0844015,0,0.0559235,0.0104141,0.111847,-0.0209808,-0.0142288,0.0288391,-0.110016,-9.97986,0.00675201,0.022583,0.0101089,0.8181,-0.0190735,0.0148392,-0.0152588,0.0138474
27,6,10.0097,-0.0012207,0.00152588,-2.42959,0.0538499,-0.0762837,0.0522969,0.0752428,-0.0946723,0.141961,-0.126987,-0.0856222,-0.000114441,-0.0422287,-0.00511169,0.0523758,-0.0241852,-0.00938416,0.0315094,-0.171623,-9.97986,0.0120544,0.0222015,0.0139999,0.837364,-0.0201416,0.0215149,-0.0062561,0.0150681
27,7,10.0097,-0.000305176,0.00137329,-2.42837,0.0541551,-0.075063,0.054128,0.0718859,-0.094062,0.144403,-0.126377,-0.085317,0.00835419,-0.0734711,-0.0387573,0.0276947,-0.0271225,-0.00675201,0.0331879,-0.178337,-9.97986,0.0125122,0.0399399,0.0125885,0.851936,-0.0214005,0.0247574,-0.0101852,0.018425
27,8,10.0097,0.00152588,0.00137329,-2.42867,0.0538499,-0.0759786,0.0532125,0.0694445,-0.0943672,0.144403,-0.126987,-0.085317,0.0178909,-0.057106,-0.0636292,0.0746918,-0.0271225,0.00404358,0.0309753,-0.154839,-9.97986,0.0144958,0.0346756,0.0112915,0.866051,-0.0191116,0.0227356,-0.0130081,0.0197983
27,9,10.0097,0.00396729,0.000305176,-2.42928,0.0529344,-0.075063,0.0535176,0.0691393,-0.0955879,0.145013,-0.127598,-0.0865377,0.0233078,-0.00740051,-0.0527191,0.107727,-0.0247192,0.00839233,0.0305176,-0.114288,-9.97986,0.00827789,0.0196457,0.0120544,0.870132,-0.0213242,0.0163651,-0.01091,0.019722
28,0,10.0097,0.000610352,-0.000457764,-2.42837,0.0526292,-0.0759786,0.0483296,0.0682238,-0.094062,0.143182,-0.127598,-0.0871481,0.0193787,0.0125122,-0.0203705,0.0738907,-0.029335,0.0127792,0.0276184,-0.0986481,-9.97986,0.0114441,-0.0177002,0.0115204,0.860252,-0.0173187,0.00591278,-0.0101471,0.0196075
28,1,10.0097,0.000915527,-0.00167847,-2.42928,0.0538499,-0.0765889,0.0532125,0.0691393,-0.0934516,0.144098,-0.127292,-0.0859274,0.00709534,0.00621796,0.0044632,0.0362015,-0.0299835,0.0169373,0.0270462,-0.0881958,-9.97986,0.00850677,-0.0440216,0.00541687,0.843697,-0.0176239,0.00232697,-0.00873566,0.0186539
28,2,10.0097,0.00274658,-0.00167847,-2.42745,0.0550706,-0.075063,0.0532125,0.0691393,-0.0952827,0.144708,-0.126377,-0.0862325,-0.00988007,0.0148392,0.0170135,0.069313,-0.029068,0.0215912,0.0226212,-0.0174332,-9.97986,0.0152969,0.000801086,0.00957489,0.816345,-0.0185013,0.00492096,-0.0117111,0.018425
28,3,10.0097,0.00366211,-0.00244141,-2.42745,0.0553758,-0.0744527,0.0522969,0.0694445,-0.0931465,0.146539,-0.126377,-0.0850118,-0.0129318,0.0262451,0.0312424,0.124664,-0.0331497,0.0256348,0.0239944,0.124855,-9.97986,0.017395,0.0378036,0.0088501,0.784492,-0.0162125,0.00286102,-0.0114059,0.0212097
28,4,10.0097,-0.000305176,-0.00289917,-2.42684,0.0538499,-0.0741475,0.0538228,0.0700548,-0.0937568,0.145624,-0.125461,-0.0850118,-0.0172424,0.0343323,0.059967,0.14698,-0.0310135,0.0337219,0.0185013,0.180092,-9.97986,0.012207,0.0107193,0.0025177,0.756416,-0.0217819,0.00167847,-0.0112152,0.0178528
28,5,10.0097,-0.00305176,-0.00305176,-2.42592,0.0562914,-0.0735371,0.0544332,0.0715807,-0.0925361,0.146844,-0.124241,-0.0834859,-0.00675201,0.066452,0.0511932,0.179329,-0.0280762,0.0334167,0.0196075,0.0935364,-9.97986,0.0127792,-0.0191879,0.00545502,0.723152,-0.019455,0.00419617,-0.00747681,0.0186539
28,6,10.0097,-0.00274658,-0.00350952,-2.42562,0.0565965,-0.0747579,0.0535176,0.0697496,-0.0928413,0.145929,-0.124546,-0.0828756,0.0115585,0.0778961,3.8147e-005,0.188141,-0.027504,0.0421524,0.0150299,-0.00686646,-9.97986,0.0206757,-0.0200272,0.0018692,0.676765,-0.0244141,-0.00205994,-0.0062561,0.0171661
28,7,10.0097,-0.0012207,-0.00427246,-2.42592,0.0569017,-0.0729268,0.0556539,0.0715807,-0.0913154,0.147455,-0.12363,-0.0813497,0.0130081,0.0772858,-0.0483704,0.140076,-0.0196838,0.0524902,0.023613,-0.0711823,-9.97986,0.0206375,-0.00572205,0.0025177,0.634232,-0.0207138,-0.00526428,-0.0056076,0.0213623
28,8,10.0097,-0.0012207,-0.00457764,-2.42501,0.0553758,-0.0744527,0.054128,0.0718859,-0.0913154,0.145624,-0.125461,-0.0828756,0.00736237,0.0679398,-0.0798416,0.0671005,-0.0279999,0.0561905,0.0181198,-0.157394,-9.97986,0.019989,-0.0230789,0.000457764,0.589485,-0.0224304,-0.000915527,-0.00328064,0.0164795
28,9,10.0097,0.000610352,-0.00396729,-2.4247,0.0565965,-0.0738423,0.054128,0.0706652,-0.0922309,0.144403,-0.123935,-0.0819601,0.0108719,0.0260162,-0.0526047,0.010376,-0.0255203,0.0618362,0.0238419,-0.248032,-9.97986,0.0225067,-0.00808716,-0.000610352,0.536957,-0.0274658,0.00926971,-0.000839233,0.0175095
29,0,10.0097,0.00213623,-0.00396729,-2.42501,0.0562914,-0.0735371,0.0547383,0.0706652,-0.0919257,0.14776,-0.126072,-0.0825704,0.0147629,-0.0162125,-0.00812531,0.00114441,-0.0233841,0.0716019,0.0187683,-0.243111,-9.97986,0.0310516,0.0272369,0.00450134,0.49305,-0.029068,0.0142288,3.8147e-005,0.0181961
29,1,10.0097,0.0012207,-0.00549316,-2.42623,0.0572069,-0.0738423,0.0544332,0.0560167,-0.0931465,0.147455,-0.125461,-0.0831808,0.0211334,-0.000152588,-0.00770569,-0.0444031,-0.0233459,0.0789261,0.0172043,-0.177917,-9.97986,0.0340652,0.0518417,-0.00198364,0.448647,-0.0275803,0.0144196,0.00415802,0.0181961
29,2,10.0097,0.00213623,-0.00534058,-2.42592,0.0550706,-0.073232,0.054128,0.0593737,-0.0931465,0.145318,-0.126072,-0.0844015,0.0165558,0.00156403,-0.00652313,-0.112648,-0.0232315,0.0905228,0.0127029,-0.116425,-9.97986,0.0471497,0.0605011,-0.000801086,0.39753,-0.0296021,0.0135803,0.00301361,0.0183105
29,3,10.0097,0.00183105,-0.00396729,-2.42531,0.0553758,-0.0741475,0.0547383,0.0660875,-0.0910102,0.146234,-0.124851,-0.0840963,0.0174332,-0.00244141,-0.00907898,-0.0465393,-0.0183868,0.101738,0.0107574,-0.0376129,-9.97986,0.0361252,0.0182724,0.00259399,0.347443,-0.0319672,0.0106812,0.00713348,0.0208282
29,4,10.0097,-0.000305176,-0.00442505,-2.42623,0.0559862,-0.075063,0.0544332,0.0749376,-0.090705,0.145013,-0.124851,-0.0850118,0.0129318,0.0132751,-0.00759125,0.00659943,-0.0232315,0.113945,0.0162506,3.8147e-005,-9.97986,0.0256348,-0.0138092,0.00198364,0.293884,-0.0349426,-0.00598907,0.00816345,0.0149536
29,5,10.0097,-0.0012207,-0.00411987,-2.42867,0.0541551,-0.0753682,0.0538228,0.0856188,-0.0925361,0.145013,-0.125461,-0.0868429,0.00492096,0.0187683,-0.0136566,-0.060463,-0.0166702,0.12291,0.016861,-0.0756454,-9.97986,0.0312805,-0.0112152,0.00282288,0.234909,-0.0353622,-0.0148773,0.00946045,0.0159454
29,6,10.0097,-0.000305176,-0.00518799,-2.42898,0.0538499,-0.0753682,0.0532125,0.0728014,-0.0937568,0.144708,-0.128513,-0.0877584,-0.0019455,0.0561142,0.00335693,-0.14164,-0.0196457,0.130005,0.0152969,-0.155449,-9.97986,0.0218582,-0.0173187,0.00038147,0.185776,-0.0370407,-0.014267,0.0144577,0.0137711
29,7,10.0097,0.0012207,-0.00488281,-2.42867,0.0541551,-0.0771993,0.0526021,0.07036,-0.0952827,0.143487,-0.126987,-0.0880636,-0.00202179,0.070343,0.0104904,-0.0852585,-0.0208282,0.141563,0.0164413,-0.138855,-9.97986,0.0131607,0.0153351,-0.00469208,0.141792,-0.0333405,-0.0140381,0.0123215,0.0167465
29,8,10.0097,0.0183105,-0.00564575,-2.42898,0.0541551,-0.0759786,0.0532125,0.0694445,-0.0943672,0.154779,-0.127292,-0.0880636,-0.00583649,0.0274277,-0.00957489,0.00244141,-0.0159454,0.150642,0.020256,-0.0769424,-9.97986,0.00549316,0.0115204,-0.00190735,0.0847244,-0.0345993,-0.017128,0.0112534,0.0169754
29,9,10.0097,0.00244141,-0.00656128,-2.42959,0.0535448,-0.0759786,0.0522969,0.0679186,-0.0965034,0.145318,-0.128208,-0.0889791,0.000991821,-0.0225067,-0.0094986,0.0305939,-0.0165176,0.14698,0.0145721,-0.0131226,-9.97986,0.00720978,0.0106812,-0.00179291,0.019455,-0.0327301,-0.0252151,0.0180054,0.0163651
30,0,10.0097,-0.000915527,-0.00610352,-2.42867,0.0529344,-0.0771993,0.0519917,0.0688341,-0.0925361,0.141961,-0.127292,-0.0886739,0.010643,-0.119553,-0.0172424,0.0288773,-0.0152588,0.149918,0.0151062,-0.0183868,-9.97986,0.0154114,0.102615,-0.00354767,-0.0365448,-0.0297546,-0.0159073,0.0175476,0.0183487
30,1,10.0097,0.00183105,-0.0062561,-2.42837,0.0550706,-0.0756734,0.0529073,0.0700548,-0.0946723,0.144403,-0.126987,-0.0871481,0.0181198,-0.148506,-0.0271988,0.00358582,-0.0184631,0.148354,0.0114822,-0.0366974,-9.97986,0.0203323,0.14061,-0.00350952,-0.0993347,-0.0268555,-0.00392914,0.0165176,0.0160217
30,2,10.0097,0.00305176,-0.00595093,-2.42898,0.0547655,-0.0753682,0.0532125,0.0700548,-0.0934516,0.145929,-0.126682,-0.0862325,0.022049,-0.0724792,-0.013504,0.0512314,-0.0149155,0.143127,0.0150299,-0.017128,-9.97986,0.0209808,0.0837708,-0.00110626,-0.159302,-0.028801,0.00957489,0.0220108,0.0175476
30,3,10.0097,0.0012207,-0.00595093,-2.42745,0.0547655,-0.0738423,0.0538228,0.07036,-0.0922309,0.147149,-0.125766,-0.0865377,0.0222778,-0.0165558,-0.00804901,0.107841,-0.0137711,0.13813,0.0164795,0.0390625,-9.97986,0.0258255,0.0175858,-0.0025177,-0.223618,-0.0251389,0.0119781,0.0189209,0.0180817
30,4,10.0097,0.00183105,-0.00579834,-2.42653,0.0544603,-0.0741475,0.055959,0.0706652,-0.0931465,0.145318,-0.126682,-0.085317,0.0174713,-0.0170898,-0.0115585,0.0473404,-0.0186157,0.129509,0.0177002,0.101585,-9.97986,0.0132751,-0.0457382,-0.000267029,-0.292511,-0.0236511,0.0149536,0.0228882,0.0169373
30,5,10.0097,0.000610352,-0.00640869,-2.42562,0.0562914,-0.0741475,0.054128,0.0694445,-0.0913154,0.147149,-0.124851,-0.0840963,0.00362396,-0.0185013,-0.0063324,-0.00247955,-0.0132751,0.122299,0.0175858,0.0559235,-9.97986,0.0161743,-0.0764847,-0.00164032,-0.357323,-0.0188065,0.0116348,0.026207,0.0191116
30,6,10.0097,0.000610352,-0.00595093,-2.42562,0.0572069,-0.0738423,0.054128,0.0709703,-0.090705,0.146539,-0.124546,-0.0834859,0.00213623,0.00518799,0.00732422,0.0115204,-0.0126648,0.112915,0.0205612,0.0407791,-9.97986,0.0165558,-0.0964355,-0.00282288,-0.419006,-0.0161362,-0.00835419,0.02388,0.017395
30,7,10.0097,0.00274658,-0.00549316,-2.42562,0.0575121,-0.0735371,0.0568746,0.0706652,-0.0916206,0.146844,-0.12363,-0.0822652,0.00648499,0.0302505,0.0395203,0.0770569,-0.00991821,0.105515,0.0178146,0.0822067,-9.97986,0.00808716,-0.101776,-0.0056076,-0.468712,-0.0151062,-0.0151062,0.0234604,0.0171661
30,8,10.0097,0.00244141,-0.00457764,-2.42501,0.0584276,-0.0738423,0.0553487,0.07036,-0.0900947,0.14776,-0.12363,-0.0837911,0.00679016,0.0289154,0.0703049,0.134468,-0.0063324,0.096817,0.0147247,0.102425,-9.97986,0.00541687,-0.0769043,-0.00541687,-0.507431,-0.0147629,-0.019989,0.0251007,0.017128
30,9,10.0097,0.00549316,-0.0038147,-2.4244,0.0565965,-0.0738423,0.0547383,0.0718859,-0.0913154,0.148675,-0.123935,-0.0813497,0.0133514,0.0735855,0.116882,0.114403,-0.000953674,0.0844955,0.0208282,0.254593,-9.97986,0.0106812,-0.0522614,-0.00522614,-0.535965,-0.0105667,-0.0182724,0.0233841,0.0180817
31,0,10.0097,0.00274658,-0.00305176,-2.42592,0.0565965,-0.073232,0.0547383,0.0715807,-0.0903999,0.147455,-0.123935,-0.0819601,0.0123215,0.141754,0.147018,0.0660324,-0.00663757,0.0739288,0.017395,0.395737,-9.97986,0.0133133,-0.0384903,-0.0019455,-0.570526,-0.00038147,-0.0135803,0.0245667,0.0208664
31,1,10.0097,0.000610352,-0.00534058,-2.42653,0.0550706,-0.075063,0.0535176,0.0569322,-0.0937568,0.14776,-0.125156,-0.0837911,0.000228882,0.166016,0.161476,0.0227737,-0.0136185,0.0566483,0.0179291,0.364418,-9.97986,0.00640869,-0.0391388,-0.00614166,-0.619125,-0.00141144,-0.0179291,0.020752,0.0144958
31,2,10.0097,0.000610352,-0.00427246,-2.42531,0.0565965,-0.0747579,0.054128,0.0615099,-0.0925361,0.144708,-0.124851,-0.0837911,0.00217438,0.123749,0.181732,0.0130081,-0.0087738,0.0527191,0.0274658,0.311279,-9.97986,0.00389099,-0.0214005,-0.00488281,-0.649185,-0.00293732,-0.0164413,0.0268936,0.020256
31,3,10.0097,-0.000610352,-0.00274658,-2.42592,0.0559862,-0.0753682,0.0544332,0.0666979,-0.0913154,0.143182,-0.126377,-0.0837911,0.00370026,0.0019455,0.194283,0.0162125,-0.00743866,0.0402451,0.0212479,0.190353,-9.97986,-0.00873566,-0.0233841,-0.00236511,-0.677109,0.0037384,-0.0172043,0.022583,0.0156784
31,4,10.0097,-0.00274658,-0.00213623,-2.42776,0.0553758,-0.0744527,0.0544332,0.0746324,-0.0922309,0.145318,-0.124851,-0.0834859,0.0106049,-0.0164032,0.221672,0.00225067,-0.0101852,0.0307083,0.020256,0.0180435,-9.97986,-0.0148773,-0.0450516,-0.00377655,-0.696983,0.00556946,-0.017128,0.0223541,0.0163651
31,5,10.0097,-0.00152588,-0.0012207,-2.42745,0.0541551,-0.075063,0.0535176,0.0831774,-0.095893,0.146844,-0.125766,-0.0856222,0.0119781,0.107384,0.247078,0.00808716,-0.00919342,0.0187683,0.0206375,-0.120468,-9.97986,-0.0226212,-0.0576782,-0.00328064,-0.713692,0.00675201,-0.010643,0.0206757,0.0154495
31,6,10.0097,-0.000305176,-0.00167847,-2.42837,0.0529344,-0.0747579,0.0516866,0.0731066,-0.0949775,0.146234,-0.126682,-0.0865377,0.00701904,0.241318,0.227013,0.0498581,-0.00480652,0.0169373,0.0223541,-0.197945,-9.97986,-0.0258255,-0.0478363,0.00038147,-0.733261,0.00659943,-0.00793457,0.0242996,0.0146866
31,7,10.0097,-0.000305176,-0.00259399,-2.42898,0.0535448,-0.0765889,0.0526021,0.07036,-0.0952827,0.143792,-0.126987,-0.0868429,0.00511169,0.243111,0.200386,0.0417328,-0.00404358,0.0139618,0.0240326,-0.218849,-9.97986,-0.0200653,-0.0168991,-0.00328064,-0.756493,0.0143051,-0.0142288,0.0173187,0.0143814
31,8,10.0097,0.00152588,-0.00198364,-2.42837,0.0535448,-0.0747579,0.0522969,0.0700548,-0.0955879,0.143182,-0.128513,-0.0871481,0.0210953,0.2034,0.189552,-0.0069809,-0.00770569,0.00778198,0.0214386,-0.169296,-9.97986,-0.0120926,-0.000152588,-0.00362396,-0.766068,0.0166321,-0.0141144,0.0201035,0.0126266
31,9,10.0097,-0.000915527,-0.00228882,-2.42928,0.0535448,-0.0756734,0.0522969,0.0685289,-0.0949775,0.144098,-0.127598,-0.0874532,0.0177383,0.23468,0.126228,-0.0428391,-0.00644684,0.00457764,0.0226212,-0.163116,-9.97986,0.00534058,0.001297,0.000610352,-0.785217,0.0251007,-0.0186157,0.0205994,0.00988007
32,0,10.0097,-0.00183105,-0.00167847,-2.42959,0.0529344,-0.0762837,0.0522969,0.0682238,-0.0952827,0.141961,-0.128513,-0.0871481,0.0260162,0.193672,0.0415802,-0.0908279,-0.00862122,0.00217438,0.0232697,-0.229492,-9.97986,0.0227356,0.000495911,0.00156403,-0.793037,0.0228119,-0.0179672,0.0182343,0.0105286
32,1,10.0097,0.000610352,-0.000457764,-2.42928,0.0544603,-0.0753682,0.0522969,0.0694445,-0.0965034,0.14013,-0.126682,-0.0859274,0.0304413,0.0708389,0.00202179,-0.123253,-0.00514984,-0.000610352,0.0299072,-0.240631,-9.97986,0.0307083,-0.013504,0.000534058,-0.778885,0.0268173,-0.0232697,0.0179291,0.00659943
32,2,10.0097,0.00335693,-0.000152588,-2.42745,0.0544603,-0.0747579,0.0535176,0.0700548,-0.0934516,0.145318,-0.126377,-0.0837911,0.0220871,0.0360107,-0.0342178,-0.142975,-0.00343323,0.00110626,0.0271606,-0.180359,-9.97986,0.0337982,0.0220108,0.00591278,-0.763855,0.0279236,-0.0243378,0.0204086,0.00988007
32,3,10.0097,0.0012207,0.00152588,-2.42623,0.0541551,-0.075063,0.0538228,0.0697496,-0.0931465,0.145624,-0.126377,-0.0834859,0.0183868,0.118408,-0.0926971,-0.171318,0.00442505,-0.0050354,0.0260544,-0.110779,-9.97986,0.031662,0.0365448,0.0062561,-0.746422,0.0339508,-0.018425,0.0208664,0.00587463
32,4,10.0097,-0.00183105,0.000915527,-2.42684,0.0559862,-0.0744527,0.0538228,0.0700548,-0.0937568,0.144403,-0.125156,-0.0840963,0.0136948,0.15377,-0.132942,-0.181656,0.00492096,-0.00556946,0.0256348,-0.0688171,-9.97986,0.028038,-0.0485992,0.00679016,-0.730438,0.0358963,-0.00629425,0.0237656,0.00495911
32,5,10.0097,-0.000610352,0.00137329,-2.42592,0.0553758,-0.0747579,0.0556539,0.0700548,-0.0922309,0.142267,-0.124851,-0.0810445,0.00747681,-0.0135803,-0.157661,-0.195503,0.0111008,-0.0037384,0.0255966,-0.0727081,-9.97986,0.0307083,-0.0380707,0.0116348,-0.721397,0.0373459,0.0156021,0.0266266,0.000801086
32,6,10.0097,-0.000610352,0.00167847,-2.42501,0.0614793,-0.0726216,0.055959,0.0712755,-0.0925361,0.143487,-0.123935,-0.0816549,0.00324249,-0.176773,-0.166969,-0.209732,0.0133896,-0.00667572,0.0250244,-0.0935364,-9.97986,0.0336838,0.0310135,0.0106812,-0.701714,0.0381851,0.0153351,0.0259781,0.00450134
32,7,10.0097,0.00335693,0.00167847,-2.4244,0.0565965,-0.0747579,0.055959,0.0706652,-0.0897895,0.145624,-0.12363,-0.080129,0.0030899,-0.190506,-0.154037,-0.19783,0.0195694,-0.00602722,0.0251389,-0.115089,-9.97986,0.0302505,0.0298691,0.0170898,-0.681076,0.0431442,0.00946045,0.031662,0.00404358
32,8,10.0097,0.000915527,0.00213623,-2.42501,0.0559862,-0.0738423,0.0565694,0.0709703,-0.0910102,0.145624,-0.124241,-0.0816549,0.00759125,-0.166283,-0.119667,-0.191841,0.0213623,-0.00915527,0.0230026,-0.099411,-9.97986,0.0258255,0.0725174,0.0141144,-0.663872,0.044136,0.00770569,0.033493,0.000343323
32,9,10.0097,0.0012207,0.00228882,-2.42531,0.0569017,-0.0741475,0.0556539,0.0715807,-0.0910102,0.14776,-0.124241,-0.0804342,0.00915527,-0.152512,-0.104332,-0.167885,0.022049,-0.00663757,0.027504,-0.0836563,-9.97986,0.0245667,0.0946045,0.0170898,-0.642395,0.0456238,0.00164032,0.0357437,0.00110626
33,0,10.0097,0.00183105,0.00198364,-2.42653,0.0565965,-0.0735371,0.0544332,0.0712755,-0.0916206,0.145929,-0.124851,-0.080129,0.0251007,-0.177116,-0.104408,-0.113106,0.0250626,-0.0138855,0.030899,-0.0780869,-9.97986,0.0262833,0.0761032,0.0183487,-0.616913,0.0484085,-0.0161743,0.0334167,0.000495911
33,1,10.0097,0.00305176,0.00213623,-2.42531,0.0559862,-0.0729268,0.0544332,0.0566271,-0.0922309,0.146539,-0.126072,-0.0813497,0.0364685,-0.205002,-0.0825882,-0.0435257,0.0181198,-0.0212479,0.0292969,-0.000419617,-9.97986,0.0252533,0.0559235,0.0153732,-0.588188,0.0472641,-0.0301743,0.0394058,0.000152588
33,2,10.0097,0.00244141,0.00289917,-2.42684,0.0559862,-0.0741475,0.0544332,0.059984,-0.0937568,0.14837,-0.126072,-0.0816549,0.0289154,-0.149841,-0.063324,0.037384,0.0230026,-0.0230789,0.0278473,0.064621,-9.97986,0.023613,-0.0139999,0.022049,-0.558205,0.0513077,-0.0328827,0.0372314,0.000686646
33,3,10.0097,-0.00213623,0.00305176,-2.42562,0.0553758,-0.0747579,0.054128,0.0676134,-0.0910102,0.146539,-0.126072,-0.0822652,0.0129318,-0.107956,-0.0634384,0.128174,0.0231171,-0.0322342,0.027771,0.0229263,-9.97986,0.0284958,-0.038147,0.0233459,-0.524368,0.0500107,-0.0301361,0.0387573,0.000228882
33,4,10.0097,-0.000305176,0.00335693,-2.42653,0.0553758,-0.075063,0.0538228,0.0752428,-0.0916206,0.145624,-0.125461,-0.0819601,0.00732422,-0.110588,-0.0571823,0.169411,0.02491,-0.0384521,0.0292206,-0.018959,-9.97986,0.0353241,0.0117874,0.0246048,-0.48893,0.0439835,-0.0128174,0.0375748,-0.00324249
33,5,10.0097,-0.0012207,0.00442505,-2.42898,0.0553758,-0.075063,0.0532125,0.0850084,-0.0922309,0.145013,-0.125461,-0.0834859,0.00514984,-0.104523,-0.028801,0.171509,0.0334549,-0.0436401,0.0314713,-0.0426865,-9.97986,0.0396347,0.0347519,0.0251389,-0.451813,0.0502014,-0.00499725,0.0415802,-0.00312805
33,6,10.0097,-0.0012207,0.00335693,-2.42806,0.0538499,-0.075063,0.0532125,0.0737169,-0.0943672,0.144098,-0.126987,-0.085317,0.00289917,-0.0877762,-0.0282288,0.178719,0.0330734,-0.0601578,0.0271225,-0.122528,-9.97986,0.0300598,0.0267792,0.0267792,-0.414619,0.044899,0.000762939,0.040741,-0.00804901
33,7,10.0097,0.000610352,0.00305176,-2.42837,0.0538499,-0.0762837,0.0519917,0.0712755,-0.0952827,0.144708,-0.126377,-0.0850118,-0.00392914,-0.046196,-0.0271988,0.136948,0.0378418,-0.0620651,0.0326538,-0.178566,-9.97986,0.024147,0.00724792,0.0274658,-0.383492,0.0468063,0.00488281,0.0409317,-0.00740051
33,8,10.0097,0.000610352,0.00366211,-2.42867,0.0541551,-0.0753682,0.0522969,0.0694445,-0.094062,0.145318,-0.127292,-0.085317,-0.0111771,0.021286,-0.00492096,0.0739288,0.0419998,-0.0695419,0.0315857,-0.160522,-9.97986,0.0232697,0.0296783,0.0283432,-0.345154,0.0445175,0.0037384,0.0386429,-0.0050354
33,9,10.0097,0.00213623,0.00320435,-2.42867,0.0541551,-0.0759786,0.0519917,0.0691393,-0.0946723,0.143792,-0.127598,-0.085317,-0.00564575,0.0405121,-0.0189972,0.100784,0.0377655,-0.0761795,0.0325775,-0.125961,-9.97986,0.0138855,0.0540161,0.0282669,-0.30304,0.0456238,-0.00297546,0.0436783,-0.00385284
34,0,10.0097,0.00244141,0.00350952,-2.42928,0.0562914,-0.0759786,0.0519917,0.0694445,-0.0949775,0.142572,-0.127903,-0.0859274,-0.00362396,0.0395966,-0.0288391,0.138626,0.0360107,-0.079422,0.0319672,-0.0847626,-9.97986,0.0136185,-0.00713348,0.0292969,-0.251884,0.0418854,-0.0125504,0.0406265,-0.00724792
34,1,10.0097,0.00274658,0.0050354,-2.42714,0.0538499,-0.0756734,0.0532125,0.0694445,-0.0934516,0.143792,-0.127598,-0.0859274,0.00740051,0.0547791,-0.0119019,0.141106,0.038681,-0.0838852,0.0299835,-0.042305,-9.97986,0.0191879,-0.0526047,0.0295258,-0.190659,0.0395966,-0.0171661,0.0450134,-0.00564575
34,2,10.0097,0.00305176,0.00549316,-2.42745,0.0541551,-0.0759786,0.0526021,0.0694445,-0.0946723,0.143792,-0.125766,-0.0831808,0.00907898,0.0484467,0.00434875,0.142174,0.0312424,-0.0875092,0.0269699,0.00507355,-9.97986,0.0255203,-0.0324631,0.0342178,-0.13382,0.0368881,-0.0127029,0.0450134,-0.00476837
34,3,10.0097,0.00244141,0.0062561,-2.42684,0.0553758,-0.0747579,0.0550435,0.0697496,-0.0928413,0.144403,-0.127598,-0.0828756,0.00400543,0.00686646,0.0268936,0.106888,0.0325775,-0.0860214,0.0349808,0.0660324,-9.97986,0.0289917,-0.00881195,0.0331116,-0.0695038,0.0331497,-0.0141525,0.045166,-0.00427246
34,4,10.0097,0.000915527,0.00595093,-2.42745,0.0550706,-0.0747579,0.0547383,0.0697496,-0.0937568,0.145624,-0.126072,-0.0816549,0.00766754,0.0135803,0.0553131,0.0457764,0.0344086,-0.0855255,0.0323486,0.098877,-9.97986,0.0258255,-0.00450134,0.0310898,-0.00751495,0.0343323,-0.0200272,0.0468826,-0.00499725
34,5,10.0097,0.00274658,0.00610352,-2.42562,0.055681,-0.0738423,0.0547383,0.0700548,-0.0934516,0.146234,-0.125156,-0.0804342,0.0114441,0.0477982,0.0710678,-0.00190735,0.032959,-0.0896835,0.0335312,0.127182,-9.97986,0.0207138,0.00629425,0.0341797,0.055275,0.0355911,-0.0261307,0.0466537,-0.00679016
34,6,10.0097,0.000610352,0.00564575,-2.4247,0.055681,-0.0741475,0.0538228,0.0706652,-0.090705,0.146234,-0.124851,-0.0776876,0.00930786,0.0436401,0.0787735,-0.00648499,0.0271225,-0.089798,0.0323868,0.14183,-9.97986,0.0172043,0.00110626,0.0383377,0.124702,0.0335693,-0.0444031,0.045433,-0.00549316
34,7,10.0097,0.000610352,0.0062561,-2.42562,0.0562914,-0.0735371,0.0547383,0.0715807,-0.0910102,0.14776,-0.124241,-0.0786031,0.00537872,0.0566483,0.0841522,-0.00465393,0.0274277,-0.0878525,0.027504,0.138245,-9.97986,0.0263214,-0.00293732,0.0285721,0.182991,0.0282288,-0.0471497,0.0434875,-0.00778198
34,8,10.0097,0.000610352,0.00549316,-2.42562,0.0565965,-0.073232,0.0544332,0.0709703,-0.0943672,0.14776,-0.125156,-0.0804342,0.00354767,0.0841522,0.0882339,-0.000457764,0.0302505,-0.0879669,0.0263977,0.128708,-9.97986,0.0160599,0.0300598,0.0352097,0.236282,0.0233459,-0.0350952,0.0450134,-0.0107193
34,9,10.0097,-0.000915527,0.00549316,-2.42531,0.0553758,-0.0723164,0.0547383,0.0712755,-0.0922309,0.146844,-0.124241,-0.0792135,0.00511169,0.0999069,0.0879288,0.0267792,0.0278473,-0.0891495,0.0295258,0.124168,-9.97986,0.0094223,0.0458527,0.0297165,0.285568,0.0220108,-0.0266647,0.0434875,-0.0106812
35,0,10.0097,0.000610352,0.00442505,-2.42562,0.0569017,-0.0741475,0.0553487,0.0718859,-0.0919257,0.148065,-0.124546,-0.0795187,0.00297546,0.122681,0.0837326,0.04879,0.0252533,-0.0804901,0.0268173,0.152855,-9.97986,-0.0056076,-0.00549316,0.0296021,0.327797,0.0163269,-0.0168228,0.0430298,-0.0114822
35,1,10.0097,0.00305176,0.00411987,-2.42562,0.0562914,-0.0744527,0.0550435,0.0578478,-0.0922309,0.146539,-0.125766,-0.0798238,0.00610352,0.136909,0.0793076,0.0409317,0.0189972,-0.0777054,0.0237274,0.200882,-9.97986,-0.00991821,-0.0411224,0.0298691,0.368919,0.0109482,-0.00873566,0.0427246,-0.0136185
35,2,10.0097,0.00152588,0.00427246,-2.42653,0.0553758,-0.0744527,0.0535176,0.0621202,-0.0919257,0.144403,-0.126072,-0.0816549,0.0141525,0.134048,0.102921,0.0189972,0.0150681,-0.0653839,0.0254822,0.181313,-9.97986,-0.0164032,0.0164795,0.0323486,0.418015,0.00629425,-0.00236511,0.0453186,-0.0121689
35,3,10.0097,-0.000610352,0.00457764,-2.42714,0.0553758,-0.075063,0.0544332,0.0673082,-0.0934516,0.146234,-0.125156,-0.0816549,0.0169754,0.131149,0.119553,-0.0151443,0.0139618,-0.0601578,0.0194931,0.121498,-9.97986,-0.0169754,0.076828,0.0322342,0.461464,-0.00087738,-0.000953674,0.0432587,-0.014267
35,4,10.0097,-0.000610352,0.00427246,-2.42623,0.0544603,-0.0744527,0.0565694,0.072191,-0.0919257,0.145624,-0.125461,-0.0822652,0.011673,0.124092,0.12867,-0.0108719,0.00850677,-0.0571823,0.0178909,0.0561905,-9.97986,-0.0233459,0.0873566,0.0292969,0.494957,-0.000648499,-0.00480652,0.0427628,-0.0169754
35,5,10.0097,0.000610352,0.00427246,-2.42867,0.0547655,-0.0744527,0.0532125,0.0865343,-0.0922309,0.146234,-0.125461,-0.0837911,0.0192642,0.156593,0.14019,0.0285339,0.00156403,-0.0554276,0.0140381,-0.0120544,-9.97986,-0.0271225,0.0636673,0.0265121,0.517159,-0.00873566,-0.0101089,0.0445938,-0.015831
35,6,10.0097,-0.000610352,0.00259399,-2.42928,0.0535448,-0.0762837,0.0526021,0.0743273,-0.0925361,0.144708,-0.126377,-0.0859274,0.0151062,0.197525,0.138092,0.0486374,0.00263214,-0.0535965,0.0185013,-0.0588608,-9.97986,-0.0201416,-0.00686646,0.0285721,0.535469,-0.00865936,-0.00846863,0.0422668,-0.0162506
35,7,10.0097,0.00244141,0.00152588,-2.42989,0.0538499,-0.075063,0.0519917,0.0712755,-0.0934516,0.143182,-0.126682,-0.0862325,0.0151825,0.176048,0.126495,0.00835419,-0.00221252,-0.0504303,0.015564,-0.0453949,-9.97986,-0.00782013,-0.056076,0.0286865,0.551987,-0.00911713,-0.000686646,0.0416946,-0.0141525
35,8,10.0097,0.000610352,0.00167847,-2.42867,0.0541551,-0.0756734,0.0532125,0.0706652,-0.0946723,0.141961,-0.127903,-0.0865377,0.00370026,0.0857925,0.106888,-0.0431442,-0.00301361,-0.0527191,0.0152588,0.0106812,-9.97986,0.0094223,-0.0324249,0.0282669,0.573082,-0.00705719,0.0019455,0.0431442,-0.0175476
35,9,10.0097,0.000305176,0.00198364,-2.42745,0.0547655,-0.0762837,0.0522969,0.0676134,-0.0943672,0.141046,-0.126987,-0.0868429,0.0012207,-0.0240707,0.0893784,-0.0337219,-0.00221252,-0.0588226,0.0161743,0.0292969,-9.97986,0.0102234,0.00782013,0.0268936,0.59494,-0.0094223,0.00770569,0.0406265,-0.0137711
36,0,10.0097,0.000305176,0.00137329,-2.42989,0.0532396,-0.0756734,0.0535176,0.0691393,-0.0965034,0.142267,-0.127903,-0.0871481,0.00350952,-0.0657654,0.0761414,0.0215912,-0.0111771,-0.0614548,0.0182343,0.0525284,-9.97986,0.00659943,0.0384521,0.0285721,0.607567,-0.0131226,0.00709534,0.0371552,-0.00896454
36,1,10.0097,-0.000915527,0.00213623,-2.42959,0.0547655,-0.075063,0.0535176,0.0697496,-0.0934516,0.145013,-0.126377,-0.0844015,0.0157547,-0.026474,0.0684357,0.0518799,-0.00637054,-0.0682449,0.018692,0.0724792,-9.97986,-0.001297,0.0326538,0.0310516,0.630531,-0.0120926,0.00846863,0.0390244,-0.0101471
36,2,10.0097,0.00152588,0.0012207,-2.42714,0.0535448,-0.0753682,0.0529073,0.0697496,-0.0937568,0.146539,-0.126377,-0.0856222,0.0231934,0.10128,0.0791931,0.0331116,-0.00774384,-0.0608444,0.0178146,0.0521469,-9.97986,-0.0103378,0.0394058,0.0289917,0.637856,-0.0148392,0.00907898,0.0366974,-0.00907898
36,3,10.0097,0.0012207,0.00152588,-2.42714,0.0544603,-0.0756734,0.0535176,0.0691393,-0.0913154,0.146234,-0.126682,-0.0834859,0.0200653,0.207863,0.0848389,0.00747681,-0.0112152,-0.0547028,0.0217438,0.0568771,-9.97986,-0.00637054,-0.00297546,0.0322723,0.64167,-0.0143433,0.00301361,0.0332642,-0.00545502
36,4,10.0097,0.000915527,0.00152588,-2.42684,0.0538499,-0.0744527,0.054128,0.0697496,-0.094062,0.143792,-0.126072,-0.0840963,0.0127411,0.183449,0.0617218,0.0174713,-0.0114822,-0.0485229,0.0204086,0.0972748,-9.97986,0.0094986,-0.0591278,0.0320435,0.648613,-0.0157928,0.0031662,0.031662,-0.0063324
36,5,10.0097,-0.0012207,0.000152588,-2.42653,0.0553758,-0.0744527,0.0547383,0.0712755,-0.0922309,0.143792,-0.124851,-0.0819601,0.00511169,0.093689,0.0211716,0.02388,-0.0152969,-0.0401306,0.0131989,0.0992966,-9.97986,0.0257492,-0.0190353,0.0309753,0.646439,-0.0166321,-0.00247955,0.0325775,-0.00289917
36,6,10.0097,-0.00366211,0.0012207,-2.42531,0.0559862,-0.0744527,0.0544332,0.0712755,-0.0922309,0.144098,-0.124851,-0.0822652,0.00679016,-0.0168991,-0.0335693,0.0157928,-0.014534,-0.0287247,0.0166702,0.0382996,-9.97986,0.0269318,-7.62939e-005,0.0276566,0.643654,-0.0177002,-0.00919342,0.0287247,0.00190735
36,7,10.0097,-0.00366211,-0.000457764,-2.42531,0.0575121,-0.0735371,0.0556539,0.07036,-0.0919257,0.146234,-0.12363,-0.0807394,0.00400543,-0.0487518,-0.0673676,0.0269318,-0.0147247,-0.0185394,0.0221252,-0.0990295,-9.97986,0.0284958,-0.0301743,0.0343704,0.642204,-0.018425,-0.00339508,0.0269318,0.00621796
36,8,10.0097,0.00244141,-0.000152588,-2.42562,0.0559862,-0.0735371,0.0556539,0.0706652,-0.0919257,0.14837,-0.124546,-0.0819601,0.00663757,0.0496674,-0.0811386,0.0236893,-0.014267,-0.0143433,0.0169373,-0.15316,-9.97986,0.021553,-0.0320816,0.0315475,0.641861,-0.0213623,-0.00427246,0.0229645,0.00534058
36,9,10.0097,0.00183105,-0.000152588,-2.4244,0.0565965,-0.0735371,0.0553487,0.0706652,-0.0913154,0.146234,-0.124241,-0.0804342,0.00240326,0.0569153,-0.0730515,0.00862122,-0.0167084,-0.00541687,0.0222015,-0.100174,-9.97986,0.020256,0.00106812,0.0326538,0.639191,-0.0219345,0.000419617,0.0194168,0.01091
37,0,10.0097,0.000915527,0.000457764,-2.42501,0.0553758,-0.0738423,0.0550435,0.0718859,-0.0910102,0.146234,-0.125156,-0.0813497,0.00930786,-0.0251389,-0.0374603,0.00282288,-0.0149918,0.00141144,0.0193405,-0.0730515,-9.97986,0.00602722,-0.0101089,0.0312805,0.635185,-0.0231552,-0.000686646,0.0178909,0.0126648
37,1,10.0097,0.000610352,-0.000152588,-2.42653,0.0559862,-0.0744527,0.054128,0.0560167,-0.0931465,0.145013,-0.124851,-0.0822652,0.0116348,-0.00976563,-0.0264359,-0.0136185,-0.00915527,0.00453949,0.0216675,-0.0845337,-9.97986,0.00526428,-0.0349426,0.030365,0.637817,-0.018959,-0.0018692,0.0174332,0.0115967
37,2,10.0097,-0.00366211,0.000152588,-2.42653,0.055681,-0.0753682,0.0544332,0.0608995,-0.0916206,0.146234,-0.124546,-0.0810445,0.0153732,0.0386429,-0.04776,-0.0187302,-0.0139999,0.00537872,0.0168991,-0.113182,-9.97986,0.0121689,0.00751495,0.0279236,0.646553,-0.0226974,0.0069809,0.0110626,0.0154114
37,3,10.0097,0.000610352,0.000915527,-2.42653,0.0544603,-0.0738423,0.054128,0.0682238,-0.0934516,0.144708,-0.126072,-0.0816549,0.015564,-0.0056076,-0.0475693,-0.0160599,-0.018425,0.0150681,0.0177002,-0.103416,-9.97986,0.0282669,0.0399017,0.0301361,0.656967,-0.0197601,0.0126648,0.0139236,0.0186157
37,4,10.0097,0.00305176,0.00198364,-2.42653,0.0544603,-0.0756734,0.0538228,0.0752428,-0.0934516,0.144098,-0.125766,-0.0834859,0.0176239,-0.0437546,-0.0577927,-0.0166702,-0.00862122,0.0232315,0.0205994,-0.0440979,-9.97986,0.0434494,0.0203705,0.0265121,0.664063,-0.0248337,0.0118637,0.00778198,0.017128
37,5,10.0097,0.00152588,0.00198364,-2.42776,0.0541551,-0.075063,0.0535176,0.082567,-0.0931465,0.143487,-0.125766,-0.0850118,0.017128,-0.0621796,-0.0882339,-0.0094223,-0.0108719,0.0322723,0.0139236,0.0222015,-9.97986,0.0494766,0.0200653,0.0293732,0.680504,-0.0215149,0.0128937,0.00999451,0.0217438
37,6,10.0097,0.000915527,0.00183105,-2.42776,0.0547655,-0.0753682,0.0513814,0.0737169,-0.0943672,0.142877,-0.126987,-0.0856222,0.0186539,-0.117111,-0.100288,-0.00793457,-0.0173569,0.0369644,0.0175476,0.0870132,-9.97986,0.0492859,0.0723648,0.019722,0.697899,-0.0291061,0.0121307,0.00762939,0.0186539
37,7,10.0097,0.00244141,0.00152588,-2.42898,0.0538499,-0.0747579,0.0519917,0.0688341,-0.0949775,0.143182,-0.126987,-0.0871481,0.0181961,-0.0951385,-0.058403,-0.00125885,-0.0159836,0.0448227,0.018158,0.109329,-9.97986,0.042572,0.121307,0.0225067,0.708427,-0.0271606,0.0172806,0.00801086,0.0198746
37,8,10.0097,0.000610352,0.000152588,-2.42806,0.0535448,-0.0759786,0.0529073,0.07036,-0.0955879,0.145624,-0.127598,-0.0856222,0.0121307,-0.0494003,-0.0273132,0.00415802,-0.0154114,0.0499725,0.0161743,0.104904,-9.97986,0.0324631,0.0888062,0.020752,0.711708,-0.0302124,0.0146103,0.00682831,0.0213242
37,9,10.0097,0.000610352,0.000457764,-2.42989,0.0547655,-0.0753682,0.0519917,0.0691393,-0.0937568,0.144403,-0.126987,-0.0868429,0.0117874,-0.0306702,-0.0206375,-0.00118256,-0.0177383,0.0506592,0.0192642,0.0976181,-9.97986,0.0208282,0.0343323,0.0224304,0.721741,-0.029335,0.0219727,0.00770569,0.0213242
38,0,10.0097,-0.000610352,0,-2.42806,0.0529344,-0.0759786,0.0513814,0.0673082,-0.0934516,0.143487,-0.127292,-0.0865377,0.00434875,0.0012207,-0.0182724,0.00217438,-0.0105286,0.0522614,0.016861,0.0501251,-9.97986,0.0168991,-0.00366211,0.0206757,0.7201,-0.0304413,0.025444,0.00202179,0.0234604
38,1,10.0097,0.00183105,-0.000305176,-2.42806,0.0547655,-0.0762837,0.0516866,0.0688341,-0.0946723,0.145624,-0.126987,-0.0868429,0.00267029,0.0295258,-0.0094223,0.00911713,-0.00881195,0.0535965,0.0194931,0.0194931,-9.97986,0.0112915,-0.0565338,0.0205231,0.715828,-0.0295639,0.0273132,0.00564575,0.0253296
38,2,10.0097,-0.000305176,-0.000762939,-2.42745,0.0538499,-0.0756734,0.0492452,0.0694445,-0.0943672,0.144403,-0.126987,-0.0859274,-0.000305176,0.0521851,0.0313568,0.0124741,-0.00812531,0.0608063,0.0273132,0.0227737,-9.97986,0.00179291,-0.0608826,0.0237274,0.705528,-0.0286102,0.0297165,0.00602722,0.0284958
38,3,10.0097,0.00396729,-0.0012207,-2.42684,0.0544603,-0.0747579,0.0535176,0.0700548,-0.094062,0.146539,-0.125766,-0.0847066,0.001297,0.115547,0.0828552,0.00843048,-0.0113678,0.0606918,0.0287628,0.0479507,-9.97986,-0.00747681,-0.0333786,0.0279999,0.678444,-0.0253296,0.0324249,0.00156403,0.0292206
38,4,10.0097,0.00366211,-0.00167847,-2.42684,0.055681,-0.0741475,0.0532125,0.0688341,-0.0928413,0.145624,-0.126072,-0.0847066,7.62939e-005,0.153618,0.113373,0.0100327,-0.00637054,0.063324,0.0299835,0.107193,-9.97986,-0.0130081,-0.0276947,0.0281906,0.651436,-0.0233459,0.0293732,-0.00267029,0.030098
38,5,10.0097,-0.000305176,-0.00228882,-2.42562,0.0569017,-0.073232,0.054128,0.0706652,-0.0922309,0.146844,-0.125461,-0.0825704,0.0031662,0.128326,0.125656,0.00259399,-0.00953674,0.0612259,0.0246811,0.130806,-9.97986,-0.0197983,-0.0499344,0.0234985,0.620003,-0.0302887,0.0271988,-0.0131989,0.0311279
38,6,10.0097,-0.00213623,-0.00274658,-2.4247,0.0565965,-0.0726216,0.054128,0.0715807,-0.0925361,0.145013,-0.125156,-0.0825704,0.00873566,0.117531,0.136795,3.8147e-005,-0.0043869,0.0645447,0.0289536,0.10479,-9.97986,-0.0159454,-0.0720978,0.0253677,0.594673,-0.0223923,0.0304031,-0.01091,0.0332642
38,7,10.0097,0.000305176,-0.00213623,-2.42501,0.0575121,-0.0738423,0.0550435,0.0712755,-0.0910102,0.146844,-0.12363,-0.0810445,0.0111389,0.126801,0.142899,-0.00995636,-0.00621796,0.0603104,0.0243378,0.056839,-9.97986,-0.0137711,-0.0760269,0.0247574,0.578995,-0.0200653,0.0382996,-0.015831,0.033493
38,8,10.0097,-0.000610352,-0.00183105,-2.42623,0.0541551,-0.0744527,0.054128,0.0712755,-0.0922309,0.145624,-0.124546,-0.0819601,0.0149918,0.114822,0.152969,-0.0238419,-0.00801086,0.0600815,0.0230408,0.0276184,-9.97986,-0.01091,-0.0754547,0.0232697,0.561676,-0.0229263,0.0290298,-0.0203705,0.0343323
38,9,10.0097,-0.00244141,-0.000457764,-2.42501,0.0565965,-0.0741475,0.0550435,0.0724962,-0.0919257,0.147149,-0.123325,-0.0813497,0.0217819,0.126419,0.137711,-0.02491,-0.00389099,0.0614166,0.0256348,0.014801,-9.97986,0.000190735,-0.0575256,0.0209427,0.55233,-0.0189972,0.0233841,-0.0188446,0.0335693
39,0,10.0097,-0.000305176,-0.0012207,-2.4244,0.0572069,-0.0741475,0.055959,0.0715807,-0.0922309,0.144098,-0.124241,-0.0813497,0.018425,0.118179,0.111542,-0.0312042,-0.00553131,0.0555038,0.0266647,-0.0120544,-9.97986,0.00736237,-0.0690842,0.0265503,0.53936,-0.0157547,0.0207138,-0.0165558,0.0396347
39,1,10.0097,0,-0.00213623,-2.42684,0.0572069,-0.0738423,0.0529073,0.0560167,-0.0928413,0.143792,-0.124851,-0.0819601,0.0127792,0.0496674,0.0870132,-0.038681,-0.000114441,0.0539017,0.0283051,-0.0324631,-9.97986,0.00659943,-0.0508118,0.026207,0.532074,-0.0151443,0.0144577,-0.0167084,0.0363922
39,2,10.0097,0,-0.00198364,-2.42562,0.0569017,-0.0738423,0.054128,0.0621202,-0.094062,0.143792,-0.126072,-0.0825704,0.00988007,-0.0513077,0.0714493,-0.0324249,-0.000495911,0.0493622,0.0333786,-0.0179672,-9.97986,0.0195313,-0.00320435,0.0283432,0.509834,-0.00930786,0.016098,-0.0157166,0.0402451
39,3,10.0097,0.00152588,-0.00213623,-2.42592,0.0553758,-0.0744527,0.0535176,0.0676134,-0.0928413,0.145013,-0.125766,-0.0831808,0.00534058,-0.13237,0.015564,-0.0228119,0.00358582,0.0492096,0.0351715,0.0174713,-9.97986,0.0261307,0.00717163,0.0262451,0.487022,-0.0101089,0.0193024,-0.018692,0.0392151
39,4,10.0097,-0.000610352,-0.00198364,-2.42653,0.0559862,-0.0741475,0.054128,0.0749376,-0.0916206,0.145013,-0.125461,-0.0837911,0.00873566,-0.156708,-0.0375366,-0.00606537,-0.000724792,0.0516129,0.0305939,0.0260162,-9.97986,0.025177,0.0369263,0.0269699,0.450859,-0.00896454,0.0213623,-0.00984192,0.0402832
39,5,10.0097,0.00274658,-0.00213623,-2.42806,0.0529344,-0.0768941,0.0532125,0.0853136,-0.0928413,0.144403,-0.126072,-0.0859274,0.0117111,-0.0870895,-0.00442505,-0.000915527,0.00530243,0.0468063,0.0209045,0.0540543,-9.97986,0.0175858,0.0184631,0.0250244,0.410385,-0.0094223,0.0177765,-0.0165558,0.0366592
39,6,10.0097,0.00183105,-0.0038147,-2.42867,0.0538499,-0.075063,0.0532125,0.0743273,-0.0934516,0.142877,-0.126682,-0.0871481,0.0115204,-0.0194931,0.0399017,-0.0111771,0.00385284,0.04879,0.0270844,0.0934601,-9.97986,0.0234985,-0.0712967,0.0240326,0.373039,-0.00999451,0.0177002,-0.0115585,0.0374222
39,7,10.0097,-0.000915527,-0.00366211,-2.42928,0.0535448,-0.0759786,0.0504659,0.0697496,-0.0949775,0.143792,-0.127292,-0.0880636,0.0139236,-0.0113297,0.0378799,-0.0118256,0.00400543,0.0443649,0.0268936,0.0823975,-9.97986,0.0221252,-0.083847,0.0219727,0.333443,-0.00572205,0.0144196,-0.00995636,0.0382233
39,8,10.0097,0.000305176,-0.00396729,-2.42959,0.0535448,-0.0759786,0.0519917,0.0694445,-0.0955879,0.143792,-0.127292,-0.0880636,0.0177765,-0.0304794,0.00881195,-0.0063324,0.00415802,0.0386429,0.0245285,0.0399017,-9.97986,0.0183105,-0.0760651,0.0234604,0.29686,-0.00923157,0.00473022,-0.0087738,0.0416565
39,9,10.0097,-0.000610352,-0.00427246,-2.42928,0.0535448,-0.0756734,0.0526021,0.0685289,-0.0943672,0.143487,-0.127292,-0.0880636,0.0180054,-0.0223541,-0.0304794,-0.00167847,0.00553131,0.0393295,0.0217056,0.00572205,-9.97986,0.0122833,-0.0708771,0.022583,0.255623,0.000953674,-0.00465393,-0.00694275,0.0357437
40,0,10.0097,0.000610352,-0.00457764,-2.42898,0.0529344,-0.0762837,0.0526021,0.0673082,-0.094062,0.144403,-0.126682,-0.0883688,0.0252914,0.0404358,-0.0152206,-0.000495911,0.00419617,0.0350952,0.0226593,0.0153732,-9.97986,0.00125885,-0.0133133,0.0241852,0.210495,0.00537872,0.000724792,-0.00869751,0.0406265
40,1,10.0097,-0.000610352,-0.00396729,-2.42745,0.0529344,-0.0723164,0.0519917,0.0682238,-0.0955879,0.145318,-0.126987,-0.0874532,0.0154495,0.108185,0.0202942,-0.0037384,0.0105286,0.0281143,0.0214767,0.0295639,-9.97986,0.00644684,0.0724792,0.0263214,0.173454,0.00671387,0.00667572,-0.00434875,0.0344467
40,2,10.0097,0.000610352,-0.00335693,-2.42776,0.0553758,-0.0744527,0.0529073,0.0685289,-0.0934516,0.143182,-0.126682,-0.0865377,0.00694275,0.103989,-0.0172424,-0.00354767,0.00713348,0.0310898,0.0231934,0.032692,-9.97986,0.00789642,0.0878143,0.026207,0.136795,0.0088501,0.00347137,-0.00259399,0.0364304
40,3,10.0097,-0.000305176,-0.00366211,-2.42684,0.0535448,-0.0747579,0.054128,0.0694445,-0.0925361,0.141961,-0.125461,-0.0862325,0.00408173,-0.0100708,-0.114975,-0.00106812,0.00881195,0.0292587,0.0244904,0.0443268,-9.97986,0.0222778,0.0689697,0.0325394,0.0907516,0.0154877,0.00205994,-0.00461578,0.0362015
40,4,10.0097,-0.000610352,-0.00350952,-2.42776,0.0553758,-0.0747579,0.054128,0.0688341,-0.0937568,0.141656,-0.126072,-0.0847066,-0.00274658,-0.149956,-0.147476,0.000534058,0.00888824,0.0257111,0.0247574,0.0108337,-9.97986,0.030098,0.12928,0.0274277,0.0487518,0.0168991,0.00564575,-0.000953674,0.0334167
40,5,10.0097,0.000305176,-0.00411987,-2.42531,0.055681,-0.0744527,0.0547383,0.072191,-0.0913154,0.142572,-0.12363,-0.0831808,-0.00530243,-0.199356,-0.131264,0.000801086,0.0069809,0.0246048,0.0279617,-0.0460434,-9.97986,0.0313568,0.171585,0.0315857,0.00816345,0.0223923,0.0124359,-0.000534058,0.031662
40,6,10.0097,-0.000610352,-0.00396729,-2.4247,0.0572069,-0.073232,0.0553487,0.0706652,-0.0913154,0.147149,-0.124241,-0.0834859,-0.00751495,-0.162544,-0.0974274,-0.00133514,0.00640869,0.0205231,0.0298309,-0.0956726,-9.97986,0.0250244,0.104675,0.0307846,-0.0302505,0.0193405,0.0130844,0.00667572,0.0342941
