
Devices
1200
,,BP Load cell - Voltage,String Length - Voltage,Clutch Active - Voltage,#7 iPecs - Voltage,,,,,,,,,EMG 1-8 Left - Voltage,,,,,,,,Pylon Force - Voltage,EMG 9-16 Right - Voltage,,,,,,,,
Frame,Sub Frame,BP Load Cell,String Length,From Arduino Logic,A45,A135,A225,A315,S0,S90,S180,S270,ZSum,EMG 1 Glut Max,EMG 2 Glut Med,EMG 3 Biceps Femoris Long,EMG 4 Rectus Femoris,EMG 5 Vastus Medialis,EMG 6 Tib Ant,EMG 7 Med Gas,EMG 8 Soleus,Pylon volts,EMG 9 Glut Max,EMG 10 Glut Med,EMG 11 Biceps Femoris Long,EMG 12 Rectus Femoris,EMG 13 Vastus Medialis,EMG 14 Tib Ant,EMG 15 Med Gas,EMG 16 Soleus
,,V,V,V,V,V,V,V,V,V,V,V,V,V,V,V,V,V,V,V,V,V,V,V,V,V,V,V,V,V
1,0,-9.99003,0,-0.00350952,-2.4244,0.0569017,-0.0738423,0.0562642,0.0139025,-0.0925361,0.145624,-0.128513,-0.0810445,0.0075531,0.0217438,0.0180435,0.0169754,0.013237,0.0126266,0.0231171,0.00320435,-9.97986,0.00629425,-0.00404358,0.0129318,0.00209808,0.014534,-0.00507355,0.0133133,0.00102997
1,1,-9.99003,0,-0.00137329,-2.42592,0.0553758,-0.0741475,0.0565694,0.0422838,-0.0919257,0.145318,-0.127292,-0.0822652,0.0122452,0.0220108,0.0218582,0.010376,0.020256,0.0110245,0.0219345,0.00743866,-9.97986,0.0109482,0.000534058,0.00968933,0.00728607,0.0125885,-0.00240326,0.0172043,0.00431061
1,2,-9.99003,0.000610352,-0.000915527,-2.42501,0.0559862,-0.0744527,0.0550435,0.0572374,-0.0916206,0.147149,-0.126377,-0.0822652,0.0118637,0.0243378,0.0179291,0.0119781,0.0130463,0.00934601,0.0231552,0.0133133,-9.97986,0.00747681,-0.0031662,0.015564,0.00572205,0.0100708,-0.000953674,0.0177383,0.00411987
1,3,-9.99003,0.000610352,0,-2.42531,0.0538499,-0.0744527,0.055959,0.080736,-0.0894843,0.145013,-0.125461,-0.0828756,0.0127792,0.0234985,0.0128174,0.0180054,0.0175476,0.00892639,0.0212479,0.0136185,-9.97986,0.00873566,-0.000648499,0.0147247,0.0111771,0.0140381,-0.00225067,0.0178146,0.00591278
1,4,-7.39787,-0.000305176,0.00213623,-2.42501,0.0550706,-0.0741475,0.0565694,0.133837,-0.0855171,0.145624,-0.121189,-0.0828756,0.00785828,0.020256,0.014801,0.00980377,0.0167465,0.0106049,0.0265121,0.0149918,-9.97986,0.0114822,-0.000419617,0.0106049,0.00720978,0.0149536,-0.00286102,0.0156784,0.00736237
1,5,0.458575,0.0012207,0.00335693,-2.42776,0.0547655,-0.075063,0.0550435,0.14818,-0.088874,0.143792,-0.121189,-0.0837911,0.00965118,0.0240707,0.0166321,0.0122833,0.0138855,0.0109863,0.0224304,0.0133896,-9.97986,0.0136185,7.62939e-005,0.00995636,0.00907898,0.0131607,-0.00385284,0.0144958,0.00598907
1,6,8.53841,0,0.00488281,-2.42898,0.0535448,-0.0756734,0.0529073,0.152452,-0.0870429,0.143487,-0.121189,-0.085317,0.0141907,0.0221634,0.0156784,0.0109863,0.0195313,0.0117874,0.0204468,0.0137329,-9.97986,0.0136566,-0.00270844,0.013504,0.00873566,0.017395,-0.00297546,0.0163651,0.00583649
1,7,10.0097,0.000915527,0.00274658,-2.43111,0.0526292,-0.0765889,0.0501607,0.112779,-0.0952827,0.142877,-0.124241,-0.0883688,0.00999451,0.0208664,0.0166321,0.00995636,0.017128,0.0103378,0.02285,0.0196075,-9.97986,0.0147629,0.000953674,0.0151062,0.00968933,0.0123596,-0.000114441,0.0144958,0.00358582
1,8,10.0097,-0.000305176,0.000915527,-2.42867,0.0538499,-0.0762837,0.0498555,0.0856188,-0.0968086,0.143182,-0.127903,-0.0886739,0.0117111,0.0213242,0.0196838,0.00789642,0.0200653,0.0134277,0.0258636,0.0224686,-9.97986,0.0152206,-0.00442505,0.0149536,0.00957489,0.0133514,0.000801086,0.0148773,0.00255585
1,9,10.0097,0.0012207,0.000305176,-2.43081,0.0541551,-0.0768941,0.0513814,0.0767687,-0.0968086,0.142572,-0.126377,-0.0883688,0.0107574,0.0171661,0.0196457,0.0120544,0.0213623,0.0149536,0.0230408,0.0166321,-9.97986,0.0148773,-0.00255585,0.016861,0.00907898,0.013504,-0.000572205,0.019722,0.00400543
2,0,10.0097,0.000305176,-0.000152588,-2.42837,0.0535448,-0.0759786,0.0522969,0.0724962,-0.0943672,0.144708,-0.126377,-0.085317,0.010643,0.0200653,0.0192642,0.0104523,0.0166321,0.00858307,0.0213623,0.0230026,-9.97986,0.0180435,-0.00419617,0.0088501,0.0087738,0.0130844,-0.00274658,0.0201416,0.00789642
2,1,10.0097,-0.00213623,0.000305176,-2.42714,0.0541551,-0.0741475,0.0532125,0.0712755,-0.0943672,0.143487,-0.126377,-0.085317,0.0108719,0.0196075,0.0209427,0.00827789,0.0159454,0.0110626,0.022049,0.0230789,-9.97986,0.0215912,-0.00347137,0.010376,0.00705719,0.0157928,-0.0019455,0.0147247,0.00595093
2,2,10.0097,0.000305176,0,-2.42714,0.0550706,-0.0753682,0.054128,0.0706652,-0.0943672,0.145624,-0.125766,-0.0844015,0.0100327,0.017662,0.0189209,0.0120926,0.0210571,0.00858307,0.0190735,0.0279617,-9.97986,0.019989,-0.000152588,0.0135803,0.00892639,0.0135803,-0.00156403,0.019722,0.00812531
2,3,10.0097,-0.000305176,0.000152588,-2.42592,0.0559862,-0.0741475,0.0535176,0.0700548,-0.0925361,0.145624,-0.125461,-0.0825704,0.0131989,0.0192261,0.0224304,0.0124741,0.0209427,0.0122833,0.0237656,0.0324249,-9.97986,0.0219727,0.00175476,0.0136566,0.00617981,0.0161362,-0.0012207,0.0168228,0.0112534
2,4,10.0097,-0.000610352,0.000152588,-2.42562,0.0562914,-0.0741475,0.0544332,0.0709703,-0.0916206,0.145929,-0.125461,-0.0813497,0.0118256,0.0187683,0.0202179,0.0133133,0.0222397,0.0111008,0.021286,0.028801,-9.97986,0.0230026,0.00190735,0.0127411,0.00808716,0.0193787,0.000534058,0.014267,0.00797272
2,5,10.0097,-0.00183105,0.000152588,-2.4247,0.0562914,-0.0741475,0.0550435,0.0706652,-0.0922309,0.147455,-0.124851,-0.0804342,0.0121307,0.0179291,0.0173187,0.0119019,0.0190353,0.00816345,0.022049,0.0265121,-9.97986,0.0194168,0.00125885,0.0133514,0.00827789,0.0171661,-0.00518799,0.0134277,0.00534058
2,6,10.0097,-0.0012207,0,-2.42592,0.0562914,-0.0738423,0.054128,0.0712755,-0.0910102,0.147455,-0.124546,-0.0810445,0.012207,0.0151825,0.0181198,0.0113678,0.0150681,0.00785828,0.0185394,0.0257492,-9.97986,0.018959,0.00125885,0.0130463,0.00701904,0.0153351,-0.00423431,0.0151443,0.00816345
2,7,10.0097,-0.00213623,-0.00198364,-2.42745,0.0572069,-0.0747579,0.0513814,0.0184801,-0.0986396,0.146539,-0.129734,-0.0834859,0.0124359,0.020256,0.0186539,0.00701904,0.0156021,0.0139236,0.0174332,0.0200272,-9.97986,0.0147247,-0.000762939,0.016861,0.00659943,0.0180817,-0.00747681,0.0141144,0.00869751
2,8,1.52761,0.000610352,-0.00396729,-2.42531,0.0572069,-0.0747579,0.0526021,-0.0028822,-0.0955879,0.145929,-0.129123,-0.0828756,0.00782013,0.018959,0.0183487,0.00450134,0.0172424,0.0101471,0.0192642,0.0163651,-9.97986,0.0131607,0.00164032,0.0120926,0.00534058,0.0160217,-0.00339508,0.017395,0.00423431
2,9,-5.53843,0,-0.00473022,-2.42409,0.0562914,-0.0738423,0.0535176,-0.0156996,-0.0980293,0.146234,-0.130954,-0.0819601,0.0102615,0.0218582,0.0205231,0.0127792,0.0162506,0.00614166,0.0217438,0.0111771,-9.97986,0.0082016,0.000839233,0.0157166,0.00606537,0.0147629,-0.00320435,0.0154495,0.00705719
3,0,-9.99003,0,-0.00305176,-2.4244,0.0569017,-0.0741475,0.0553487,0.0139025,-0.0928413,0.147149,-0.128208,-0.0804342,0.00816345,0.018959,0.0170517,0.0146484,0.0178909,0.0120926,0.0211716,0.0056839,-9.97986,0.00682831,0.00453949,0.0125122,0.00461578,0.0182724,0.000419617,0.00995636,0.00232697
3,1,-9.99003,-0.00152588,-0.00152588,-2.42501,0.0553758,-0.0735371,0.0553487,0.0398424,-0.0922309,0.145929,-0.126377,-0.0810445,0.0069809,0.0234604,0.0189972,0.0127029,0.0182724,0.00999451,0.0240707,0.0111771,-9.97986,0.00923157,0.00152588,0.0151825,0.00759125,0.011673,-0.00267029,0.0175858,0.00602722
3,2,-9.99003,-0.000305176,-0.000305176,-2.42653,0.0559862,-0.075063,0.0556539,0.0596788,-0.0913154,0.145929,-0.125766,-0.0819601,0.00801086,0.017395,0.0196457,0.00980377,0.0144196,0.0069046,0.0183868,0.00766754,-9.97986,0.0121307,0.00301361,0.0150299,0.00682831,0.0114441,-0.0019455,0.0147629,0.00171661
3,3,-9.99003,0.000610352,0,-2.42531,0.0547655,-0.0762837,0.0553487,0.0834825,-0.0897895,0.145318,-0.123935,-0.0816549,0.0149536,0.0209045,0.0197601,0.0104523,0.0175858,0.00812531,0.0182724,0.00881195,-9.97986,0.0117493,-0.00171661,0.0138092,0.00995636,0.0130463,-0.000762939,0.0137329,0.00572205
3,4,-7.36766,0,0.00244141,-2.4247,0.0541551,-0.075063,0.0568746,0.135057,-0.0849067,0.143792,-0.122104,-0.0828756,0.0114441,0.016861,0.0207901,0.0112534,0.0179672,0.00617981,0.0165176,0.0152588,-9.97986,0.0121689,0.0037384,0.0168228,0.00816345,0.0161362,-0.00164032,0.0153732,0.00904083
3,5,0.648394,-0.000915527,0.00350952,-2.42745,0.0541551,-0.0747579,0.054128,0.146044,-0.0885688,0.145013,-0.121494,-0.0840963,0.0105286,0.0250626,0.0204086,0.00659943,0.0195313,0.00965118,0.0200653,0.0135422,-9.97986,0.00896454,0.000686646,0.0156021,0.00473022,0.0164032,-0.00225067,0.0148773,0.00823975
3,6,8.64369,0.000610352,0.00442505,-2.42837,0.0529344,-0.0762837,0.0529073,0.153368,-0.0894843,0.141961,-0.121189,-0.085317,0.0088501,0.0192261,0.0192642,0.0075531,0.0157547,0.0103378,0.0181961,0.0153351,-9.97986,0.0123596,-0.00221252,0.0125122,0.00530243,0.0157166,-0.000419617,0.0162506,0.00793457
3,7,10.0097,-0.000305176,0.00305176,-2.43111,0.0532396,-0.0778096,0.0498555,0.112779,-0.0971137,0.142877,-0.123935,-0.0895895,0.00946045,0.0230789,0.0182724,0.0114059,0.0170517,0.0118637,0.0202179,0.0165558,-9.97986,0.00873566,-0.000991821,0.0150299,0.0104523,0.0146484,-0.00167847,0.017128,0.00377655
3,8,10.0097,-0.000915527,0.000457764,-2.42989,0.0535448,-0.0753682,0.050771,0.0862291,-0.0971137,0.143487,-0.126377,-0.0880636,0.0155258,0.0213242,0.0186157,0.0125122,0.0177765,0.014267,0.0204849,0.0173187,-9.97986,0.0137329,0.00106812,0.0161743,0.00473022,0.0205994,0.00366211,0.0146484,0.0082016
3,9,10.0097,0.000915527,0,-2.42928,0.0526292,-0.0765889,0.0504659,0.0758531,-0.0974189,0.143792,-0.126072,-0.0871481,0.00637054,0.0193787,0.0199127,0.0094986,0.0128937,0.00614166,0.0153351,0.0149536,-9.97986,0.0125885,-0.00125885,0.0128555,0.0030899,0.0133514,-0.00274658,0.0107574,0.00339508
4,0,10.0097,0.00274658,0,-2.42989,0.0547655,-0.0753682,0.0529073,0.0737169,-0.0946723,0.144403,-0.126682,-0.0868429,0.0125122,0.0247955,0.0216675,0.0154877,0.018425,0.012207,0.0227737,0.0213623,-9.97986,0.0204086,0.00148773,0.0170517,0.00968933,0.0167084,0.001297,0.0160599,0.00480652
4,1,10.0097,0.000610352,-0.000305176,-2.42806,0.0550706,-0.0747579,0.0519917,0.0706652,-0.0934516,0.145318,-0.126072,-0.0847066,0.0122833,0.0227737,0.0166702,0.00915527,0.0167084,0.0127411,0.0211716,0.0230408,-9.97986,0.0209427,-0.00087738,0.0142288,0.00507355,0.0171661,-0.00144958,0.0125885,0.00598907
4,2,10.0097,0.000305176,0.000152588,-2.42714,0.0547655,-0.075063,0.0529073,0.0712755,-0.094062,0.144098,-0.126072,-0.085317,0.0151062,0.0222015,0.0217819,0.0109482,0.0173569,0.0127411,0.0166702,0.029068,-9.97986,0.022049,-0.00331879,0.015564,0.00450134,0.0180435,-0.000572205,0.0152969,0.00629425
4,3,10.0097,-0.000610352,0.000152588,-2.42714,0.0562914,-0.0744527,0.0538228,0.0709703,-0.0925361,0.147455,-0.126072,-0.0834859,0.0120544,0.0242996,0.0213242,0.01091,0.0193024,0.0120926,0.0209427,0.0295258,-9.97986,0.0207901,0.00247955,0.0124741,0.00350952,0.0160217,-0.00225067,0.0154495,0.0125504
4,4,10.0097,-0.00213623,0.000305176,-2.42562,0.0559862,-0.0741475,0.0547383,0.07036,-0.0913154,0.146539,-0.12363,-0.0813497,0.00930786,0.0163269,0.0201416,0.00797272,0.0183487,0.0105667,0.0209427,0.0271606,-9.97986,0.0225449,-0.00591278,0.0157928,0.00801086,0.0149155,-0.00221252,0.0119781,0.0115204
4,5,10.0097,0.00152588,0,-2.4244,0.0562914,-0.073232,0.0544332,0.0706652,-0.090705,0.148065,-0.126072,-0.0822652,0.0116348,0.0226212,0.02285,0.0109863,0.0188065,0.00972748,0.020752,0.0258255,-9.97986,0.0172043,-0.000953674,0.014267,0.00617981,0.019722,-0.00183105,0.0138855,0.00896454
4,6,10.0097,0.000305176,-0.000305176,-2.42531,0.0559862,-0.0735371,0.0550435,0.0712755,-0.0928413,0.145013,-0.123935,-0.0810445,0.00988007,0.0216293,0.020752,0.0121307,0.0148773,0.0115585,0.0219345,0.0198746,-9.97986,0.0167847,-0.00114441,0.0125122,0.00629425,0.0204086,-0.00370026,0.014534,0.00839233
4,7,10.0097,-0.0012207,-0.000915527,-2.42684,0.0559862,-0.0756734,0.0516866,0.0197008,-0.0995551,0.145013,-0.129123,-0.0844015,0.0107193,0.0185394,0.0191498,0.0110626,0.0162506,0.0118637,0.0201797,0.0222778,-9.97986,0.020256,-0.000915527,0.0144577,0.00663757,0.0165558,0.00228882,0.013504,0.0107574
4,8,1.78548,-0.00183105,-0.0038147,-2.42531,0.0575121,-0.0741475,0.0538228,-0.00135633,-0.0968086,0.146539,-0.128208,-0.0819601,0.00495911,0.023613,0.0181198,0.0140381,0.0170517,0.00965118,0.0216293,0.0144196,-9.97986,0.0104141,0.00335693,0.011673,0.00713348,0.0167847,-0.00408173,0.0156784,0.00476837
4,9,-5.23204,0.000610352,-0.00534058,-2.42531,0.055681,-0.0738423,0.0532125,-0.0160048,-0.0971137,0.147149,-0.130344,-0.0810445,0.00717163,0.0212479,0.0161743,0.00881195,0.0125885,0.00888824,0.0179672,0.00896454,-9.97986,0.0082016,-0.00434875,0.0162506,0.00564575,0.0166702,-0.00205994,0.0150299,0.00564575
5,0,-9.99003,0,-0.00305176,-2.42501,0.0559862,-0.0738423,0.055959,0.0135973,-0.0928413,0.147149,-0.127598,-0.0804342,0.00835419,0.0255966,0.0185776,0.0108719,0.0180435,0.0130463,0.0221634,0.00843048,-9.97986,0.00740051,-0.000610352,0.0120926,0.00728607,0.0123215,0.000114441,0.0154877,0.00492096
5,1,-9.99003,0,-0.00198364,-2.42501,0.0553758,-0.0741475,0.0568746,0.0407579,-0.090705,0.146539,-0.126987,-0.0807394,0.00732422,0.0235367,0.0149155,0.0106049,0.0140762,0.00778198,0.0195694,0.00988007,-9.97986,0.0111389,-0.000915527,0.0147247,0.00854492,0.0158691,-0.00164032,0.0135422,0.00514984
5,2,-9.99003,-0.000610352,-0.000305176,-2.42623,0.0559862,-0.075063,0.0553487,0.0569322,-0.0925361,0.144708,-0.125766,-0.0825704,0.0105667,0.0224304,0.018692,0.00923157,0.0162888,0.0102615,0.0231934,0.0133133,-9.97986,0.0112152,0.001297,0.014534,0.00751495,0.0186157,-0.00225067,0.0154495,0.00110626
5,3,-9.99003,0.000305176,0.000762939,-2.42592,0.055681,-0.0741475,0.0550435,0.080736,-0.0885688,0.145013,-0.124851,-0.0816549,0.0117111,0.0270462,0.0204086,0.0125504,0.0173569,0.0106049,0.0206375,0.0100327,-9.97986,0.0102234,0.00236511,0.0153351,0.00705719,0.0167465,-0.0018692,0.016861,0.00534058
5,4,-6.97764,0,0.00289917,-2.42501,0.0547655,-0.0741475,0.0565694,0.134447,-0.0842964,0.145318,-0.121189,-0.0828756,0.0114059,0.0245285,0.0231934,0.00617981,0.0128937,0.00892639,0.0213623,0.0118256,-9.97986,0.0136185,-0.00228882,0.0164413,0.00644684,0.0128174,0.001297,0.0167084,0.00484467
5,5,1.13454,-0.000915527,0.00350952,-2.42776,0.0541551,-0.0753682,0.0544332,0.146959,-0.0873481,0.144403,-0.122715,-0.0840963,0.0111771,0.021553,0.0192261,0.0140381,0.0164795,0.0108337,0.0202179,0.0131989,-9.97986,0.013504,-0.00110626,0.0143433,0.00789642,0.0164795,-0.0025177,0.0167847,0.00267029
5,6,8.96718,0.0012207,0.00442505,-2.42867,0.0538499,-0.0747579,0.0535176,0.152757,-0.0894843,0.143487,-0.121189,-0.0856222,0.0120544,0.0231934,0.0202942,0.00923157,0.0170517,0.00858307,0.018959,0.016861,-9.97986,0.0127029,0.000419617,0.0131989,0.00965118,0.0127411,0.00190735,0.0191498,0.00728607
5,7,10.0097,0.000915527,0.00289917,-2.4305,0.0532396,-0.0775044,0.0498555,0.111559,-0.0965034,0.142572,-0.126682,-0.0880636,0.0130081,0.0203705,0.0221634,0.0102615,0.0159836,0.00621796,0.0217819,0.0156403,-9.97986,0.0141525,-0.00347137,0.0140762,0.00713348,0.0146866,0.00102997,0.0164795,0.00465393
5,8,10.0097,0.0012207,0.000762939,-2.42928,0.0535448,-0.0756734,0.0513814,0.0859239,-0.0980293,0.143487,-0.127292,-0.0880636,0.00923157,0.0242233,0.0156021,0.0118637,0.0178909,0.00591278,0.0199127,0.0174713,-9.97986,0.014801,-0.0056839,0.0142288,0.00610352,0.0156021,0.000762939,0.0189972,0.00873566
5,9,10.0097,-0.000305176,0.000762939,-2.42898,0.0538499,-0.0762837,0.0526021,0.0767687,-0.0949775,0.144403,-0.127292,-0.0877584,0.0111008,0.0213242,0.0188065,0.00587463,0.0152588,0.00823975,0.0215149,0.0153351,-9.97986,0.0223541,-0.00488281,0.0118637,0.0101852,0.0152588,-0.00160217,0.0144958,0.00873566
6,0,10.0097,0,-0.000457764,-2.42959,0.0541551,-0.0759786,0.0519917,0.0731066,-0.095893,0.144708,-0.125461,-0.0868429,0.0082016,0.0232697,0.0180817,0.0130463,0.0161743,0.011673,0.022049,0.0160599,-9.97986,0.0186157,-0.00267029,0.0118256,0.00789642,0.0143814,0.00114441,0.0159836,0.00595093
6,1,10.0097,0.000305176,0.000305176,-2.42837,0.0559862,-0.0759786,0.0522969,0.0724962,-0.094062,0.144403,-0.126072,-0.0847066,0.00976563,0.0246811,0.0177765,0.013504,0.0207138,0.0144196,0.0259399,0.02285,-9.97986,0.0174713,-0.0056076,0.0117111,0.00419617,0.0197601,-0.00183105,0.0180817,0.00747681
6,2,10.0097,-0.000305176,0.000305176,-2.42684,0.0535448,-0.0747579,0.0522969,0.0700548,-0.0916206,0.144098,-0.126072,-0.0847066,0.0116348,0.0208664,0.0181961,0.0102997,0.0159073,0.0133133,0.0236511,0.0285339,-9.97986,0.0246429,-0.00228882,0.00991821,0.00720978,0.0177765,-0.00362396,0.0172043,0.00839233
6,3,10.0097,0.000915527,0.000610352,-2.42776,0.0550706,-0.0759786,0.0538228,0.07036,-0.0928413,0.146234,-0.124851,-0.0834859,0.0117493,0.0246811,0.0187302,0.0104523,0.021019,0.0141144,0.0230408,0.0272369,-9.97986,0.0199127,3.8147e-005,0.0100708,0.00507355,0.0202179,-0.00247955,0.0157547,0.0127411
6,4,10.0097,-0.000610352,0.000762939,-2.42562,0.0569017,-0.0726216,0.0550435,0.0712755,-0.0913154,0.145929,-0.124241,-0.0822652,0.0102997,0.0217056,0.019455,0.0119781,0.0153351,0.0130844,0.0263977,0.0279236,-9.97986,0.0222015,-0.00480652,0.0111389,0.00362396,0.0148773,-0.00526428,0.0163651,0.00980377
6,5,10.0097,-0.000610352,0.000457764,-2.4244,0.0562914,-0.0726216,0.0547383,0.0709703,-0.0922309,0.146234,-0.124241,-0.0810445,0.00946045,0.0240326,0.0174713,0.010376,0.0166321,0.0131226,0.0178909,0.0222778,-9.97986,0.0217819,-0.00480652,0.0127029,0.00427246,0.0206375,-0.00274658,0.0128174,0.0107574
6,6,10.0097,0.0012207,0.000305176,-2.42623,0.0562914,-0.0741475,0.054128,0.07036,-0.0916206,0.147455,-0.125156,-0.0813497,0.0106049,0.025444,0.0182343,0.0128937,0.021286,0.0113678,0.022316,0.0206375,-9.97986,0.0172043,-0.00209808,0.0133896,0.00617981,0.0169754,-0.00282288,0.0159073,0.0113297
6,7,10.0097,-0.000915527,-0.0012207,-2.42653,0.0550706,-0.075063,0.0516866,0.0178697,-0.0968086,0.145318,-0.128818,-0.0837911,0.00888824,0.021553,0.0146103,0.0136948,0.0214767,0.0115204,0.022316,0.0166702,-9.97986,0.0171661,-0.0062561,0.0105667,0.00522614,0.0165176,-0.00350952,0.00991821,0.0082016
6,8,1.71651,-0.000610352,-0.00366211,-2.42623,0.0578172,-0.0747579,0.0535176,-0.00318738,-0.0968086,0.146234,-0.128513,-0.0822652,0.00938416,0.0252151,0.0163269,0.0128555,0.0168991,0.010376,0.0240326,0.0127029,-9.97986,0.0130463,-0.000839233,0.0148392,0.0069046,0.0183868,-0.00312805,0.0131989,0.00751495
6,9,-5.38554,-0.000610352,-0.00427246,-2.42684,0.0559862,-0.0738423,0.0538228,-0.0150892,-0.095893,0.146539,-0.129734,-0.0813497,0.0105667,0.0270462,0.0196075,0.0138474,0.0188446,0.0104141,0.021553,0.00770569,-9.97986,0.0123596,-0.00236511,0.0134659,0.00270844,0.014267,-0.00511169,0.0131226,0.0056076
7,0,-9.99003,0,-0.00289917,-2.42501,0.0562914,-0.0738423,0.0553487,0.0132921,-0.0937568,0.146234,-0.127292,-0.080129,0.0127029,0.0276184,0.0204849,0.0115967,0.018425,0.0110245,0.0225449,0.00640869,-9.97986,0.011673,0.000801086,0.0179672,0.00797272,0.015831,-0.00419617,0.0141144,0.00179291
7,1,-9.99003,0.000610352,-0.00152588,-2.4247,0.0559862,-0.0744527,0.0562642,0.0392321,-0.0913154,0.146539,-0.127903,-0.0816549,0.0104141,0.0281143,0.0175476,0.00846863,0.0149155,0.00995636,0.0230026,0.0102234,-9.97986,0.00720978,0.00106812,0.014801,0.0082016,0.0133514,-0.00205994,0.0159073,0.00614166
7,2,-9.99003,0.000305176,-0.000610352,-2.42623,0.0553758,-0.0753682,0.0553487,0.0566271,-0.090705,0.146234,-0.125766,-0.0822652,0.0119781,0.0257492,0.0191498,0.0108719,0.0183105,0.00869751,0.026741,0.0124741,-9.97986,0.0111008,-0.00263214,0.0133896,0.00389099,0.0125885,-0.00370026,0.0135422,0.00366211
7,3,-9.99003,0.000305176,0.000457764,-2.42562,0.0550706,-0.0738423,0.054128,0.0804308,-0.0885688,0.146234,-0.125461,-0.0816549,0.0109482,0.0264359,0.0193405,0.0139236,0.0201797,0.00881195,0.0257492,0.0108337,-9.97986,0.0107574,-0.00232697,0.0139999,0.00518799,0.0175095,-0.00312805,0.0115967,0.00583649
7,4,-7.16929,0.000610352,0.00320435,-2.4247,0.0538499,-0.0744527,0.0568746,0.134142,-0.0864326,0.145013,-0.12241,-0.0816549,0.0120926,0.0226974,0.0180817,0.00900269,0.0188828,0.00869751,0.020256,0.014534,-9.97986,0.0146103,0.00133514,0.0125122,0.00965118,0.015831,-0.00541687,0.0136948,0.00717163
7,5,0.619402,0.0012207,0.0038147,-2.42684,0.0547655,-0.0759786,0.054128,0.147569,-0.0870429,0.144403,-0.12241,-0.0850118,0.0114822,0.0243759,0.0199509,0.00747681,0.0180817,0.00686646,0.0245285,0.0139236,-9.97986,0.0161362,0.00171661,0.0153351,0.00801086,0.0151443,-0.00213623,0.0147247,0.00362396
7,6,8.72457,0.00213623,0.00411987,-2.42745,0.0529344,-0.0759786,0.0538228,0.151537,-0.0900947,0.143792,-0.121494,-0.0859274,0.0106049,0.0257874,0.0198364,0.0117111,0.016861,0.00900269,0.0215149,0.0182724,-9.97986,0.0156403,-0.00232697,0.0112152,0.00930786,0.0177383,-0.00469208,0.0167465,0.00461578
7,7,10.0097,0.000915527,0.00259399,-2.4305,0.0529344,-0.0768941,0.050771,0.112474,-0.0961982,0.142877,-0.124546,-0.0886739,0.0111771,0.0216675,0.020256,0.01091,0.0205231,0.00961304,0.0238037,0.0112534,-9.97986,0.0149918,-0.00228882,0.0130463,0.00709534,0.0195313,-0.00106812,0.0146103,0.00564575
7,8,10.0097,-0.000305176,0.000762939,-2.4302,0.0541551,-0.0775044,0.0501607,0.0859239,-0.0977241,0.143487,-0.126072,-0.0889791,0.00957489,0.0219727,0.0203323,0.0147629,0.0148773,0.00576019,0.0231171,0.0151825,-9.97986,0.0138092,-0.00137329,0.0128174,0.00946045,0.0184631,-0.00247955,0.014267,0.00621796
7,9,10.0097,0,0.000457764,-2.42928,0.0529344,-0.0762837,0.0522969,0.0761583,-0.0968086,0.144098,-0.127598,-0.0880636,0.0118637,0.0263214,0.0185013,0.0107193,0.0149918,0.0104141,0.0230789,0.0188828,-9.97986,0.016861,0.000915527,0.0126648,0.00652313,0.021286,-0.0030899,0.0141907,0.00534058
8,0,10.0097,0.000610352,-0.000152588,-2.42867,0.0544603,-0.075063,0.0519917,0.0728014,-0.0946723,0.144098,-0.127598,-0.0865377,0.00946045,0.0280762,0.0182724,0.0112534,0.0137711,0.0088501,0.0223923,0.0185013,-9.97986,0.0159073,-0.00297546,0.0153732,0.0087738,0.0174713,-0.000801086,0.0119781,0.00556946
8,1,10.0097,-0.000305176,0,-2.42745,0.0553758,-0.075063,0.0529073,0.0724962,-0.0943672,0.144098,-0.126377,-0.0844015,0.0174332,0.0291061,0.0260162,0.0167465,0.0216293,0.0162125,0.0260544,0.0257111,-9.97986,0.0212097,0.0030899,0.0208664,0.0136566,0.0226593,0.000953674,0.0177002,0.0147247
8,2,10.0097,0.000610352,-0.000457764,-2.42714,0.0547655,-0.0756734,0.0532125,0.07036,-0.0925361,0.144403,-0.126682,-0.0844015,0.0044632,0.0202179,0.0123596,0.00679016,0.0125122,0.00900269,0.0188446,0.0197601,-9.97986,0.0130081,-0.00640869,0.00862122,0.00198364,0.0135422,-0.0120163,0.012207,0.000648499
8,3,10.0097,-0.000610352,0.000457764,-2.42623,0.0559862,-0.0744527,0.0529073,0.0709703,-0.0919257,0.145318,-0.126072,-0.0831808,0.0149536,0.0236893,0.0177765,0.0104904,0.0183868,0.0106812,0.0260162,0.0305557,-9.97986,0.0230789,0.000724792,0.0131226,0.00801086,0.0228119,-0.00301361,0.0184631,0.010376
8,4,10.0097,0.000305176,-0.000457764,-2.42531,0.0565965,-0.0747579,0.0547383,0.0712755,-0.0922309,0.14776,-0.124851,-0.0810445,0.0115204,0.0205994,0.0210571,0.00923157,0.017395,0.0114822,0.0247955,0.0283432,-9.97986,0.0206757,-0.00217438,0.0119781,0.00598907,0.0194931,-0.00724792,0.0164032,0.0082016
8,5,10.0097,-0.000610352,0.000152588,-2.4247,0.0550706,-0.0735371,0.0550435,0.0709703,-0.0919257,0.146539,-0.124241,-0.0819601,0.0128555,0.0231171,0.0186157,0.00595093,0.0168991,0.0112534,0.0215912,0.0239563,-9.97986,0.0239944,-0.00331879,0.0130081,0.00831604,0.0191116,-0.00522614,0.0159454,0.00720978
8,6,10.0097,0,0,-2.42592,0.0565965,-0.0741475,0.054128,0.0718859,-0.0925361,0.145929,-0.124546,-0.0798238,0.0114441,0.0207138,0.0159073,0.00793457,0.0178909,0.0123596,0.0239563,0.0244904,-9.97986,0.0141525,-0.00202179,0.0160599,0.00980377,0.0162506,0.000801086,0.0177383,0.00583649
8,7,10.0097,0.000305176,-0.0012207,-2.42714,0.0553758,-0.0747579,0.0522969,0.0181749,-0.0989448,0.144098,-0.129123,-0.0831808,0.0147247,0.0235367,0.0191116,0.0127029,0.018959,0.00823975,0.0223923,0.0196075,-9.97986,0.0146103,0.00202179,0.0147247,0.00640869,0.0150299,-0.00396729,0.0147629,0.00991821
8,8,1.73879,-0.00274658,-0.00427246,-2.42623,0.0572069,-0.073232,0.0529073,-0.00318738,-0.0968086,0.146539,-0.128513,-0.0819601,0.0131989,0.0212479,0.0170135,0.0112152,0.0141907,0.012207,0.0213623,0.0156403,-9.97986,0.0107956,0.00541687,0.018959,0.00366211,0.0202179,-0.00183105,0.0149536,0.00488281
8,9,-5.41697,0.000915527,-0.00411987,-2.42714,0.0565965,-0.0741475,0.0526021,-0.0166151,-0.0974189,0.146844,-0.130649,-0.0816549,0.0100708,0.0232315,0.0123596,0.0128174,0.0177765,0.014267,0.0221634,0.0133133,-9.97986,0.0133896,-0.00202179,0.013504,0.0112915,0.0170135,0.00320435,0.0164032,0.00759125
9,0,-9.99003,0.00305176,-0.00305176,-2.4244,0.0569017,-0.0735371,0.0556539,0.0151232,-0.0922309,0.146844,-0.127903,-0.0810445,0.00488281,0.0218201,0.0196075,0.0108719,0.0164413,0.00892639,0.0195313,0.00656128,-9.97986,0.00411987,0.000457764,0.0180817,0.0069809,0.0195313,-0.0037384,0.0175476,0.00305176
9,1,-9.99003,0,-0.00183105,-2.42562,0.0550706,-0.075063,0.0556539,0.0401476,-0.0925361,0.145929,-0.126682,-0.0807394,0.0103378,0.0216675,0.0154114,0.0107956,0.0146103,0.011673,0.022049,0.0102234,-9.97986,0.0094986,-0.000801086,0.0112915,0.00717163,0.0158691,-0.00328064,0.0170135,0.00274658
9,2,-9.99003,-0.0012207,-0.000152588,-2.42562,0.0553758,-0.0747579,0.0547383,0.0569322,-0.0913154,0.146844,-0.126377,-0.0825704,0.01091,0.0279999,0.0190735,0.00770569,0.0150681,0.0106049,0.0218201,0.0131989,-9.97986,0.01194,-0.00301361,0.0134659,0.0087738,0.0147629,0.000991821,0.0150299,0.00473022
9,3,-9.99003,0.000610352,0.000152588,-2.42592,0.055681,-0.0735371,0.0553487,0.080736,-0.0891792,0.145624,-0.124851,-0.0825704,0.00965118,0.0270844,0.0214386,0.00904083,0.0172424,0.0115204,0.02491,0.0113297,-9.97986,0.0131989,0.00133514,0.0141525,0.00728607,0.0141907,-0.00476837,0.0172424,0.00701904
9,4,-7.20775,0.00213623,0.00289917,-2.42531,0.0550706,-0.0744527,0.0571797,0.135362,-0.0855171,0.144403,-0.122104,-0.0831808,0.00648499,0.0251007,0.0156403,0.0120163,0.016861,0.0115585,0.0231171,0.0148392,-9.97986,0.00652313,0.000762939,0.0106812,0.00442505,0.0131607,-0.00335693,0.0138092,0.00087738
9,5,0.826617,0,0.00427246,-2.42745,0.0532396,-0.0768941,0.0550435,0.147264,-0.0867378,0.143792,-0.120884,-0.0844015,0.0153732,0.0214767,0.015831,0.0113678,0.0178146,0.0115204,0.0229263,0.0166702,-9.97986,0.0115967,0.00038147,0.0165939,0.00545502,0.0170898,-0.0030899,0.0183868,0.00701904
9,6,8.83687,0.000305176,0.00457764,-2.42928,0.0544603,-0.0756734,0.054128,0.152452,-0.0897895,0.143792,-0.122104,-0.0859274,0.0128937,0.0215912,0.014534,0.0102997,0.0180817,0.00766754,0.0218964,0.0170898,-9.97986,0.0143433,-0.00106812,0.0120926,0.00602722,0.0165939,-0.00225067,0.0205994,0.00453949
9,7,10.0097,-0.000610352,0.00244141,-2.4302,0.0532396,-0.0759786,0.0498555,0.111559,-0.0965034,0.143487,-0.124851,-0.0886739,0.0146103,0.0201035,0.0178146,0.00972748,0.0146484,0.0082016,0.0232315,0.0162506,-9.97986,0.0166702,-0.00282288,0.0199127,0.00602722,0.0205612,-0.00152588,0.0170517,0.00564575
9,8,10.0097,0.000610352,0.00106812,-2.42989,0.0538499,-0.0765889,0.0504659,0.0865343,-0.0961982,0.143182,-0.126072,-0.0883688,0.0124741,0.0203705,0.0183487,0.0101471,0.0198364,0.0113297,0.0215149,0.0172043,-9.97986,0.0153351,-0.00411987,0.0154114,0.00679016,0.0137329,-0.000915527,0.0186157,0.00652313
9,9,10.0097,0.00244141,-0.000152588,-2.42959,0.0550706,-0.0747579,0.0513814,0.075548,-0.0968086,0.143182,-0.127598,-0.0880636,0.0105667,0.0246811,0.0163269,0.0148773,0.0155258,0.0120926,0.0214386,0.0157928,-9.97986,0.0140762,-0.00110626,0.0126648,0.00610352,0.0142288,-0.00469208,0.0166702,0.00537872
10,0,10.0097,0.0012207,0.000152588,-2.42867,0.0544603,-0.0756734,0.0519917,0.0731066,-0.0949775,0.144403,-0.127292,-0.0868429,0.0105286,0.0208282,0.0183868,0.0117874,0.0175476,0.0094986,0.0247192,0.0178146,-9.97986,0.0166321,0.000839233,0.0193024,0.00900269,0.0177383,-0.00270844,0.0204468,0.00408173
10,1,10.0097,0.00152588,-0.000305176,-2.42714,0.0541551,-0.0744527,0.0522969,0.0706652,-0.0943672,0.145013,-0.126072,-0.0847066,0.0136948,0.0228119,0.0222015,0.00904083,0.0193787,0.0153351,0.0215912,0.0215149,-9.97986,0.0209045,0.000915527,0.0112915,0.00953674,0.0195313,-0.00205994,0.0157928,0.010643
10,2,10.0097,0.000915527,-0.000305176,-2.42684,0.0544603,-0.0759786,0.0532125,0.0715807,-0.0931465,0.145318,-0.125156,-0.0850118,0.0130081,0.0241852,0.019722,0.0119019,0.0200272,0.0146866,0.0211716,0.0258255,-9.97986,0.0223923,-0.00118256,0.015831,0.00610352,0.0188446,-0.00583649,0.0149918,0.00751495
10,3,10.0097,0.00244141,0,-2.42653,0.055681,-0.0741475,0.0547383,0.0700548,-0.0928413,0.144708,-0.125156,-0.0840963,0.0148773,0.0226593,0.0168228,0.00804901,0.0227737,0.00984192,0.0232315,0.0255966,-9.97986,0.0219345,-0.000839233,0.0120544,0.00736237,0.0195313,-0.00289917,0.0163651,0.00843048
10,4,10.0097,-0.000305176,0.000762939,-2.42531,0.0559862,-0.0744527,0.0538228,0.0718859,-0.0910102,0.147455,-0.123325,-0.0819601,0.0150681,0.0230789,0.0177002,0.0148773,0.018959,0.00843048,0.0237656,0.0273895,-9.97986,0.0218582,-0.00164032,0.0135422,0.0117493,0.0220108,-0.00133514,0.0191879,0.00896454
10,5,10.0097,0.00305176,0,-2.42592,0.0562914,-0.0735371,0.0544332,0.0715807,-0.0922309,0.146234,-0.124546,-0.0813497,0.0123596,0.0224304,0.0205231,0.0127411,0.0168991,0.00637054,0.0232315,0.0217438,-9.97986,0.0201035,-0.00442505,0.0152969,0.00518799,0.0149155,-0.00396729,0.016861,0.00778198
10,6,10.0097,0.000915527,0.000457764,-2.42501,0.0550706,-0.0738423,0.054128,0.0718859,-0.0922309,0.146539,-0.12363,-0.0816549,0.0152206,0.0261307,0.0205612,0.0140381,0.0211716,0.0124359,0.0223923,0.0222015,-9.97986,0.0187683,-0.0056839,0.0144196,0.00606537,0.0155258,-0.00171661,0.0189209,0.00617981
10,7,10.0097,0.00183105,-0.00152588,-2.42714,0.0553758,-0.075063,0.0516866,0.0187853,-0.09925,0.145624,-0.129734,-0.0837911,0.0140762,0.021286,0.0149536,0.0154877,0.0162888,0.00465393,0.0209427,0.0175476,-9.97986,0.0144196,-0.00270844,0.0131226,0.00888824,0.0194931,-0.00488281,0.0177383,0.0075531
10,8,1.46871,0,-0.00411987,-2.42562,0.0569017,-0.0741475,0.0532125,-0.00257703,-0.0965034,0.14837,-0.127903,-0.0819601,0.00808716,0.02285,0.0141907,0.0135803,0.0179291,0.00843048,0.0194168,0.0191879,-9.97986,0.0133133,-0.00465393,0.0151443,0.00862122,0.0178528,-0.00362396,0.0167465,0.00770569
10,9,-5.59398,-0.000915527,-0.00411987,-2.42531,0.0569017,-0.0741475,0.0532125,-0.0150892,-0.0971137,0.147149,-0.130954,-0.0825704,0.00980377,0.0246811,0.0140381,0.0138092,0.0140762,0.00881195,0.0207901,0.00892639,-9.97986,0.00915527,-0.000228882,0.0171661,0.0101471,0.0191116,-0.00183105,0.0186157,0.00759125
11,0,-9.99003,0.00152588,-0.00259399,-2.4244,0.0559862,-0.0738423,0.055959,0.014818,-0.0922309,0.146539,-0.128513,-0.0804342,0.00782013,0.0253296,0.0137329,0.0133133,0.0144577,0.0104523,0.0236893,0.00782013,-9.97986,0.00957489,0.000343323,0.0174713,0.00713348,0.0159836,-0.00431061,0.0147247,0.00583649
11,1,-9.99003,0.000305176,-0.00213623,-2.42562,0.0550706,-0.075063,0.0562642,0.0398424,-0.0897895,0.145013,-0.126682,-0.0816549,0.00854492,0.0257874,0.0225449,0.0155258,0.0178909,0.0094223,0.0172806,0.0094223,-9.97986,0.00789642,-0.00465393,0.0163269,0.00469208,0.0123978,-0.00686646,0.0178528,0.00137329
11,2,-9.99003,0.00244141,-0.000305176,-2.4247,0.055681,-0.0753682,0.0556539,0.0575426,-0.0919257,0.146234,-0.126377,-0.0819601,0.00835419,0.0226974,0.0149918,0.0137711,0.017128,0.0100708,0.022583,0.00789642,-9.97986,0.0118256,0.0018692,0.0136185,0.00320435,0.0135422,-0.00495911,0.0195313,0.000648499
11,3,-9.99003,0.000305176,-0.000305176,-2.42623,0.0562914,-0.0756734,0.0550435,0.0804308,-0.0882636,0.144403,-0.124241,-0.0825704,0.0113678,0.0191879,0.0170135,0.0147629,0.0187683,0.00972748,0.0197601,0.014267,-9.97986,0.0118637,0.000610352,0.00797272,0.00263214,0.0150681,-0.00267029,0.0162888,0.0038147
11,4,-7.30754,0,0.00289917,-2.42562,0.0547655,-0.0747579,0.0562642,0.135973,-0.0867378,0.145624,-0.121799,-0.0825704,0.0105286,0.0274277,0.0161362,0.0163269,0.0169373,0.0113678,0.0195313,0.0151825,-9.97986,0.011673,-0.000686646,0.0138092,0.00492096,0.0152206,0.0018692,0.0178528,0.00289917
11,5,0.65053,0.000610352,0.00457764,-2.42623,0.0544603,-0.0753682,0.0550435,0.146654,-0.0873481,0.145013,-0.121799,-0.0837911,0.0143814,0.0217056,0.0188065,0.0124359,0.0154495,0.0123596,0.0231171,0.0133133,-9.97986,0.0106812,-0.00160217,0.013237,0.00427246,0.0139236,-0.00274658,0.0188446,0.00476837
11,6,8.52773,-0.000610352,0.00396729,-2.42837,0.0535448,-0.0762837,0.0529073,0.152147,-0.0903999,0.143487,-0.120578,-0.0859274,0.00907898,0.0238419,0.016098,0.00850677,0.0169754,0.0109482,0.0242615,0.0136566,-9.97986,0.0148773,-0.00434875,0.0124741,0.0043869,0.0141144,-0.00244141,0.0150299,0.00564575
11,7,10.0097,0.00305176,0.00259399,-2.43081,0.0529344,-0.0768941,0.0501607,0.113695,-0.0968086,0.144403,-0.124851,-0.0883688,0.012207,0.027771,0.0211716,0.0088501,0.0147629,0.0106049,0.0231171,0.0196838,-9.97986,0.0140762,-0.00278473,0.0141144,0.00461578,0.0138092,-0.00423431,0.0162888,0.00442505
11,8,10.0097,-0.000610352,0.000305176,-2.4302,0.0538499,-0.0768941,0.0532125,0.0874498,-0.0974189,0.143182,-0.125766,-0.0886739,0.01297,0.0214386,0.018692,0.00862122,0.0147629,0.00816345,0.019989,0.0152588,-9.97986,0.0147629,-0.00499725,0.0159454,0.00534058,0.0196075,-0.00125885,0.0157928,0.00663757
11,9,10.0097,0.000305176,-0.000305176,-2.42959,0.0532396,-0.0753682,0.0516866,0.0764635,-0.0971137,0.142877,-0.126987,-0.0880636,0.0107574,0.0257874,0.0169373,0.0137329,0.0117493,0.00915527,0.0234985,0.0175858,-9.97986,0.0140381,-0.00411987,0.0152206,0.00614166,0.018425,-0.00282288,0.0140762,0.0069046
12,0,10.0097,0.00244141,0.000457764,-2.42806,0.0547655,-0.0756734,0.0526021,0.0740221,-0.0949775,0.144098,-0.126682,-0.0859274,0.00881195,0.025444,0.0159073,0.0107956,0.0176239,0.00785828,0.0246429,0.0150299,-9.97986,0.0163269,0.000305176,0.014801,0.00576019,0.0156403,-0.000152588,0.0138855,0.0069809
12,1,10.0097,0.000610352,-0.000610352,-2.42867,0.0541551,-0.0747579,0.0535176,0.0715807,-0.0937568,0.145013,-0.126072,-0.0844015,0.0108337,0.0232315,0.0183487,0.0128174,0.0122452,0.0101089,0.0202179,0.0233078,-9.97986,0.0190353,-0.00400543,0.0153351,0.00907898,0.019722,-0.00270844,0.0141144,0.00404358
12,2,10.0097,0.000305176,0.000610352,-2.42745,0.0544603,-0.075063,0.0532125,0.0715807,-0.0943672,0.145929,-0.126072,-0.0856222,0.01091,0.0250244,0.0197601,0.00789642,0.0207901,0.00999451,0.0226593,0.0259781,-9.97986,0.0190735,-0.000572205,0.0151443,0.00411987,0.0206757,-0.00221252,0.011673,0.0094223
12,3,10.0097,0.00152588,0,-2.42653,0.0550706,-0.0738423,0.0532125,0.0712755,-0.0922309,0.145318,-0.125461,-0.0834859,0.0109482,0.0226212,0.019722,0.0175858,0.014801,0.00682831,0.0178146,0.0277328,-9.97986,0.0231552,-0.00530243,0.014801,0.00392914,0.018959,-0.000839233,0.0136948,0.0106049
12,4,10.0097,0,0.000152588,-2.4247,0.055681,-0.0744527,0.0544332,0.0712755,-0.0916206,0.145929,-0.123935,-0.0822652,0.0148773,0.0202942,0.0195313,0.0125504,0.0177002,0.00919342,0.0218582,0.0230789,-9.97986,0.020752,0,0.0135422,0.00675201,0.0222015,0.00110626,0.0133133,0.0112152
12,5,10.0097,0,0.000152588,-2.42592,0.0569017,-0.073232,0.0550435,0.0715807,-0.0913154,0.147149,-0.125156,-0.0819601,0.016098,0.0225067,0.0172043,0.0103378,0.0175476,0.0103378,0.0217438,0.0226974,-9.97986,0.0175858,0.000114441,0.0124741,0.00602722,0.0212097,0.00167847,0.0187683,0.00988007
12,6,10.0097,0.000610352,-0.000457764,-2.42562,0.0578172,-0.0738423,0.0556539,0.0715807,-0.0922309,0.146234,-0.123325,-0.0810445,0.00778198,0.0269318,0.0191879,0.0107956,0.0172043,0.00835419,0.0208282,0.0264359,-9.97986,0.0156784,-0.00141144,0.0137711,0.0056076,0.0192261,0.000495911,0.0151825,0.00823975
12,7,10.0097,-0.000305176,-0.0012207,-2.42745,0.055681,-0.075063,0.0526021,0.0190905,-0.0989448,0.146539,-0.129429,-0.0844015,0.00724792,0.0213623,0.0202179,0.00667572,0.0192642,0.0134277,0.022583,0.0213623,-9.97986,0.0107574,0.00171661,0.0118256,0.00816345,0.019722,-0.00244141,0.0144196,0.00900269
12,8,1.68782,0.000610352,-0.00442505,-2.42592,0.0575121,-0.0723164,0.0544332,-0.00257703,-0.0971137,0.147149,-0.129429,-0.0822652,0.00946045,0.0201035,0.0173187,0.0100708,0.0203705,0.00930786,0.0214386,0.0136948,-9.97986,0.0123978,0.00232697,0.0146103,0.00385284,0.0130081,-0.00541687,0.0153351,0.00743866
12,9,-5.39042,0.000305176,-0.00518799,-2.4247,0.0559862,-0.0735371,0.0535176,-0.0144789,-0.095893,0.147149,-0.13126,-0.0825704,0.00968933,0.0206757,0.019989,0.0104523,0.0179291,0.0126266,0.0228119,0.0125885,-9.97986,0.00728607,-0.0012207,0.0137329,0.00408173,0.0141907,-0.00232697,0.0147247,0.0050354
13,0,-9.99003,0,-0.00289917,-2.4247,0.0569017,-0.073232,0.0553487,0.0132921,-0.0922309,0.147455,-0.128208,-0.0807394,0.0115585,0.0208282,0.0192642,0.00831604,0.017128,0.0131226,0.0209427,0.00808716,-9.97986,0.00888824,0.001297,0.0134659,0.0030899,0.0159073,-0.00591278,0.015564,0.00526428
13,1,-9.99003,0,-0.00137329,-2.42592,0.0562914,-0.0735371,0.0553487,0.0407579,-0.090705,0.145318,-0.126682,-0.0816549,0.00709534,0.0218964,0.0170517,0.00812531,0.0179672,0.00549316,0.020752,0.00999451,-9.97986,0.00556946,-0.000610352,0.0151062,0.0056076,0.0179672,-0.00247955,0.0144577,0.00499725
13,2,-9.99003,0.000915527,-0.0012207,-2.42623,0.0550706,-0.0738423,0.054128,0.0578478,-0.0919257,0.145624,-0.126377,-0.0813497,0.0140381,0.0223541,0.0128555,0.0107193,0.0204849,0.012207,0.0236893,0.00888824,-9.97986,0.00923157,-0.00324249,0.0155258,0.00453949,0.0136948,-0.000648499,0.0163269,0.00804901
13,3,-9.99003,-0.000305176,0.000305176,-2.42592,0.0559862,-0.0738423,0.0565694,0.0816515,-0.0894843,0.145624,-0.124851,-0.0825704,0.00976563,0.019722,0.0188446,0.0151062,0.0164795,0.0106812,0.0222015,0.0118637,-9.97986,0.0107956,-0.000228882,0.0147247,0.00720978,0.0135803,-0.00434875,0.0167465,0.00473022
13,4,-7.13786,-0.000610352,0.00320435,-2.42684,0.0544603,-0.0741475,0.0562642,0.132921,-0.0855171,0.144708,-0.121189,-0.0825704,0.0122452,0.0230789,0.017128,0.00934601,0.0146484,0.0087738,0.0225067,0.0114441,-9.97986,0.0148392,-0.0037384,0.0157547,0.00179291,0.0183868,-0.00320435,0.0158691,0.00648499
13,5,0.804034,0.000305176,0.00274658,-2.42684,0.0538499,-0.0759786,0.0550435,0.147264,-0.0864326,0.144708,-0.122104,-0.0837911,0.00759125,0.0247955,0.0172806,0.00648499,0.0196457,0.010643,0.0245667,0.0120544,-9.97986,0.0118637,-0.00389099,0.014267,0.00629425,0.0184631,-0.00110626,0.0159073,0.00728607
13,6,8.8329,0.000915527,0.00442505,-2.42867,0.0550706,-0.0756734,0.0547383,0.153063,-0.0891792,0.143792,-0.121494,-0.0850118,0.0113678,0.0244904,0.0204849,0.0109863,0.0179291,0.0108337,0.0220108,0.0164032,-9.97986,0.0146484,0.000343323,0.017128,0.00637054,0.0172043,-0.0018692,0.0162506,0.00499725
13,7,10.0097,-0.000610352,0.00259399,-2.43081,0.0541551,-0.0762837,0.050771,0.112169,-0.0971137,0.142572,-0.125766,-0.0883688,0.0130844,0.0228119,0.0157928,0.00968933,0.015564,0.00640869,0.0193787,0.0144196,-9.97986,0.0159073,-0.00274658,0.0149155,0.00408173,0.0152969,-0.00217438,0.0156784,0.00377655
13,8,10.0097,0.0012207,0.000915527,-2.43111,0.0535448,-0.0762837,0.0504659,0.0859239,-0.0977241,0.143487,-0.126682,-0.0883688,0.00984192,0.0250244,0.0174713,0.00778198,0.0151443,0.0115967,0.0217056,0.0137711,-9.97986,0.0165939,0.00171661,0.017395,0.00595093,0.0152588,-0.00225067,0.0167847,0.00350952
13,9,10.0097,0.000305176,0.000457764,-2.4302,0.0541551,-0.0747579,0.0513814,0.0758531,-0.0955879,0.143792,-0.126987,-0.0880636,0.0147247,0.021019,0.0197983,0.00896454,0.014534,0.0139999,0.0229263,0.0174713,-9.97986,0.0186157,0.00175476,0.0148773,0.00617981,0.0163269,-0.000495911,0.0139618,0.00488281
14,0,10.0097,0.000305176,-0.000610352,-2.42806,0.0532396,-0.0768941,0.0513814,0.0724962,-0.0952827,0.143182,-0.126987,-0.0862325,0.00999451,0.022049,0.0201035,0.00892639,0.0188446,0.00926971,0.0216675,0.0186157,-9.97986,0.0177765,0.000801086,0.0156021,0.00743866,0.018425,-0.00312805,0.0153351,0.00640869
14,1,10.0097,0.000915527,-0.000305176,-2.42745,0.0550706,-0.0747579,0.0519917,0.0712755,-0.0937568,0.144403,-0.126377,-0.0850118,0.0109482,0.0179672,0.0205994,0.0106812,0.0149918,0.00682831,0.0166321,0.0174713,-9.97986,0.0172806,-0.00244141,0.0114059,0.00511169,0.0179672,-0.00175476,0.0149155,0.00656128
14,2,10.0097,0.00213623,0.000152588,-2.42837,0.0544603,-0.075063,0.0526021,0.0700548,-0.0937568,0.145624,-0.125766,-0.0847066,0.0111389,0.0240326,0.0193405,0.0127411,0.0189209,0.0109863,0.021019,0.0282669,-9.97986,0.0214386,0.00209808,0.0152969,0.00629425,0.0179672,-0.00114441,0.0154114,0.00793457
14,3,10.0097,0.000915527,-0.000305176,-2.42684,0.0547655,-0.0741475,0.054128,0.07036,-0.0931465,0.145929,-0.126072,-0.0844015,0.0117874,0.0180435,0.0164413,0.0122833,0.0177765,0.0075531,0.021553,0.0282288,-9.97986,0.0202179,-0.00152588,0.010643,0.00164032,0.0157166,-0.00190735,0.0161743,0.0069046
14,4,10.0097,0.000305176,0.000610352,-2.42501,0.0559862,-0.0738423,0.0544332,0.072191,-0.0928413,0.146539,-0.124546,-0.0819601,0.0170517,0.0200653,0.0202179,0.0143814,0.0209045,0.0126648,0.0237656,0.0273132,-9.97986,0.0221252,0.000495911,0.0164413,0.00648499,0.0200653,0.00141144,0.0165558,0.0120926
14,5,10.0097,-0.0012207,0.000152588,-2.42592,0.0569017,-0.073232,0.054128,0.0706652,-0.0922309,0.146844,-0.12363,-0.0810445,0.00900269,0.0221634,0.0193024,0.0115585,0.0224686,0.00762939,0.0240707,0.0231171,-9.97986,0.018158,-0.000915527,0.0153351,0.0043869,0.0196838,0.00118256,0.0139618,0.0101471
14,6,10.0097,0.0012207,0.000152588,-2.42501,0.0565965,-0.0741475,0.055959,0.0724962,-0.0919257,0.147455,-0.124241,-0.0807394,0.00919342,0.0205612,0.016861,0.0120926,0.016861,0.00839233,0.0209808,0.0254059,-9.97986,0.0156403,0.00282288,0.0160599,0.00484467,0.0194931,-0.000419617,0.0170517,0.0102615
14,7,10.0097,-0.000305176,-0.00167847,-2.42714,0.0553758,-0.075063,0.0513814,0.0187853,-0.0986396,0.144708,-0.127903,-0.0837911,0.0117874,0.0196457,0.0170517,0.00900269,0.0176239,0.00865936,0.0203323,0.0185013,-9.97986,0.0117493,0.00221252,0.0128174,0.00133514,0.0183868,-0.000839233,0.0170517,0.00785828
14,8,1.74306,0,-0.00411987,-2.42562,0.0569017,-0.0738423,0.0535176,-0.000440799,-0.0971137,0.145318,-0.130039,-0.0816549,0.0107193,0.0218964,0.0177765,0.00968933,0.0152588,0.00617981,0.0222778,0.0137711,-9.97986,0.0113678,0.000419617,0.0123978,0.000762939,0.0179291,-0.00366211,0.013237,0.00598907
14,9,-5.33275,0.000610352,-0.00442505,-2.42592,0.0559862,-0.0738423,0.0538228,-0.0153944,-0.0965034,0.146539,-0.130649,-0.0819601,0.00713348,0.0165558,0.0195694,0.0100708,0.0128555,0.0112152,0.0245285,0.00797272,-9.97986,0.0126648,0.00221252,0.016098,0.00736237,0.0165558,-0.00087738,0.0134659,0.00610352
15,0,-9.99003,0.00152588,-0.00350952,-2.4247,0.0575121,-0.0729268,0.0562642,0.0151232,-0.0922309,0.145624,-0.127903,-0.0813497,0.00816345,0.0241089,0.0214767,0.00984192,0.0165558,0.00816345,0.0238037,0.00999451,-9.97986,0.00774384,3.8147e-005,0.0128174,0.00637054,0.0167465,-0.00106812,0.0174332,0.00331879
15,1,-9.99003,0.000305176,-0.00167847,-2.42562,0.0559862,-0.0738423,0.0547383,0.0413683,-0.0910102,0.146539,-0.127292,-0.0810445,0.0108719,0.0227737,0.021019,0.011673,0.0174713,0.0112915,0.0244904,0.00911713,-9.97986,0.00923157,0.000801086,0.0142288,0.00164032,0.0166321,-0.00141144,0.0140381,0.00175476
15,2,-9.99003,0.0012207,-0.000152588,-2.42592,0.0550706,-0.075063,0.0538228,0.0578478,-0.090705,0.144708,-0.126682,-0.0825704,0.0101471,0.0232697,0.021286,0.0142288,0.0178909,0.0109482,0.0211334,0.00904083,-9.97986,0.00827789,0.000953674,0.0166321,0.00564575,0.0177383,-0.00358582,0.0155258,0.00431061
15,3,-9.99003,-0.000305176,0.000305176,-2.42531,0.0550706,-0.0744527,0.0553487,0.0819567,-0.0903999,0.145624,-0.124851,-0.0822652,0.0094986,0.0246811,0.0156021,0.0120926,0.0130081,0.00610352,0.0230408,0.0131989,-9.97986,0.0113678,-3.8147e-005,0.0137329,0.00675201,0.0198364,-0.00473022,0.0141144,0.00236511
15,4,-7.00847,0.00366211,0.00259399,-2.42592,0.0550706,-0.075063,0.0571797,0.134447,-0.0849067,0.145929,-0.120273,-0.0816549,0.00999451,0.0255203,0.0180054,0.0087738,0.0161743,0.0100708,0.0249481,0.0137711,-9.97986,0.0113297,0.00209808,0.0161362,0.00408173,0.0185013,-0.00190735,0.018158,0.00720978
15,5,1.07381,0.00213623,0.00350952,-2.42714,0.0535448,-0.0756734,0.0544332,0.148485,-0.088874,0.142572,-0.121799,-0.085317,0.010643,0.0188065,0.0209045,0.0118637,0.0147247,0.0163269,0.0218582,0.0145721,-9.97986,0.0106812,0.00125885,0.014267,0.00434875,0.0157928,-0.00541687,0.0160599,0.00556946
15,6,9.03981,0.000305176,0.00488281,-2.42898,0.0538499,-0.0762837,0.0544332,0.152452,-0.0897895,0.144098,-0.121494,-0.0859274,0.0125122,0.0235367,0.0212479,0.00930786,0.017395,0.011673,0.0220871,0.0170135,-9.97986,0.0125504,0.00175476,0.0128937,0.00816345,0.0214386,-0.00453949,0.0178528,0.00804901
15,7,10.0097,0.000915527,0.00244141,-2.42959,0.0529344,-0.0765889,0.0501607,0.110948,-0.0974189,0.140436,-0.124851,-0.0886739,0.0114822,0.022049,0.0192642,0.00984192,0.0190735,0.00934601,0.0215912,0.0172043,-9.97986,0.0120926,0.000190735,0.0175095,0.00595093,0.0193024,-0.00743866,0.0180817,0.00453949
15,8,10.0097,-0.0012207,0.00106812,-2.43111,0.0544603,-0.0771993,0.0492452,0.0865343,-0.0965034,0.143487,-0.125766,-0.0880636,0.00957489,0.0236893,0.0188828,0.0112915,0.0188446,0.0137711,0.0266266,0.0178909,-9.97986,0.0163269,-0.00118256,0.0149155,0.00667572,0.0162506,-0.00244141,0.0159073,0.00572205
15,9,10.0097,-0.000305176,-0.000152588,-2.4302,0.0529344,-0.0765889,0.0519917,0.0764635,-0.0971137,0.144708,-0.126377,-0.0871481,0.00679016,0.0217438,0.0173187,0.0094986,0.0175858,0.0114822,0.0267792,0.0168228,-9.97986,0.0112915,0.000915527,0.0162125,0.00480652,0.0195313,-0.00144958,0.017128,0.00709534
16,0,10.0097,0.000305176,-0.00106812,-2.42776,0.0535448,-0.0741475,0.0535176,0.0724962,-0.0949775,0.144098,-0.127598,-0.0862325,0.00915527,0.022049,0.0181961,0.0107574,0.0181961,0.00675201,0.0253677,0.018425,-9.97986,0.0186539,0.00118256,0.0159836,0.0044632,0.0107574,-0.00225067,0.0164795,0.00617981
16,1,10.0097,-0.0012207,0.000152588,-2.42867,0.0547655,-0.0753682,0.0538228,0.0718859,-0.0943672,0.145624,-0.126072,-0.085317,0.0128555,0.0219727,0.0195313,0.00961304,0.0168228,0.00873566,0.0193405,0.021286,-9.97986,0.0183868,-0.000801086,0.0163651,0.00495911,0.018425,-0.00301361,0.0166321,0.00831604
16,2,10.0097,0.00244141,0.000457764,-2.42806,0.0538499,-0.0753682,0.0526021,0.0706652,-0.0931465,0.145318,-0.126987,-0.0844015,0.0122833,0.0216293,0.02388,0.00999451,0.0176239,0.0170517,0.0217056,0.0286102,-9.97986,0.0200653,-0.0012207,0.0156403,0.00808716,0.0172043,-0.00247955,0.0152588,0.00801086
16,3,10.0097,0.000305176,0,-2.42684,0.0550706,-0.0738423,0.0538228,0.0718859,-0.0922309,0.145013,-0.125766,-0.0834859,0.0115585,0.0218582,0.0218964,0.00797272,0.0167465,0.00999451,0.0230789,0.0310516,-9.97986,0.0269318,-0.00087738,0.0131607,0.00621796,0.018158,-0.00640869,0.0184631,0.0107574
16,4,10.0097,0.0012207,-0.000152588,-2.4247,0.0572069,-0.0747579,0.0547383,0.0706652,-0.0913154,0.147149,-0.122715,-0.0819601,0.0138855,0.0229645,0.019455,0.00919342,0.0177765,0.0130844,0.0175095,0.0292206,-9.97986,0.0235367,-0.000686646,0.0166321,0.00644684,0.0193405,-0.00473022,0.0155258,0.00934601
16,5,10.0097,-0.000610352,0.000152588,-2.42562,0.0562914,-0.073232,0.0538228,0.0712755,-0.0922309,0.145624,-0.123935,-0.0816549,0.0088501,0.0237274,0.015831,0.00782013,0.0168991,0.00850677,0.0187302,0.027771,-9.97986,0.0149155,-0.00331879,0.0152969,0.00530243,0.0146103,-0.00469208,0.011673,0.00709534
16,6,10.0097,0.0012207,0.000305176,-2.42531,0.0562914,-0.0741475,0.054128,0.072191,-0.0919257,0.145624,-0.124241,-0.0813497,0.0133896,0.0249863,0.0223541,0.0135422,0.0191498,0.0128937,0.0218582,0.022316,-9.97986,0.0180435,-0.000839233,0.0144196,0.00778198,0.0184631,-0.000839233,0.0147629,0.0119781
16,7,10.0097,0.000915527,-0.000762939,-2.42806,0.0562914,-0.0756734,0.0510762,0.0187853,-0.0995551,0.144708,-0.128513,-0.0847066,0.00785828,0.0185776,0.0179672,0.0107956,0.0116348,0.0143814,0.0196075,0.0201416,-9.97986,0.0165558,0.000724792,0.0156784,0.00431061,0.0195313,-0.00648499,0.0150681,0.00988007
16,8,1.70705,0.00244141,-0.00366211,-2.42562,0.0569017,-0.0735371,0.0526021,-0.00135633,-0.0955879,0.147149,-0.128513,-0.0816549,0.0112152,0.0216293,0.0203323,0.0124359,0.0218964,0.0144577,0.0254059,0.0164795,-9.97986,0.0149155,-0.00205994,0.0154877,0.00957489,0.013237,-0.00301361,0.0133133,0.00705719
16,9,-5.41118,0.000305176,-0.00442505,-2.42623,0.0565965,-0.0735371,0.0538228,-0.0153944,-0.0965034,0.146234,-0.130344,-0.0825704,0.00770569,0.0251007,0.0199127,0.00965118,0.0188446,0.00522614,0.0194168,0.010376,-9.97986,0.00591278,0.00114441,0.0156021,0.00843048,0.0191116,-0.00164032,0.017662,0.00499725
17,0,-9.99003,0.000610352,-0.00305176,-2.4247,0.055681,-0.0735371,0.0547383,0.0135973,-0.0928413,0.147149,-0.127292,-0.0807394,0.0114822,0.021553,0.0214767,0.0117874,0.021286,0.0151062,0.0206375,0.00732422,-9.97986,0.00854492,0.00217438,0.0159836,0.0101852,0.0174332,-0.00255585,0.0159454,7.62939e-005
17,1,-9.99003,0.000610352,-0.00183105,-2.42531,0.055681,-0.0735371,0.0556539,0.0401476,-0.0910102,0.145318,-0.126072,-0.0810445,0.00320435,0.0258636,0.0194168,0.0102997,0.0196075,0.00911713,0.0229645,0.00637054,-9.97986,0.0056076,-0.000190735,0.0138474,0.00915527,0.0163269,-0.00347137,0.0122452,0.00282288
17,2,-9.99003,0.000915527,0.000152588,-2.42501,0.055681,-0.0753682,0.0553487,0.0566271,-0.090705,0.146234,-0.126377,-0.0828756,0.0107956,0.0237274,0.0197601,0.0125885,0.0153351,0.00782013,0.0208282,0.0107574,-9.97986,0.00961304,-0.00400543,0.0167847,0.0120544,0.0122833,-0.00118256,0.0112152,0.00087738
17,3,-9.99003,0.00152588,0.000762939,-2.42623,0.0550706,-0.075063,0.0544332,0.0810411,-0.0891792,0.145013,-0.124546,-0.0810445,0.00926971,0.0242233,0.0180817,0.0117493,0.0152588,0.00583649,0.0184631,0.0117493,-9.97986,0.0115204,-0.00293732,0.0142288,0.00923157,0.0176239,-0.00152588,0.0159836,0.0031662
17,4,-7.22056,0.000915527,0.00274658,-2.42592,0.0553758,-0.0741475,0.0577901,0.134142,-0.0846015,0.144403,-0.121494,-0.0834859,0.0105667,0.0210953,0.0191498,0.0114059,0.0212479,0.00988007,0.0221634,0.0138474,-9.97986,0.0139999,0.00286102,0.0157547,0.00938416,0.0186157,-0.00331879,0.0146484,0.00385284
17,5,0.905962,0.0012207,0.0038147,-2.42745,0.0535448,-0.0753682,0.0544332,0.146044,-0.0885688,0.141961,-0.120884,-0.0834859,0.0126266,0.0263596,0.020752,0.00934601,0.0166321,0.0101852,0.0193405,0.0169373,-9.97986,0.0157547,-0.000495911,0.0104523,0.00900269,0.0165176,-0.0062561,0.0165939,0.00232697
17,6,8.71755,0,0.00488281,-2.42837,0.0547655,-0.0753682,0.0529073,0.152452,-0.0897895,0.144403,-0.122104,-0.0856222,0.0123215,0.0267029,0.0221252,0.011673,0.0185776,0.011673,0.0208282,0.018158,-9.97986,0.0137711,-0.00263214,0.0156784,0.00862122,0.0196075,-0.00137329,0.0136185,0.00331879
17,7,10.0097,0.00335693,0.00244141,-2.4305,0.0532396,-0.0771993,0.050771,0.111864,-0.0965034,0.142267,-0.125766,-0.0883688,0.0114059,0.0230026,0.0198746,0.0112534,0.0161743,0.00785828,0.017395,0.0142288,-9.97986,0.0102997,0.00232697,0.0166702,0.00782013,0.0133514,-0.00171661,0.0160599,0.00511169
17,8,10.0097,0,0.000152588,-2.4302,0.0541551,-0.0765889,0.0495503,0.0874498,-0.0971137,0.143182,-0.126072,-0.0883688,0.0114441,0.021019,0.0200653,0.0160217,0.016861,0.0131607,0.021553,0.0210571,-9.97986,0.0152969,-0.0031662,0.017128,0.00968933,0.0138474,-0.00217438,0.0175095,0.00637054
17,9,10.0097,-0.000305176,-0.000457764,-2.4305,0.0541551,-0.0753682,0.0516866,0.077379,-0.0971137,0.144098,-0.127598,-0.0883688,0.0128555,0.0219345,0.0192642,0.0170898,0.0156021,0.00793457,0.021553,0.0192642,-9.97986,0.0185013,0.00164032,0.016861,0.00576019,0.0151062,-0.0012207,0.017395,0.00663757
18,0,10.0097,0,0.000305176,-2.42745,0.0538499,-0.0738423,0.0532125,0.0734117,-0.0943672,0.144098,-0.127292,-0.0865377,0.0114441,0.02285,0.0222015,0.0122833,0.0192261,0.0111771,0.0225067,0.0189209,-9.97986,0.0196838,-0.00164032,0.0156784,0.00602722,0.0141907,-0.00499725,0.0180054,0.00499725
18,1,10.0097,0.00183105,-0.000152588,-2.42806,0.0544603,-0.0753682,0.0519917,0.0712755,-0.0934516,0.145624,-0.126987,-0.0847066,0.0131989,0.0231171,0.0220108,0.0148773,0.0188065,0.0110626,0.0239182,0.02388,-9.97986,0.018959,-0.000572205,0.0135422,0.0082016,0.0126648,-0.00274658,0.0175476,0.00717163
18,2,10.0097,-0.0299072,0.000152588,-2.42745,0.0553758,-0.0744527,0.054128,0.0715807,-0.0943672,0.131585,-0.124851,-0.0844015,0.0123215,0.0225449,0.0178528,0.0139618,0.021553,0.0108719,0.0199509,0.0276184,-9.97986,0.0210953,-0.0019455,0.0141144,0.00732422,0.0173187,-0.00255585,0.0131607,0.00686646
18,3,10.0097,-0.0012207,0.000457764,-2.42623,0.0559862,-0.0747579,0.0526021,0.0706652,-0.0925361,0.139215,-0.125156,-0.0837911,0.0139236,0.0221252,0.0233078,0.0121689,0.017128,0.00831604,0.0205231,0.0281143,-9.97986,0.0228882,0.000305176,0.0154114,0.00778198,0.019989,-0.000762939,0.0188446,0.010643
18,4,10.0097,-0.000915527,0.000305176,-2.42409,0.0575121,-0.0738423,0.0556539,0.0715807,-0.0916206,0.144098,-0.123935,-0.0816549,0.0146866,0.0243759,0.0204468,0.0138092,0.0213623,0.0131607,0.022316,0.0247574,-9.97986,0.0210953,-0.00125885,0.0128937,0.00411987,0.0145721,-0.00423431,0.0146484,0.00774384
18,5,10.0097,-0.000305176,0.000305176,-2.42623,0.0565965,-0.0738423,0.055959,0.0709703,-0.0910102,0.145318,-0.124851,-0.0813497,0.0124741,0.0257111,0.0161362,0.00988007,0.0179672,0.00926971,0.0218582,0.0255203,-9.97986,0.0175095,-0.00350952,0.0107574,0.00350952,0.0163651,-0.00297546,0.0177383,0.0101089
18,6,10.0097,-0.0012207,-0.000152588,-2.4247,0.0578172,-0.0741475,0.055959,0.0706652,-0.0919257,0.145929,-0.123935,-0.0810445,0.0116348,0.0237274,0.0194168,0.00907898,0.0199127,0.0128555,0.0192261,0.0246429,-9.97986,0.0145721,0.00144958,0.010376,0.00915527,0.0207138,-0.00141144,0.0156784,0.0087738
18,7,10.0097,-0.000610352,-0.00183105,-2.42867,0.0544603,-0.0756734,0.0516866,0.0181749,-0.09925,0.145929,-0.129429,-0.0831808,0.0148392,0.0202942,0.0206757,0.0110245,0.018158,0.00732422,0.0254822,0.0174713,-9.97986,0.0189209,-0.00190735,0.00984192,0.00499725,0.0179291,-0.00362396,0.0161743,0.00701904
18,8,1.55324,-0.00152588,-0.00366211,-2.4247,0.0562914,-0.0738423,0.0544332,-0.00227185,-0.0965034,0.145624,-0.128513,-0.0813497,0.00709534,0.0256729,0.0186157,0.00934601,0.0198364,0.01091,0.0221252,0.0105667,-9.97986,0.010643,3.8147e-005,0.0152969,0.0056076,0.0159454,-0.00209808,0.0161362,0.0088501
18,9,-5.46611,-0.000915527,-0.00488281,-2.42592,0.0575121,-0.0744527,0.0538228,-0.0156996,-0.0961982,0.146844,-0.130954,-0.0822652,0.0106812,0.0289917,0.0178909,0.0131607,0.0179672,0.00968933,0.0212479,0.00946045,-9.97986,0.0104904,-0.00190735,0.0130081,0.00499725,0.0131989,-0.00392914,0.0151443,0.00572205
19,0,-9.99003,0,-0.00274658,-2.42562,0.0562914,-0.0729268,0.055959,0.014818,-0.0928413,0.145929,-0.126987,-0.0807394,0.00976563,0.0232315,0.0175095,0.0129318,0.0189972,0.00663757,0.0230408,0.00858307,-9.97986,0.00644684,-0.00110626,0.0151062,0.00572205,0.0146484,-0.00152588,0.0162506,0.00514984
19,1,-9.99003,-0.000915527,-0.00106812,-2.42623,0.0553758,-0.0738423,0.055959,0.0404528,-0.0897895,0.146539,-0.126377,-0.0816549,0.00938416,0.0215912,0.0188828,0.0117493,0.0172424,0.0104523,0.0218201,0.00869751,-9.97986,0.0107193,-0.000457764,0.0157547,0.0038147,0.0150681,-0.00148773,0.0154877,0.00263214
19,2,-9.99003,0.000610352,-0.000305176,-2.42592,0.0553758,-0.0735371,0.0547383,0.0566271,-0.0910102,0.145624,-0.125461,-0.0819601,0.012207,0.0225067,0.0190735,0.0120163,0.0118256,0.00934601,0.0204086,0.00797272,-9.97986,0.00656128,-0.00171661,0.0136948,0.00713348,0.0094986,-0.00225067,0.0162506,0.00541687
19,3,-9.99003,0.00152588,0.000152588,-2.42653,0.0550706,-0.0753682,0.0547383,0.0810411,-0.0891792,0.145318,-0.123935,-0.0825704,0.00637054,0.020256,0.019722,0.0127792,0.0174332,0.00762939,0.0204086,0.0114059,-9.97986,0.0120926,-0.00217438,0.0111008,0.00801086,0.00808716,-0.00263214,0.013237,0.00576019
19,4,-7.38292,0,0.00289917,-2.4247,0.0550706,-0.0747579,0.0565694,0.133531,-0.0858222,0.144403,-0.121799,-0.0825704,0.0111771,0.0248718,0.0185394,0.0113297,0.0186157,0.0107193,0.0221634,0.0138092,-9.97986,0.0104141,-0.00156403,0.0102234,0.00919342,0.0140381,0.00141144,0.0140381,0.00736237
19,5,0.556231,0.00213623,0.00335693,-2.42806,0.0535448,-0.0759786,0.0550435,0.147264,-0.0885688,0.145318,-0.121494,-0.0844015,0.00968933,0.0191116,0.0175095,0.00827789,0.0155258,0.0117493,0.020752,0.0104141,-9.97986,0.0147629,0.001297,0.0143433,0.00282288,0.0196075,-0.00133514,0.0154495,0.00602722
19,6,8.57472,-0.000305176,0.0038147,-2.42714,0.0535448,-0.0756734,0.0544332,0.153063,-0.0894843,0.142572,-0.121189,-0.0856222,0.0113678,0.0245667,0.0164795,0.014267,0.0154877,0.00873566,0.026474,0.017395,-9.97986,0.00862122,0.00282288,0.0193405,0.00717163,0.0197601,-0.00339508,0.0146103,0.00286102
19,7,10.0097,0.000610352,0.00274658,-2.43081,0.0526292,-0.0759786,0.0501607,0.11339,-0.0971137,0.143487,-0.126072,-0.0889791,0.0150299,0.0236511,0.0198746,0.0163651,0.0153351,0.00839233,0.0227356,0.0144577,-9.97986,0.0102615,-0.00183105,0.013504,0.00743866,0.0148392,-0.00339508,0.0166702,0.0106049
19,8,10.0097,-0.00183105,0.000457764,-2.43111,0.0538499,-0.0756734,0.0495503,0.0862291,-0.095893,0.143792,-0.126987,-0.0877584,0.0110245,0.0212479,0.0164795,0.0109863,0.0183487,0.00648499,0.0210571,0.0111008,-9.97986,0.0135422,0.00389099,0.0149536,0.00598907,0.0156021,-0.00164032,0.018959,0.0104904
19,9,10.0097,-0.0012207,0.000457764,-2.42867,0.0538499,-0.0768941,0.0513814,0.0779894,-0.0971137,0.143487,-0.126987,-0.0874532,0.0107574,0.0183868,0.0195313,0.0166702,0.0135803,0.00751495,0.0218964,0.0170135,-9.97986,0.0141144,-0.00431061,0.014267,0.00759125,0.0149155,-0.0056076,0.0185013,0.00545502
20,0,10.0097,-0.000610352,-0.000152588,-2.42928,0.0544603,-0.0753682,0.0522969,0.0728014,-0.0955879,0.144403,-0.126987,-0.0859274,0.0144958,0.0223923,0.0155258,0.00995636,0.0156021,0.0107956,0.0193405,0.0196838,-9.97986,0.0141907,0.000457764,0.0138092,0.00640869,0.0184631,0.000495911,0.016098,0.00724792
20,1,10.0097,0,0.000152588,-2.42837,0.0550706,-0.075063,0.054128,0.0712755,-0.0928413,0.143792,-0.127292,-0.085317,0.0124359,0.0209808,0.0165558,0.0110626,0.019455,0.00770569,0.0240707,0.0230408,-9.97986,0.0141144,-0.0050354,0.0149536,0.00972748,0.0158691,-0.0056076,0.0146103,0.00694275
20,2,10.0097,0.000915527,0.000152588,-2.42837,0.0541551,-0.0744527,0.0535176,0.0706652,-0.0937568,0.145624,-0.126682,-0.0837911,0.0103378,0.0171661,0.0166702,0.00774384,0.0191879,0.0117874,0.0234985,0.0268936,-9.97986,0.0189209,-0.00694275,0.0154877,0.00785828,0.0140762,-0.00267029,0.0149536,0.00938416
20,3,10.0097,0,0.000762939,-2.42684,0.0550706,-0.0753682,0.0538228,0.07036,-0.0925361,0.145318,-0.125766,-0.0831808,0.0143433,0.0231171,0.0190735,0.00923157,0.0199509,0.011673,0.0261307,0.0317764,-9.97986,0.0200653,-0.000686646,0.0150681,0.00938416,0.0114059,-0.000305176,0.0146484,0.0141525
20,4,10.0097,0.000915527,0.000305176,-2.4244,0.0550706,-0.0741475,0.0535176,0.0712755,-0.0922309,0.146539,-0.124851,-0.0816549,0.0135803,0.0222778,0.0242615,0.0128555,0.0170898,0.0122833,0.0249481,0.0309753,-9.97986,0.0222397,0.00213623,0.0158691,0.0114822,0.0238037,0.00106812,0.0212097,0.015831
20,5,10.0097,-0.00183105,-0.000457764,-2.42501,0.0572069,-0.0738423,0.054128,0.0712755,-0.0922309,0.145624,-0.124546,-0.0816549,0.0101852,0.0182724,0.0165176,0.0106812,0.0133514,0.0104141,0.0141907,0.0204849,-9.97986,0.0151825,-0.00789642,0.00904083,0.00370026,0.0124359,-0.00507355,0.0137711,0.00362396
20,6,10.0097,0.00213623,0.000457764,-2.4244,0.055681,-0.0729268,0.0550435,0.07036,-0.0913154,0.145929,-0.124546,-0.0810445,0.0184631,0.0241852,0.0204086,0.0118637,0.0187302,0.0104141,0.0230026,0.0220871,-9.97986,0.0257111,0.00125885,0.0144958,0.00907898,0.0188065,-0.000686646,0.0177383,0.0146866
20,7,10.0097,-0.000610352,-0.00228882,-2.42776,0.055681,-0.0747579,0.0513814,0.0154283,-0.0998603,0.145929,-0.128513,-0.0825704,0.0094223,0.020752,0.0167847,0.010643,0.0147629,0.00858307,0.014534,0.0137329,-9.97986,0.0134277,-0.0031662,0.0151062,0.00541687,0.0156021,-0.00324249,0.0151062,0.00797272
20,8,1.50899,0,-0.00396729,-2.42562,0.0569017,-0.0726216,0.0532125,-0.00379773,-0.0965034,0.146234,-0.128818,-0.0825704,0.0121307,0.0223923,0.0196457,0.0136185,0.017395,0.0113297,0.0199509,0.0117493,-9.97986,0.012207,-0.00606537,0.0162125,0.00843048,0.0165176,-0.00457764,0.0147629,0.00659943
20,9,-5.61442,0.00152588,-0.00442505,-2.42592,0.0572069,-0.0738423,0.054128,-0.0144789,-0.0961982,0.146539,-0.130039,-0.0813497,0.00743866,0.0295258,0.0162888,0.0143051,0.0130081,0.010643,0.0230408,0.0153351,-9.97986,0.0120926,-0.000724792,0.0123596,0.00709534,0.0146866,-0.00389099,0.0138092,0.00518799
21,0,-9.99003,0.0012207,-0.00320435,-2.42531,0.0569017,-0.0738423,0.0553487,0.0135973,-0.0928413,0.146234,-0.127903,-0.0810445,0.00556946,0.0221252,0.0188446,0.00995636,0.0160599,0.0149155,0.0208282,0.00904083,-9.97986,0.00843048,-0.00125885,0.0160217,0.00961304,0.0144196,-0.00289917,0.0159073,0.00873566
21,1,-9.99003,0.0012207,-0.00137329,-2.4244,0.0553758,-0.0741475,0.0553487,0.0410631,-0.090705,0.144403,-0.127292,-0.0810445,0.0121307,0.0255203,0.0177765,0.00747681,0.0183487,0.00724792,0.0232697,0.0105286,-9.97986,0.00850677,-0.00350952,0.0143051,0.00549316,0.0113678,0.000915527,0.0141144,0.0038147
21,2,-9.99003,-0.000610352,-0.000915527,-2.42562,0.0547655,-0.075063,0.0544332,0.0578478,-0.0897895,0.146234,-0.127292,-0.0828756,0.00797272,0.0244904,0.0214005,0.0106049,0.0204086,0.01194,0.0238419,0.0137711,-9.97986,0.00873566,-0.00267029,0.0132751,0.00591278,0.01297,-0.00244141,0.0167847,0.0050354
21,3,-9.99003,0.000610352,0.000152588,-2.42562,0.0562914,-0.0738423,0.0553487,0.0810411,-0.0897895,0.145013,-0.125156,-0.0828756,0.00881195,0.0230408,0.0170517,0.0118256,0.0162888,0.00946045,0.018425,0.0110626,-9.97986,0.0139999,-0.00282288,0.0147629,0.00629425,0.0133133,-0.00499725,0.0152969,0.00328064
21,4,-7.30205,0.000915527,0.00228882,-2.42623,0.0553758,-0.0747579,0.0571797,0.136583,-0.0839912,0.144403,-0.120273,-0.0816549,0.0166321,0.0252914,0.0208664,0.0144577,0.0194168,0.0120163,0.0238037,0.0145721,-9.97986,0.0127029,-0.00133514,0.00976563,0.00484467,0.0159454,-0.00488281,0.0156403,0.00507355
21,5,0.791521,0.00274658,0.00396729,-2.42684,0.0544603,-0.0747579,0.0556539,0.146959,-0.0891792,0.144098,-0.121494,-0.0840963,0.0148392,0.0278091,0.0191498,0.0147247,0.0205231,0.0117874,0.022316,0.017662,-9.97986,0.0113297,-0.00293732,0.0127411,0.00804901,0.0180435,-0.00202179,0.0166321,0.00682831
21,6,8.69191,0.00183105,0.00534058,-2.42806,0.0541551,-0.0765889,0.0532125,0.153978,-0.0894843,0.142877,-0.121189,-0.085317,0.0139618,0.0243759,0.0181961,0.0115585,0.0207138,0.00995636,0.0239944,0.0159454,-9.97986,0.0156021,-0.00286102,0.0157166,0.0102615,0.0167084,-0.00644684,0.0174332,0.00701904
21,7,10.0097,0.000305176,0.00305176,-2.42989,0.0535448,-0.0768941,0.0501607,0.111559,-0.0968086,0.142267,-0.125156,-0.0886739,0.0109482,0.0214005,0.018959,0.0106812,0.0117874,0.00617981,0.0190353,0.0144577,-9.97986,0.0122452,-0.00228882,0.013504,0.00259399,0.0173569,-0.0037384,0.0113297,0.00301361
21,8,10.0097,0.00152588,0.0012207,-2.43081,0.0526292,-0.0759786,0.050771,0.0871447,-0.0977241,0.142877,-0.127598,-0.0880636,0.0115204,0.0270462,0.0200653,0.0175095,0.017395,0.0120926,0.0250626,0.0174713,-9.97986,0.0161362,-0.00354767,0.0120544,0.00778198,0.015564,-3.8147e-005,0.0140762,0.00629425
21,9,10.0097,0.000305176,0.000152588,-2.42959,0.0535448,-0.0768941,0.050771,0.0761583,-0.095893,0.142572,-0.127292,-0.0874532,0.00911713,0.0235748,0.0187302,0.0138092,0.0204849,0.0109863,0.0219345,0.0198746,-9.97986,0.0149155,0.000228882,0.0132751,0.00640869,0.0176239,-0.00110626,0.013504,0.00686646
22,0,10.0097,0.000305176,-0.000457764,-2.42837,0.0538499,-0.0756734,0.0532125,0.0724962,-0.0949775,0.143182,-0.126987,-0.0856222,0.0108719,0.0246429,0.0198746,0.0150681,0.0128174,0.01194,0.0210571,0.0236511,-9.97986,0.0144577,-0.00526428,0.01091,0.00331879,0.0159454,-0.00179291,0.0176239,0.00400543
22,1,10.0097,-0.000610352,0.000152588,-2.42867,0.0547655,-0.0747579,0.0538228,0.0706652,-0.0946723,0.144708,-0.126072,-0.085317,0.0117874,0.0253677,0.0156784,0.0102234,0.0209808,0.0100327,0.0246048,0.0250626,-9.97986,0.0168991,-0.0038147,0.0133514,0.00648499,0.0146103,-0.00114441,0.0181961,0.00473022
22,2,10.0097,0.000915527,-0.000305176,-2.42745,0.0547655,-0.0753682,0.0532125,0.0718859,-0.094062,0.145013,-0.124851,-0.0837911,0.00972748,0.018959,0.0185776,0.0130081,0.0185394,0.0118637,0.0221252,0.0266266,-9.97986,0.0199127,0.00209808,0.0115204,0.0100708,0.0181961,-0.000953674,0.0169754,0.00534058
22,3,10.0097,0.000915527,-0.000152588,-2.42714,0.055681,-0.075063,0.0544332,0.0700548,-0.0946723,0.144403,-0.126072,-0.0840963,0.00831604,0.0209808,0.0203705,0.0139236,0.0184631,0.0116348,0.0243378,0.0243759,-9.97986,0.0212097,-0.000152588,0.0102997,0.00408173,0.0175476,-0.00087738,0.0152969,0.0094223
22,4,10.0097,-0.000915527,0.000305176,-2.4247,0.0559862,-0.0738423,0.0553487,0.0715807,-0.0913154,0.147149,-0.123935,-0.0816549,0.0127411,0.0230026,0.0167084,0.0114059,0.0156784,0.014534,0.0242233,0.0277328,-9.97986,0.0198746,-0.00461578,0.0144958,0.00511169,0.0175858,-0.00221252,0.0154114,0.0117111
22,5,10.0097,0.000305176,-0.000610352,-2.42592,0.0562914,-0.0741475,0.0550435,0.0712755,-0.0937568,0.145624,-0.125156,-0.0813497,0.00648499,0.022049,0.014801,0.0111771,0.0178909,0.00816345,0.0207901,0.0231934,-9.97986,0.0199127,-0.00286102,0.0149536,0.00667572,0.0191498,-0.00167847,0.0150299,0.00934601
22,6,10.0097,-0.00213623,0.000610352,-2.4244,0.0559862,-0.0735371,0.0550435,0.0712755,-0.0922309,0.147149,-0.12363,-0.0810445,0.00808716,0.0247192,0.0181961,0.0157166,0.0168228,0.00797272,0.0209045,0.0225067,-9.97986,0.0229645,-0.000648499,0.0125122,0.00209808,0.020752,-0.000419617,0.0151062,0.00823975
22,7,10.0097,-0.000610352,-0.00213623,-2.42837,0.0553758,-0.0744527,0.0526021,0.0178697,-0.0995551,0.146234,-0.128818,-0.0831808,0.0107956,0.0209427,0.0200272,0.00988007,0.0159836,0.0104904,0.0208664,0.0207138,-9.97986,0.0195313,-0.00305176,0.00865936,0.00766754,0.0177002,-0.00576019,0.0146866,0.00556946
22,8,1.42079,0.00183105,-0.00396729,-2.42531,0.0559862,-0.0738423,0.0532125,-0.00196668,-0.0971137,0.146539,-0.128818,-0.0816549,0.0102615,0.0211716,0.0219727,0.0108719,0.0183868,0.0106812,0.0214005,0.0120544,-9.97986,0.0111771,-0.00164032,0.0149918,0.00457764,0.0170135,0.00263214,0.0164032,0.00450134
22,9,-5.61839,-0.000305176,-0.00396729,-2.42531,0.0562914,-0.0741475,0.0526021,-0.0156996,-0.0961982,0.147149,-0.130344,-0.0822652,0.0112534,0.0270844,0.021019,0.0115204,0.0177383,0.00926971,0.0181961,0.00801086,-9.97986,0.00701904,0.000648499,0.00862122,0.0094986,0.0152206,-0.000762939,0.0147247,0.00339508
23,0,-9.99003,0.00183105,-0.00366211,-2.42501,0.0562914,-0.0744527,0.0544332,0.0151232,-0.0925361,0.146539,-0.127598,-0.0813497,0.00919342,0.0239563,0.0178146,0.0104141,0.0174332,0.00720978,0.0194168,0.00965118,-9.97986,0.00762939,0.00492096,0.0137329,0.00827789,0.0173569,0.00198364,0.0163269,0.00392914
23,1,-9.99003,0.00152588,-0.00106812,-2.4244,0.0550706,-0.0744527,0.055959,0.0407579,-0.0903999,0.145624,-0.127292,-0.0810445,0.00980377,0.0253677,0.0139999,0.0140381,0.0159073,0.00831604,0.0185776,0.0100708,-9.97986,0.0106049,0,0.0159454,0.00671387,0.0114441,-0.000610352,0.0134277,0.00370026
23,2,-9.99003,-0.00305176,0,-2.42623,0.0544603,-0.075063,0.0556539,0.0572374,-0.090705,0.144708,-0.125461,-0.0816549,0.00946045,0.0238037,0.0179291,0.0127029,0.0149155,0.00991821,0.0194168,0.01194,-9.97986,0.0127411,0.00179291,0.0142288,0.0063324,0.0102997,-0.0025177,0.0164795,0.00358582
23,3,-9.99003,0.00244141,-0.000457764,-2.42684,0.055681,-0.0744527,0.0556539,0.0831774,-0.0894843,0.146234,-0.124851,-0.0825704,0.00835419,0.0297928,0.0138092,0.0120544,0.0155258,0.0139999,0.0205994,0.0148773,-9.97986,0.0120163,0.00331879,0.0149918,0.00789642,0.0163269,-0.00087738,0.018425,0.00152588
23,4,-7.25352,0.00183105,0.00259399,-2.4247,0.0550706,-0.0747579,0.0568746,0.134752,-0.083686,0.144098,-0.121189,-0.0822652,0.00762939,0.0231552,0.014534,0.0129318,0.0151443,0.0136948,0.0207138,0.00934601,-9.97986,0.0106049,-0.00152588,0.0157928,0.0050354,0.0155258,0.000534058,0.0138474,0.00289917
23,5,0.761614,0.0012207,0.00396729,-2.42776,0.0535448,-0.0744527,0.055959,0.146349,-0.0879585,0.143182,-0.122104,-0.0850118,0.00900269,0.0258636,0.0200272,0.00972748,0.0203705,0.00629425,0.016098,0.0195694,-9.97986,0.0109863,-0.00213623,0.01091,0.0069046,0.0162506,-0.00198364,0.0171661,0.00164032
23,6,8.62447,-0.000915527,0.00442505,-2.42928,0.0538499,-0.0759786,0.0535176,0.153368,-0.0900947,0.143182,-0.121189,-0.085317,0.0142288,0.0261688,0.0172806,0.0123596,0.0171661,0.0130463,0.0190735,0.0177765,-9.97986,0.0130081,-0.001297,0.0117874,0.00717163,0.0186157,-0.00225067,0.0189209,0.00335693
23,7,10.0097,0.000915527,0.00244141,-2.43111,0.0535448,-0.0775044,0.0501607,0.113085,-0.095893,0.141351,-0.125461,-0.0874532,0.00816345,0.0227737,0.0190735,0.00915527,0.0151443,0.00801086,0.0202179,0.015831,-9.97986,0.0204849,-0.00347137,0.0151062,0.00484467,0.0178146,-0.00118256,0.0141907,0.00526428
23,8,10.0097,0.0012207,0.000305176,-2.43111,0.0544603,-0.0759786,0.0519917,0.0868395,-0.0971137,0.143487,-0.126987,-0.0877584,0.0107574,0.0247574,0.0180435,0.00728607,0.0146103,0.010376,0.0218201,0.0159073,-9.97986,0.0152588,0.00125885,0.0156403,-3.8147e-005,0.0118637,0.00167847,0.0138474,0.00408173
23,9,10.0097,0.000305176,0.000152588,-2.42898,0.0526292,-0.0768941,0.0513814,0.0761583,-0.0971137,0.143182,-0.127292,-0.0880636,0.0122833,0.0280762,0.0214386,0.0130081,0.0204468,0.01091,0.0244522,0.0207901,-9.97986,0.017395,0.000190735,0.0140762,0.0031662,0.0168991,-0.00205994,0.0150299,0.00427246
24,0,10.0097,-0.000305176,-0.000305176,-2.42837,0.0544603,-0.0759786,0.0522969,0.0728014,-0.0949775,0.145318,-0.125766,-0.0859274,0.0114822,0.0231171,0.0145721,0.0115585,0.0159454,0.0114441,0.0216293,0.0209045,-9.97986,0.0143433,-0.00469208,0.0124359,0.00244141,0.018158,-0.00728607,0.016098,0.0037384
24,1,10.0097,0,-0.000152588,-2.42806,0.0553758,-0.075063,0.0532125,0.072191,-0.0949775,0.145318,-0.126377,-0.085317,0.0128174,0.0270462,0.0193024,0.0148773,0.0172806,0.0124359,0.0264359,0.0234222,-9.97986,0.0177383,-3.8147e-005,0.0153732,0.00431061,0.0199509,-0.00469208,0.0177002,0.00450134
24,2,10.0097,0.000915527,0.000457764,-2.42684,0.0547655,-0.0738423,0.0526021,0.07036,-0.0931465,0.144708,-0.126377,-0.0850118,0.00907898,0.0244904,0.0146484,0.0112534,0.0187683,0.0088501,0.0212097,0.0270462,-9.97986,0.0219727,-0.000953674,0.0173187,0.00579834,0.017128,-0.00629425,0.0149918,0.00659943
24,3,10.0097,0.000305176,-0.000152588,-2.42714,0.0553758,-0.0747579,0.0532125,0.0718859,-0.0937568,0.145624,-0.124546,-0.0834859,0.0137329,0.0177765,0.0194168,0.0146866,0.0209808,0.01194,0.025177,0.0315094,-9.97986,0.0210571,0.000610352,0.0133514,0.00339508,0.0199509,-0.00133514,0.014801,0.00831604
24,4,10.0097,-0.000610352,0,-2.4247,0.0575121,-0.0738423,0.0556539,0.0712755,-0.090705,0.146539,-0.12363,-0.0816549,0.0141907,0.0263214,0.0148773,0.0107956,0.0173187,0.00835419,0.0196075,0.0285339,-9.97986,0.0206757,-0.00106812,0.0114059,0.00400543,0.019455,-0.00408173,0.0163651,0.00743866
24,5,10.0097,-0.000305176,0.000305176,-2.42409,0.0584276,-0.0741475,0.0544332,0.0712755,-0.090705,0.146234,-0.123935,-0.0816549,0.0108719,0.0245667,0.0180054,0.0159836,0.0180435,0.0110626,0.0202179,0.0236893,-9.97986,0.0219727,-0.00141144,0.0141525,0.00614166,0.0218582,-0.00209808,0.0156403,0.00888824
24,6,10.0097,0,0.000305176,-2.42531,0.0565965,-0.0729268,0.0544332,0.0724962,-0.0922309,0.14776,-0.125156,-0.0816549,0.0144196,0.0261307,0.0153351,0.00743866,0.017662,0.0117874,0.0204468,0.0214767,-9.97986,0.016861,-0.00110626,0.0163651,0.0082016,0.0230789,-0.0031662,0.0157547,0.00617981
24,7,10.0097,0.000610352,-0.000610352,-2.42776,0.0562914,-0.0744527,0.0516866,0.0178697,-0.0989448,0.145929,-0.128513,-0.0837911,0.0118256,0.0274277,0.0170898,0.0139618,0.0162888,0.00915527,0.0193024,0.0149536,-9.97986,0.017662,-0.000152588,0.0164413,0.00804901,0.0178909,-0.00457764,0.0161743,0.00812531
24,8,1.63259,-0.00183105,-0.0038147,-2.42653,0.0569017,-0.0738423,0.0532125,-0.0028822,-0.0971137,0.146844,-0.128513,-0.0816549,0.0087738,0.0258255,0.0196075,0.0102615,0.0150681,0.00835419,0.0196838,0.0141144,-9.97986,0.0119781,0.00102997,0.0125504,0.00793457,0.0178909,-0.0038147,0.0168991,0.0069809
24,9,-5.52012,0.0012207,-0.00396729,-2.42501,0.0569017,-0.0744527,0.054128,-0.0150892,-0.0971137,0.146844,-0.129123,-0.0813497,0.00999451,0.0282669,0.0189972,0.0111771,0.0167465,0.00911713,0.022583,0.0126648,-9.97986,0.0139618,0.0025177,0.0111771,0.00888824,0.0159073,-0.0044632,0.019722,0.00434875
25,0,-9.99003,0.000915527,-0.00259399,-2.4247,0.0562914,-0.0723164,0.0544332,0.0154283,-0.0919257,0.146539,-0.128513,-0.0819601,0.00934601,0.0231934,0.017395,0.0150299,0.0205231,0.0128555,0.0215912,0.01091,-9.97986,0.00930786,0.00583649,0.0138092,0.00907898,0.0180817,-0.00431061,0.0164795,0.00495911
25,1,-9.99003,0.00183105,-0.00198364,-2.42531,0.0547655,-0.0747579,0.0547383,0.0401476,-0.0897895,0.145624,-0.127903,-0.0810445,0.0106812,0.02388,0.017395,0.0114441,0.0186539,0.00911713,0.0230408,0.0113297,-9.97986,0.00869751,-0.000457764,0.0123978,0.0056839,0.0197601,-0.000839233,0.0154877,0.00591278
25,2,-9.99003,0.0012207,-0.000457764,-2.42592,0.0565965,-0.0738423,0.0553487,0.0569322,-0.090705,0.146539,-0.126377,-0.0819601,0.0043869,0.0232697,0.0211716,0.0111771,0.0163651,0.00705719,0.0212097,0.0133896,-9.97986,0.0124741,0.00133514,0.0154495,0.0094223,0.0170517,-0.000114441,0.0175858,0.00709534
25,3,-9.99003,0.000305176,-0.000152588,-2.42562,0.0550706,-0.0738423,0.0553487,0.0813463,-0.0891792,0.145318,-0.124241,-0.0825704,0.0069046,0.0253296,0.0181961,0.0133896,0.017128,0.00797272,0.021019,0.00865936,-9.97986,0.0107956,0.00118256,0.0166702,0.00736237,0.0192261,0.000724792,0.0181198,0.00473022
25,4,-7.20378,0,0.00274658,-2.42592,0.0553758,-0.0747579,0.0562642,0.135362,-0.0855171,0.145013,-0.121494,-0.0822652,0.0101089,0.0254059,0.0183868,0.00850677,0.015831,0.0087738,0.0218201,0.0117874,-9.97986,0.0120926,-0.000839233,0.0181961,0.0075531,0.0159836,-0.00255585,0.0178909,0.00473022
25,5,0.7372,0.000305176,0.00350952,-2.42867,0.0538499,-0.0747579,0.054128,0.145128,-0.088874,0.143792,-0.121494,-0.0856222,0.0104904,0.0252533,0.0202179,0.0133514,0.0176239,0.0120926,0.0240707,0.0169754,-9.97986,0.00968933,-0.00263214,0.0159073,0.00598907,0.0151062,-0.00247955,0.0190353,0.00133514
25,6,8.66475,-0.000915527,0.00396729,-2.42898,0.0538499,-0.0759786,0.0547383,0.154283,-0.0897895,0.144403,-0.121189,-0.0859274,0.0104141,0.0245667,0.0156784,0.0116348,0.0165939,0.00873566,0.0223541,0.018692,-9.97986,0.0177765,-0.000228882,0.018425,0.00782013,0.018959,-0.00175476,0.0188446,0.00473022
25,7,10.0097,0.000610352,0.00320435,-2.43172,0.0532396,-0.0771993,0.0495503,0.111559,-0.0965034,0.142877,-0.125156,-0.0883688,0.00709534,0.0270844,0.0213242,0.0111008,0.0119019,0.00717163,0.0240707,0.0183868,-9.97986,0.013237,-0.00423431,0.0146103,0.00694275,0.016861,-3.8147e-005,0.018158,0.00675201
25,8,10.0097,0.000915527,0.000610352,-2.4305,0.0541551,-0.0768941,0.050771,0.0874498,-0.0971137,0.143487,-0.125766,-0.0877584,0.0128555,0.0205231,0.0217056,0.0122452,0.0151443,0.00995636,0.0235748,0.0144196,-9.97986,0.0158691,-0.000228882,0.0133896,0.00846863,0.0198746,-0.00392914,0.0156784,0.00225067
25,9,10.0097,-0.0012207,-0.000457764,-2.42959,0.0535448,-0.0756734,0.0513814,0.0776842,-0.0952827,0.143792,-0.126682,-0.0877584,0.00743866,0.0218582,0.0190353,0.0104523,0.0191498,0.0119019,0.0265121,0.0186157,-9.97986,0.0146484,-0.00267029,0.0134659,0.00911713,0.0215149,-0.00263214,0.0162125,0.00694275
26,0,10.0097,-0.00152588,0.000152588,-2.42806,0.055681,-0.0756734,0.0510762,0.0718859,-0.0952827,0.142877,-0.126377,-0.0856222,0.00720978,0.0265503,0.0193787,0.0117874,0.0205612,0.00873566,0.0222397,0.0175095,-9.97986,0.0153732,-0.00263214,0.01091,0.00988007,0.0152206,-0.00171661,0.015564,0.00732422
26,1,10.0097,-0.000305176,-0.000610352,-2.42898,0.0550706,-0.0747579,0.0526021,0.0728014,-0.094062,0.145318,-0.126377,-0.0859274,0.0133133,0.0230789,0.0174713,0.0104523,0.017128,0.0109482,0.0202942,0.0266266,-9.97986,0.0220871,-0.00415802,0.0128937,0.00495911,0.0153732,0.00137329,0.0193024,0.00679016
26,2,10.0097,0.000305176,0.000152588,-2.42684,0.0550706,-0.0741475,0.0538228,0.07036,-0.0928413,0.145929,-0.126377,-0.0834859,0.0094223,0.0208282,0.0191116,0.0104141,0.0165558,0.00774384,0.0229263,0.0255585,-9.97986,0.0205994,-0.0038147,0.0140381,0.00572205,0.0169373,-0.00209808,0.0159454,0.00728607
26,3,10.0097,0.000915527,0.000152588,-2.42745,0.0547655,-0.0744527,0.0538228,0.0706652,-0.0928413,0.144403,-0.126377,-0.0834859,0.0122452,0.0218201,0.017128,0.0162506,0.0170135,0.00797272,0.0196838,0.0298691,-9.97986,0.0214386,-0.00362396,0.0141907,0.0056076,0.0167465,-0.000152588,0.0166321,0.00801086
26,4,10.0097,-0.000610352,0.000457764,-2.42501,0.0559862,-0.0735371,0.0556539,0.0706652,-0.0916206,0.147455,-0.12363,-0.0825704,0.0107193,0.0219345,0.016861,0.0136566,0.0205231,0.0118637,0.0212479,0.0235748,-9.97986,0.0212097,-0.00114441,0.0136566,0.00938416,0.0196457,-0.00278473,0.0176239,0.0105286
26,5,10.0097,0,0.000457764,-2.42653,0.0569017,-0.0726216,0.0556539,0.0712755,-0.0903999,0.146234,-0.124851,-0.0810445,0.00953674,0.0202179,0.0236511,0.0155258,0.0191498,0.0121307,0.0214386,0.0254822,-9.97986,0.0202179,-0.00244141,0.0144958,0.00686646,0.0187683,-0.00144958,0.0176239,0.0108719
26,6,10.0097,0.00152588,-0.000305176,-2.42562,0.0559862,-0.0744527,0.054128,0.0700548,-0.0922309,0.147149,-0.123935,-0.080129,0.00656128,0.0193024,0.0161362,0.0111008,0.0164795,0.00751495,0.0207138,0.0216675,-9.97986,0.013504,-0.0103378,0.00907898,0.00488281,0.0133896,-0.00324249,0.0172424,0.00663757
26,7,10.0097,-0.000610352,-0.00137329,-2.42714,0.0559862,-0.075063,0.0513814,0.0145128,-0.09925,0.145624,-0.128513,-0.0834859,0.00812531,0.0221634,0.0175858,0.0153351,0.0197983,0.0114822,0.0258636,0.0221252,-9.97986,0.0167465,-0.000839233,0.018158,0.00968933,0.0164413,-0.000762939,0.0168228,0.0102997
26,8,1.28255,0.000610352,-0.00427246,-2.42592,0.0562914,-0.0744527,0.0532125,-0.00196668,-0.095893,0.146234,-0.128208,-0.0813497,0.00812531,0.0261307,0.0147629,0.0142288,0.0175095,0.00442505,0.0175476,0.0114441,-9.97986,0.00843048,-0.00221252,0.0135803,0.00415802,0.0144958,-0.00343323,0.0157166,0.00637054
26,9,-5.73649,0.00183105,-0.00473022,-2.42623,0.0565965,-0.073232,0.0538228,-0.0163099,-0.0961982,0.146539,-0.130954,-0.0819601,0.0113297,0.0234985,0.0212479,0.0156784,0.0169754,0.0110245,0.0213623,0.00911713,-9.97986,0.00785828,-0.00198364,0.0170135,0.00480652,0.0152588,-0.00175476,0.0178528,0.00984192
27,0,-9.99003,0.000915527,-0.00335693,-2.42501,0.0565965,-0.0738423,0.0556539,0.0129869,-0.0913154,0.147149,-0.128513,-0.0798238,0.0111389,0.0225449,0.0183105,0.0136566,0.0187683,0.00579834,0.0225067,0.00740051,-9.97986,0.00888824,-0.00118256,0.0189972,0.00537872,0.0118256,-0.00679016,0.0129318,0.00343323
27,1,-9.99003,-0.000915527,-0.00167847,-2.4244,0.0565965,-0.0741475,0.0553487,0.0413683,-0.0910102,0.146234,-0.126987,-0.0819601,0.00785828,0.018425,0.0163269,0.00865936,0.0130844,0.00804901,0.0165558,0.0104523,-9.97986,0.0104523,0.00392914,0.0120544,0.0050354,0.00984192,-0.00270844,0.0159073,0.00408173
27,2,-9.99003,0.000305176,-0.000305176,-2.42684,0.0547655,-0.0744527,0.0556539,0.0584581,-0.0919257,0.145929,-0.125766,-0.0825704,0.00831604,0.0262833,0.0230026,0.0108337,0.0189209,0.0094223,0.0194168,0.0115967,-9.97986,0.012207,7.62939e-005,0.0116348,0.0094223,0.00812531,-0.00263214,0.0191498,0.000457764
27,3,-9.99003,0.0012207,0.000152588,-2.42531,0.0553758,-0.0744527,0.0553487,0.0816515,-0.0894843,0.145929,-0.124241,-0.0828756,0.0121689,0.0246048,0.0203323,0.01297,0.0180817,0.0111389,0.0202179,0.0114822,-9.97986,0.0101471,-0.00247955,0.0156403,0.0062561,0.0153732,-0.0019455,0.0170898,0.00274658
27,4,-7.4824,0.00183105,0.00289917,-2.4247,0.0550706,-0.0753682,0.0562642,0.135973,-0.0855171,0.145929,-0.12241,-0.0822652,0.0124359,0.0255203,0.018692,0.0101089,0.0191116,0.00915527,0.0209427,0.0137329,-9.97986,0.0114441,-0.00328064,0.0120544,0.00576019,0.0161743,-0.00244141,0.0131226,0.00675201
27,5,0.580645,0,0.00396729,-2.42806,0.0541551,-0.0753682,0.0547383,0.146349,-0.0891792,0.144098,-0.121189,-0.0850118,0.0159836,0.0244522,0.021286,0.00938416,0.0138092,0.00740051,0.0237656,0.0149536,-9.97986,0.0147629,0.00320435,0.0168228,0.0063324,0.0150299,-0.00217438,0.01297,0.00751495
27,6,8.41359,0.00213623,0.00473022,-2.42745,0.0538499,-0.075063,0.0529073,0.153673,-0.090705,0.144403,-0.120884,-0.085317,0.00965118,0.0240707,0.0180817,0.00988007,0.0162888,0.0069046,0.0205231,0.0130844,-9.97986,0.0127411,0.00110626,0.0165558,0.00682831,0.012207,-0.00217438,0.0157928,0.00656128
27,7,10.0097,0.00183105,0.00289917,-2.43111,0.0526292,-0.0762837,0.0501607,0.114,-0.0965034,0.142877,-0.125156,-0.0880636,0.00911713,0.0239182,0.0169373,0.013237,0.015564,0.00892639,0.0205231,0.0162506,-9.97986,0.0157547,-3.8147e-005,0.0162888,0.00659943,0.0174332,0.000152588,0.0166702,0.00526428
27,8,10.0097,0.00305176,0.000610352,-2.42959,0.0535448,-0.0762837,0.0510762,0.0874498,-0.0968086,0.143792,-0.126682,-0.0886739,0.013504,0.0224304,0.0151825,0.0130081,0.0177383,0.00972748,0.0174713,0.0147629,-9.97986,0.0167084,0.000610352,0.0131989,0.00423431,0.0180054,-0.00377655,0.0170517,0.00576019
27,9,10.0097,-0.000305176,0,-2.42837,0.0538499,-0.0762837,0.0513814,0.077379,-0.0955879,0.142572,-0.127292,-0.0883688,0.0087738,0.0228882,0.017395,0.0111389,0.0149536,0.00976563,0.0239182,0.0179672,-9.97986,0.0136185,0.00144958,0.0175858,0.00881195,0.0205994,-0.00347137,0.018158,0.00736237
28,0,10.0097,0.000610352,-0.000305176,-2.42837,0.0544603,-0.0759786,0.0522969,0.0731066,-0.0946723,0.144403,-0.126072,-0.0868429,0.00995636,0.0221252,0.017128,0.0119781,0.0187683,0.00598907,0.0236893,0.0209808,-9.97986,0.017395,-0.00267029,0.0165558,0.00221252,0.0145721,-0.00297546,0.0123978,0.00598907
28,1,10.0097,0.00183105,-0.000152588,-2.42806,0.0544603,-0.0753682,0.0526021,0.0715807,-0.094062,0.143182,-0.126072,-0.085317,0.0129318,0.0207138,0.0166321,0.0131607,0.0193405,0.00869751,0.0230026,0.0240707,-9.97986,0.0189209,-0.00259399,0.0162888,0.00442505,0.0156784,-0.00469208,0.0192642,0.00709534
28,2,10.0097,0.0012207,0.000762939,-2.42684,0.055681,-0.0747579,0.0532125,0.0706652,-0.0931465,0.144403,-0.126377,-0.085317,0.0131226,0.0265503,0.0154495,0.0120163,0.0148392,0.00583649,0.0217438,0.0241089,-9.97986,0.0231934,-0.00259399,0.0178528,0.00743866,0.0206375,-0.00221252,0.0183487,0.00816345
28,3,10.0097,0,0.000610352,-2.42745,0.0562914,-0.0765889,0.054128,0.07036,-0.0916206,0.144708,-0.125766,-0.0840963,0.0138855,0.0228119,0.0199127,0.0114441,0.0146866,0.0125504,0.022583,0.0271225,-9.97986,0.0194931,-0.00133514,0.0160217,0.00453949,0.0183105,-0.00453949,0.0144577,0.00850677
28,4,10.0097,0.000305176,0.000305176,-2.42592,0.0569017,-0.0735371,0.054128,0.0715807,-0.0919257,0.146539,-0.124851,-0.0816549,0.00919342,0.0225067,0.0199127,0.0114059,0.0191116,0.0119019,0.0221252,0.0279236,-9.97986,0.0233459,-0.00408173,0.0159454,0.00862122,0.0205994,-0.00545502,0.01297,0.0104904
28,5,10.0097,-0.000305176,0,-2.42531,0.0565965,-0.0738423,0.0547383,0.0715807,-0.0922309,0.147149,-0.124241,-0.0816549,0.0088501,0.0247574,0.0203323,0.00953674,0.0173187,0.0105667,0.02491,0.0195313,-9.97986,0.0229645,0.00453949,0.015831,0.00644684,0.0175476,0.000801086,0.0178146,0.00991821
28,6,10.0097,-0.000305176,-0.000152588,-2.42501,0.0569017,-0.073232,0.0547383,0.0718859,-0.0910102,0.146844,-0.123935,-0.0816549,0.0088501,0.0222397,0.0199509,0.0126648,0.0172424,0.00991821,0.0234222,0.0193787,-9.97986,0.0177765,-0.00202179,0.0144196,0.00675201,0.0189972,0.000953674,0.0164032,0.0105667
28,7,10.0097,0,-0.00167847,-2.42714,0.0562914,-0.075063,0.0516866,0.0178697,-0.09925,0.145624,-0.129429,-0.0831808,0.0108337,0.0185776,0.0163651,0.0109863,0.0199127,0.00965118,0.0226593,0.0194168,-9.97986,0.0170898,-0.00209808,0.0157166,0.00244141,0.0198364,-0.00656128,0.0147247,0.0094223
28,8,1.33016,0.0012207,-0.00411987,-2.42684,0.0581224,-0.0738423,0.0516866,-0.00196668,-0.0974189,0.145929,-0.129123,-0.0813497,0.00553131,0.0199127,0.0162506,0.00953674,0.0152206,0.0103378,0.0240326,0.0146866,-9.97986,0.0146103,-0.00244141,0.0141525,0.00495911,0.0148392,-0.0056839,0.0135422,0.00743866
28,9,-5.79143,0.000610352,-0.0050354,-2.42531,0.055681,-0.0735371,0.054128,-0.0150892,-0.0971137,0.147149,-0.129429,-0.0816549,0.0117111,0.0205994,0.0196075,0.00740051,0.0182724,0.0136948,0.0218964,0.0137329,-9.97986,0.00522614,0.000953674,0.0153732,0.0082016,0.0146103,-0.0019455,0.014267,0.0075531
29,0,-9.99003,-0.000610352,-0.00335693,-2.42501,0.0578172,-0.0738423,0.0556539,0.0132921,-0.0916206,0.14776,-0.128818,-0.0810445,0.0107193,0.022316,0.0139236,0.0135803,0.0179291,0.0110245,0.0228119,0.0126648,-9.97986,0.00671387,-0.00343323,0.0130463,0.00228882,0.0153732,-0.00278473,0.0131226,0.00457764
29,1,-9.99003,-0.000915527,-0.00183105,-2.42562,0.0559862,-0.0738423,0.0556539,0.0398424,-0.090705,0.145318,-0.126987,-0.0804342,0.00988007,0.0276184,0.0196075,0.0156403,0.0180054,0.00892639,0.0228119,0.0127411,-9.97986,0.0120163,0.00156403,0.0154114,0.00637054,0.0133896,0.000572205,0.0189972,0.0050354
29,2,-9.99003,-0.000915527,-0.000610352,-2.42592,0.0550706,-0.0747579,0.0547383,0.058153,-0.0916206,0.146539,-0.126377,-0.0828756,0.00900269,0.0201797,0.0179672,0.00572205,0.0182343,0.01091,0.0179291,0.0100708,-9.97986,0.0087738,-0.00854492,0.0140381,0.00335693,0.00667572,0.00305176,0.0114822,0.00682831
29,3,-9.99003,0.0012207,0.000305176,-2.42623,0.0553758,-0.0738423,0.055959,0.082567,-0.0894843,0.145013,-0.125156,-0.0825704,0.00881195,0.0218582,0.0202179,0.0164032,0.0157547,0.00850677,0.0243378,0.00965118,-9.97986,0.0114441,0.000305176,0.0146103,0.00823975,0.0180817,0.000915527,0.0183105,0.00602722
29,4,-7.46013,0.00183105,0.00305176,-2.42531,0.0553758,-0.0744527,0.0565694,0.136583,-0.0839912,0.144708,-0.121494,-0.0819601,0.0131989,0.0187302,0.0183105,0.00610352,0.0186157,0.00762939,0.02285,0.0137711,-9.97986,0.00995636,0.000953674,0.0152206,0.0088501,0.0110626,0.00114441,0.0137329,0.00366211
29,5,0.627642,0,0.00320435,-2.42898,0.0535448,-0.0747579,0.0547383,0.146959,-0.088874,0.144098,-0.122104,-0.0844015,0.0107193,0.0222778,0.0199509,0.010376,0.0180054,0.00778198,0.0208664,0.0143433,-9.97986,0.0147247,0.00110626,0.01194,0.0056076,0.014534,0.000419617,0.0137711,0.0025177
29,6,8.40261,-0.000610352,0.00457764,-2.42898,0.0538499,-0.0759786,0.0553487,0.153368,-0.0882636,0.145013,-0.121189,-0.0862325,0.00953674,0.0203323,0.0208282,0.0101852,0.0198364,0.0101471,0.019722,0.0163651,-9.97986,0.0152969,0.00114441,0.0170898,0.0100327,0.017395,0.00282288,0.0151825,0.00587463
29,7,10.0097,0.00152588,0.00289917,-2.43111,0.0523241,-0.0762837,0.0504659,0.113695,-0.0968086,0.143487,-0.125156,-0.0892843,0.0123978,0.02285,0.0193024,0.0165939,0.0184631,0.0128174,0.0199127,0.0144196,-9.97986,0.0121689,-0.00137329,0.0125504,0.00717163,0.014801,0.00293732,0.0201416,0.00621796
29,8,10.0097,0,0.000457764,-2.42989,0.0526292,-0.0775044,0.0504659,0.0862291,-0.0974189,0.142877,-0.126072,-0.0892843,0.0111389,0.0265503,0.0206375,0.0123596,0.0171661,0.00938416,0.0169754,0.0193787,-9.97986,0.0094986,0.000343323,0.0141907,0.00774384,0.0159073,-0.000457764,0.0149155,0.00766754
29,9,10.0097,0.00244141,-0.000305176,-2.43081,0.0529344,-0.0768941,0.0519917,0.0758531,-0.0977241,0.143487,-0.127903,-0.0877584,0.0102234,0.0234985,0.0232697,0.0104141,0.0191879,0.0120544,0.0165176,0.0185013,-9.97986,0.0129318,-0.00305176,0.0132751,0.0075531,0.0199509,0.00190735,0.0167084,0.00804901
30,0,10.0097,0,0,-2.42806,0.0553758,-0.075063,0.0519917,0.0734117,-0.0949775,0.144403,-0.127292,-0.0865377,0.00984192,0.0250626,0.0180817,0.0136185,0.0216675,0.0101471,0.0222397,0.019722,-9.97986,0.0134659,-0.000572205,0.0139236,0.00812531,0.0160599,0.00137329,0.0165176,0.00709534
30,1,10.0097,0,0,-2.42776,0.0544603,-0.0747579,0.0532125,0.0709703,-0.0928413,0.145624,-0.126987,-0.085317,0.0135803,0.0180817,0.0217056,0.0123978,0.0213623,0.00892639,0.0208282,0.0228882,-9.97986,0.0205231,-0.00366211,0.0112915,0.00930786,0.0164413,0.00553131,0.0178909,0.00915527
30,2,10.0097,0.000610352,0.000762939,-2.42776,0.0547655,-0.075063,0.0529073,0.0709703,-0.0934516,0.144708,-0.125766,-0.0847066,0.0104904,0.0196075,0.017395,0.015831,0.018158,0.00671387,0.0256348,0.0291443,-9.97986,0.0202179,-0.00514984,0.0124359,0.00400543,0.0159073,0.00362396,0.0175476,0.00888824
30,3,10.0097,0.000610352,0.000457764,-2.42684,0.0544603,-0.075063,0.0547383,0.0715807,-0.0916206,0.145318,-0.126072,-0.0840963,0.0150299,0.0226593,0.0169373,0.0118256,0.019722,0.0125504,0.0237274,0.0310516,-9.97986,0.0222397,-0.000648499,0.0169373,0.00377655,0.0146103,0.00278473,0.0195694,0.0101089
30,4,10.0097,-0.000610352,0.000152588,-2.4247,0.0550706,-0.0735371,0.0550435,0.0712755,-0.0919257,0.145624,-0.124546,-0.0816549,0.0141144,0.022316,0.0186539,0.0118256,0.0175476,0.0075531,0.0212097,0.0276184,-9.97986,0.0198364,-0.00141144,0.013237,0.00530243,0.0177002,0.00209808,0.0146866,0.00865936
30,5,10.0097,-0.00244141,0.000152588,-2.42623,0.0578172,-0.0729268,0.0532125,0.0718859,-0.0916206,0.148065,-0.124546,-0.0816549,0.0114059,0.0257111,0.018959,0.0126266,0.0229645,0.00537872,0.0255585,0.0249863,-9.97986,0.0161362,-0.00427246,0.0107574,0.00411987,0.018959,0.000305176,0.0178909,0.00953674
30,6,10.0097,-0.000305176,0.000762939,-2.42379,0.0553758,-0.0744527,0.0544332,0.0718859,-0.0919257,0.146234,-0.124851,-0.0825704,0.013504,0.0202179,0.0180817,0.0111008,0.0217056,0.00923157,0.0220108,0.0228882,-9.97986,0.0191498,-0.00171661,0.0135422,0.00652313,0.0205231,0.000152588,0.0199509,0.0125122
30,7,10.0097,-0.000305176,-0.00183105,-2.42653,0.0559862,-0.0756734,0.0513814,0.0187853,-0.0986396,0.145318,-0.129734,-0.0831808,0.0113297,0.0168228,0.0188446,0.0126648,0.0175858,0.00938416,0.0204849,0.0172424,-9.97986,0.0161362,-0.00331879,0.0137329,0.00759125,0.0164032,0.00236511,0.0174713,0.0102615
30,8,1.38478,0.00183105,-0.00442505,-2.42562,0.0559862,-0.0741475,0.0544332,-0.00257703,-0.0971137,0.146539,-0.127598,-0.0825704,0.00789642,0.0276566,0.0183487,0.0102615,0.0165558,0.0106049,0.0229263,0.0114441,-9.97986,0.00881195,7.62939e-005,0.0134277,0.00640869,0.0133514,3.8147e-005,0.0191116,0.00709534
30,9,-5.5775,0.000915527,-0.00427246,-2.42501,0.0565965,-0.0741475,0.0522969,-0.0166151,-0.0965034,0.146234,-0.130344,-0.0819601,0.00972748,0.0196838,0.0157547,0.0123978,0.0154114,0.00843048,0.0205994,0.00827789,-9.97986,0.0128555,-0.000686646,0.0127411,0.00724792,0.0110245,0.00442505,0.0162506,0.0050354
31,0,-9.99003,0.000610352,-0.00305176,-2.4244,0.055681,-0.0741475,0.055959,0.0151232,-0.0928413,0.146539,-0.128513,-0.080129,0.0115967,0.0239182,0.0180054,0.0143433,0.0125122,0.00873566,0.0222015,0.0102997,-9.97986,0.00602722,0.0037384,0.0109863,0.00400543,0.0206375,0.00125885,0.0177002,0.00473022
31,1,-9.99003,0.000610352,-0.0012207,-2.42501,0.055681,-0.075063,0.055959,0.0404528,-0.0910102,0.146234,-0.126987,-0.0813497,0.0101852,0.02491,0.0143814,0.00946045,0.017128,0.0132751,0.0218964,0.0123215,-9.97986,0.00434875,0.00038147,0.0131607,0.00598907,0.0126266,0.00366211,0.013504,0.00400543
31,2,-9.99003,0.000610352,0,-2.42653,0.055681,-0.0747579,0.0565694,0.0575426,-0.090705,0.146234,-0.126377,-0.0822652,0.0117111,0.0215912,0.0162506,0.01297,0.0137711,0.0117874,0.0180054,0.00740051,-9.97986,0.00495911,-0.00225067,0.0118637,0.00621796,0.0127792,0.00358582,0.0173187,0.00465393
31,3,-9.99003,0.000915527,0.000915527,-2.42623,0.0550706,-0.0741475,0.0550435,0.0789049,-0.0900947,0.145318,-0.124546,-0.0828756,0.0141144,0.0209427,0.0165939,0.0126266,0.0166321,0.0128937,0.0278091,0.00988007,-9.97986,0.00850677,0.000343323,0.0166321,0.00301361,0.0188065,0.00480652,0.018692,0.00705719
31,4,-7.41313,-0.000610352,0.00289917,-2.4247,0.0547655,-0.075063,0.055959,0.135668,-0.0849067,0.145624,-0.121494,-0.0822652,0.0146484,0.0218582,0.0184631,0.01194,0.0201416,0.01091,0.0195313,0.0143433,-9.97986,0.013237,-0.0056839,0.0127029,0.00629425,0.0148392,0.000267029,0.0189972,0.00526428
31,5,0.699969,0.00152588,0.00350952,-2.42653,0.0535448,-0.0747579,0.0550435,0.146349,-0.0873481,0.144403,-0.121799,-0.0850118,0.0105667,0.0191116,0.0200272,0.00873566,0.0173187,0.00988007,0.0211334,0.0151443,-9.97986,0.013237,-0.00190735,0.0137329,0.00621796,0.0171661,0.00476837,0.016098,0.00442505
31,6,8.63393,0.0012207,0.00411987,-2.42837,0.0532396,-0.0759786,0.054128,0.153673,-0.090705,0.144098,-0.121494,-0.0850118,0.0147247,0.0210953,0.0185394,0.0117111,0.0168228,0.0102997,0.0275803,0.0180054,-9.97986,0.0143433,-0.00179291,0.0150299,0.00240326,0.0179291,-0.000305176,0.017128,0.00419617
31,7,10.0097,-0.000305176,0.00320435,-2.43111,0.0532396,-0.0756734,0.0492452,0.111864,-0.095893,0.141961,-0.125156,-0.0883688,0.00961304,0.0231171,0.0142288,0.00816345,0.0192642,0.0114059,0.0218964,0.0128937,-9.97986,0.0143051,-0.0044632,0.0108719,0.0030899,0.0136185,0.000610352,0.0151443,0.00274658
31,8,10.0097,-0.000610352,0.000762939,-2.4302,0.0547655,-0.0762837,0.0510762,0.0856188,-0.0977241,0.144098,-0.126682,-0.0886739,0.0153351,0.0271225,0.0206375,0.0135422,0.0121307,0.0088501,0.0232315,0.0139999,-9.97986,0.0181961,0.00236511,0.0113678,0.00617981,0.0175858,0.00396729,0.0180435,0.0044632
31,9,10.0097,0,0.000457764,-2.4302,0.0541551,-0.0762837,0.050771,0.0764635,-0.095893,0.143182,-0.127598,-0.0883688,0.0130844,0.0255966,0.0197983,0.0123596,0.0173569,0.0110626,0.0206757,0.0178146,-9.97986,0.0151443,0.000190735,0.0125504,0.00324249,0.0153351,0.000228882,0.0176239,0.00423431
32,0,10.0097,-0.000915527,-0.000305176,-2.42837,0.0535448,-0.0759786,0.0519917,0.0737169,-0.095893,0.144403,-0.126987,-0.0856222,0.0140762,0.0266266,0.0157547,0.0139999,0.0196838,0.00839233,0.0166321,0.0189972,-9.97986,0.0189209,-0.0075531,0.0141907,0.00648499,0.0175476,0.00289917,0.0167084,0.00328064
32,1,10.0097,-0.000610352,-0.000457764,-2.42776,0.055681,-0.0744527,0.0522969,0.0715807,-0.0943672,0.145013,-0.126987,-0.085317,0.012207,0.0232697,0.0170898,0.0133514,0.0195694,0.00648499,0.0209808,0.0231934,-9.97986,0.0161362,-0.00392914,0.0135422,0.00576019,0.0179291,0.00190735,0.0188828,0.00965118
32,2,10.0097,0,0.000305176,-2.42776,0.0538499,-0.0738423,0.0535176,0.07036,-0.0925361,0.144708,-0.127292,-0.0844015,0.0139999,0.0265503,0.022049,0.0126648,0.0224304,0.0112152,0.0257111,0.0291443,-9.97986,0.0210953,-0.00232697,0.0122833,0.00640869,0.0197601,-0.00102997,0.0197601,0.00812531
32,3,10.0097,0.000305176,-0.00137329,-2.42714,0.0559862,-0.0747579,0.0535176,0.07036,-0.0931465,0.145624,-0.126377,-0.0834859,0.0125504,0.0213623,0.0185394,0.0120926,0.0195313,0.0153732,0.018692,0.0286865,-9.97986,0.0204086,-0.0037384,0.0154877,0.00785828,0.0164032,-7.62939e-005,0.0148773,0.00862122
32,4,10.0097,0.000305176,0,-2.42653,0.0553758,-0.0744527,0.0547383,0.0715807,-0.0919257,0.145013,-0.123935,-0.0816549,0.0152969,0.0240707,0.0188828,0.00926971,0.0170135,0.00621796,0.0199509,0.0281525,-9.97986,0.0214386,-0.00205994,0.0146484,0.00507355,0.0165176,-0.000953674,0.0146103,0.00782013
32,5,10.0097,0.000915527,0.000152588,-2.4244,0.0550706,-0.0729268,0.0538228,0.0712755,-0.0910102,0.146844,-0.124851,-0.0816549,0.01194,0.0224686,0.0180435,0.00915527,0.0183105,0.0094986,0.0226974,0.0223541,-9.97986,0.0196838,-0.00137329,0.0159454,0.00953674,0.0204849,-0.00404358,0.0176239,0.010376
32,6,10.0097,0.000610352,0.000610352,-2.42592,0.0569017,-0.0738423,0.0556539,0.0718859,-0.0919257,0.146234,-0.125766,-0.0807394,0.00881195,0.0248337,0.0178146,0.00976563,0.0217438,0.0104523,0.023613,0.0210571,-9.97986,0.0249481,0.000457764,0.016861,0.00934601,0.0180054,-0.00274658,0.0152969,0.0125885
32,7,10.0097,-0.000305176,-0.00183105,-2.42837,0.055681,-0.075063,0.0516866,0.0172594,-0.0983344,0.143792,-0.127903,-0.0828756,0.0110626,0.0239182,0.0208664,0.012207,0.0156021,0.00843048,0.0173569,0.0167084,-9.97986,0.0146484,-0.00431061,0.0130463,0.00526428,0.0167084,-0.0135422,0.0137711,0.0037384
32,8,1.50502,-0.000305176,-0.00366211,-2.42531,0.0559862,-0.0741475,0.0538228,-0.00135633,-0.0968086,0.146844,-0.129734,-0.0822652,0.0113678,0.0203705,0.0216675,0.00965118,0.0149536,0.0102997,0.022049,0.0134277,-9.97986,0.0159454,0.00038147,0.0132751,0.00968933,0.0163651,-0.00923157,0.0166321,0.00709534
32,9,-5.59245,-0.00152588,-0.00427246,-2.42501,0.0572069,-0.0741475,0.0535176,-0.0144789,-0.0965034,0.146539,-0.129734,-0.0816549,0.00980377,0.02388,0.0170517,0.00797272,0.0133133,0.0088501,0.0187302,0.010643,-9.97986,0.00881195,-0.00808716,0.013504,0.00534058,0.0119781,-0.0116348,0.018959,0.00396729
33,0,-9.99003,-0.000610352,-0.00274658,-2.42531,0.0569017,-0.0735371,0.055959,0.014818,-0.0910102,0.146844,-0.128513,-0.0819601,0.0082016,0.0261688,0.0156021,0.0088501,0.0170135,0.0138855,0.0237274,0.0107956,-9.97986,0.0127792,-0.00038147,0.0138092,0.0112152,0.0143051,-0.00976563,0.0162888,0.00839233
33,1,-9.99003,0.000915527,-0.00137329,-2.42531,0.0565965,-0.0741475,0.055959,0.0419786,-0.0913154,0.145624,-0.126682,-0.0816549,0.0102997,0.0252914,0.0170898,0.00793457,0.0146484,0.0050354,0.0196075,0.0133133,-9.97986,0.0133514,-0.000228882,0.0163269,0.00839233,0.0141525,-0.00957489,0.0118637,0.00404358
33,2,-9.99003,-0.0012207,-0.000457764,-2.42592,0.0553758,-0.0738423,0.0556539,0.058153,-0.0897895,0.145929,-0.126072,-0.0816549,0.00896454,0.027771,0.0189972,0.00984192,0.0137329,0.00789642,0.022316,0.0100327,-9.97986,0.0106049,-0.000648499,0.0112915,0.00686646,0.0118637,-0.01194,0.0154114,0.00312805
33,3,-9.99003,0.0012207,0.000152588,-2.42623,0.0553758,-0.075063,0.054128,0.0810411,-0.0903999,0.145318,-0.124241,-0.0825704,0.0111008,0.0260544,0.015831,0.0105286,0.014801,0.00972748,0.0204468,0.0140762,-9.97986,0.0112915,-0.000572205,0.0156021,0.0106049,0.0125885,-0.0106812,0.0168991,0.0019455
33,4,-7.28007,0.00213623,0.00244141,-2.42653,0.0544603,-0.0741475,0.0571797,0.135362,-0.0855171,0.145013,-0.120884,-0.0825704,0.0112152,0.0257492,0.0195313,0.0112915,0.016861,0.0075531,0.0197983,0.0174332,-9.97986,0.0111389,0.00354767,0.0189209,0.00595093,0.0131989,-0.0131607,0.0168991,0.00606537
33,5,0.837908,0.000610352,0.00411987,-2.42806,0.0541551,-0.0753682,0.054128,0.146959,-0.0879585,0.143792,-0.122104,-0.0847066,0.0112152,0.0261307,0.0160217,0.0150681,0.0147247,0.00930786,0.0214386,0.0147629,-9.97986,0.0136185,-0.00167847,0.0195313,0.00812531,0.0130844,-0.0094223,0.0185013,0.00858307
33,6,8.61531,-0.00244141,0.00411987,-2.42867,0.0547655,-0.0747579,0.0526021,0.153063,-0.0891792,0.144708,-0.121189,-0.0856222,0.0109863,0.0209427,0.0163269,0.0094223,0.0169754,0.00839233,0.019989,0.0141525,-9.97986,0.0189972,-0.00881195,0.0146103,0.0101852,0.0138855,-0.0159454,0.0153351,0.00610352
33,7,10.0097,-0.000305176,0.00289917,-2.43172,0.0523241,-0.0759786,0.0501607,0.113085,-0.095893,0.142572,-0.124851,-0.0892843,0.00919342,0.0260162,0.0203705,0.0104904,0.0178146,0.00934601,0.0192642,0.0175476,-9.97986,0.0166702,-0.001297,0.0178909,0.00598907,0.0172806,-0.015564,0.0182343,0.00915527
33,8,10.0097,0.000610352,0.000915527,-2.4305,0.0535448,-0.0756734,0.050771,0.0862291,-0.0980293,0.144098,-0.126072,-0.0886739,0.00988007,0.0308609,0.0177765,0.0114441,0.0146484,0.00999451,0.0246429,0.0165939,-9.97986,0.013504,-0.00167847,0.0182724,0.00717163,0.0158691,-0.0135422,0.014534,0.00507355
33,9,10.0097,0.00274658,0,-2.42989,0.0535448,-0.0759786,0.0504659,0.0749376,-0.0965034,0.143792,-0.127598,-0.0883688,0.0118637,0.0229645,0.0186539,0.0127792,0.012207,0.00663757,0.0245667,0.0156403,-9.97986,0.0133133,0.00522614,0.015831,0.00976563,0.0135803,-0.0163651,0.0131607,0.00709534
34,0,10.0097,-0.000305176,0,-2.42867,0.055681,-0.075063,0.0519917,0.0746324,-0.0937568,0.143792,-0.126377,-0.0859274,0.0131989,0.0222015,0.0183487,0.00846863,0.0161743,0.0069809,0.0191498,0.0145721,-9.97986,0.0217056,-0.00450134,0.0134277,0.00579834,0.0138474,-0.0170898,0.0144958,0.00579834
34,1,10.0097,0.0012207,0,-2.42745,0.0553758,-0.0759786,0.0513814,0.072191,-0.095893,0.145013,-0.126072,-0.085317,0.0134659,0.0267792,0.0199509,0.0111771,0.0153351,0.00873566,0.0207138,0.0212097,-9.97986,0.0192642,-0.00175476,0.0164795,0.00808716,0.0175095,-0.014801,0.0141144,0.0075531
34,2,10.0097,0.000305176,0,-2.42745,0.0553758,-0.0747579,0.0535176,0.0691393,-0.094062,0.144403,-0.125766,-0.0837911,0.0156784,0.0205612,0.020256,0.0127792,0.0189972,0.00766754,0.0248718,0.0217438,-9.97986,0.0233841,-0.00404358,0.0102234,0.00411987,0.0180054,-0.017395,0.01194,0.00953674
34,3,10.0097,0.00183105,0.000762939,-2.42653,0.055681,-0.0747579,0.054128,0.0709703,-0.0922309,0.145624,-0.125156,-0.0840963,0.0146484,0.0175095,0.0205612,0.0104523,0.0155258,0.00675201,0.0206375,0.028038,-9.97986,0.022583,-0.00659943,0.0131607,0.00923157,0.0155258,-0.0177002,0.0140381,0.0107193
34,4,10.0097,0,-0.000152588,-2.42592,0.0569017,-0.0744527,0.0562642,0.0715807,-0.0922309,0.145929,-0.125156,-0.0822652,0.00938416,0.0215912,0.016098,0.0101089,0.0211716,0.00598907,0.0222397,0.0275421,-9.97986,0.0223541,-0.00663757,0.0169754,0.00553131,0.0146103,-0.022316,0.0148773,0.00743866
34,5,10.0097,0,0.000152588,-2.42562,0.0565965,-0.0735371,0.0544332,0.0718859,-0.090705,0.145929,-0.12302,-0.0813497,0.0113678,0.0234985,0.0221634,0.0135422,0.0234604,0.0100327,0.022583,0.028038,-9.97986,0.0222778,-0.00492096,0.0177383,0.0111008,0.0191116,-0.0115204,0.0167084,0.0112152
34,6,10.0097,0,0.000152588,-2.42684,0.0575121,-0.0738423,0.0550435,0.0709703,-0.0913154,0.146234,-0.123325,-0.0819601,0.0122452,0.0232315,0.0141144,0.00946045,0.0187683,0.00694275,0.0218582,0.0194168,-9.97986,0.0222015,-0.00240326,0.0137711,0.0056076,0.0170517,-0.0147247,0.0138855,0.00854492
34,7,10.0097,-0.000305176,-0.000915527,-2.42806,0.0562914,-0.0756734,0.0513814,0.0172594,-0.0995551,0.145624,-0.128513,-0.0831808,0.0132751,0.0180817,0.018959,0.0128174,0.0156784,0.010643,0.0209427,0.0205612,-9.97986,0.0155258,0.00278473,0.0166321,0.00850677,0.0178146,-0.0163269,0.0144196,0.00709534
34,8,1.47298,0.000305176,-0.0038147,-2.42592,0.055681,-0.0747579,0.0519917,-0.00349256,-0.0974189,0.146539,-0.129734,-0.0816549,0.0119019,0.021553,0.0209808,0.0104141,0.0185013,0.011673,0.0205231,0.0131989,-9.97986,0.0167847,0.00198364,0.0155258,0.00930786,0.0172043,-0.0143433,0.0142288,0.0031662
34,9,-5.62694,-0.0012207,-0.00457764,-2.42653,0.0565965,-0.0723164,0.0529073,-0.0150892,-0.0955879,0.14776,-0.130649,-0.0822652,0.00839233,0.0235748,0.0192261,0.010643,0.0140762,0.0102234,0.0212097,0.00713348,-9.97986,0.0143433,0.000610352,0.0155258,0.00686646,0.0163269,-0.0144577,0.0181961,0.00324249
35,0,-9.99003,-0.000305176,-0.00289917,-2.42379,0.0569017,-0.0744527,0.0544332,0.0139025,-0.090705,0.145929,-0.128208,-0.0816549,0.00926971,0.0244904,0.019455,0.0120163,0.0143433,0.0125504,0.0221634,0.0136185,-9.97986,0.0115585,-0.00278473,0.0111389,0.0104141,0.0189972,-0.00843048,0.0141907,0.00324249
35,1,-9.99003,-0.000305176,-0.00198364,-2.42501,0.0559862,-0.0738423,0.0550435,0.0404528,-0.0903999,0.145318,-0.127292,-0.0807394,0.0133133,0.0234222,0.0187302,0.0125122,0.0180817,0.0094986,0.0224304,0.00896454,-9.97986,0.00904083,-0.00152588,0.0156784,0.00988007,0.01297,-0.00896454,0.0159073,0.00518799
35,2,-9.99003,0.000915527,-0.000457764,-2.42562,0.0562914,-0.0747579,0.0547383,0.0572374,-0.0919257,0.145929,-0.126682,-0.0825704,0.0121689,0.0214005,0.0130463,0.0117111,0.0152206,0.00541687,0.0279236,0.00995636,-9.97986,0.0101471,0.00141144,0.0129318,0.0094986,0.0126266,-0.00740051,0.0150681,0.00495911
35,3,-9.99003,0.00183105,0.000457764,-2.42531,0.0550706,-0.0747579,0.0556539,0.0801256,-0.090705,0.144708,-0.124546,-0.0822652,0.00904083,0.0233459,0.0192261,0.0121689,0.0169754,0.00972748,0.0265503,0.0108337,-9.97986,0.0140381,-0.00400543,0.0152206,0.00980377,0.0180817,-0.00854492,0.0174713,0.00240326
35,4,-7.4824,0.000305176,0.00244141,-2.42531,0.0559862,-0.0747579,0.0553487,0.133837,-0.0846015,0.144403,-0.121189,-0.0819601,0.0111389,0.0254059,0.0199509,0.0146866,0.0208282,0.0134277,0.0239944,0.0146103,-9.97986,0.0106049,0.00354767,0.0163651,0.01194,0.0144958,-0.00392914,0.0159454,0.00484467
35,5,0.650225,-0.000610352,0.00320435,-2.42806,0.0538499,-0.0756734,0.0544332,0.146044,-0.0873481,0.143487,-0.12241,-0.0837911,0.0131989,0.0218201,0.0217056,0.0109863,0.0182724,0.0126266,0.0193024,0.0154495,-9.97986,0.0104523,0.00236511,0.0159836,0.00888824,0.01091,-0.00736237,0.0191116,0.00396729
35,6,8.48989,0.000610352,0.00427246,-2.42806,0.0526292,-0.0753682,0.0535176,0.153368,-0.0900947,0.144708,-0.120273,-0.0850118,0.0106049,0.0281143,0.0185013,0.0127411,0.0203323,0.0128555,0.0253296,0.0181198,-9.97986,0.0152969,-0.0025177,0.017128,0.0106812,0.0166321,-0.0044632,0.0148392,0.00328064
35,7,10.0097,0.000610352,0.00350952,-2.43081,0.0535448,-0.0775044,0.0513814,0.114,-0.0980293,0.142267,-0.124546,-0.0892843,0.0105667,0.0227356,0.017128,0.0117111,0.0196075,0.0103378,0.0229645,0.0167847,-9.97986,0.0165176,-0.00255585,0.0151825,0.00518799,0.0143814,-0.000610352,0.0146866,0.00480652
35,8,10.0097,0.00244141,0.000915527,-2.42928,0.0535448,-0.0759786,0.0513814,0.0868395,-0.0955879,0.141656,-0.126072,-0.0883688,0.0143814,0.0215912,0.0220108,0.0121689,0.0204849,0.013504,0.0201035,0.0213623,-9.97986,0.0222397,-0.00106812,0.0120544,0.00583649,0.0196457,-0.00198364,0.0187683,0.00671387
35,9,10.0097,0.000610352,0,-2.42989,0.0538499,-0.0759786,0.0529073,0.0770738,-0.0971137,0.144403,-0.126682,-0.0880636,0.00843048,0.0239944,0.0218201,0.00923157,0.0151825,0.00747681,0.0255966,0.0145721,-9.97986,0.0174713,-0.000457764,0.0104904,0.00823975,0.0157547,-0.00164032,0.0163269,0.00686646
36,0,10.0097,0,0.00106812,-2.42837,0.0544603,-0.0759786,0.0522969,0.0731066,-0.0943672,0.145013,-0.126377,-0.0865377,0.0136566,0.0243378,0.0148773,0.0154114,0.0148392,0.0124359,0.0189209,0.0164032,-9.97986,0.0169373,0.001297,0.0167847,0.00823975,0.0147247,-0.00141144,0.0137329,0.00637054
36,1,10.0097,-0.000305176,-0.000457764,-2.42867,0.0544603,-0.0753682,0.0526021,0.0709703,-0.0931465,0.145013,-0.126682,-0.0856222,0.0133133,0.0204468,0.0207138,0.0115585,0.0175476,0.0126648,0.0222015,0.0208282,-9.97986,0.0194168,-0.00213623,0.0134659,0.00484467,0.0164032,-0.00114441,0.0137711,0.00816345
36,2,10.0097,0.000305176,-0.000152588,-2.42745,0.0550706,-0.075063,0.0538228,0.0709703,-0.0943672,0.145013,-0.126377,-0.0844015,0.00892639,0.0233459,0.0180817,0.0112915,0.0145721,0.012207,0.0220108,0.0263977,-9.97986,0.021019,-0.00156403,0.0144196,0.0111771,0.0183105,-0.000953674,0.0150299,0.00896454
36,3,10.0097,-0.000305176,0.000152588,-2.42592,0.0565965,-0.0756734,0.0529073,0.07036,-0.0913154,0.145929,-0.125766,-0.0834859,0.0108719,0.0219727,0.022316,0.0094223,0.0192642,0.0121689,0.021553,0.0267792,-9.97986,0.0219727,-0.00473022,0.0132751,0.00888824,0.0225067,0.000762939,0.0162888,0.0105286
36,4,10.0097,0,0.000305176,-2.42653,0.0562914,-0.0729268,0.054128,0.0718859,-0.0916206,0.146844,-0.123935,-0.0813497,0.0125885,0.0261307,0.0205231,0.0138855,0.0190353,0.0122452,0.0228119,0.0226593,-9.97986,0.017128,-0.000801086,0.0121689,0.00709534,0.0213242,-0.0012207,0.0196075,0.00873566
36,5,10.0097,0.00213623,0.000610352,-2.42531,0.0562914,-0.0741475,0.0556539,0.0718859,-0.0931465,0.147455,-0.124241,-0.0813497,0.0154495,0.0271225,0.0166702,0.0112152,0.0187683,0.01091,0.021286,0.0229263,-9.97986,0.0190353,-0.00392914,0.0125885,0.00579834,0.0180817,0.00228882,0.0150681,0.00782013
36,6,10.0097,0.000915527,0.000152588,-2.42531,0.0559862,-0.0735371,0.0550435,0.0712755,-0.090705,0.145929,-0.123935,-0.0813497,0.0156403,0.0232315,0.0208282,0.013237,0.0204849,0.0109863,0.0269699,0.0262451,-9.97986,0.0197983,0.000228882,0.0154877,0.00862122,0.0215912,0.00358582,0.0166702,0.00858307
36,7,10.0097,0.000610352,-0.000915527,-2.42684,0.0553758,-0.075063,0.0513814,0.016649,-0.0995551,0.146844,-0.128513,-0.0834859,0.0138092,0.0213242,0.0134659,0.010376,0.0144958,0.00923157,0.0194168,0.0145721,-9.97986,0.0161362,-0.00354767,0.01194,0.00686646,0.0170517,0.00133514,0.014534,0.00724792
36,8,1.303,0.000915527,-0.00473022,-2.4247,0.0575121,-0.0744527,0.0535176,-0.00318738,-0.0965034,0.147149,-0.129429,-0.0822652,0.0121689,0.0237274,0.0209808,0.0104904,0.0149918,0.015831,0.0221634,0.0172043,-9.97986,0.0124741,-0.0012207,0.016098,0.00770569,0.0176239,0.00297546,0.0178909,0.00652313
36,9,-5.91258,-0.000915527,-0.00427246,-2.42623,0.0562914,-0.073232,0.054128,-0.0156996,-0.0974189,0.145929,-0.130344,-0.0816549,0.00892639,0.025444,0.0147629,0.0132751,0.0142288,0.0136566,0.0197983,0.00953674,-9.97986,0.00713348,-0.00408173,0.0141144,0.00774384,0.0176239,0.00236511,0.0157547,0.00255585
37,0,-9.99003,0.00152588,-0.00366211,-2.4247,0.0562914,-0.073232,0.0556539,0.0123766,-0.0913154,0.147149,-0.129123,-0.0816549,0.0094223,0.0291824,0.0179672,0.0133133,0.0159454,0.0120926,0.0224686,0.00911713,-9.97986,0.00827789,-0.00167847,0.0138474,0.010376,0.0167465,0.00156403,0.0152588,0.00190735
37,1,-9.99003,0.00244141,-0.00152588,-2.42531,0.055681,-0.0735371,0.0550435,0.0395372,-0.0900947,0.146844,-0.127598,-0.0813497,0.0114822,0.0269318,0.0174713,0.0172806,0.0175476,0.00923157,0.0232697,0.0117111,-9.97986,0.0113678,-0.00320435,0.0176239,0.00419617,0.00324249,0.00282288,0.0151825,0.00217438
37,2,-9.99003,0.000305176,-0.00106812,-2.42531,0.0547655,-0.0744527,0.0544332,0.0587633,-0.0922309,0.145624,-0.126072,-0.0822652,0.00617981,0.0224304,0.0159836,0.011673,0.0165939,0.0118637,0.0246048,0.0125504,-9.97986,0.0114822,0.00125885,0.0114059,0.00667572,0.00484467,0.00118256,0.0130463,7.62939e-005
37,3,-9.99003,0.00183105,0,-2.42592,0.0553758,-0.0744527,0.0553487,0.0801256,-0.0894843,0.144403,-0.124546,-0.0828756,0.00930786,0.0239563,0.0177765,0.010643,0.0190735,0.0143051,0.0262833,0.014267,-9.97986,0.0130844,-0.000762939,0.0116348,0.00709534,0.0166321,0.000419617,0.0145721,0.00629425
37,4,-7.73906,0.000610352,0.00259399,-2.42562,0.0547655,-0.0738423,0.0562642,0.132616,-0.0842964,0.145013,-0.122715,-0.0822652,0.0115585,0.0279236,0.0195694,0.0131989,0.0182343,0.0123596,0.0214386,0.0121689,-9.97986,0.0106812,-0.000648499,0.0198364,0.00846863,0.0170135,-0.00366211,0.0162506,0.00621796
37,5,0.242815,0.0012207,0.00350952,-2.42714,0.0547655,-0.0762837,0.054128,0.146349,-0.0882636,0.144098,-0.121799,-0.0840963,0.00980377,0.0221252,0.0162506,0.0110245,0.01297,0.00953674,0.0193024,0.0148392,-9.97986,0.0142288,-0.00770569,0.0136185,0.0044632,0.0166321,-0.00087738,0.0165176,0.0044632
37,6,8.07759,0.000915527,0.00457764,-2.42806,0.0535448,-0.075063,0.0538228,0.152757,-0.088874,0.144403,-0.121189,-0.0856222,0.00812531,0.0281525,0.014267,0.0147629,0.0186539,0.0112152,0.0245285,0.0147629,-9.97986,0.0144577,-0.00476837,0.0137711,0.0063324,0.01297,-0.000991821,0.018692,0.00667572
37,7,10.0097,0.000610352,0.00198364,-2.43172,0.0535448,-0.0765889,0.050771,0.116747,-0.0965034,0.142877,-0.125156,-0.0880636,0.0119019,0.0234222,0.0178146,0.0114441,0.0163651,0.0113297,0.0182343,0.0198746,-9.97986,0.0161362,-0.00457764,0.0125504,0.00717163,0.0128555,-0.00255585,0.0183868,0.00629425
37,8,10.0097,0.000305176,0.000915527,-2.42959,0.0538499,-0.0771993,0.0504659,0.0865343,-0.0971137,0.142877,-0.126987,-0.0889791,0.00736237,0.0263977,0.0186157,0.0106049,0.016861,0.0109482,0.0222397,0.0158691,-9.97986,0.0181961,-0.00335693,0.0128937,0.00999451,0.0157928,0.0056839,0.0133896,0.00743866
37,9,10.0097,0,-0.000305176,-2.42959,0.0535448,-0.0759786,0.0510762,0.0764635,-0.0955879,0.142572,-0.126987,-0.0871481,0.00770569,0.0262833,0.0165176,0.0162888,0.0133133,0.010376,0.0186539,0.0171661,-9.97986,0.0179672,-0.00286102,0.0142288,0.0069809,0.0194931,0.00263214,0.0189209,0.00656128
38,0,10.0097,0.000610352,-0.000152588,-2.42898,0.0550706,-0.075063,0.0516866,0.0734117,-0.095893,0.143487,-0.127903,-0.0862325,0.0104141,0.0234985,0.018692,0.0157547,0.016098,0.0105667,0.0233459,0.0204086,-9.97986,0.0125122,-0.00366211,0.0143814,0.00858307,0.0163651,0.000724792,0.015564,0.00473022
38,1,10.0097,-0.000305176,0.000305176,-2.42776,0.0550706,-0.0759786,0.0532125,0.0712755,-0.0937568,0.145013,-0.125156,-0.0850118,0.0138855,0.0253296,0.0193024,0.0118637,0.0144577,0.00782013,0.0173187,0.0243759,-9.97986,0.0173187,-0.00236511,0.0144196,0.00869751,0.0133133,0.000991821,0.0134277,0.00686646
38,2,10.0097,0.0012207,-0.000305176,-2.42806,0.0550706,-0.0756734,0.0538228,0.0718859,-0.094062,0.144098,-0.125766,-0.0837911,0.01194,0.0248337,0.017662,0.0122452,0.0143814,0.0123978,0.0217819,0.0255203,-9.97986,0.0191116,-0.0056839,0.0138474,0.00408173,0.0204849,0.000953674,0.0157547,0.00541687
38,3,10.0097,-0.000305176,0.000457764,-2.42623,0.0541551,-0.0753682,0.0529073,0.0706652,-0.0931465,0.147455,-0.125461,-0.0837911,0.0112534,0.0247192,0.0209808,0.0144577,0.0194931,0.01297,0.021286,0.0252914,-9.97986,0.0220108,-0.00236511,0.0114441,0.00656128,0.0147247,0.00236511,0.0190735,0.00930786
38,4,10.0097,0.000915527,-0.000305176,-2.42379,0.0565965,-0.0720113,0.0553487,0.0715807,-0.0928413,0.146234,-0.124241,-0.0816549,0.0115204,0.0255203,0.020752,0.0143433,0.0203323,0.0134277,0.0237656,0.0296783,-9.97986,0.0260162,-0.00236511,0.0162506,0.00514984,0.0190735,0.00434875,0.015564,0.00766754
38,5,10.0097,-0.000305176,0.000305176,-2.42501,0.0565965,-0.0729268,0.0535176,0.0700548,-0.0916206,0.145929,-0.124546,-0.0816549,0.0114822,0.0205994,0.0188446,0.0144577,0.0154114,0.0143433,0.019989,0.0273132,-9.97986,0.0175858,-0.00278473,0.00946045,0.0115967,0.0198364,-0.000152588,0.0137711,0.00801086
38,6,10.0097,0.000915527,0,-2.42409,0.0569017,-0.0735371,0.0550435,0.0709703,-0.0913154,0.145624,-0.123935,-0.0810445,0.00831604,0.0269318,0.0193024,0.0139236,0.0175858,0.0136185,0.0228119,0.0231934,-9.97986,0.0191879,0.00221252,0.0113678,0.00499725,0.014267,0.00461578,0.0174713,0.00835419
38,7,10.0097,-0.000610352,-0.00167847,-2.42714,0.0550706,-0.075063,0.0522969,0.0160387,-0.0989448,0.145929,-0.129123,-0.0822652,0.0121689,0.0214767,0.0165939,0.00919342,0.0171661,0.0112152,0.0212479,0.0202179,-9.97986,0.0128937,-0.00175476,0.0103378,0.00621796,0.015564,0.00495911,0.0152588,0.00583649
38,8,1.29476,0.000915527,-0.00366211,-2.42623,0.0569017,-0.0735371,0.054128,-0.00257703,-0.0974189,0.14776,-0.129734,-0.0816549,0.00907898,0.026741,0.0169373,0.0104523,0.015831,0.00873566,0.0205612,0.0143433,-9.97986,0.00930786,-0.0038147,0.0136185,0.00366211,0.0153732,0.00385284,0.0125122,0.00442505
38,9,-5.82957,-0.0012207,-0.00427246,-2.42531,0.0569017,-0.075063,0.0547383,-0.0163099,-0.0968086,0.145624,-0.128818,-0.0819601,0.00823975,0.0213623,0.0169754,0.01091,0.0148392,0.00705719,0.0205231,0.00930786,-9.97986,0.00392914,0.000648499,0.0113297,0.00740051,0.016098,-0.000839233,0.0140762,0.00305176
39,0,-9.99003,-0.00152588,-0.00289917,-2.4247,0.0559862,-0.0729268,0.055959,0.0139025,-0.0931465,0.146234,-0.127903,-0.0807394,0.0121689,0.0263977,0.020256,0.013237,0.0133514,0.00522614,0.0245667,0.00572205,-9.97986,0.00644684,-0.000610352,0.0135803,0.00637054,0.0164795,0.000724792,0.0144196,0.0030899
39,1,-9.99003,0.000610352,-0.00167847,-2.42531,0.0550706,-0.0741475,0.0547383,0.0398424,-0.0891792,0.147149,-0.127598,-0.0810445,0.00659943,0.0238419,0.0153351,0.0131607,0.0154114,0.00789642,0.0224304,0.0133896,-9.97986,0.00965118,7.62939e-005,0.0121307,0.00648499,0.00865936,0.000343323,0.0133896,0.00507355
39,2,-9.99003,0,-0.000762939,-2.42592,0.0559862,-0.0756734,0.0565694,0.0569322,-0.0916206,0.145318,-0.126072,-0.0822652,0.00659943,0.0221634,0.0176239,0.00926971,0.0139999,0.00747681,0.0172043,0.0107193,-9.97986,0.0112152,0.00286102,0.0151825,0.00469208,0.0102234,0.00160217,0.0128174,0.00350952
39,3,-9.99003,0.000305176,0.000915527,-2.42592,0.0550706,-0.075063,0.0565694,0.080736,-0.0897895,0.145318,-0.125156,-0.0819601,0.00812531,0.022049,0.016098,0.0115967,0.0155258,0.00953674,0.0165558,0.0160217,-9.97986,0.00972748,-0.00492096,0.0107956,0.00419617,0.0170517,0.00431061,0.0087738,0.00156403
39,4,-7.68077,0.0012207,0.00289917,-2.42531,0.0547655,-0.075063,0.0562642,0.133837,-0.0852119,0.145929,-0.122104,-0.0822652,0.0102615,0.0269699,0.0175095,0.0157928,0.0178528,0.00530243,0.0200272,0.0128937,-9.97986,0.0136948,0.00232697,0.0112152,0.00312805,0.0175858,0.00244141,0.0152588,0.00614166
39,5,0.365191,0,0.00350952,-2.42806,0.0532396,-0.0753682,0.0544332,0.147264,-0.0873481,0.144098,-0.121189,-0.0844015,0.0102234,0.024147,0.0219727,0.0157547,0.0175095,0.00892639,0.0234985,0.015831,-9.97986,0.0107574,0.00148773,0.0153732,0.00709534,0.0154877,0.00221252,0.0146103,0.00583649
39,6,8.21767,0.00305176,0.00457764,-2.42867,0.0532396,-0.0762837,0.0553487,0.153673,-0.088874,0.143792,-0.122104,-0.0856222,0.0112534,0.0219727,0.0157547,0.0110626,0.0144196,0.00835419,0.0222778,0.0151062,-9.97986,0.014534,0.00171661,0.0129318,0.00514984,0.0175095,-0.00289917,0.0185013,0.00518799
39,7,10.0097,-0.0012207,0.0038147,-2.4302,0.0532396,-0.0781148,0.0483296,0.116442,-0.0974189,0.141961,-0.124546,-0.0883688,0.0082016,0.0173187,0.0230026,0.0123596,0.0136948,0.00793457,0.0203705,0.0157928,-9.97986,0.0142288,-0.000343323,0.0107574,0.00804901,0.0179672,-0.000190735,0.018158,0.00587463
39,8,10.0097,0.00213623,0.000915527,-2.43111,0.0541551,-0.0768941,0.050771,0.0868395,-0.0968086,0.143487,-0.127292,-0.0880636,0.00831604,0.0188065,0.0214386,0.00717163,0.0130844,0.00873566,0.0214386,0.0191879,-9.97986,0.0120544,0.00255585,0.0107956,0.00713348,0.0135422,-0.000190735,0.0162888,0.0075531
39,9,10.0097,0.000610352,0.000152588,-2.42928,0.0541551,-0.0759786,0.0516866,0.0767687,-0.0971137,0.143182,-0.126987,-0.0880636,0.0117493,0.0195313,0.0168991,0.0150299,0.0149155,0.00637054,0.0191879,0.0183868,-9.97986,0.0193405,0.0018692,0.0138474,0.0109482,0.019455,0.00125885,0.0151443,0.00679016
40,0,10.0097,0.000915527,-0.000457764,-2.42837,0.0547655,-0.0762837,0.0510762,0.0737169,-0.095893,0.143792,-0.127292,-0.0859274,0.0082016,0.0200653,0.0187683,0.0108337,0.017395,0.00938416,0.0217819,0.0231171,-9.97986,0.0162125,0.000762939,0.0136948,0.00740051,0.0138092,-0.00507355,0.0139236,0.00507355
40,1,10.0097,-0.000610352,-0.000305176,-2.42714,0.0553758,-0.0753682,0.0532125,0.0712755,-0.0925361,0.146234,-0.126072,-0.0847066,0.0108337,0.0248337,0.0168228,0.0111771,0.0159073,0.00827789,0.0225449,0.0268173,-9.97986,0.0186539,-0.0056839,0.0135422,0.00671387,0.0160599,-0.00137329,0.0117111,0.00606537
40,2,10.0097,0,-0.000457764,-2.42776,0.0547655,-0.075063,0.0532125,0.0718859,-0.0934516,0.145013,-0.125766,-0.0847066,0.0121689,0.0234604,0.0157928,0.0113678,0.0154495,0.00968933,0.0215149,0.0300598,-9.97986,0.0193024,-0.00240326,0.0137329,0.0062561,0.0173187,-0.00038147,0.0159454,0.0111771
40,3,10.0097,0.00244141,0,-2.42531,0.0565965,-0.0738423,0.0538228,0.0718859,-0.0925361,0.145318,-0.126072,-0.0834859,0.0151062,0.0172043,0.0204086,0.0124741,0.0200272,0.00968933,0.0242615,0.0304031,-9.97986,0.0246429,-0.00183105,0.0172424,0.00232697,0.0190353,-0.00480652,0.0151443,0.00724792
40,4,10.0097,-0.000305176,0.000610352,-2.42531,0.0575121,-0.075063,0.0535176,0.0715807,-0.0922309,0.145624,-0.124546,-0.0816549,0.0120926,0.0218582,0.0199127,0.0100327,0.0216675,0.0112915,0.0208282,0.0273132,-9.97986,0.0203323,0.000801086,0.0128555,0.00797272,0.0146103,-0.0025177,0.0115204,0.0107193
40,5,10.0097,0.000915527,-0.000457764,-2.4244,0.0569017,-0.0723164,0.0547383,0.072191,-0.0916206,0.146234,-0.124241,-0.0813497,0.0127411,0.0219345,0.0206375,0.00995636,0.014801,0.00843048,0.0222778,0.0228882,-9.97986,0.0203323,-0.0062561,0.017662,0.00576019,0.0177002,0.00202179,0.0162125,0.0122452
40,6,10.0097,-0.000610352,-0.000915527,-2.42409,0.055681,-0.0744527,0.0544332,0.0718859,-0.0919257,0.146844,-0.123935,-0.0816549,0.0104141,0.0258255,0.0186157,0.0105667,0.0173569,0.00846863,0.0267792,0.022583,-9.97986,0.0206757,0.00160217,0.0163651,0.00617981,0.0177002,-0.000801086,0.0207138,0.00831604
