
Devices
1200
,,BP Load cell - Voltage,String Length - Voltage,Clutch Active - Voltage,#7 iPecs - Voltage,,,,,,,,,EMG 1-8 Left - Voltage,,,,,,,,Pylon Force - Voltage,EMG 9-16 Right - Voltage,,,,,,,,
Frame,Sub Frame,BP Load Cell,String Length,From Arduino Logic,A45,A135,A225,A315,S0,S90,S180,S270,ZSum,EMG 1 Glut Max,EMG 2 Glut Med,EMG 3 Biceps Femoris Long,EMG 4 Rectus Femoris,EMG 5 Vastus Medialis,EMG 6 Tib Ant,EMG 7 Med Gas,EMG 8 Soleus,Pylon volts,EMG 9 Glut Max,EMG 10 Glut Med,EMG 11 Biceps Femoris Long,EMG 12 Rectus Femoris,EMG 13 Vastus Medialis,EMG 14 Tib Ant,EMG 15 Med Gas,EMG 16 Soleus
,,V,V,V,V,V,V,V,V,V,V,V,V,V,V,V,V,V,V,V,V,V,V,V,V,V,V,V,V,V
1,0,10.0097,0.00244141,0.00473022,-2.42653,0.0569017,-0.0741475,0.0553487,0.072191,-0.0916206,0.146539,-0.124241,-0.0813497,0.0141144,0.0223541,0.0188065,0.01297,0.0105667,-0.0431442,0.0211716,0.00793457,-9.97986,0.0205612,0.0205231,0.021286,-0.236168,0.0183487,0.0141525,0.0616455,0.00652313
1,1,10.0097,0.000610352,0.00488281,-2.42501,0.0559862,-0.0738423,0.0553487,0.072191,-0.0916206,0.146234,-0.124241,-0.0798238,0.0094223,0.0216675,0.0137711,0.0128555,0.0161362,-0.0403976,0.0263214,0.0107193,-9.97986,0.0172043,0.0129318,0.028038,-0.193405,0.0231171,0.0130463,0.0608826,0.00896454
1,2,9.57051,0.00244141,0.00274658,-2.42623,0.0553758,-0.075063,0.0516866,0.0197008,-0.0977241,0.145318,-0.128513,-0.0813497,0.00595093,0.0197983,0.019455,0.0121307,0.0203323,-0.0448227,0.0271606,0.00648499,-9.97986,0.0139236,-0.00198364,0.0270462,-0.152016,0.0222397,0.00854492,0.0601196,0.0124741
1,3,0.0688651,0.00152588,0.000305176,-2.42348,0.055681,-0.075063,0.0535176,-0.00623914,-0.095893,0.147455,-0.128818,-0.0804342,-0.001297,0.0209427,0.0182724,0.0102615,0.0141907,-0.0469589,0.0275803,0.00720978,-9.97986,0.0154495,-0.00465393,0.0352859,-0.108147,0.0220871,0.00549316,0.0589752,0.0114441
1,4,-7.04265,0.0012207,-0.00167847,-2.42592,0.0553758,-0.075063,0.0522969,-0.0169203,-0.0965034,0.146539,-0.130649,-0.0810445,-0.00232697,0.0170517,0.0153351,0.00976563,0.0143814,-0.0460434,0.0263596,0.0138855,-9.97986,0.0122833,0.000267029,0.0343704,-0.0774384,0.0265884,0.0056839,0.0593948,0.0177002
1,5,-9.99003,0.000305176,0.000305176,-2.42592,0.0562914,-0.0747579,0.0550435,0.0071886,-0.0928413,0.146844,-0.128208,-0.0795187,0.00232697,0.0167465,0.0154114,0.00965118,0.0132751,-0.0457764,0.0266266,0.00843048,-9.97986,0.00774384,-0.00263214,0.030365,-0.0374603,0.0200272,0.0043869,0.0562668,0.0157547
1,6,-9.99003,-0.000915527,0.00198364,-2.42501,0.0559862,-0.0738423,0.0568746,0.0447252,-0.0900947,0.145929,-0.126987,-0.0798238,0.0118637,0.0170898,0.0147247,0.0133133,0.0157166,-0.0511169,0.036087,0.00957489,-9.97986,0.00328064,-0.00759125,0.0356674,-0.000915527,0.00499725,0.00808716,0.0563812,0.0183487
1,7,-9.99003,0.000305176,0.00305176,-2.42684,0.0553758,-0.0756734,0.0544332,0.058153,-0.0925361,0.145318,-0.126072,-0.0813497,0.0175858,0.0185394,0.0171661,0.00854492,0.0138092,-0.0514603,0.0344467,0.00682831,-9.97986,0.0094986,-0.00164032,0.0380707,0.0337219,0.00549316,0.00835419,0.0534439,0.0214005
1,8,-9.99003,0,0.00350952,-2.42623,0.0553758,-0.0753682,0.0547383,0.0639513,-0.0913154,0.143182,-0.126072,-0.0819601,0.0221252,0.0210571,0.014534,0.0104523,0.011673,-0.0548172,0.0277328,0.00900269,-9.97986,0.0141907,0.000610352,0.033493,0.0696564,0.00518799,0.00465393,0.0540543,0.0253677
1,9,-9.99003,0.00213623,0.00564575,-2.42653,0.055681,-0.0741475,0.0580953,0.125902,-0.0846015,0.144708,-0.12241,-0.0807394,0.0115585,0.0183487,0.0140762,0.00850677,0.0171661,-0.0548172,0.0282669,0.0106049,-9.97986,0.0204468,-0.0025177,0.0320435,0.107651,0.0295639,-0.00335693,0.0534439,0.0258255
2,0,-2.59044,0.0012207,0.00686646,-2.42501,0.0541551,-0.075063,0.0535176,0.168627,-0.0830757,0.144708,-0.119053,-0.0825704,0.00442505,0.0202179,0.0143433,0.00881195,0.014534,-0.0538635,0.0340652,0.0127029,-9.97986,0.0103378,0.000419617,0.0312424,0.142212,0.0320053,-0.00240326,0.0523758,0.0262451
2,1,5.46529,0.000610352,0.00854492,-2.42714,0.0541551,-0.0759786,0.0532125,0.150926,-0.0894843,0.143792,-0.118137,-0.0840963,-0.00461578,0.0188828,0.0154877,0.00839233,0.0108337,-0.0550461,0.0319672,0.0109482,-9.97986,0.0114059,-0.00415802,0.0350571,0.196114,0.0328064,-0.00236511,0.057373,0.0281525
2,2,10.0097,0.000915527,0.0088501,-2.4302,0.0535448,-0.0762837,0.050771,0.13933,-0.0931465,0.142877,-0.12302,-0.0856222,-0.0130463,0.0164032,0.0121689,0.0044632,0.0114059,-0.0562286,0.0316238,0.0164032,-9.97986,-0.00152588,-0.0100708,0.0310135,0.237236,0.0337601,-0.000572205,0.0585938,0.0288773
2,3,10.0097,0.00152588,0.0050354,-2.4305,0.0544603,-0.0775044,0.0547383,0.0956896,-0.0968086,0.143487,-0.126072,-0.0877584,-0.015831,0.0175095,0.0190353,0.00522614,0.00892639,-0.0553131,0.0284576,0.0202942,-9.97986,-0.026207,-0.00999451,0.0299454,0.27565,0.0302505,-0.00663757,0.0542831,0.0337601
2,4,10.0097,0.000915527,0.00411987,-2.4302,0.0538499,-0.0753682,0.0501607,0.0804308,-0.095893,0.142877,-0.122715,-0.0877584,-0.013504,0.0183487,0.018158,0.0123978,0.0140381,-0.0536728,0.028038,0.0253677,-9.97986,-0.0366592,-0.00812531,0.0278091,0.313187,0.0351715,-0.0037384,0.0600052,0.028801
2,5,10.0097,0.000915527,0.00320435,-2.42867,0.0544603,-0.0768941,0.0519917,0.0746324,-0.0955879,0.143792,-0.126682,-0.0859274,0.00385284,0.0178909,0.0152206,0.00183105,0.0154877,-0.0619507,0.0313187,0.0257111,-9.97986,-0.0346375,-0.00442505,0.0252533,0.3479,0.0304031,-0.00469208,0.0543976,0.0254059
2,6,10.0097,-0.0012207,0.00366211,-2.42745,0.0541551,-0.0753682,0.054128,0.0724962,-0.0937568,0.144098,-0.126072,-0.0840963,0.0130463,0.022583,0.0233841,0.00717163,0.0183868,-0.0558853,0.0311661,0.0207901,-9.97986,-0.0262451,-0.00537872,0.0253677,0.385818,0.0310135,-0.00797272,0.0491333,0.0329208
2,7,10.0097,-0.000305176,0.00350952,-2.42714,0.0550706,-0.0753682,0.0538228,0.0728014,-0.0928413,0.145013,-0.125156,-0.0844015,0.0268555,0.0231171,0.0241852,0.0114441,0.017128,-0.0564957,0.029068,0.0161743,-9.97986,-0.00976563,-0.00335693,0.0259018,0.410538,0.0325012,-0.0107956,0.053215,0.0307083
2,8,10.0097,0.000915527,0.00366211,-2.42714,0.0550706,-0.0741475,0.0535176,0.0706652,-0.0955879,0.144708,-0.125766,-0.0837911,0.0485992,0.0247955,0.0202179,0.0133514,0.0162888,-0.0584793,0.0305939,0.00522614,-9.97986,0.00953674,-0.00267029,0.0247574,0.444031,0.0391769,-0.0127792,0.049324,0.0337219
2,9,10.0097,0.0012207,0.00320435,-2.42501,0.0562914,-0.073232,0.0547383,0.0715807,-0.0928413,0.145013,-0.124241,-0.0810445,0.0366974,0.0281906,0.0288773,0.0127411,0.0158691,-0.0537109,0.0301743,-0.00114441,-9.97986,0.0211334,-0.00423431,0.0204468,0.471573,0.03479,-0.0111389,0.0522995,0.0336838
3,0,10.0097,0,0.00305176,-2.4244,0.0559862,-0.0747579,0.054128,0.0715807,-0.0913154,0.146234,-0.123935,-0.0795187,0.0056839,0.030899,0.0219727,0.0147247,0.0167847,-0.0558853,0.0255585,-0.00431061,-9.97986,0.0364685,-0.0056076,0.0162125,0.500221,0.0365448,-0.00614166,0.0462341,0.0311661
3,1,10.0097,0,0.0038147,-2.42409,0.0572069,-0.0747579,0.0553487,0.0718859,-0.0922309,0.146539,-0.124546,-0.0807394,-0.0234604,0.0281906,0.0252914,0.0113678,0.0127792,-0.0515747,0.0290298,-0.0087738,-9.97986,0.0442886,-0.00274658,0.0139618,0.539551,0.0384903,-0.00396729,0.0438309,0.0308228
3,2,9.57936,0.000305176,0.000915527,-2.42776,0.055681,-0.0738423,0.0529073,0.0187853,-0.0989448,0.145624,-0.128208,-0.0825704,-0.0283432,0.024147,0.0243378,0.0151825,0.0144196,-0.0485992,0.0268555,-0.00652313,-9.97986,0.0322342,-0.0012207,0.00873566,0.568008,0.0387573,-0.00324249,0.0439835,0.0326157
3,3,0.0914481,0.000305176,-0.00228882,-2.42592,0.0572069,-0.0729268,0.0535176,-0.00410291,-0.095893,0.14776,-0.130649,-0.0804342,0.00385284,0.0243378,0.0248718,0.0160599,0.0146484,-0.0411606,0.0308228,-0.00404358,-9.97986,0.0260162,-0.00511169,0.00297546,0.584297,0.0432968,0.00160217,0.0474548,0.0298309
3,4,-7.02922,0,-0.00213623,-2.42562,0.0565965,-0.0738423,0.0532125,-0.0163099,-0.0961982,0.145318,-0.130649,-0.0810445,0.0279236,0.0279617,0.0217438,0.0112152,0.0177383,-0.0347137,0.0275421,-0.00419617,-9.97986,0.0228119,-0.00320435,0.00499725,0.60482,0.0447845,0.000305176,0.042572,0.0312042
3,5,-9.99003,0,-0.000915527,-2.42592,0.0569017,-0.0735371,0.0562642,0.00596789,-0.0925361,0.146234,-0.129429,-0.0807394,0.01297,0.0214005,0.0215912,0.0143814,0.0217056,-0.0323486,0.0242996,-0.00293732,-9.97986,0.00904083,-0.00637054,0.00541687,0.632439,0.0376892,0.00606537,0.0457382,0.030899
3,6,-9.99003,0.0012207,0.000610352,-2.4247,0.055681,-0.0738423,0.0565694,0.0435045,-0.0897895,0.146539,-0.126072,-0.0804342,-0.0133896,0.0221634,0.0176239,0.0156784,0.0237656,-0.0251389,0.024147,-0.000686646,-9.97986,-0.0056839,-0.00358582,0.00442505,0.651207,0.021286,0.00236511,0.0454712,0.0294876
3,7,-9.99003,0.00183105,0.000152588,-2.42623,0.0547655,-0.0741475,0.0547383,0.0578478,-0.0903999,0.145624,-0.125461,-0.0810445,-0.0279236,0.0170135,0.0133514,0.0122833,0.0234985,-0.014534,0.0202942,0.00419617,-9.97986,-0.0263596,-0.00598907,-0.000610352,0.649681,0.0230408,-0.00335693,0.0428009,0.0249481
3,8,-9.99003,0.000915527,0.000457764,-2.42684,0.0553758,-0.0744527,0.0553487,0.0633409,-0.0913154,0.145318,-0.126987,-0.0822652,-0.0380707,0.0175858,0.0100708,0.0117874,0.027771,-0.00385284,0.0202179,0.00209808,-9.97986,-0.0560379,-0.00984192,-0.000343323,0.656548,0.0297165,-0.00579834,0.045166,0.0260162
3,9,-9.99003,-0.000305176,0.00335693,-2.42684,0.0550706,-0.0747579,0.0571797,0.127733,-0.0846015,0.145318,-0.122104,-0.0813497,-0.0152969,0.0180435,0.00774384,0.0128174,0.0302505,-0.000724792,0.019989,0.00904083,-9.97986,-0.0699615,-0.0117874,0.0037384,0.656204,0.0549316,-0.00904083,0.0463867,0.0283432
4,0,-0.738325,0.000610352,0.00534058,-2.42837,0.0529344,-0.0765889,0.0535176,0.1317,-0.0903999,0.143792,-0.123935,-0.085317,0.0376892,0.0143814,0.00480652,0.00701904,0.0270462,0.0149536,0.019989,0.012207,-9.97986,-0.0491333,-0.0127411,-0.00255585,0.652771,0.0536728,-0.012207,0.0429916,0.0285721
4,1,5.42226,0.0012207,0.00473022,-2.42806,0.0523241,-0.0756734,0.0538228,0.154588,-0.0876533,0.144098,-0.120884,-0.0859274,0.0709915,0.0115967,0.00659943,0.0111389,0.0300598,0.0302124,0.0239182,0.0194168,-9.97986,-0.00957489,-0.00991821,0.000495911,0.662117,0.0571823,-0.0131989,0.0452805,0.0267792
4,2,10.0097,-0.0012207,0.00350952,-2.43081,0.0535448,-0.0765889,0.0522969,0.140245,-0.0928413,0.142572,-0.123325,-0.0874532,0.0760269,0.0137711,0.00205994,0.0103378,0.0312042,0.0397873,0.017662,0.0203705,-9.97986,0.025444,-0.0127029,-0.00385284,0.654335,0.0562286,-0.0134277,0.0417328,0.0236893
4,3,10.0097,0.00152588,0.00167847,-2.43081,0.0535448,-0.0765889,0.0504659,0.0956896,-0.0986396,0.142572,-0.125461,-0.0883688,0.0592041,0.0171661,0.00423431,0.0113297,0.0311279,0.0450134,0.0181961,0.0202942,-9.97986,0.0566864,-0.0110245,-0.00602722,0.653801,0.0536728,-0.00774384,0.0413513,0.0267029
4,4,10.0097,0.000610352,0.000610352,-2.42989,0.0538499,-0.0765889,0.0495503,0.0804308,-0.0971137,0.143792,-0.126377,-0.0877584,0.03685,0.0144196,0.0025177,0.00934601,0.0318146,0.0535202,0.0183868,0.0210571,-9.97986,0.0763321,-0.0104904,-0.00579834,0.654373,0.0516129,-0.0082016,0.0402451,0.0256348
4,5,10.0097,0.0012207,-0.000915527,-2.42989,0.0544603,-0.075063,0.0516866,0.0737169,-0.0949775,0.142877,-0.127292,-0.0871481,0.032196,0.0151443,0.00350952,0.00667572,0.0335693,0.0678635,0.0198746,0.0246429,-9.97986,0.0838089,-0.0062561,-0.00587463,0.635529,0.0533295,-0.0108719,0.0393677,0.0234604
4,6,10.0097,0,0.000457764,-2.42837,0.0550706,-0.075063,0.0529073,0.0715807,-0.0931465,0.143792,-0.126377,-0.0862325,0.0218582,0.0159454,-0.00137329,0.00434875,0.0374603,0.0747299,0.0178909,0.015831,-9.97986,0.0844955,-0.00572205,-0.00267029,0.639648,0.0513458,-0.00869751,0.0350571,0.0213623
4,7,10.0097,0.000305176,0.000152588,-2.42653,0.0553758,-0.075063,0.0538228,0.072191,-0.0934516,0.144098,-0.125461,-0.085317,0.0244141,0.00598907,-0.000534058,0.0106049,0.0371933,0.0807571,0.018959,0.0119781,-9.97986,0.109215,-0.00679016,-0.00545502,0.640106,0.0533295,-0.00946045,0.0357056,0.0230789
4,8,10.0097,0,-0.000305176,-2.42653,0.0550706,-0.0756734,0.0538228,0.0712755,-0.0937568,0.145013,-0.124851,-0.0837911,0.0365067,0.0161743,-0.000686646,0.00980377,0.0385666,0.085144,0.0148773,0.0129318,-9.97986,0.125084,-0.00404358,-0.00904083,0.624237,0.0511932,-0.0107193,0.0269318,0.0205994
4,9,10.0097,0.000610352,-0.000152588,-2.42592,0.0565965,-0.0744527,0.0544332,0.072191,-0.0919257,0.146234,-0.124546,-0.0822652,0.0360489,0.0119019,0.00087738,0.00656128,0.0365067,0.0860977,0.0134277,0.0170135,-9.97986,0.123711,-0.00274658,-0.00770569,0.612488,0.0517273,-0.0130844,0.0236893,0.0226212
5,0,10.0097,0,-0.000610352,-2.4247,0.055681,-0.0744527,0.0532125,0.0724962,-0.0922309,0.146234,-0.125156,-0.0816549,0.0378418,0.0110626,0.00167847,0.0094986,0.0325012,0.0923157,0.0151443,0.0151825,-9.97986,0.119781,-0.00659943,-0.0136185,0.594788,0.0501633,-0.00789642,0.0269318,0.0236511
5,1,10.0097,-0.000305176,-0.00106812,-2.42562,0.0569017,-0.0738423,0.054128,0.0712755,-0.0922309,0.148675,-0.123325,-0.0822652,0.0262833,0.0181198,0.00377655,0.0100327,0.0345612,0.0984192,0.0134277,0.0196457,-9.97986,0.0962448,-0.00450134,-0.0125504,0.581169,0.0498199,-0.00774384,0.02388,0.0224686
5,2,9.43715,-0.000305176,-0.00411987,-2.42623,0.0559862,-0.0747579,0.0522969,0.0172594,-0.0977241,0.145013,-0.128208,-0.0834859,0.0218201,0.016098,0.00362396,0.00923157,0.0320435,0.0960922,0.00934601,0.0239182,-9.97986,0.0700378,-0.00408173,-0.0113297,0.562744,0.0468826,-0.0117874,0.0164413,0.0211334
5,3,-0.0327584,0.000305176,-0.0050354,-2.42684,0.0572069,-0.0726216,0.0538228,-0.00593396,-0.0961982,0.146234,-0.128818,-0.0807394,0.0100327,0.0201416,0.00320435,0.0102615,0.0333023,0.102997,0.00930786,0.0208664,-9.97986,0.0495529,0.000267029,-0.017662,0.56797,0.042305,-0.00911713,0.0179672,0.0227356
5,4,-7.14793,-0.000610352,-0.00411987,-2.42531,0.0572069,-0.0738423,0.0544332,-0.0190565,-0.0961982,0.147455,-0.128818,-0.0813497,-0.0100327,0.0139999,0.00396729,0.0121689,0.0349808,0.0946045,0.0128937,0.0193024,-9.97986,0.0196457,0.00347137,-0.0219727,0.569649,0.0380325,-0.0147247,0.0104523,0.0190735
5,5,-9.99003,0.000610352,-0.00549316,-2.4247,0.0572069,-0.073232,0.0550435,0.00810412,-0.0922309,0.145929,-0.128513,-0.0807394,-0.0267029,0.0208664,0.00823975,0.00640869,0.0344467,0.0961304,0.00888824,0.0232315,-9.97986,-0.000152588,-0.00244141,-0.0133514,0.533295,0.0248337,-0.00988007,0.0094986,0.0190353
5,6,-9.99003,0.000915527,-0.00427246,-2.4247,0.0565965,-0.0747579,0.0562642,0.0447252,-0.0900947,0.146844,-0.126682,-0.0816549,-0.0435257,0.0228119,0.00534058,0.0087738,0.0310516,0.0964737,0.0127411,0.0239182,-9.97986,-0.00541687,-0.000991821,-0.022316,0.495453,0.0113297,-0.0124741,0.00457764,0.0175858
5,7,-9.99003,-0.000305176,-0.00228882,-2.42592,0.0553758,-0.0747579,0.055959,0.0584581,-0.090705,0.145624,-0.124851,-0.0813497,-0.0347137,0.0206757,0.00587463,0.00389099,0.0304031,0.0892639,0.00705719,0.0218201,-9.97986,0.00148773,-0.00240326,-0.0227737,0.474243,0.0069809,-0.0138092,0.000534058,0.0173187
5,8,-9.99003,0.000610352,-0.00228882,-2.42684,0.055681,-0.0747579,0.0547383,0.065172,-0.0922309,0.144708,-0.126377,-0.0837911,-0.0188446,0.0191879,0.00511169,0.0103378,0.0283432,0.0909805,0.00675201,0.0266266,-9.97986,0.0145721,0.00404358,-0.0278854,0.453453,0.00255585,-0.00843048,-0.00583649,0.0127411
5,9,-9.99003,0.000610352,-0.000610352,-2.42562,0.0550706,-0.0747579,0.0565694,0.127123,-0.0842964,0.145624,-0.12241,-0.0828756,-0.00404358,0.0240326,0.0111008,0.00514984,0.033493,0.0896072,0.00823975,0.0256729,-9.97986,0.0189972,0.00225067,-0.0315094,0.420876,0.0239563,-0.0126648,-0.00923157,0.0149536
6,0,-2.92796,0.0012207,-0.000915527,-2.42684,0.0529344,-0.075063,0.0544332,0.143602,-0.0879585,0.145318,-0.123325,-0.085317,0.0166702,0.0246048,0.00713348,0.0122833,0.0328827,0.0849533,0.00793457,0.0310516,-9.97986,0.0207138,0.00156403,-0.0266647,0.383568,0.0210571,-0.00869751,-0.0172043,0.0139999
6,1,5.48238,0.000610352,0.000457764,-2.42867,0.0529344,-0.0768941,0.0544332,0.153673,-0.0891792,0.143792,-0.121189,-0.0868429,0.0120926,0.0236893,0.0163269,0.00743866,0.0224686,0.0886154,0.0111008,0.0304031,-9.97986,0.0201797,0.00152588,-0.032196,0.339699,0.019722,-0.0107956,-0.0189972,0.0141144
6,2,10.0097,-0.0012207,0.000762939,-2.43142,0.0529344,-0.0762837,0.0532125,0.13994,-0.0928413,0.142267,-0.12363,-0.0886739,0.0168991,0.0252151,0.0107574,0.0069809,0.026207,0.0807571,0.00759125,0.0349045,-9.97986,0.0202942,0.00507355,-0.0344467,0.304565,0.0167084,-0.00442505,-0.0212479,0.0162125
6,3,10.0097,-0.000915527,-0.00213623,-2.4302,0.0529344,-0.0759786,0.0501607,0.0950792,-0.0971137,0.141961,-0.125766,-0.0901998,0.0326538,0.0274658,0.0138855,0.00659943,0.0263977,0.0779724,0.00553131,0.0306702,-9.97986,0.0170517,0.00274658,-0.035553,0.270348,0.00770569,0.00236511,-0.0270081,0.0167465
6,4,10.0097,0.00152588,-0.00289917,-2.42959,0.055681,-0.0756734,0.0516866,0.0798204,-0.0968086,0.144403,-0.127292,-0.0883688,0.0419998,0.0311279,0.0159073,0.00923157,0.0290298,0.08358,0.00930786,0.0287628,-9.97986,0.0161743,0.00293732,-0.034523,0.238342,0.0094986,0.00160217,-0.0283051,0.015564
6,5,10.0097,0.0012207,-0.00274658,-2.42867,0.0550706,-0.0741475,0.0516866,0.0749376,-0.0949775,0.144098,-0.126682,-0.0868429,0.0623322,0.0270462,0.0159454,0.00492096,0.0233841,0.0799561,0.00923157,0.031929,-9.97986,0.0209045,-0.00133514,-0.0359344,0.212898,0.00667572,0.000991821,-0.0270844,0.019989
6,6,10.0097,0.000915527,-0.00305176,-2.42806,0.0550706,-0.0753682,0.0526021,0.0715807,-0.0931465,0.145013,-0.127598,-0.085317,0.0683212,0.0314331,0.0204849,0.0088501,0.0235367,0.0784683,0.00541687,0.025444,-9.97986,0.01297,0.00152588,-0.033493,0.190773,0.00339508,0.00217438,-0.0311661,0.0162888
6,7,10.0097,0,-0.00274658,-2.42806,0.0541551,-0.0744527,0.0532125,0.07036,-0.0952827,0.144403,-0.125156,-0.085317,0.073967,0.034256,0.0217819,0.00610352,0.0263214,0.0805283,0.00579834,0.0208664,-9.97986,0.000610352,0.000839233,-0.0365067,0.15625,0.00377655,-0.00225067,-0.0301743,0.0188065
6,8,10.0097,-0.000610352,-0.00305176,-2.42776,0.0550706,-0.0765889,0.0529073,0.0709703,-0.0931465,0.145318,-0.126377,-0.085317,0.0729752,0.0319672,0.0205231,0.0117493,0.0274277,0.0716782,0.00865936,0.0294876,-9.97986,-0.00995636,0.00183105,-0.0325775,0.118523,0.000915527,-0.0019455,-0.0342178,0.018692
6,9,10.0097,0.0012207,-0.00335693,-2.4247,0.0572069,-0.0729268,0.0550435,0.07036,-0.0925361,0.145929,-0.125461,-0.0822652,0.0597382,0.033989,0.0206757,0.0105667,0.023613,0.0696564,0.00930786,0.0275421,-9.97986,-0.0244904,0.00240326,-0.0236893,0.0801468,0.00282288,-0.00411987,-0.0356674,0.0154114
7,0,10.0097,0.00152588,-0.00305176,-2.4244,0.0565965,-0.0741475,0.0553487,0.0697496,-0.090705,0.146539,-0.124851,-0.0831808,0.0475693,0.0314331,0.0203705,0.010643,0.0239182,0.0596237,0.00553131,0.025444,-9.97986,-0.0387192,0.00396729,-0.0134659,0.0455475,-0.000228882,-0.00900269,-0.0408554,0.01297
7,1,10.0097,0.000610352,-0.0038147,-2.42592,0.0559862,-0.0738423,0.0547383,0.0706652,-0.0913154,0.146234,-0.124546,-0.0828756,0.0415039,0.0251007,0.0221634,0.012207,0.0226212,0.0600052,0.00598907,0.0252151,-9.97986,-0.0424957,0.00347137,-0.0100708,0.0113297,-0.00114441,-0.00976563,-0.0382996,0.0158691
7,2,9.45088,0,-0.0050354,-2.42653,0.0565965,-0.0747579,0.0529073,0.016649,-0.0986396,0.146234,-0.128818,-0.0840963,0.0206375,0.0312042,0.0259781,0.0138474,0.0246048,0.059166,0.00549316,0.0183105,-9.97986,-0.049057,0.00385284,-0.00587463,-0.0130081,-0.00179291,-0.0124741,-0.0337601,0.017128
7,3,-0.0626657,0.000305176,-0.00701904,-2.4244,0.0572069,-0.0729268,0.0532125,-0.00440808,-0.095893,0.146844,-0.128513,-0.0819601,-0.0127029,0.0268936,0.0241852,0.00827789,0.0230026,0.0538254,0.00278473,0.0193024,-9.97986,-0.0354767,0.00629425,-0.00789642,-0.0298691,-0.00255585,-0.0126266,-0.034523,0.0137329
7,4,-7.26664,0.00152588,-0.00686646,-2.42501,0.0572069,-0.0726216,0.054128,-0.0184462,-0.0980293,0.146539,-0.129429,-0.0822652,-0.0295639,0.0301743,0.0242615,0.0117493,0.0231552,0.0438309,0.000839233,0.0203705,-9.97986,-0.0135422,0.00392914,-0.00244141,-0.0612259,-0.00465393,-0.01091,-0.0335693,0.0105667
7,5,-9.99003,0.000305176,-0.00640869,-2.42501,0.0562914,-0.0741475,0.0556539,0.0084093,-0.0919257,0.145013,-0.129734,-0.0816549,-0.0369263,0.0285339,0.0185013,0.0107574,0.0234985,0.0278854,0.00141144,0.018692,-9.97986,-0.00743866,0.00682831,-0.00167847,-0.0970078,-0.0144196,-0.00621796,-0.0317764,0.0119019
7,6,-9.99003,0.0012207,-0.00534058,-2.4244,0.0572069,-0.0738423,0.0568746,0.0465563,-0.090705,0.145318,-0.126987,-0.0819601,-0.0457764,0.0282669,0.0234985,0.0118256,0.0193024,0.0252914,0.000457764,0.0231934,-9.97986,-0.00663757,0.00705719,-0.00156403,-0.134735,-0.0297928,-0.00213623,-0.0331879,0.00911713
7,7,-9.99003,-0.000915527,-0.00396729,-2.42684,0.0553758,-0.0738423,0.0556539,0.0584581,-0.0910102,0.144708,-0.126072,-0.0828756,-0.0602341,0.0254059,0.0182343,0.00598907,0.0177765,0.0159454,-0.00385284,0.0320435,-9.97986,0.0056839,0.00854492,-0.00953674,-0.166016,-0.031929,-0.00221252,-0.0291824,0.00705719
7,8,-9.99003,0,-0.00305176,-2.42714,0.0553758,-0.0744527,0.0544332,0.0657823,-0.0910102,0.144098,-0.126377,-0.0847066,-0.0645447,0.0246429,0.0201797,0.00911713,0.0200653,0.00923157,0.000991821,0.0323868,-9.97986,0.0173569,0.0056839,-0.00541687,-0.19062,-0.0395584,-0.00179291,-0.0314331,0.00915527
7,9,-9.99003,-0.000610352,-0.0012207,-2.42501,0.0553758,-0.0747579,0.0565694,0.130785,-0.0849067,0.144403,-0.123935,-0.0834859,-0.0494003,0.0262833,0.0189972,0.0137329,0.0221252,0.000228882,0.00228882,0.0273132,-9.97986,0.0378418,0.00789642,0.0130844,-0.2108,-0.00858307,-0.00408173,-0.0289917,0.0100327
8,0,-2.05546,0,0.00152588,-2.42714,0.0547655,-0.075063,0.0553487,0.141161,-0.0891792,0.144098,-0.122715,-0.085317,-0.0499344,0.0256729,0.0205231,0.00915527,0.015831,-0.00270844,-0.00347137,0.0286102,-9.97986,0.0399399,0.00247955,0.0302124,-0.242424,-0.021286,0.00217438,-0.0246811,0.00526428
8,1,5.56966,0.000915527,0.00137329,-2.42837,0.0538499,-0.0756734,0.0532125,0.153673,-0.0882636,0.144098,-0.120884,-0.0862325,-0.0457001,0.0220108,0.0220871,0.0117493,0.017662,-0.00640869,-0.00217438,0.0269699,-9.97986,0.0430298,0.0037384,0.0597382,-0.274124,-0.0164032,-0.000686646,-0.0265503,0.00621796
8,2,10.0097,-0.000305176,0.000762939,-2.43111,0.0535448,-0.0765889,0.0519917,0.139025,-0.0931465,0.142572,-0.12241,-0.0880636,-0.0380325,0.0203705,0.0229645,0.00556946,0.0196838,-0.0106049,-0.00610352,0.025444,-9.97986,0.0569153,0.00175476,0.0815964,-0.309563,-0.0180054,-0.00499725,-0.0215912,0.00198364
8,3,10.0097,0,-0.00198364,-2.42898,0.0535448,-0.0756734,0.0510762,0.0962999,-0.0968086,0.143487,-0.125766,-0.0886739,-0.00637054,0.0217056,0.0175858,0.0146484,0.0191498,-0.0100708,-0.00675201,0.0279999,-9.97986,0.0747299,-0.000419617,0.108185,-0.341034,-0.0239563,-0.00415802,-0.0193024,0.00198364
8,4,10.0097,0,-0.00228882,-2.42898,0.0535448,-0.0756734,0.0510762,0.0816515,-0.0961982,0.143182,-0.126987,-0.0883688,0.0365067,0.0247192,0.0200272,0.0102997,0.0157547,-0.0118256,-0.00904083,0.0257111,-9.97986,0.0795746,0.00152588,0.126877,-0.362396,-0.025177,-0.00579834,-0.0175858,-0.0044632
8,5,10.0097,0.00335693,-0.00167847,-2.42837,0.0547655,-0.0744527,0.0532125,0.0746324,-0.0946723,0.143792,-0.127292,-0.0865377,0.0487137,0.0204849,0.0204086,0.0137711,0.0209808,-0.00835419,-0.00888824,0.0302887,-9.97986,0.0673294,0.00152588,0.142174,-0.379753,-0.022583,-0.00347137,-0.015831,0.000495911
8,6,10.0097,-0.000610352,-0.00106812,-2.42653,0.055681,-0.0741475,0.0538228,0.0724962,-0.0937568,0.143182,-0.125766,-0.0856222,0.0440598,0.0217438,0.0218201,0.012207,0.0187683,-0.00843048,-0.0114059,0.0253677,-9.97986,0.0446701,0.000648499,0.140228,-0.398865,-0.0292969,-0.00156403,-0.0130081,-0.0031662
8,7,10.0097,0.000915527,-0.00274658,-2.42623,0.0541551,-0.0747579,0.0535176,0.0700548,-0.0934516,0.144403,-0.126072,-0.0856222,0.0348282,0.018959,0.018158,0.0103378,0.0240707,-0.00904083,-0.00827789,0.0239563,-9.97986,0.0287628,-0.0018692,0.135841,-0.426254,-0.0289536,0.00038147,-0.00572205,-0.00419617
8,8,10.0097,-0.0012207,-0.00274658,-2.42684,0.0541551,-0.075063,0.0529073,0.0706652,-0.0937568,0.144708,-0.125766,-0.0856222,0.0281143,0.018158,0.0200272,0.0128555,0.0263977,-0.0138855,-0.0107574,0.0307083,-9.97986,0.00915527,-0.00469208,0.130119,-0.461044,-0.0342178,-0.00102997,-0.00728607,-0.00598907
8,9,10.0097,0.00152588,-0.00289917,-2.42531,0.0581224,-0.0738423,0.0550435,0.0715807,-0.0900947,0.145624,-0.123935,-0.0828756,0.0297928,0.0206757,0.0178528,0.0136948,0.0351715,-0.0202179,-0.0125885,0.0300217,-9.97986,-0.00637054,-0.00171661,0.116768,-0.495529,-0.0382996,-0.00225067,-0.00465393,-0.014534
9,0,10.0097,0.00183105,-0.00350952,-2.42531,0.0565965,-0.0744527,0.0544332,0.0697496,-0.0913154,0.146234,-0.12363,-0.0819601,0.0320053,0.0235367,0.0195313,0.0134659,0.0395203,-0.0253296,-0.0088501,0.0305557,-9.97986,-0.0203705,-0.00587463,0.110703,-0.517349,-0.0382614,-0.00293732,0.00183105,-0.0217819
9,1,10.0097,0.00244141,-0.00228882,-2.42592,0.0559862,-0.0738423,0.054128,0.07036,-0.0919257,0.145929,-0.124241,-0.0822652,0.0170517,0.0217438,0.0205994,0.0111389,0.0407028,-0.0252533,-0.00728607,0.0294495,-9.97986,-0.0239944,-0.00282288,0.104446,-0.542831,-0.0413132,-0.00244141,0.00350952,-0.0299835
9,2,9.52352,-0.000305176,-0.00457764,-2.42837,0.0569017,-0.0759786,0.0513814,0.0181749,-0.0989448,0.145624,-0.127598,-0.0837911,-0.00637054,0.0191879,0.0227356,0.0125885,0.0450516,-0.0223541,-0.00694275,0.0274277,-9.97986,-0.0234604,-0.00801086,0.0938797,-0.564575,-0.0432205,-0.00556946,0.0094223,-0.0365448
9,3,-0.12248,0.000610352,-0.00671387,-2.42531,0.0581224,-0.073232,0.0547383,-0.00532361,-0.095893,0.146234,-0.129123,-0.0828756,-0.013504,0.0214005,0.0250626,0.0138092,0.0511551,-0.021019,-0.0107574,0.0271606,-9.97986,-0.0133514,-0.00301361,0.0794601,-0.588913,-0.0445938,-0.00320435,0.00995636,-0.0371933
9,4,-7.23552,0.000305176,-0.00701904,-2.42379,0.0569017,-0.0729268,0.0538228,-0.0169203,-0.0968086,0.146844,-0.130649,-0.0816549,-0.0069809,0.0259781,0.0270462,0.0138474,0.0502396,-0.0247192,-0.0109863,0.028038,-9.97986,-0.00518799,-0.00495911,0.0688553,-0.604858,-0.0469971,-0.00530243,0.0127029,-0.0394821
9,5,-9.99003,0,-0.00549316,-2.42409,0.0559862,-0.0744527,0.0562642,0.00810412,-0.0928413,0.147149,-0.128513,-0.0813497,0.0031662,0.0226212,0.0273132,0.0122833,0.0530624,-0.0249481,-0.0104523,0.0304413,-9.97986,0.00270844,-0.00652313,0.0503159,-0.631943,-0.0619507,-0.000152588,0.0119019,-0.0387955
9,6,-9.99003,0,-0.0050354,-2.4244,0.0562914,-0.0729268,0.0553487,0.0453356,-0.0897895,0.146234,-0.126377,-0.0807394,-0.00038147,0.0244141,0.0256348,0.00846863,0.0547028,-0.0227737,-0.0128555,0.0315094,-9.97986,0.0158691,-0.00125885,0.045166,-0.660324,-0.0757599,0.00980377,0.0138092,-0.0385284
9,7,-9.99003,0,-0.00366211,-2.4244,0.055681,-0.073232,0.0544332,0.0596788,-0.0913154,0.146234,-0.126377,-0.0828756,0.00106812,0.0260162,0.0196457,0.0133896,0.0588989,-0.0260544,-0.0106812,0.0249863,-9.97986,0.020752,-0.00675201,0.0252151,-0.694885,-0.0753021,0.0101471,0.01297,-0.0388336
9,8,-9.99003,0.000915527,-0.00335693,-2.42653,0.0544603,-0.075063,0.0529073,0.0645616,-0.0928413,0.145624,-0.125461,-0.0840963,0.0117874,0.0246429,0.0255203,0.0102234,0.05867,-0.0162888,-0.0144196,0.0273132,-9.97986,0.030899,-0.00488281,0.0111389,-0.726624,-0.0776291,0.00686646,0.0130081,-0.0334167
9,9,-9.99003,0.00244141,-0.00152588,-2.42653,0.0541551,-0.0756734,0.0550435,0.126207,-0.0861274,0.145318,-0.122104,-0.0834859,0.0208664,0.0247574,0.0285339,0.0114441,0.0581741,-0.0194168,-0.0114441,0.0292206,-9.97986,0.028801,-0.0114822,0.000114441,-0.756302,-0.0511551,0.00354767,0.0133133,-0.0331497
10,0,-2.2404,0.00244141,0.000305176,-2.4302,0.0541551,-0.075063,0.0535176,0.144518,-0.0879585,0.144403,-0.121494,-0.085317,0.0356293,0.0242233,0.028801,0.0107574,0.0617981,-0.0152588,-0.0104141,0.0296783,-9.97986,0.0259781,-0.0127411,-0.0105667,-0.786476,-0.0462341,0.00411987,0.0104904,-0.0304794
10,1,5.88887,0,0.00228882,-2.42745,0.0535448,-0.075063,0.054128,0.152452,-0.088874,0.142877,-0.121189,-0.085317,0.0502777,0.0257874,0.0291443,0.0123215,0.0567245,-0.0193787,-0.00595093,0.0310516,-9.97986,0.0147247,-0.00682831,-0.0179291,-0.798912,-0.0400925,0.00526428,0.00587463,-0.0272751
10,2,10.0097,-0.000305176,0.00244141,-2.43081,0.0532396,-0.0775044,0.0519917,0.135973,-0.094062,0.143487,-0.12302,-0.0898946,0.0448227,0.028038,0.0304794,0.0127411,0.0563049,-0.022316,-0.00602722,0.0226593,-9.97986,0.00862122,-0.0114059,-0.0286102,-0.803452,-0.0363922,0.0133514,0.00751495,-0.0247192
10,3,10.0097,0.000610352,0.0012207,-2.43172,0.0529344,-0.0765889,0.0504659,0.0938585,-0.0977241,0.144098,-0.126377,-0.0883688,0.031929,0.0280762,0.0299835,0.0168228,0.0633621,-0.0200272,-0.00240326,0.0224686,-9.97986,0.00244141,-0.0168228,-0.0328827,-0.799026,-0.0330734,0.0193024,0.00377655,-0.0205994
10,4,10.0097,0,0,-2.42989,0.0553758,-0.0759786,0.0504659,0.0779894,-0.0965034,0.142877,-0.127292,-0.0877584,0.0167847,0.0249481,0.0307465,0.012207,0.0545502,-0.0254822,-0.00411987,0.0167847,-9.97986,-0.00190735,-0.0162125,-0.0428772,-0.792809,-0.0278091,0.0170135,-0.00038147,-0.0217438
10,5,10.0097,0.00213623,0.000305176,-2.42959,0.0553758,-0.075063,0.0529073,0.0749376,-0.0946723,0.144403,-0.126987,-0.0877584,0.00705719,0.0254059,0.029068,0.0118637,0.0554657,-0.019722,0.000495911,0.0155258,-9.97986,-0.000724792,-0.0102234,-0.0428009,-0.787468,-0.0222778,0.0153732,-0.00247955,-0.0196075
10,6,10.0097,0.000305176,0.000305176,-2.42714,0.0532396,-0.0744527,0.0535176,0.0718859,-0.0946723,0.144403,-0.126377,-0.085317,0.0116348,0.0266266,0.0328445,0.0125504,0.0577545,-0.0234222,0.0018692,0.0136948,-9.97986,-0.00377655,-0.00843048,-0.0496674,-0.778618,-0.0170898,0.0214386,0.00312805,-0.0183105
10,7,10.0097,-0.000610352,0.000915527,-2.42684,0.0547655,-0.0744527,0.0535176,0.0728014,-0.0928413,0.145013,-0.125156,-0.0844015,0.00827789,0.0279236,0.0317383,0.00980377,0.0519562,-0.0212097,0.00247955,0.011673,-9.97986,-0.00728607,-0.0063324,-0.0535583,-0.760727,-0.00652313,0.0299835,0.000648499,-0.0188446
10,8,10.0097,0.000305176,0.00152588,-2.42653,0.055681,-0.0741475,0.0532125,0.07036,-0.0928413,0.145013,-0.126987,-0.0822652,-0.00087738,0.0212097,0.0230408,0.00736237,0.0519943,-0.0224686,0.0069809,0.0100708,-9.97986,-0.0113297,-0.0164795,-0.0641632,-0.754051,-0.00892639,0.0226212,-0.0104904,-0.0203705
10,9,10.0097,0.00274658,0.00167847,-2.4247,0.0565965,-0.0744527,0.0532125,0.07036,-0.0919257,0.145929,-0.125461,-0.0816549,0.0112534,0.0219727,0.0279236,0.0115967,0.048027,-0.0151062,0.0173187,0.0209045,-9.97986,-0.0019455,-0.013237,-0.0569534,-0.732498,-0.000534058,0.0235367,-0.0125504,-0.0101852
11,0,10.0097,0.000610352,0.00167847,-2.42501,0.0572069,-0.0744527,0.0553487,0.0731066,-0.0919257,0.146539,-0.124851,-0.080129,0.0266647,0.0161362,0.0255203,0.010643,0.043335,-0.0196838,0.018158,0.0175476,-9.97986,-0.0162125,-0.016098,-0.0722122,-0.710983,0.00164032,0.017128,-0.0155258,-0.0165176
11,1,10.0097,0,0.00274658,-2.42562,0.0559862,-0.0744527,0.0535176,0.0706652,-0.0922309,0.146539,-0.125156,-0.0807394,0.0236511,0.0165176,0.0258636,0.0162888,0.0415039,-0.0162888,0.0268936,0.0207901,-9.97986,-0.0295258,-0.0094223,-0.0717926,-0.678215,0.00450134,0.0153351,-0.0149918,-0.0094986
11,2,9.52504,0.000610352,0.000305176,-2.42928,0.0565965,-0.0741475,0.0510762,0.0175646,-0.0980293,0.146539,-0.128513,-0.0822652,0.0121689,0.0183487,0.0195313,0.0128555,0.041008,-0.0156021,0.0298309,0.0182343,-9.97986,-0.0317383,-0.0088501,-0.0798798,-0.640984,0.0119781,0.0146484,-0.0202942,-0.0101089
11,3,-0.0947091,0.000305176,-0.00167847,-2.42592,0.0575121,-0.0741475,0.055959,-0.00410291,-0.0949775,0.14776,-0.129429,-0.0804342,0.013504,0.0131607,0.0189209,0.0120544,0.0336075,-0.016098,0.0357819,0.015564,-9.97986,-0.0432587,-0.00888824,-0.0778198,-0.608482,0.0175095,0.0153351,-0.0210571,-0.00663757
11,4,-7.26329,0,-0.00167847,-2.42592,0.0572069,-0.0738423,0.0538228,-0.0153944,-0.095893,0.147149,-0.129734,-0.0798238,0.0136948,0.0163269,0.0230789,0.00988007,0.0362778,-0.0163651,0.0430679,0.018692,-9.97986,-0.0281143,-0.0120163,-0.0785065,-0.573082,0.0191116,0.0115585,-0.0246048,-0.00667572
11,5,-9.99003,0.000305176,0.000610352,-2.42531,0.0565965,-0.0735371,0.055959,0.0084093,-0.0931465,0.146844,-0.128208,-0.0798238,0.017128,0.0166321,0.0232315,0.0136948,0.0263596,-0.015831,0.0544739,0.013504,-9.97986,-0.000724792,-0.013237,-0.0834274,-0.527191,0.0143433,0.00354767,-0.0234222,-0.00556946
11,6,-9.99003,0.000305176,0.00335693,-2.42501,0.055681,-0.0741475,0.0556539,0.0468614,-0.0891792,0.145929,-0.126987,-0.0804342,0.0108337,0.0189972,0.0215149,0.012207,0.022049,-0.0149536,0.0615311,0.017662,-9.97986,0.0203705,-0.00724792,-0.0829315,-0.479355,0.00774384,-0.00102997,-0.025444,-0.00812531
11,7,-9.99003,-0.000915527,0.00350952,-2.42592,0.0550706,-0.075063,0.0544332,0.0596788,-0.0916206,0.146234,-0.125766,-0.0786031,0.0116348,0.0182724,0.0266266,0.0152588,0.0177765,-0.0149918,0.0691605,0.018425,-9.97986,0.0433731,-0.0171661,-0.0878143,-0.436668,0.0149918,-0.00854492,-0.0284576,-0.00358582
11,8,-9.99003,0.000305176,0.00473022,-2.42653,0.0550706,-0.0744527,0.0550435,0.0666979,-0.0928413,0.145013,-0.125766,-0.0822652,-0.000724792,0.0187302,0.0238419,0.013237,0.0106812,-0.019722,0.0700378,0.0122833,-9.97986,0.049324,-0.0215149,-0.076828,-0.394554,0.0226212,-0.00991821,-0.0289536,-0.010643
11,9,-9.71538,0.000610352,0.00686646,-2.42592,0.0541551,-0.073232,0.0574849,0.123461,-0.0858222,0.145318,-0.121494,-0.0810445,-0.00579834,0.0165176,0.0245285,0.0145721,0.00236511,-0.0234985,0.0790024,0.0138092,-9.97986,0.0477982,-0.022049,-0.0844955,-0.337753,0.0506973,-0.0019455,-0.0258636,-0.00865936
12,0,-2.26024,0.000305176,0.0088501,-2.42867,0.0529344,-0.0759786,0.0556539,0.142381,-0.088874,0.145624,-0.121494,-0.0831808,-0.00919342,0.0187683,0.0289536,0.0174713,0.00514984,-0.0216293,0.0855255,0.0156403,-9.97986,0.0378418,-0.017128,-0.0819016,-0.267296,0.0584412,-0.00720978,-0.0264359,-0.00896454
12,1,5.64138,0.0012207,0.0106812,-2.42684,0.0532396,-0.0759786,0.0535176,0.153673,-0.0885688,0.144708,-0.121494,-0.0834859,-0.00289917,0.0167847,0.0217056,0.017662,-0.00450134,-0.0303268,0.0834656,0.0113297,-9.97986,0.0345993,-0.0162506,-0.0790787,-0.198441,0.0643158,-0.00965118,-0.0271606,-0.00957489
12,2,10.0097,0,0.0112915,-2.42898,0.0541551,-0.0765889,0.0516866,0.135362,-0.0934516,0.142572,-0.12241,-0.0865377,0.000724792,0.0125504,0.0231934,0.0149536,-0.00522614,-0.0337601,0.0908279,0.00938416,-9.97986,0.0311661,-0.0185394,-0.0780869,-0.119896,0.0725937,-0.00221252,-0.0259018,-0.0112915
12,3,10.0097,-0.00183105,0.00869751,-2.4305,0.0541551,-0.0756734,0.0501607,0.0950792,-0.0968086,0.144098,-0.126682,-0.0862325,0.00400543,0.0139999,0.022049,0.0144958,-0.010376,-0.0407028,0.0860596,0.0056839,-9.97986,0.019722,-0.0186539,-0.0716782,-0.0458527,0.0754929,0.00614166,-0.0238037,-0.0168228
12,4,10.0097,0.00274658,0.00793457,-2.4302,0.0535448,-0.0765889,0.0513814,0.0801256,-0.095893,0.142572,-0.125766,-0.0862325,0.00396729,0.0133133,0.0241852,0.0151443,-0.0170135,-0.0424194,0.0801086,0.00411987,-9.97986,0.0154114,-0.0155258,-0.0763702,0.0368118,0.0785446,0.00370026,-0.0230026,-0.0125122
12,5,10.0097,-0.000915527,0.00823975,-2.42867,0.0547655,-0.0756734,0.0522969,0.0749376,-0.0955879,0.142267,-0.126682,-0.0834859,0.0182724,0.014801,0.0257874,0.0159073,-0.0202942,-0.0418091,0.0734329,0.00667572,-9.97986,0.00957489,-0.0175095,-0.0732803,0.126839,0.0757217,-0.00205994,-0.0183868,-0.0118256
12,6,10.0097,0.0012207,0.00762939,-2.42806,0.0547655,-0.075063,0.0522969,0.0724962,-0.0934516,0.144098,-0.126682,-0.0831808,0.0263214,0.0126648,0.0232315,0.0187683,-0.0197983,-0.0419998,0.074234,0.00991821,-9.97986,0.0157547,-0.0176239,-0.0666428,0.196457,0.0754166,-0.0136566,-0.0167084,-0.013237
12,7,10.0097,0.000915527,0.00671387,-2.42623,0.0544603,-0.0747579,0.0544332,0.0706652,-0.0943672,0.144403,-0.125461,-0.0822652,0.0264359,0.0104523,0.0234604,0.0173187,-0.0232315,-0.0384521,0.0675583,0.00812531,-9.97986,0.0195694,-0.0130081,-0.0614166,0.262489,0.0714874,-0.0115967,-0.00961304,-0.0127411
12,8,10.0097,0.000610352,0.00610352,-2.42562,0.0553758,-0.0738423,0.054128,0.0712755,-0.0937568,0.144708,-0.126072,-0.0828756,0.0162506,0.0106049,0.0217056,0.0146103,-0.0266266,-0.0424957,0.0628281,0.0110245,-9.97986,0.0291061,-0.0141525,-0.0585938,0.315361,0.0656128,-0.0143433,-0.00923157,-0.0131989
12,9,10.0097,0.000610352,0.00564575,-2.42684,0.0569017,-0.0741475,0.0535176,0.0709703,-0.090705,0.146234,-0.124546,-0.0807394,0.0106049,0.00926971,0.0234222,0.0156403,-0.0304794,-0.0387573,0.0520706,0.01091,-9.97986,0.0326157,-0.0172806,-0.0540543,0.36911,0.0626373,-0.0189209,-0.00850677,-0.00999451
13,0,10.0097,0,0.00473022,-2.42379,0.0553758,-0.0735371,0.055959,0.0715807,-0.0916206,0.146844,-0.124851,-0.0795187,0.00347137,0.0168991,0.0255966,0.0179672,-0.0344086,-0.0317001,0.0561523,0.0113678,-9.97986,0.0354767,-0.0131226,-0.0527191,0.414467,0.0564575,-0.0208282,-0.00644684,-0.00995636
13,1,10.0097,0.00152588,0.00473022,-2.42562,0.0559862,-0.0747579,0.054128,0.07036,-0.0928413,0.145624,-0.124241,-0.0792135,-0.000152588,0.012207,0.0205231,0.014267,-0.0423813,-0.0291061,0.0505829,0.0130081,-9.97986,0.0340271,-0.0159836,-0.0527191,0.459099,0.0519562,-0.0153351,-0.00644684,-0.00812531
13,2,9.53511,-0.000305176,0.00198364,-2.42714,0.0569017,-0.075063,0.0516866,0.016649,-0.0983344,0.145318,-0.128513,-0.0813497,0.0117493,0.013504,0.0205612,0.017662,-0.045433,-0.0218201,0.044136,0.0133514,-9.97986,0.0423813,-0.00896454,-0.0481415,0.499039,0.0508118,-0.0120544,-0.0112534,-0.0111771
13,3,-0.025129,0.00183105,-0.000610352,-2.42806,0.0565965,-0.0735371,0.0535176,-0.00440808,-0.095893,0.146844,-0.129429,-0.0810445,0.01297,0.0173187,0.0230026,0.0125504,-0.0468063,-0.0148392,0.0478745,0.0113678,-9.97986,0.0445938,-0.0113678,-0.0424194,0.530853,0.0394058,-0.0037384,-0.0104904,-0.00724792
13,4,-7.15159,0.00183105,-0.00183105,-2.42562,0.0565965,-0.073232,0.0544332,-0.0172255,-0.0961982,0.146539,-0.129123,-0.0816549,0.0123215,0.0179291,0.0249481,0.0186539,-0.0535965,-0.00610352,0.0403976,0.011673,-9.97986,0.0392532,-0.00911713,-0.0373459,0.545158,0.0392151,-3.8147e-005,-0.0167465,-0.0043869
13,5,-9.99003,0.0012207,-0.00106812,-2.42562,0.0562914,-0.0735371,0.0550435,0.00871447,-0.0922309,0.146234,-0.128818,-0.080129,0.0168991,0.0202942,0.0263977,0.0194168,-0.0510406,0.0019455,0.0369644,0.00656128,-9.97986,0.0287628,-0.00965118,-0.0365448,0.565071,0.0246429,-0.00377655,-0.0193024,-0.00404358
13,6,-9.99003,0,0.000457764,-2.42409,0.0562914,-0.0741475,0.0565694,0.0447252,-0.0897895,0.144098,-0.126377,-0.080129,0.0118256,0.0183105,0.0233459,0.0179672,-0.0612259,0.00930786,0.029335,0.00236511,-9.97986,0.0212097,-0.0108337,-0.0326157,0.576553,0.00144958,-0.010376,-0.0274277,-0.0019455
13,7,-9.99003,0.000915527,0.0012207,-2.42623,0.0550706,-0.0753682,0.0544332,0.0557115,-0.0897895,0.145624,-0.126682,-0.0819601,0.00823975,0.0196838,0.0244522,0.0187302,-0.0619125,0.0117874,0.0276947,0.000495911,-9.97986,0.0214005,-0.0106049,-0.0292587,0.591316,-0.00427246,-0.0186157,-0.0297165,-0.00133514
13,8,-9.99003,0.000610352,0.00167847,-2.42776,0.055681,-0.0735371,0.054128,0.0657823,-0.0919257,0.145929,-0.125766,-0.0828756,0.00984192,0.0199127,0.0224686,0.0182343,-0.0588226,0.0128555,0.0265121,0.0094986,-9.97986,0.0164032,-0.00999451,-0.0276184,0.601387,-0.0108337,-0.0202942,-0.0297546,0.00419617
13,9,-9.99003,0.0012207,0.00289917,-2.42562,0.0544603,-0.0747579,0.0565694,0.123766,-0.0849067,0.145624,-0.122715,-0.0816549,0.0147247,0.0179672,0.0263977,0.0172043,-0.0609589,0.0180817,0.0218201,0.0112152,-9.97986,0.0247955,-0.00827789,-0.0258255,0.605354,0.00915527,-0.0205612,-0.0288773,0.00591278
14,0,-2.12321,-0.000915527,0.00427246,-2.42776,0.0538499,-0.0759786,0.0535176,0.143907,-0.0885688,0.144403,-0.121494,-0.0840963,0.0108337,0.0224304,0.0208282,0.0162506,-0.0589371,0.0100327,0.0205231,0.00801086,-9.97986,0.0259018,-0.00923157,-0.0215912,0.613098,-0.000724792,-0.0177383,-0.029068,0.00812531
14,1,5.82479,0.00152588,0.00549316,-2.42898,0.0532396,-0.0759786,0.054128,0.154588,-0.0894843,0.143792,-0.121189,-0.0865377,0.0130844,0.0213242,0.0269699,0.0194168,-0.0595093,0.00812531,0.0201035,0.00858307,-9.97986,0.0276184,-0.00926971,-0.0123215,0.623283,-0.000419617,-0.0141907,-0.0267029,0.0082016
14,2,10.0097,-0.000610352,0.0050354,-2.42745,0.0532396,-0.0756734,0.0519917,0.136888,-0.0934516,0.142877,-0.123325,-0.0880636,0.00640869,0.0207901,0.0211716,0.0165176,-0.0627518,-0.00118256,0.0129318,0.00694275,-9.97986,0.0310516,-0.00480652,-0.00164032,0.626335,-0.00587463,-0.00732422,-0.0248718,0.0166702
14,3,10.0097,-0.000305176,0.00152588,-2.4302,0.0529344,-0.0765889,0.050771,0.0941637,-0.0986396,0.142572,-0.126377,-0.0880636,0.0118256,0.0197601,0.0196075,0.0175095,-0.0630569,-0.00183105,0.0139618,0.00682831,-9.97986,0.0360489,-0.00720978,0.00350952,0.616493,-0.0178528,-0.00869751,-0.0297165,0.0167465
14,4,10.0097,0.000305176,-0.000457764,-2.42989,0.0541551,-0.0762837,0.050771,0.0792101,-0.0983344,0.143487,-0.126377,-0.0883688,0.00892639,0.0206375,0.0253677,0.0131989,-0.0551987,-0.00598907,0.0160217,0.00797272,-9.97986,0.0270081,-0.00366211,0.0137711,0.607262,-0.0191879,-0.00957489,-0.0286865,0.017395
14,5,10.0097,0.000610352,-0.00106812,-2.42837,0.0550706,-0.0744527,0.0522969,0.0743273,-0.0952827,0.144098,-0.126072,-0.0874532,0.0114822,0.0222397,0.0232697,0.0169754,-0.055275,-0.000267029,0.0143814,0.00862122,-9.97986,0.0164032,-0.00530243,0.0249863,0.587196,-0.026474,-0.00968933,-0.022583,0.022583
14,6,10.0097,0,-0.000915527,-2.42745,0.0559862,-0.075063,0.0529073,0.0724962,-0.094062,0.144708,-0.126987,-0.0844015,0.0252533,0.0185394,0.0178909,0.0152588,-0.0498962,-0.000915527,0.0236511,0.00968933,-9.97986,0.0106812,-0.00511169,0.0385666,0.570221,-0.0244904,-0.0111771,-0.0162888,0.0204468
14,7,10.0097,0.000915527,-0.00167847,-2.42562,0.0547655,-0.075063,0.0538228,0.0712755,-0.0925361,0.143487,-0.126377,-0.0862325,0.0252533,0.0205612,0.0222015,0.0141144,-0.0489426,0.00995636,0.0246048,0.00865936,-9.97986,0.0159454,-0.00354767,0.0469208,0.545769,-0.0268173,-0.0108719,-0.00709534,0.0221252
14,8,10.0097,-0.0012207,-0.00259399,-2.4247,0.0559862,-0.0744527,0.0522969,0.0712755,-0.0928413,0.144403,-0.124851,-0.0840963,0.0130463,0.0212479,0.021019,0.0149918,-0.0452042,0.00457764,0.0208664,0.0152206,-9.97986,0.010643,-0.00244141,0.0576401,0.506287,-0.0293732,-0.0162506,0.000572205,0.0257111
14,9,10.0097,0.000915527,-0.000915527,-2.42592,0.055681,-0.0747579,0.054128,0.0728014,-0.0913154,0.146234,-0.124851,-0.0819601,0.00198364,0.0243759,0.0200272,0.0147247,-0.042572,0.00835419,0.0215912,0.00808716,-9.97986,0.0185776,0.00148773,0.0690079,0.515175,-0.0359726,-0.0177002,0.0038147,0.0265503
15,0,10.0097,-0.0012207,0.00274658,-2.42501,0.0562914,-0.0741475,0.055959,0.0728014,-0.0910102,0.146234,-0.124241,-0.0798238,0.0152588,0.019989,0.0252914,0.017128,-0.0366211,0.0107193,0.0212097,0.00671387,-9.97986,0.022316,-0.00225067,0.079155,0.568275,-0.0349808,-0.00774384,0.0133514,0.0291824
15,1,10.0097,0.000610352,0.00366211,-2.42562,0.0553758,-0.0753682,0.0553487,0.0676134,-0.0913154,0.146234,-0.125156,-0.080129,0.00923157,0.0214005,0.0199127,0.0138855,-0.0336838,0.0117111,0.0209427,0.0116348,-9.97986,0.0124359,0.000915527,0.0867844,0.607109,-0.0347519,0.000343323,0.0314331,0.0296783
15,2,9.32302,-0.000915527,0.0012207,-2.42745,0.0562914,-0.0744527,0.0529073,0.0163439,-0.0980293,0.145624,-0.128513,-0.0825704,0.0125885,0.025177,0.0193787,0.0123215,-0.0294113,0.017662,0.0160599,0.00988007,-9.97986,0.0124359,0.0031662,0.0973129,0.638199,-0.0321579,-0.0025177,0.0366974,0.0318909
15,3,-0.310163,0,-0.0012207,-2.4247,0.0569017,-0.0738423,0.0538228,-0.00593396,-0.0965034,0.147455,-0.129123,-0.0810445,0.00621796,0.0225067,0.0188446,0.0110626,-0.0222015,0.0247192,0.0168991,0.0129318,-9.97986,0.00659943,0.00473022,0.102463,0.676918,-0.0334167,-0.00305176,0.0506973,0.0371552
15,4,-7.46501,0.000915527,0.000152588,-2.42501,0.0559862,-0.0738423,0.0538228,-0.0178358,-0.095893,0.146234,-0.130344,-0.080129,0.00713348,0.0202942,0.0199127,0.0122452,-0.0197601,0.0317001,0.0151825,0.0128937,-9.97986,-0.00434875,0.00629425,0.0996017,0.722771,-0.0344086,-0.00286102,0.0680542,0.0359344
15,5,-9.99003,-0.000305176,0.000610352,-2.4247,0.0562914,-0.0744527,0.0556539,0.0084093,-0.0913154,0.145624,-0.129429,-0.0807394,0.0112915,0.0239182,0.0187683,0.0165176,-0.0147247,0.0278473,0.0184631,0.00431061,-9.97986,-0.00797272,0.00312805,0.101242,0.757446,-0.0418091,0.000839233,0.0821304,0.0403214
15,6,-9.99003,0.000610352,0.000762939,-2.42592,0.0550706,-0.0741475,0.0553487,0.0456407,-0.0903999,0.146539,-0.126072,-0.0813497,0.0143814,0.0215149,0.0235367,0.0107574,-0.0121307,0.0343323,0.0146103,0.00892639,-9.97986,-0.00888824,0.001297,0.0854492,0.755119,-0.0495148,0.00518799,0.0883865,0.0346375
15,7,-9.99003,0.000305176,-0.000152588,-2.42684,0.0562914,-0.0741475,0.0547383,0.0584581,-0.088874,0.145624,-0.126682,-0.0819601,0.0242996,0.0206375,0.024147,0.0119781,-0.0019455,0.0378418,0.0149155,0.00953674,-9.97986,-0.00846863,-0.00389099,0.0794601,0.751877,-0.0523758,0.000610352,0.105515,0.0371933
15,8,-9.99003,0.0012207,0,-2.42592,0.0538499,-0.075063,0.0547383,0.087755,-0.0882636,0.146234,-0.124241,-0.0813497,0.0206375,0.0214005,0.0204849,0.0172806,0.00282288,0.0385666,0.0128174,0.00801086,-9.97986,-0.00473022,0.00835419,0.0659943,0.751152,-0.0355911,-0.00335693,0.113068,0.0403595
15,9,-9.99003,0.00152588,0.000305176,-2.42531,0.0553758,-0.0735371,0.0574849,0.125902,-0.0852119,0.145318,-0.12241,-0.0831808,0.014534,0.0201035,0.0214386,0.0170898,0.00522614,0.041008,0.0108719,0.00411987,-9.97986,0.00114441,0.00286102,0.0656128,0.720787,-0.0234604,-0.00648499,0.129166,0.0387192
16,0,-2.2697,0.00213623,-0.000762939,-2.42837,0.0544603,-0.0756734,0.0538228,0.143907,-0.0876533,0.143487,-0.121494,-0.0859274,0.00610352,0.0215149,0.0214005,0.0136185,0.0094986,0.043602,0.0157928,0.00541687,-9.97986,0.00396729,0.00518799,0.0606155,0.654297,-0.0208664,0.0037384,0.140114,0.040741
16,1,5.61025,-0.000610352,-0.00137329,-2.42745,0.0526292,-0.0759786,0.0526021,0.154894,-0.0894843,0.144098,-0.12241,-0.0871481,-0.00812531,0.0196838,0.0223923,0.0128555,0.0130081,0.045929,0.0177765,0.00659943,-9.97986,0.0130844,-0.000572205,0.0565338,0.592995,-0.0224686,0.0111771,0.148964,0.0408936
16,2,10.0097,0.00183105,-0.00244141,-2.42959,0.0526292,-0.0771993,0.0519917,0.13994,-0.0937568,0.143792,-0.124241,-0.0886739,-0.019455,0.024147,0.0254059,0.014267,0.0137329,0.0398254,0.0173569,0.00591278,-9.97986,0.0220871,0.00171661,0.0583649,0.522957,-0.0175476,0.0130463,0.155411,0.0456238
16,3,10.0097,0.00152588,-0.00656128,-2.4302,0.0541551,-0.0756734,0.050771,0.094774,-0.0974189,0.143792,-0.126987,-0.0908102,-0.0243759,0.0205994,0.0259399,0.0124741,0.014801,0.0485611,0.0212097,0.00778198,-9.97986,0.0331879,0.000801086,0.0589371,0.44239,-0.0148773,0.00675201,0.167198,0.0440216
16,4,10.0097,0.000305176,-0.00701904,-2.42959,0.0547655,-0.0759786,0.0504659,0.080736,-0.095893,0.141961,-0.126377,-0.0895895,-0.0288773,0.0230789,0.0175476,0.0107574,0.0226593,0.0515747,0.0225449,0.0114059,-9.97986,0.0381851,0.00179291,0.0552368,0.355339,-0.0179291,0.0038147,0.186043,0.0437546
16,5,10.0097,0.0012207,-0.00823975,-2.42928,0.0523241,-0.0759786,0.0526021,0.0740221,-0.094062,0.144708,-0.126072,-0.0889791,-0.0440216,0.0269318,0.016861,0.0160217,0.021019,0.052948,0.0265884,0.0124359,-9.97986,0.0450516,0.00499725,0.059166,0.275307,-0.0157166,-0.00465393,0.201263,0.0445557
16,6,10.0097,0.000610352,-0.00747681,-2.42684,0.0550706,-0.0753682,0.0522969,0.0728014,-0.0946723,0.145013,-0.126682,-0.0874532,-0.0404358,0.021553,0.0215912,0.0112152,0.0266266,0.0495911,0.0239944,0.0162125,-9.97986,0.043602,0.00362396,0.0553513,0.201073,-0.0168991,-0.00709534,0.209312,0.0489044
16,7,10.0097,0.000610352,-0.00564575,-2.42837,0.055681,-0.0747579,0.0532125,0.0709703,-0.0943672,0.144403,-0.124241,-0.0865377,-0.034256,0.0239182,0.0200272,0.00915527,0.0297546,0.0533295,0.0254059,0.0147247,-9.97986,0.0437927,0.00144958,0.0525284,0.14534,-0.0189209,-0.0111771,0.211983,0.0469208
16,8,10.0097,-0.000305176,-0.00549316,-2.42562,0.0550706,-0.073232,0.0538228,0.07036,-0.0919257,0.145624,-0.125461,-0.085317,-0.0147629,0.0234222,0.0163651,0.0180054,0.0303268,0.0527954,0.0252914,0.0170898,-9.97986,0.0391388,0.00606537,0.0465775,0.0891495,-0.0165558,-0.00663757,0.215721,0.0442505
16,9,10.0097,0.000610352,-0.00564575,-2.42562,0.0559862,-0.0738423,0.0544332,0.0718859,-0.0916206,0.14776,-0.125156,-0.0834859,-0.00488281,0.0242996,0.0172424,0.0131989,0.0352478,0.0515366,0.0342178,0.0177002,-9.97986,0.033989,0.00579834,0.043869,0.031929,-0.019455,-0.00427246,0.212822,0.0418854
17,0,10.0097,0.000610352,-0.00656128,-2.42531,0.0565965,-0.0738423,0.054128,0.0724962,-0.090705,0.146234,-0.124241,-0.0834859,0.00160217,0.0263977,0.0164795,0.0127029,0.0337219,0.0426102,0.0383377,0.0166321,-9.97986,0.030365,0.00484467,0.0389862,-0.041008,-0.0268555,-0.00694275,0.207901,0.0378418
17,1,10.0097,-0.000915527,-0.00640869,-2.42592,0.0559862,-0.0735371,0.0532125,0.0691393,-0.0903999,0.146539,-0.123935,-0.0831808,0.02285,0.0270844,0.0221252,0.0143433,0.0366974,0.043335,0.0387192,0.0187683,-9.97986,0.0281525,0.00583649,0.0283051,-0.102043,-0.0275421,-0.00736237,0.205612,0.0417709
17,2,9.43776,-0.000610352,-0.00823975,-2.42653,0.0562914,-0.0747579,0.0526021,0.0160387,-0.0983344,0.145013,-0.128818,-0.085317,0.0304031,0.0262833,0.017395,0.0115967,0.0381088,0.0286102,0.0426865,0.0102997,-9.97986,0.0237274,3.8147e-005,0.0262451,-0.163879,-0.0348282,-0.0149918,0.200844,0.0356293
17,3,-0.264997,0.000305176,-0.0108337,-2.4244,0.0565965,-0.0738423,0.054128,-0.00440808,-0.0961982,0.146234,-0.128513,-0.0822652,0.0185013,0.027771,0.0171661,0.0183868,0.0372314,0.0104904,0.045929,0.0139618,-9.97986,0.0222397,0.00797272,0.0229645,-0.218048,-0.0343323,-0.0251389,0.19062,0.0350189
17,4,-7.34996,-0.000610352,-0.00915527,-2.42562,0.0565965,-0.0738423,0.0532125,-0.0169203,-0.0980293,0.146234,-0.129734,-0.0828756,0.0337601,0.0223923,0.0189209,0.0155258,0.0350571,0.00221252,0.0497437,0.0107193,-9.97986,0.00854492,0.000534058,0.0165558,-0.255585,-0.0415421,-0.0172424,0.183449,0.0328445
17,5,-9.99003,-0.000305176,-0.00656128,-2.42531,0.0565965,-0.0729268,0.0556539,0.00932483,-0.0925361,0.146234,-0.127903,-0.0822652,0.0528717,0.028801,0.02388,0.0156021,0.037384,-0.00347137,0.0531006,0.00720978,-9.97986,0.00518799,0.00553131,0.0203705,-0.276566,-0.0572586,-0.0132751,0.175247,0.0335312
17,6,-9.99003,0,-0.00457764,-2.42501,0.0544603,-0.0735371,0.0562642,0.0450304,-0.088874,0.145624,-0.126377,-0.0816549,0.0511932,0.0255966,0.0187302,0.0172043,0.0311661,-0.00411987,0.0577164,0.0120926,-9.97986,-0.00556946,0.00339508,0.0159454,-0.306129,-0.0749207,-0.0111008,0.16758,0.0325012
17,7,-9.99003,0.0012207,-0.0038147,-2.4247,0.055681,-0.0747579,0.0550435,0.0593737,-0.0913154,0.146539,-0.126377,-0.0831808,0.0419235,0.0227737,0.0212479,0.0187683,0.0347137,-0.00843048,0.0605392,0.0140381,-9.97986,-0.0126648,0.00419617,0.0218964,-0.33802,-0.0767517,-0.00354767,0.161362,0.030098
17,8,-9.99003,0.00152588,-0.000610352,-2.42653,0.0562914,-0.0744527,0.054128,0.0618151,-0.0925361,0.143792,-0.126987,-0.0847066,0.0325775,0.0251007,0.0208282,0.019455,0.0372314,-0.0178146,0.0647736,0.00442505,-9.97986,-0.0194931,0.0012207,0.0251389,-0.368767,-0.0775528,0.00579834,0.151558,0.0300598
17,9,-9.99003,-0.000610352,0,-2.42501,0.0547655,-0.0741475,0.0565694,0.127123,-0.0852119,0.145624,-0.121799,-0.0822652,0.0330734,0.0259781,0.0200653,0.0182343,0.0318909,-0.0222015,0.0613403,0.00160217,-9.97986,-0.0276566,-0.00228882,0.0233078,-0.387573,-0.0685883,0.0118256,0.140419,0.0281525
18,0,-2.13145,0,0.00183105,-2.42745,0.0538499,-0.0759786,0.0547383,0.144518,-0.0882636,0.144708,-0.121189,-0.0847066,0.0388718,0.0187683,0.0217056,0.0180054,0.0350571,-0.0304031,0.0628662,0.00923157,-9.97986,-0.0312042,-0.00179291,0.0313187,-0.397797,-0.0654221,0.013237,0.130882,0.0316238
18,1,5.84493,0.000305176,0.00289917,-2.42714,0.0538499,-0.0762837,0.0532125,0.154894,-0.0891792,0.142267,-0.120273,-0.085317,0.0347137,0.0239182,0.0165939,0.0125122,0.0354004,-0.0295258,0.0628281,0.0123215,-9.97986,-0.0245667,-0.00209808,0.0402451,-0.399132,-0.0680161,0.013504,0.12352,0.0284958
18,2,10.0097,0.000610352,0.00274658,-2.4305,0.0526292,-0.0768941,0.0513814,0.133837,-0.0946723,0.143182,-0.123935,-0.0880636,0.0298691,0.0226212,0.0167084,0.0192261,0.0357437,-0.0310135,0.0629807,0.0135422,-9.97986,-0.0161743,0.00293732,0.0436401,-0.411835,-0.0661469,0.00740051,0.110741,0.0308609
18,3,10.0097,0.000610352,-0.000457764,-2.42989,0.0538499,-0.0768941,0.0504659,0.092943,-0.0974189,0.141961,-0.125461,-0.0889791,0.0265503,0.0202942,0.0136566,0.0170135,0.0340652,-0.0244522,0.0552368,0.0110626,-9.97986,-0.014534,0.00141144,0.0469589,-0.419121,-0.0645447,0.00358582,0.099144,0.0251007
18,4,10.0097,0,-0.000457764,-2.42928,0.0544603,-0.0762837,0.050771,0.0792101,-0.095893,0.143487,-0.126682,-0.0877584,0.0229263,0.0243378,0.0120544,0.0183105,0.0353622,-0.0165176,0.0600052,0.0175858,-9.97986,-0.0139999,0.00217438,0.0495911,-0.421066,-0.0624466,0.00328064,0.0913239,0.0268173
18,5,10.0097,0.000915527,-0.00106812,-2.42806,0.0532396,-0.0759786,0.0513814,0.0728014,-0.0949775,0.145318,-0.126987,-0.0859274,0.0157928,0.0191116,0.0136185,0.0164795,0.03582,-0.0151825,0.0549316,0.0135422,-9.97986,-0.0107193,-0.00148773,0.0428772,-0.426941,-0.0650024,0.00118256,0.0820541,0.0271988
18,6,10.0097,0,0.000152588,-2.42806,0.0547655,-0.0753682,0.0522969,0.0718859,-0.0943672,0.145013,-0.126072,-0.085317,0.023613,0.0219727,0.0161743,0.0173569,0.0323105,-0.0105286,0.0457001,0.0221634,-9.97986,-0.00965118,0.0012207,0.030098,-0.417938,-0.0471497,-0.00167847,0.0782013,0.0226212
18,7,10.0097,0.000305176,0.000457764,-2.42714,0.0565965,-0.075063,0.0535176,0.0712755,-0.0934516,0.145624,-0.126072,-0.0847066,0.0144577,0.0229645,0.0182343,0.0168228,0.0317001,-0.00961304,0.0416565,0.0193405,-9.97986,-0.021286,0.00389099,0.0110626,-0.405655,-0.0100708,-0.0102997,0.0694275,0.0193405
18,8,10.0097,0.000610352,0.00167847,-2.42714,0.0550706,-0.0753682,0.0532125,0.0697496,-0.0919257,0.145929,-0.125461,-0.0834859,0.00888824,0.0231171,0.0150299,0.0137711,0.0309372,-0.00488281,0.042305,0.0217438,-9.97986,-0.0172806,0.00202179,-0.000572205,-0.38765,0.0262833,0.000228882,0.0542068,0.0183105
18,9,10.0097,0.0012207,0.00198364,-2.42531,0.0565965,-0.0741475,0.0532125,0.0718859,-0.0900947,0.147455,-0.126072,-0.0822652,0.0101852,0.0233078,0.0146103,0.0137329,0.0325394,0.000457764,0.0342178,0.0257874,-9.97986,-0.0217056,-0.00152588,-0.0106812,-0.371132,0.0707245,0.000534058,0.0469208,0.0169754
19,0,10.0097,-0.000610352,0.00152588,-2.42684,0.0559862,-0.0735371,0.054128,0.0715807,-0.0919257,0.14776,-0.124546,-0.0810445,0.0120926,0.0259781,0.0177765,0.0179672,0.0294876,0.00267029,0.0272751,0.0228119,-9.97986,-0.0268936,0.00171661,-0.0270844,-0.349922,0.125351,-0.000648499,0.0374603,0.0121689
19,1,10.0097,-0.000305176,0.00335693,-2.42531,0.0565965,-0.0735371,0.0538228,0.0676134,-0.0916206,0.146844,-0.124851,-0.080129,0.0124741,0.0251389,0.0174332,0.0139618,0.0322342,0.00465393,0.0263214,0.0257874,-9.97986,-0.0185394,-0.00274658,-0.0362015,-0.312614,0.174065,0.000686646,0.0276566,0.0119781
19,2,9.31325,0,0.00167847,-2.42745,0.0559862,-0.0747579,0.0522969,0.0160387,-0.0971137,0.148065,-0.127903,-0.0831808,0.0152206,0.0261307,0.0173569,0.0138092,0.0308609,0.00957489,0.0249863,0.0313568,-9.97986,-0.00801086,-0.000228882,-0.0430679,-0.264854,0.219345,0.00133514,0.0159454,0.00919342
19,3,0.00569371,0.000305176,-0.000457764,-2.4244,0.0572069,-0.0741475,0.0532125,-0.00532361,-0.0961982,0.147149,-0.130039,-0.0807394,0.0108719,0.0309372,0.0147247,0.0152969,0.0242233,0.00904083,0.0138474,0.0298309,-9.97986,0.00583649,-0.00370026,-0.0499344,-0.212135,0.256805,-0.00434875,0.0109482,0.0101852
19,4,-7.1699,0.00152588,0.000152588,-2.42501,0.0550706,-0.0723164,0.0532125,-0.0138685,-0.0961982,0.146234,-0.130039,-0.0804342,0.0151443,0.0244141,0.0183105,0.0157547,0.0257492,0.00846863,0.01194,0.0290298,-9.97986,0.0187683,0.00282288,-0.0579071,-0.161285,0.28553,-0.00740051,-0.0012207,0.00736237
19,5,-9.99003,0.0012207,0.00167847,-2.4244,0.0550706,-0.0744527,0.055959,0.00901965,-0.0928413,0.147149,-0.129123,-0.0792135,0.0148392,0.0286865,0.0130844,0.0163651,0.0235367,0.0104523,0.01091,0.0270081,-9.97986,0.019989,-0.00343323,-0.0609207,-0.107765,0.28862,-0.00732422,-0.00728607,-0.000114441
19,6,-9.99003,0.000610352,0.00457764,-2.4247,0.0562914,-0.0747579,0.0574849,0.04442,-0.0897895,0.145624,-0.126072,-0.0795187,0.0168228,0.0289917,0.0164795,0.0141144,0.0258255,0.0136948,0.00984192,0.0336456,-9.97986,0.0343323,-0.00408173,-0.0659943,-0.0534058,0.277634,-0.00320435,-0.0111389,0.00110626
19,7,-9.99003,0.000915527,0.00396729,-2.42501,0.0553758,-0.0759786,0.0547383,0.0615099,-0.0910102,0.145624,-0.125766,-0.0816549,0.00598907,0.0291443,0.0121307,0.0205612,0.0302887,0.00968933,0.00629425,0.0330353,-9.97986,0.0461197,-0.00484467,-0.0646973,0.00598907,0.294914,-0.00244141,-0.0181961,0
19,8,-9.99003,0.0012207,0.00457764,-2.42653,0.055681,-0.0756734,0.0547383,0.0694445,-0.0900947,0.145318,-0.125766,-0.0819601,0.00244141,0.0258255,0.0169754,0.0157928,0.0298309,0.0139618,0.00720978,0.0302505,-9.97986,0.0513458,-0.000152588,-0.0651932,0.051651,0.298958,-0.00461578,-0.0277328,-0.00213623
19,9,-9.99003,0.00152588,0.00762939,-2.42531,0.0550706,-0.0744527,0.0562642,0.130174,-0.0846015,0.146234,-0.121494,-0.0810445,0.00801086,0.027504,0.0138855,0.0189209,0.0296783,0.0180054,0.00175476,0.039444,-9.97986,0.0553894,0.00335693,-0.0597382,0.102234,0.328789,-0.00606537,-0.0308228,-0.0056839
20,0,-2.04875,0.000915527,0.00869751,-2.42714,0.0547655,-0.0762837,0.0550435,0.142687,-0.0900947,0.143792,-0.121494,-0.0834859,0.00904083,0.0297928,0.016861,0.0155258,0.0328064,0.0200272,0.00537872,0.0357437,-9.97986,0.063324,-0.00179291,-0.0615692,0.157661,0.333328,0.00087738,-0.03582,-0.00663757
20,1,5.82936,-0.000305176,0.00961304,-2.42776,0.0538499,-0.075063,0.054128,0.153978,-0.088874,0.142267,-0.121189,-0.0834859,0.000457764,0.0226974,0.0186157,0.014267,0.0305939,0.0242233,0.00610352,0.031662,-9.97986,0.0631714,0.001297,-0.0476456,0.208664,0.326538,0.0105286,-0.0439835,-0.00919342
20,2,10.0097,0.000915527,0.0062561,-2.42989,0.0532396,-0.0768941,0.0510762,0.134752,-0.0931465,0.143792,-0.123935,-0.0874532,0.00465393,0.0272369,0.0165558,0.0124741,0.0298309,0.0301361,0.0136948,0.0279999,-9.97986,0.049324,0.00419617,-0.0456619,0.213547,0.325432,0.0152206,-0.0531769,-0.0125504
20,3,10.0097,0.0012207,0.000915527,-2.4302,0.0535448,-0.0756734,0.0519917,0.0920275,-0.0980293,0.142267,-0.125766,-0.0886739,0.00621796,0.0241852,0.0149536,0.0129318,0.0302505,0.0341797,0.0164413,0.0277328,-9.97986,0.0359726,-0.00141144,-0.0383377,0.198364,0.32299,0.0105286,-0.0579453,-0.0140381
20,4,10.0097,0.00183105,-0.000915527,-2.42989,0.0541551,-0.0762837,0.0516866,0.0789049,-0.0971137,0.142877,-0.129429,-0.0880636,0.00278473,0.0285721,0.0214005,0.0114822,0.0284576,0.0340652,0.021286,0.0296021,-9.97986,0.0214005,-0.000915527,-0.0232697,0.186234,0.313721,0.0133514,-0.0637436,-0.0164795
20,5,10.0097,0.000610352,-0.00152588,-2.42776,0.0544603,-0.075063,0.0529073,0.0728014,-0.0955879,0.144098,-0.126072,-0.0862325,0.00793457,0.0287247,0.0217819,0.0110245,0.0216675,0.0395584,0.0289536,0.0268936,-9.97986,0.017395,-0.00274658,-0.0186539,0.162697,0.309715,0.0139236,-0.0718689,-0.0165558
20,6,10.0097,0.000305176,-0.00274658,-2.42776,0.0544603,-0.0744527,0.0529073,0.0715807,-0.0943672,0.144098,-0.126072,-0.0856222,-0.000114441,0.0320053,0.019455,0.00915527,0.02491,0.0398254,0.0344849,0.0222778,-9.97986,0.0141907,0.000267029,-0.00709534,0.12886,0.296822,0.0113678,-0.0751877,-0.018425
20,7,10.0097,0.000610352,-0.00244141,-2.42745,0.0553758,-0.0753682,0.0513814,0.0712755,-0.0928413,0.144403,-0.126072,-0.0871481,0.00213623,0.0287628,0.0207901,0.0116348,0.0241852,0.0391006,0.0400925,0.0304031,-9.97986,0.0153351,0.000343323,0.000915527,0.101814,0.284615,0.00270844,-0.0767136,-0.0144196
20,8,10.0097,0.0012207,-0.00274658,-2.42776,0.0569017,-0.075063,0.0535176,0.0718859,-0.0934516,0.145318,-0.124546,-0.0847066,-0.000762939,0.0307465,0.0188065,0.0110626,0.0224304,0.0366211,0.0492477,0.0261688,-9.97986,0.0220108,-0.00476837,0.0145721,0.0722885,0.261574,0.00106812,-0.0791168,-0.0132751
20,9,10.0097,0.0012207,-0.00228882,-2.42501,0.055681,-0.0738423,0.0577901,0.072191,-0.0922309,0.145624,-0.124546,-0.0822652,0.00312805,0.0259399,0.0157547,0.00591278,0.0203705,0.0322342,0.052681,0.0287247,-9.97986,0.0240326,0.000152588,0.0205994,0.0495911,0.242386,-0.00221252,-0.0846481,-0.0182724
21,0,10.0097,0.000305176,-0.000457764,-2.42531,0.0553758,-0.0747579,0.0550435,0.0709703,-0.0925361,0.147149,-0.12241,-0.0819601,0.0088501,0.0272751,0.0125885,0.00476837,0.0219727,0.0396347,0.0645828,0.0314331,-9.97986,0.0234985,-0.00270844,0.0285339,0.0527191,0.229568,-0.0038147,-0.0863647,-0.0146484
21,1,10.0097,0.000610352,0.000305176,-2.42592,0.0562914,-0.0741475,0.0550435,0.067003,-0.0931465,0.145318,-0.124851,-0.0813497,0.000572205,0.0242615,0.0128555,0.00728607,0.0263977,0.0404739,0.070343,0.0345612,-9.97986,0.0272369,-0.00297546,0.0375366,0.0624466,0.209007,-0.0115204,-0.0857925,-0.0151825
21,2,9.25771,0,-0.00259399,-2.42745,0.0565965,-0.075063,0.0516866,0.0187853,-0.0974189,0.145013,-0.127292,-0.0831808,-0.00442505,0.026741,0.0139236,0.00411987,0.0270844,0.0378418,0.0743103,0.0333405,-9.97986,0.0242996,0.0031662,0.0455475,0.0666046,0.192184,-0.0138474,-0.0875092,-0.0176239
21,3,-0.102033,0.000610352,-0.00549316,-2.4247,0.0565965,-0.0738423,0.0532125,-0.00562879,-0.0968086,0.146234,-0.129734,-0.0804342,-0.00133514,0.0289917,0.0115585,0.00274658,0.0324631,0.0336075,0.0841904,0.0315857,-9.97986,0.0263977,0.00461578,0.0486374,0.044632,0.168457,-0.0136185,-0.0870514,-0.0144577
21,4,-7.25535,0.000610352,-0.00839233,-2.42531,0.0569017,-0.0744527,0.0532125,-0.0172255,-0.0965034,0.145624,-0.13126,-0.0828756,-0.0100327,0.0259399,0.0136948,-0.00205994,0.0310135,0.0365067,0.0871658,0.0366974,-9.97986,0.0336456,-0.00167847,0.0525665,-0.00347137,0.155029,-0.00946045,-0.0840378,-0.00999451
21,5,-9.99003,-0.000610352,-0.00778198,-2.42501,0.0565965,-0.073232,0.0547383,0.00963,-0.0922309,0.145624,-0.127903,-0.0825704,-0.0157928,0.0283051,0.0131226,0.00118256,0.0304794,0.0422287,0.0918961,0.0391388,-9.97986,0.0387192,0.00370026,0.0624084,-0.0587082,0.130234,-0.00236511,-0.0801086,-0.0160217
21,6,-9.99003,0.00183105,-0.00610352,-2.4244,0.0559862,-0.0747579,0.0565694,0.0450304,-0.0910102,0.147149,-0.126987,-0.0837911,-0.017395,0.0301361,0.0161362,-0.00106812,0.0267792,0.0413513,0.095787,0.0370789,-9.97986,0.0464249,0.00495911,0.0753784,-0.111198,0.100555,-0.00320435,-0.0783539,-0.0131607
21,7,-9.99003,0.000305176,-0.00656128,-2.42379,0.055681,-0.0753682,0.0553487,0.0596788,-0.090705,0.145013,-0.126987,-0.0840963,-0.014534,0.0258255,0.0134659,-0.00255585,0.0257111,0.0397873,0.0941849,0.0368881,-9.97986,0.04673,-0.00183105,0.0770569,-0.173454,0.0812149,-0.00255585,-0.0767136,-0.0129318
21,8,-9.99003,0.000305176,-0.00473022,-2.42714,0.0541551,-0.0759786,0.0516866,0.067003,-0.0897895,0.145013,-0.125766,-0.0847066,-0.00110626,0.0265121,0.0173187,0.00152588,0.0292206,0.0399017,0.097847,0.0416183,-9.97986,0.0513077,-0.000762939,0.0836182,-0.223999,0.0675583,0.00183105,-0.0768661,-0.0127792
21,9,-9.99003,0.000915527,-0.00228882,-2.42501,0.0553758,-0.0741475,0.0574849,0.130174,-0.0846015,0.145318,-0.120578,-0.0847066,0.0162125,0.0288391,0.0188065,-0.00545502,0.0266266,0.0311279,0.0907898,0.0321579,-9.97986,0.038681,-0.00106812,0.0860214,-0.257301,0.0751495,-0.00289917,-0.0730133,-0.0125122
22,0,-2.11711,-0.000305176,0.000305176,-2.42684,0.0535448,-0.0759786,0.054128,0.145433,-0.0879585,0.144098,-0.121494,-0.0847066,0.0330353,0.025444,0.0175095,0.00354767,0.023613,0.02491,0.0868988,0.0334167,-9.97986,0.0289536,0.000648499,0.0820923,-0.282059,0.0522614,-0.00812531,-0.0705338,-0.0120544
22,1,5.74727,0.000915527,0.00152588,-2.42867,0.0547655,-0.0753682,0.0532125,0.153368,-0.0903999,0.142877,-0.121189,-0.0862325,0.0170898,0.0289917,0.0188065,0.000152588,0.0230408,0.0265121,0.0811386,0.0279999,-9.97986,0.0245285,0.00183105,0.0893021,-0.300903,0.039978,0.00183105,-0.065155,-0.0151825
22,2,10.0097,0.000915527,0.000457764,-2.4302,0.0535448,-0.0762837,0.0516866,0.135362,-0.0943672,0.141961,-0.122715,-0.0877584,-0.00495911,0.0319672,0.0233459,-0.000534058,0.0289154,0.0191116,0.0743484,0.0260544,-9.97986,0.0185394,-0.000801086,0.0885391,-0.340767,0.0201416,0.00923157,-0.0596237,-0.0115967
22,3,10.0097,0.000915527,-0.00167847,-2.43172,0.0517137,-0.0771993,0.0498555,0.0941637,-0.0977241,0.141961,-0.125461,-0.0901998,-0.0114822,0.0331879,0.0217438,0.000953674,0.0286865,0.0140762,0.0693512,0.0230789,-9.97986,0.0175858,-0.000762939,0.0889206,-0.366135,-0.00511169,0.013504,-0.0583267,-0.0123596
22,4,10.0097,-0.000305176,-0.00137329,-2.42989,0.0526292,-0.0753682,0.0486348,0.080736,-0.0977241,0.141961,-0.126682,-0.0877584,0.0218582,0.0339508,0.0229645,-0.00324249,0.0263977,0.0111008,0.0579834,0.0264359,-9.97986,0.0216675,0.00137329,0.092926,-0.378036,-0.0210953,0.0206757,-0.0527573,-0.0137329
22,5,10.0097,-0.000305176,-0.000915527,-2.42837,0.0532396,-0.0762837,0.0519917,0.0740221,-0.095893,0.143182,-0.127292,-0.0868429,0.0397873,0.0269318,0.0243378,-0.00320435,0.0222778,0.00850677,0.0525284,0.0161362,-9.97986,0.0213623,-0.00213623,0.0897217,-0.374947,-0.0364685,0.0194931,-0.0504303,-0.0119781
22,6,10.0097,0.000915527,-0.000152588,-2.42653,0.0523241,-0.0747579,0.0532125,0.0731066,-0.0931465,0.144403,-0.125766,-0.0856222,0.0265121,0.0321579,0.017395,0.000305176,0.0289536,0.00473022,0.0415802,0.0188446,-9.97986,0.0117111,-0.00591278,0.0871658,-0.379715,-0.0580597,0.0216293,-0.0483704,-0.0151062
22,7,10.0097,-0.000610352,-0.00213623,-2.42745,0.0547655,-0.0747579,0.0544332,0.07036,-0.0943672,0.143792,-0.125156,-0.0862325,0.0179291,0.0270462,0.0174713,-0.000305176,0.0268555,0.0019455,0.0377274,0.0205994,-9.97986,0.0182343,0.00370026,0.0864029,-0.414314,-0.0847626,0.0148392,-0.0451279,-0.0151062
22,8,10.0097,-0.00183105,-0.0038147,-2.42714,0.055681,-0.0744527,0.0547383,0.072191,-0.0931465,0.145318,-0.124546,-0.0856222,0.0281906,0.0289917,0.018692,-0.00141144,0.0183487,-0.000686646,0.0296402,0.0191116,-9.97986,0.0225067,-0.00144958,0.0850296,-0.462875,-0.103912,0.00656128,-0.0450897,-0.0176239
22,9,10.0097,0.00213623,-0.00442505,-2.4244,0.0562914,-0.075063,0.0544332,0.072191,-0.0916206,0.146234,-0.124241,-0.0822652,0.0439453,0.0272369,0.0161362,-0.00213623,0.0214386,0.000457764,0.0145721,0.0214767,-9.97986,0.0212479,-0.00102997,0.0833893,-0.511627,-0.122871,0.00267029,-0.0422287,-0.0175858
23,0,10.0097,0.000915527,-0.00366211,-2.42501,0.0559862,-0.0729268,0.0568746,0.07036,-0.0903999,0.146234,-0.125461,-0.0828756,0.0608063,0.0278473,0.0137711,-0.00823975,0.0235367,0.00137329,0.0102615,0.0278473,-9.97986,0.0149918,-0.00335693,0.0836563,-0.540962,-0.148926,-0.00247955,-0.043869,-0.0172043
23,1,10.0097,0.00213623,-0.00305176,-2.42501,0.0559862,-0.0741475,0.0544332,0.0673082,-0.0931465,0.143792,-0.123935,-0.0825704,0.0548553,0.025444,0.0120544,-0.00930786,0.0239182,-0.000190735,0.000343323,0.0254059,-9.97986,0.00198364,-0.00133514,0.0767136,-0.575714,-0.166779,-0.00312805,-0.0365448,-0.0170517
23,2,9.28212,0,-0.00534058,-2.42776,0.0544603,-0.0741475,0.0516866,0.0142076,-0.09925,0.144403,-0.128818,-0.0834859,0.0454712,0.0268555,0.0147629,-0.00415802,0.025444,-0.00335693,-0.00579834,0.020256,-9.97986,-0.00419617,0.00492096,0.0710678,-0.608864,-0.183144,0.000114441,-0.0414276,-0.0205231
23,3,-0.143842,-0.000610352,-0.00701904,-2.42623,0.0565965,-0.0729268,0.0544332,-0.00440808,-0.0971137,0.146539,-0.128513,-0.0822652,0.00808716,0.0273514,0.01194,-0.00160217,0.025444,-0.00385284,-0.0110626,0.0245285,-9.97986,-0.013237,-0.00167847,0.07061,-0.621529,-0.199585,0.000686646,-0.0424957,-0.0199509
23,4,-7.25474,0.0012207,-0.0062561,-2.42623,0.0559862,-0.0744527,0.0526021,-0.0172255,-0.0968086,0.146844,-0.130039,-0.0825704,-0.0190353,0.0256348,0.00801086,-0.00297546,0.0265884,-0.0138092,-0.021286,0.0245667,-9.97986,-0.029068,0.000190735,0.0670242,-0.62973,-0.215263,0.00541687,-0.0427246,-0.018959
23,5,-9.99003,0.247192,-0.00320435,-2.42257,0.0590379,-0.0723164,0.0568746,0.0117662,-0.0858222,0.178888,-0.127598,-0.0810445,-0.0174332,0.021553,0.00801086,-0.00591278,0.0274658,-0.0146103,-0.0260544,0.0231552,-9.97986,-0.0432968,0.00282288,0.0613785,-0.620918,-0.243149,0.00675201,-0.043869,-0.0178528
23,6,-9.99003,0.0115967,-0.00213623,-2.4247,0.0559862,-0.0738423,0.0562642,0.0471666,-0.0919257,0.155694,-0.127903,-0.0807394,-0.00926971,0.0180817,0.00663757,-0.00789642,0.0226593,-0.0104523,-0.033226,0.0221634,-9.97986,-0.0553131,0.00270844,0.0665665,-0.620613,-0.263481,-0.00110626,-0.0419235,-0.0177383
23,7,-9.99003,0.00274658,-0.00244141,-2.4247,0.0562914,-0.0741475,0.0547383,0.0590685,-0.0910102,0.150201,-0.126072,-0.0828756,0.00743866,0.0180817,0.00984192,-0.00572205,0.0246048,-0.00614166,-0.0340271,0.0276566,-9.97986,-0.0492859,0.00221252,0.0607681,-0.653496,-0.279427,-0.00354767,-0.0421143,-0.0166702
23,8,-9.99003,0.000305176,-0.0012207,-2.42714,0.055681,-0.0741475,0.0550435,0.0700548,-0.0916206,0.146234,-0.126072,-0.0837911,0.0107193,0.0227737,0.00587463,-0.0044632,0.0220871,-0.00274658,-0.0336456,0.0260162,-9.97986,-0.0368118,-0.00213623,0.0613022,-0.669479,-0.293922,-0.00415802,-0.0421143,-0.016861
23,9,-9.99003,0.00152588,0,-2.42531,0.0559862,-0.0729268,0.0577901,0.130174,-0.0858222,0.145624,-0.121799,-0.0816549,0.0030899,0.0161743,0.011673,-0.00217438,0.0198364,0.00038147,-0.0410461,0.0245285,-9.97986,-0.0138474,0.00221252,0.0555038,-0.688477,-0.275764,-0.00473022,-0.0428772,-0.018959
24,0,-2.08934,0.00305176,0.00244141,-2.42714,0.0535448,-0.0747579,0.0538228,0.146654,-0.0879585,0.145013,-0.120884,-0.0837911,0.00682831,0.0165558,0.0112152,-0.00720978,0.0188828,0.0100708,-0.0409317,0.0218582,-9.97986,0.0191498,-0.000114441,0.0461578,-0.686188,-0.284615,-0.0130081,-0.0406647,-0.0164795
24,1,5.90688,0.00183105,0.00427246,-2.42837,0.0532396,-0.0765889,0.0538228,0.154588,-0.0894843,0.144403,-0.120884,-0.0859274,-0.00133514,0.0208664,0.00926971,-0.00461578,0.0184631,0.0170898,-0.0450134,0.0200653,-9.97986,0.0296021,-0.00629425,0.042572,-0.672836,-0.292053,-0.0265884,-0.0425339,-0.0165176
24,2,10.0097,0.000610352,0.00305176,-2.4305,0.0535448,-0.0759786,0.050771,0.134142,-0.0946723,0.142877,-0.123325,-0.0883688,0.00858307,0.019722,0.0110626,-0.00106812,0.0267029,0.0200272,-0.0427246,0.0240707,-9.97986,0.0323868,-0.00404358,0.0360489,-0.696526,-0.295448,-0.0286102,-0.0361633,-0.0135422
24,3,10.0097,0.00274658,0.000762939,-2.42989,0.0526292,-0.0756734,0.0492452,0.0932482,-0.0974189,0.142267,-0.127903,-0.0883688,0.00823975,0.0162125,0.0112915,-0.00896454,0.0262833,0.0224304,-0.0473785,0.0178909,-9.97986,0.0358963,0.00423431,0.0377274,-0.699234,-0.293579,-0.0249863,-0.03582,-0.0139999
24,4,10.0097,0.000915527,-0.000305176,-2.43081,0.0541551,-0.0762837,0.0516866,0.0785997,-0.0971137,0.143487,-0.126987,-0.0883688,-0.000190735,0.0217056,0.0131607,-0.000648499,0.0263596,0.0214386,-0.0504303,0.0153351,-9.97986,0.0339127,0.00453949,0.0364304,-0.700455,-0.292358,-0.0163269,-0.0317383,-0.0164795
24,5,10.0097,0.00152588,-0.000915527,-2.42898,0.0541551,-0.075063,0.0522969,0.0740221,-0.0955879,0.143792,-0.127292,-0.0871481,-0.0164795,0.0196075,0.0127029,-0.00232697,0.0265503,0.0190353,-0.04673,0.0219345,-9.97986,0.0354385,0.00087738,0.0353241,-0.706863,-0.277405,-0.0107193,-0.0315475,-0.0180054
24,6,10.0097,0.000915527,0.000610352,-2.42867,0.055681,-0.0744527,0.0529073,0.0724962,-0.094062,0.144708,-0.125461,-0.0847066,-0.0259399,0.0234604,0.0119781,-0.000190735,0.0241089,0.0230789,-0.0494766,0.0215912,-9.97986,0.0325394,-0.000457764,0.0286102,-0.69603,-0.273552,-0.00225067,-0.0296783,-0.0164413
24,7,10.0097,0.00152588,0.0012207,-2.42776,0.0559862,-0.0741475,0.0535176,0.0706652,-0.0931465,0.145318,-0.126072,-0.0847066,-0.0231934,0.0263977,0.0157166,0.00110626,0.0235367,0.0304031,-0.0504684,0.0200272,-9.97986,0.0229263,0.00270844,0.0220871,-0.692596,-0.259132,-0.00514984,-0.027504,-0.0215912
24,8,10.0097,0.0012207,0.000305176,-2.42714,0.0562914,-0.0741475,0.0547383,0.0709703,-0.0928413,0.145318,-0.125766,-0.0840963,-0.00118256,0.0270081,0.0146866,-0.00244141,0.0238419,0.0282288,-0.0535965,0.0148392,-9.97986,0.013504,0.00167847,0.0162888,-0.68924,-0.239716,-0.00362396,-0.027504,-0.0232697
24,9,10.0097,0.000915527,0.000610352,-2.4247,0.0562914,-0.0741475,0.0547383,0.0712755,-0.090705,0.147149,-0.122715,-0.0816549,0.0167465,0.0221252,0.0103378,0.00305176,0.0244904,0.0345612,-0.0487518,0.0200653,-9.97986,0.00499725,0.00621796,0.0118256,-0.688095,-0.217133,-0.00476837,-0.0269318,-0.0225067
25,0,10.0097,0.00152588,0.000762939,-2.42501,0.0572069,-0.0735371,0.0550435,0.0712755,-0.0903999,0.146539,-0.124241,-0.0807394,0.0183487,0.0203705,0.0142288,0.00587463,0.0209808,0.0415421,-0.0481033,0.0194931,-9.97986,0.00476837,0.00499725,0.0118637,-0.682068,-0.201912,-0.00598907,-0.0233841,-0.021553
25,1,10.0097,-0.000305176,0.000762939,-2.42623,0.0550706,-0.0729268,0.0547383,0.0666979,-0.0916206,0.14776,-0.124851,-0.0810445,0.00671387,0.0177002,0.0113297,-0.000839233,0.0268936,0.0449753,-0.0444794,0.0205994,-9.97986,0.00473022,0.00087738,0.00244141,-0.664902,-0.17952,-0.00644684,-0.0228119,-0.0262833
25,2,9.14968,0.000305176,-0.00198364,-2.42714,0.0559862,-0.0753682,0.0513814,0.0135973,-0.0974189,0.14776,-0.130039,-0.0819601,-0.00385284,0.019455,0.0151825,0.00183105,0.0256729,0.0413513,-0.0435638,0.0208664,-9.97986,0.0177765,0.00358582,-0.00324249,-0.653687,-0.148849,-0.00652313,-0.0172424,-0.0263977
25,3,-0.219831,-0.000915527,-0.00274658,-2.42501,0.0569017,-0.0726216,0.0544332,-0.00471326,-0.0961982,0.146539,-0.128818,-0.0810445,-0.00793457,0.0171661,0.0176239,0.00274658,0.024147,0.0462723,-0.0431061,0.0151062,-9.97986,0.0265121,0.00164032,-0.00999451,-0.631599,-0.114059,-0.000457764,-0.0140762,-0.0315857
25,4,-7.39451,-0.000915527,-0.00274658,-2.42531,0.0569017,-0.0744527,0.0532125,-0.0175306,-0.0968086,0.146844,-0.129429,-0.0813497,-0.00434875,0.0182724,0.0125504,0.00499725,0.0259399,0.0431061,-0.0406647,0.0109482,-9.97986,0.0346375,0.00335693,-0.0103378,-0.605507,-0.0838089,0.00228882,-0.0134277,-0.0286102
25,5,-9.99003,-0.000305176,-0.000305176,-2.4244,0.0562914,-0.0744527,0.0550435,0.0102404,-0.0913154,0.147149,-0.128513,-0.0795187,0.01297,0.021553,0.0108719,0.000534058,0.0264359,0.0397873,-0.0397491,0.00663757,-9.97986,0.0311661,0.00240326,-0.0167465,-0.56675,-0.064621,0.00442505,-0.0107193,-0.0313187
25,6,-9.99003,0.00152588,0.00183105,-2.42531,0.055681,-0.0726216,0.055959,0.0453356,-0.0903999,0.147455,-0.126682,-0.0798238,0.0252914,0.0217056,0.0150681,0.0056839,0.026207,0.0333023,-0.0361252,0.00759125,-9.97986,0.0296402,0.000152588,-0.0206375,-0.527802,-0.0606918,-0.00335693,-0.0102997,-0.0294113
25,7,-9.99003,0.000610352,0.00335693,-2.42531,0.055681,-0.0756734,0.0556539,0.0590685,-0.090705,0.14776,-0.126072,-0.0810445,0.0240326,0.0219345,0.0165176,0.00621796,0.0247192,0.0296783,-0.0318527,0.0102234,-9.97986,0.0206375,0.00221252,-0.0170135,-0.481949,-0.0392532,-0.0056076,-0.00205994,-0.0328827
25,8,-9.99003,-0.000610352,0.0050354,-2.42623,0.0562914,-0.0735371,0.0547383,0.0666979,-0.090705,0.146539,-0.126072,-0.0825704,0.0113678,0.0161743,0.0159836,0.00144958,0.0218964,0.0315857,-0.0312805,0.0118637,-9.97986,-0.00225067,0.000114441,-0.0146866,-0.427437,-0.0251007,-0.0037384,-0.00450134,-0.0322342
25,9,-9.99003,0.000610352,0.00579834,-2.42531,0.0553758,-0.0753682,0.0565694,0.128954,-0.0849067,0.145624,-0.121799,-0.080129,-0.000648499,0.0185013,0.017395,0.00648499,0.0262833,0.0348663,-0.0245285,0.00904083,-9.97986,-0.0121689,-0.00225067,-0.0167847,-0.379257,0.0128555,0.00232697,0.00255585,-0.0309753
26,0,-2.16044,-0.000610352,0.00808716,-2.42776,0.0550706,-0.0747579,0.0544332,0.145128,-0.0885688,0.145929,-0.121494,-0.0834859,-0.00595093,0.0196457,0.0212097,0.00629425,0.0251007,0.0299454,-0.0221252,0.00278473,-9.97986,-0.0233459,-0.00480652,-0.0185013,-0.331078,0.0287628,0.00743866,0.0018692,-0.0310516
26,1,5.83608,-0.0012207,0.00991821,-2.42867,0.0538499,-0.0756734,0.0532125,0.154283,-0.0885688,0.143487,-0.12241,-0.0834859,-0.0139236,0.0196075,0.0227737,0.000648499,0.0222015,0.028038,-0.0234985,0.00110626,-9.97986,-0.0238419,-0.000610352,-0.0223541,-0.263481,0.0387573,0.00804901,0.00541687,-0.0322723
26,2,10.0097,0.0012207,0.0102234,-2.42989,0.0529344,-0.0775044,0.0513814,0.136278,-0.0937568,0.143182,-0.123325,-0.085317,0.00232697,0.0162506,0.0205231,0.00652313,0.0268555,0.0209808,-0.0200653,0.00514984,-9.97986,-0.0304413,7.62939e-005,-0.0308228,-0.194321,0.0483704,0.00499725,0.00293732,-0.0343323
26,3,10.0097,0.000305176,0.00747681,-2.42989,0.0532396,-0.0765889,0.0522969,0.0941637,-0.0968086,0.141351,-0.126072,-0.0868429,0.0354385,0.0193024,0.0201035,0.00579834,0.0247192,0.0191116,-0.0185394,0.00415802,-9.97986,-0.0186539,0.00488281,-0.0236893,-0.137558,0.0642776,0.0088501,0.00892639,-0.0356293
26,4,10.0097,0.0012207,0.00549316,-2.42989,0.0532396,-0.0756734,0.0504659,0.080736,-0.0961982,0.142572,-0.127598,-0.0859274,0.0623703,0.0157928,0.0177383,0.00900269,0.0263977,0.00953674,-0.00816345,0.0112152,-9.97986,7.62939e-005,0.00431061,-0.0235367,-0.0870895,0.07061,0.0126648,0.0123215,-0.0287628
26,5,10.0097,-0.0012207,0.00518799,-2.42776,0.0541551,-0.0744527,0.0522969,0.0752428,-0.094062,0.143487,-0.126987,-0.0850118,0.0756836,0.0178909,0.0119019,0.00640869,0.0237274,0.00488281,-0.00583649,0.00629425,-9.97986,0.0342178,0.00606537,-0.0229645,-0.0535583,0.076561,0.00694275,0.0145721,-0.0305939
26,6,10.0097,0.000915527,0.00473022,-2.42745,0.0553758,-0.0741475,0.050771,0.0718859,-0.0943672,0.143182,-0.126377,-0.0844015,0.0745392,0.0197983,0.0131607,0.0104523,0.0214386,0.00289917,-0.00350952,0.000991821,-9.97986,0.0432587,0.0043869,-0.0289536,-0.00320435,0.0761032,0.00854492,0.0104523,-0.0275803
26,7,10.0097,0.00366211,0.0050354,-2.42837,0.0541551,-0.0744527,0.0535176,0.072191,-0.0937568,0.145318,-0.126987,-0.0834859,0.0541687,0.0205994,0.00488281,0.00793457,0.0162125,0.00274658,-0.00225067,0.0037384,-9.97986,0.0273895,-0.000686646,-0.0305176,0.0363922,0.0760651,0.00423431,0.0131989,-0.0267029
26,8,10.0097,-0.000305176,0.00335693,-2.42592,0.0550706,-0.0781148,0.0529073,0.0709703,-0.0928413,0.146539,-0.125766,-0.0831808,0.0400925,0.0151443,0.0094223,0.0125885,0.0157928,-7.62939e-005,0.000572205,0.00400543,-9.97986,0.0222015,0.00110626,-0.0273514,0.0626755,0.0733185,-0.00152588,0.0144196,-0.030632
26,9,10.0097,0,0.00289917,-2.42562,0.055681,-0.0729268,0.0556539,0.0724962,-0.0916206,0.145929,-0.125156,-0.0807394,0.0335693,0.0170517,0.0149536,0.00751495,0.0160599,-0.00774384,0.00476837,0.00389099,-9.97986,0.0229263,0.00343323,-0.0273132,0.0919342,0.0625229,0.00572205,0.0127411,-0.02491
27,0,10.0097,0.00244141,0.00305176,-2.42592,0.0569017,-0.0747579,0.054128,0.0715807,-0.0937568,0.146539,-0.124546,-0.0804342,0.0242233,0.0213623,0.0133896,0.0111389,0.0139618,-0.00938416,0.00434875,0.00400543,-9.97986,0.0255203,0.0062561,-0.0211716,0.117836,0.0605011,0.00648499,0.0184631,-0.0253296
27,1,10.0097,0.000305176,0.00305176,-2.42531,0.0553758,-0.0723164,0.0550435,0.0663927,-0.0913154,0.146539,-0.124546,-0.0813497,0.0157166,0.02285,0.0168991,0.01194,0.0120926,-0.010643,0.00408173,-0.00518799,-9.97986,0.0298691,0.000572205,-0.0265503,0.14801,0.0654221,0.0012207,0.0193787,-0.0235748
27,2,9.19972,-0.000305176,0.00106812,-2.42806,0.0553758,-0.075063,0.0516866,0.0123766,-0.100471,0.145624,-0.129429,-0.0831808,0.0134659,0.0217056,0.0169754,0.0125504,0.0123978,-0.0128555,0.00652313,-0.0062561,-9.97986,0.0415421,0.000801086,-0.0235748,0.186462,0.0678253,-0.00507355,0.0227737,-0.0239182
27,3,-0.229597,0.000305176,-0.00198364,-2.4247,0.0572069,-0.073232,0.054128,-0.00410291,-0.0961982,0.148675,-0.129429,-0.080129,0.0232697,0.0206757,0.0177383,0.0114059,0.0119019,-0.0152969,0.00682831,-0.00606537,-9.97986,0.0503922,0.00545502,-0.0243378,0.214119,0.0680923,-0.00644684,0.0289917,-0.0203705
27,4,-7.41466,0.000915527,-0.00213623,-2.42501,0.0575121,-0.0729268,0.0535176,-0.0169203,-0.0946723,0.146234,-0.130039,-0.0813497,0.0222397,0.0233459,0.0210571,0.0131989,0.013504,-0.00839233,0.00831604,-0.00087738,-9.97986,0.0467682,0.000762939,-0.0217438,0.238686,0.0717163,-0.00663757,0.0284195,-0.0196457
27,5,-9.99003,-0.000915527,-0.000152588,-2.42379,0.0569017,-0.0735371,0.0553487,0.00901965,-0.0928413,0.146234,-0.127903,-0.080129,0.0180435,0.0226593,0.0177002,0.015831,0.0146103,-0.0144196,0.0116348,-0.00228882,-9.97986,0.0233841,0.00244141,-0.0227737,0.272102,0.0534821,-0.00232697,0.0292587,-0.0193787
27,6,-9.99003,0.000610352,0.00106812,-2.42409,0.0559862,-0.0738423,0.0568746,0.0453356,-0.0910102,0.146539,-0.127292,-0.0804342,-0.00343323,0.0268173,0.0201797,0.00846863,0.01297,-0.0114822,0.0134659,-0.00183105,-9.97986,0.00946045,0.00362396,-0.0180817,0.28923,0.0408173,0.00087738,0.0307846,-0.0198746
27,7,-9.99003,0.00244141,0.00228882,-2.42562,0.0553758,-0.0738423,0.0568746,0.0569322,-0.0910102,0.145013,-0.126072,-0.0813497,-0.0224686,0.0239182,0.0167084,0.0132751,0.0140762,-0.0177383,0.0139999,-0.00301361,-9.97986,-0.00114441,0.00301361,-0.0133133,0.317802,0.0350189,0.00843048,0.0324249,-0.0217438
27,8,-9.99003,0.0012207,0.00335693,-2.42837,0.055681,-0.075063,0.0550435,0.0660875,-0.090705,0.145318,-0.126072,-0.0819601,-0.0340652,0.0225449,0.0207901,0.0167084,0.0150681,-0.0150299,0.0188446,0.00343323,-9.97986,-0.00900269,0.00144958,-0.0118256,0.34893,0.0284576,0.0134659,0.0347519,-0.0151443
27,9,-9.99003,0.00274658,0.00442505,-2.42531,0.0553758,-0.0744527,0.0562642,0.129564,-0.0855171,0.145624,-0.119663,-0.0813497,-0.0426483,0.0210953,0.0199127,0.0129318,0.0153732,-0.013504,0.018692,0.000534058,-9.97986,-0.0120926,-0.000915527,-0.01091,0.371017,0.0502014,0.0191879,0.0367737,-0.0178909
28,0,-2.1577,0.000305176,0.0062561,-2.42653,0.0535448,-0.075063,0.0550435,0.145738,-0.0870429,0.143792,-0.121799,-0.0840963,-0.038147,0.0222397,0.0227356,0.0129318,0.01297,-0.0188446,0.0252533,0.00160217,-9.97986,-0.0207138,0.0038147,-0.0104523,0.393028,0.0479126,0.0241089,0.0381088,-0.0182724
28,1,5.88918,-0.000305176,0.00518799,-2.42837,0.0538499,-0.0759786,0.054128,0.152757,-0.0891792,0.143487,-0.120884,-0.0850118,-0.0250626,0.0256729,0.0183868,0.0180817,0.0143433,-0.00999451,0.023613,-0.00141144,-9.97986,-0.0233078,0.00198364,-0.0102234,0.394211,0.040741,0.0212097,0.0378799,-0.01194
28,2,10.0097,-0.000305176,0.00442505,-2.42959,0.0532396,-0.0765889,0.0504659,0.135057,-0.0931465,0.142267,-0.124546,-0.0877584,-0.0154114,0.0195313,0.0214386,0.0104523,0.0124359,-0.010376,0.0284576,-0.00213623,-9.97986,-0.0200272,-0.000457764,-0.0118637,0.39196,0.0451279,0.0188065,0.0407791,-0.0148773
28,3,10.0097,0.0012207,0.00305176,-2.4305,0.0541551,-0.0762837,0.050771,0.0941637,-0.0974189,0.143487,-0.124851,-0.0874532,-0.00576019,0.0244141,0.0162506,0.0135803,0.0120544,-0.0132751,0.0331116,-0.00267029,-9.97986,-0.0139618,0.00228882,-0.0167084,0.419083,0.0467682,0.0154877,0.0428772,-0.0131607
28,4,10.0097,0,0.00213623,-2.42898,0.0538499,-0.075063,0.0510762,0.0813463,-0.0928413,0.142267,-0.127292,-0.0874532,0.0175095,0.026207,0.0176239,0.00858307,0.0141907,-0.0137711,0.0305939,-0.00400543,-9.97986,0.0069809,-0.00263214,-0.0154114,0.434456,0.0485992,0.0130081,0.0432968,-0.0107193
28,5,10.0097,0.000305176,0.00137329,-2.42898,0.0538499,-0.0756734,0.0513814,0.0740221,-0.0949775,0.143487,-0.126072,-0.0862325,0.0247574,0.0190353,0.0179672,0.0118256,0.0119019,-0.0230408,0.034523,-0.00923157,-9.97986,0.0256729,-0.00610352,-0.0115204,0.446854,0.0473022,0.00366211,0.0467682,-0.0159073
28,6,10.0097,0.00152588,0.00152588,-2.42898,0.0550706,-0.0747579,0.0532125,0.072191,-0.0946723,0.144708,-0.125461,-0.085317,0.014801,0.0220108,0.0201035,0.0196075,0.0118256,-0.0222397,0.0373459,-0.00362396,-9.97986,0.0418854,0.000915527,-0.00930786,0.458984,0.0512314,0.00320435,0.0489807,-0.0124741
28,7,10.0097,0.000610352,0.00152588,-2.42745,0.0553758,-0.0747579,0.054128,0.072191,-0.0934516,0.144403,-0.126377,-0.0850118,0.00293732,0.0215149,0.0188446,0.0166321,0.00934601,-0.0211716,0.0393677,-0.00816345,-9.97986,0.0341797,-0.00274658,-0.00331879,0.468636,0.0462723,0.00114441,0.0456238,-0.0120544
28,8,10.0097,0.000610352,0.00167847,-2.42714,0.0550706,-0.0735371,0.054128,0.0712755,-0.0928413,0.145318,-0.125461,-0.0834859,0.00679016,0.021019,0.020256,0.0172424,0.0123978,-0.0152969,0.0428391,-0.00530243,-9.97986,0.0196457,0.0018692,0.0062561,0.479393,0.0440216,0.00213623,0.0495529,-0.00980377
28,9,10.0097,0.00213623,0.00106812,-2.42623,0.0572069,-0.0738423,0.054128,0.0718859,-0.0910102,0.146234,-0.124851,-0.0813497,0.00240326,0.017395,0.0193024,0.0137711,0.0104523,-0.0167465,0.0447464,0.001297,-9.97986,0.0232315,-0.000762939,0.00305176,0.484924,0.0370026,0.0044632,0.0455475,-0.0124741
29,0,10.0097,0.00244141,0.00152588,-2.42501,0.0562914,-0.0738423,0.0526021,0.0715807,-0.090705,0.147149,-0.124546,-0.0816549,-0.00415802,0.0183105,0.0180817,0.0143433,0.01194,-0.0162125,0.0442123,0.00167847,-9.97986,0.03479,0.00167847,0.00473022,0.494385,0.0348282,-0.00141144,0.0458145,-0.011673
29,1,10.0097,0.000610352,0.00152588,-2.42531,0.0572069,-0.0738423,0.0535176,0.0673082,-0.0931465,0.145929,-0.124546,-0.0804342,-0.0102997,0.0205231,0.0172424,0.014267,0.0075531,-0.0162506,0.0464249,0.00156403,-9.97986,0.0526047,-0.0037384,0.00701904,0.510025,0.0310135,-0.0100327,0.0469971,-0.0112915
29,2,9.34102,-0.000305176,-0.000915527,-2.42745,0.0565965,-0.0756734,0.0516866,0.0142076,-0.0980293,0.145318,-0.128513,-0.0831808,-0.00701904,0.018692,0.0186157,0.0149536,0.00514984,-0.0191498,0.046196,0.00274658,-9.97986,0.0880814,-0.00148773,0.0123215,0.525284,0.0268555,-0.00442505,0.044899,-0.0100708
29,3,-0.0135324,0.00152588,-0.00274658,-2.42562,0.0565965,-0.0729268,0.0532125,-0.00501844,-0.0980293,0.146844,-0.128513,-0.0816549,-0.00629425,0.0157166,0.0191879,0.0164795,0.0031662,-0.0237274,0.0465393,-3.8147e-005,-9.97986,0.109711,0.000724792,0.014801,0.535393,0.0252914,-0.00629425,0.0440979,-0.0109482
29,4,-7.26512,0.000305176,-0.00213623,-2.42562,0.0562914,-0.0744527,0.0547383,-0.0169203,-0.0965034,0.145624,-0.130039,-0.0822652,-0.00102997,0.020752,0.0141907,0.0138092,0.00617981,-0.0193787,0.0434875,0.00164032,-9.97986,0.0894165,0.00354767,0.0163651,0.565567,0.023613,-0.014801,0.0410461,-0.0123215
29,5,-9.99003,0.00152588,-0.000152588,-2.42409,0.0544603,-0.0747579,0.0544332,0.0117662,-0.0910102,0.146844,-0.127598,-0.080129,0.00450134,0.0203705,0.0204086,0.0148773,0.00419617,-0.0174713,0.04776,0.001297,-9.97986,0.0678253,-0.00125885,0.0168991,0.594559,0.0128555,-0.0169754,0.0376129,-0.010643
29,6,-9.99003,0.000305176,0.0012207,-2.4247,0.055681,-0.0735371,0.055959,0.0435045,-0.0897895,0.146234,-0.126377,-0.0804342,0.00259399,0.0216675,0.0200272,0.0173187,0.0050354,-0.0223923,0.0453186,-7.62939e-005,-9.97986,0.0417328,-0.0025177,0.0253296,0.608673,-0.00602722,-0.0196838,0.0398254,-0.00785828
29,7,-9.99003,0.0012207,0.00198364,-2.42501,0.0565965,-0.0744527,0.055959,0.0590685,-0.0910102,0.145013,-0.126377,-0.0819601,-0.00350952,0.0244904,0.0234604,0.0170517,0.00141144,-0.017662,0.0443268,-0.00141144,-9.97986,0.0179672,0.00282288,0.0275421,0.621758,-0.00957489,-0.0148773,0.038681,-0.0107574
29,8,-9.99003,0.00244141,0.00106812,-2.42684,0.055681,-0.0756734,0.0538228,0.07036,-0.090705,0.145318,-0.125766,-0.0822652,0.0100708,0.0261688,0.0205612,0.0187683,0.00263214,-0.0176239,0.0447083,0.00171661,-9.97986,-0.00087738,0.00244141,0.0344849,0.628853,-0.00663757,-0.0111008,0.0365829,-0.00724792
29,9,-9.99003,0.0012207,0.00320435,-2.4244,0.055681,-0.0738423,0.0574849,0.13048,-0.0864326,0.145318,-0.121189,-0.0822652,0.0213242,0.0247192,0.0188446,0.0142288,0.00305176,-0.0146484,0.0412369,0.0031662,-9.97986,-0.00423431,0.00110626,0.0399017,0.634804,0.0218201,-0.00514984,0.0395203,-0.00469208
30,0,-2.00755,-0.000915527,0.00457764,-2.42776,0.0541551,-0.0744527,0.0556539,0.146654,-0.0876533,0.145013,-0.121189,-0.0847066,0.0318909,0.0236893,0.0209808,0.020256,0.00167847,-0.014267,0.0390244,0.00198364,-9.97986,-0.0119019,0.00133514,0.0445557,0.636826,0.0211716,-0.0069809,0.0393295,-0.0082016
30,1,5.91725,-0.000610352,0.00396729,-2.42806,0.0541551,-0.0768941,0.0544332,0.153673,-0.0897895,0.144708,-0.120884,-0.0856222,0.0389481,0.0221634,0.0190353,0.0172806,0.000724792,-0.0153351,0.0418472,0.00534058,-9.97986,-0.0128174,0.000572205,0.056076,0.636139,0.0270462,-0.0104904,0.0348282,-0.00705719
30,2,10.0097,-0.000915527,0.00411987,-2.4305,0.0514085,-0.0759786,0.0519917,0.135362,-0.0934516,0.142267,-0.123325,-0.0874532,0.0452805,0.0257492,0.0197983,0.0188065,0.000572205,-0.00366211,0.0367737,0.00843048,-9.97986,-0.0143433,0.00221252,0.0589752,0.624046,0.0242233,-0.00743866,0.0368118,-0.00579834
30,3,10.0097,0.000610352,0.000610352,-2.42959,0.0532396,-0.0765889,0.0498555,0.0941637,-0.0980293,0.144098,-0.126072,-0.0883688,0.0411224,0.0219345,0.019989,0.0209045,0.0012207,-0.00087738,0.0325012,0.00102997,-9.97986,-0.0153351,0.000801086,0.0627518,0.614243,0.0278091,-0.00965118,0.0375366,-0.00507355
30,4,10.0097,0.00152588,-0.00106812,-2.42989,0.0529344,-0.0759786,0.0519917,0.0795153,-0.0965034,0.142877,-0.126682,-0.0883688,0.03685,0.0247574,0.0196457,0.0152969,0.00087738,0.00354767,0.0313568,0.00255585,-9.97986,-0.0160217,0.001297,0.0657272,0.600624,0.0382996,-0.0104523,0.0362015,0.000534058
30,5,10.0097,0.00152588,-0.000915527,-2.42837,0.0529344,-0.0759786,0.0513814,0.0737169,-0.0961982,0.144708,-0.126377,-0.0871481,0.0300598,0.0263214,0.0181961,0.0167084,0.00305176,0.0104141,0.0283432,0.000457764,-9.97986,-0.0308609,-0.000419617,0.0638962,0.592155,0.0442886,-0.0112915,0.0366211,0.00259399
30,6,10.0097,-0.000305176,-0.000915527,-2.42867,0.0541551,-0.0747579,0.0532125,0.0728014,-0.094062,0.143792,-0.125461,-0.085317,0.0339127,0.0283813,0.0201035,0.0159836,-0.000343323,0.00881195,0.0289917,0.00141144,-9.97986,-0.0431442,-7.62939e-005,0.07164,0.583954,0.047493,-0.00705719,0.0354767,0.00293732
30,7,10.0097,0.000610352,0,-2.42623,0.0535448,-0.0759786,0.0532125,0.0712755,-0.0934516,0.144708,-0.126682,-0.0847066,0.0424576,0.0225067,0.0222778,0.0140762,-0.00133514,0.0104904,0.0268555,0.00370026,-9.97986,-0.0373459,0.00289917,0.067749,0.568924,0.0489807,-0.00976563,0.0335312,0.0114441
30,8,10.0097,0.000610352,-0.00106812,-2.42714,0.0553758,-0.0747579,0.0535176,0.0715807,-0.0928413,0.145318,-0.125766,-0.0837911,0.0364685,0.024147,0.0191116,0.0152206,0.000801086,0.0150299,0.0247955,-0.00198364,-9.97986,-0.014267,0.00110626,0.0715256,0.556259,0.0536346,-0.00461578,0.0357056,0.00839233
30,9,10.0097,-0.000305176,-0.00106812,-2.42501,0.0569017,-0.0738423,0.0544332,0.0709703,-0.0919257,0.145013,-0.124546,-0.0822652,0.0276566,0.0296021,0.0257874,0.0188446,0.00534058,0.0157166,0.021553,-0.000724792,-9.97986,0.0127792,0.00240326,0.0735855,0.537758,0.0614929,-0.00339508,0.0310516,0.0104904
31,0,10.0097,-0.000610352,-0.00167847,-2.42409,0.0569017,-0.0735371,0.0556539,0.072191,-0.0913154,0.145624,-0.123935,-0.0816549,0.0172043,0.0256348,0.0237656,0.0157928,0.000648499,0.0239944,0.0191879,-0.00541687,-9.97986,0.0310135,-0.00694275,0.0716019,0.512962,0.0623703,-0.00511169,0.0302505,0.014801
31,1,10.0097,0.000305176,-0.00259399,-2.42531,0.0569017,-0.0738423,0.0535176,0.0633409,-0.0925361,0.146539,-0.124546,-0.0816549,0.0227356,0.0318146,0.0194168,0.0177765,-0.00156403,0.0182343,0.0177765,-0.00915527,-9.97986,0.0365067,-0.00114441,0.0737381,0.490532,0.063324,-0.00431061,0.0283813,0.0162506
31,2,8.94277,0.000305176,-0.00396729,-2.42714,0.0559862,-0.0738423,0.0510762,0.0108507,-0.0983344,0.146844,-0.128818,-0.0840963,0.0328445,0.0296402,0.0234985,0.0184631,0.00221252,0.0180435,0.0151825,-0.00553131,-9.97986,0.0306702,-0.00141144,0.0768661,0.471039,0.0630569,-0.00785828,0.0301361,0.0149536
31,3,-0.492353,0.000915527,-0.00717163,-2.42623,0.0572069,-0.0738423,0.0529073,-0.00532361,-0.0946723,0.14776,-0.129123,-0.0822652,0.0276566,0.026207,0.0196457,0.017128,-0.000915527,0.0233459,0.00514984,-0.00411987,-9.97986,0.0174713,-0.001297,0.0796509,0.44796,0.0621414,-0.00747681,0.0314331,0.014801
31,4,-7.74058,0.00183105,-0.00671387,-2.42592,0.0553758,-0.0756734,0.0544332,-0.0178358,-0.0977241,0.146844,-0.130039,-0.0831808,0.026741,0.0237274,0.0152206,0.0134277,-0.00286102,0.0214005,0.00331879,-0.0025177,-9.97986,0.00156403,-0.000152588,0.0747681,0.426178,0.0630188,-0.00675201,0.0301361,0.0151825
31,5,-9.99003,0.00152588,-0.00579834,-2.42409,0.0562914,-0.0744527,0.0562642,0.0108507,-0.0934516,0.145318,-0.129123,-0.0816549,0.0254822,0.0263596,0.018158,0.0170135,0.000953674,0.0307846,0.00328064,0.00789642,-9.97986,0.00110626,0.0019455,0.0693512,0.403328,0.0491714,-0.00114441,0.0302124,0.0206375
31,6,-9.99003,0.000610352,-0.00366211,-2.42562,0.0562914,-0.0738423,0.0556539,0.0465563,-0.0903999,0.144708,-0.126377,-0.0819601,0.0130844,0.0213623,0.0126266,0.0135422,-0.000648499,0.0257874,-0.00160217,0.0144577,-9.97986,0.00289917,-0.00232697,0.069046,0.376053,0.0391006,-0.00934601,0.0289917,0.0186539
31,7,-9.99003,0.000610352,-0.00244141,-2.42623,0.0550706,-0.0744527,0.0547383,0.0584581,-0.0910102,0.146539,-0.125156,-0.0834859,0.0109863,0.0263596,0.0160599,0.0165939,0.00389099,0.0286865,0.000495911,0.00972748,-9.97986,0.0161362,-0.00160217,0.0676727,0.349884,0.0421143,-0.00335693,0.0301743,0.0174713
31,8,-9.99003,0.000305176,-0.00228882,-2.42714,0.055681,-0.0741475,0.0544332,0.0663927,-0.0922309,0.144098,-0.125766,-0.0847066,0.0147629,0.0250626,0.0156403,0.0160599,-0.000991821,0.0289917,-0.00335693,0.00934601,-9.97986,0.027771,-0.00541687,0.0575638,0.327034,0.0422287,-0.00286102,0.0254059,0.0196838
31,9,-9.99003,-0.000915527,0,-2.42592,0.0550706,-0.075063,0.0562642,0.129869,-0.0839912,0.145013,-0.121494,-0.0837911,0.0267029,0.0221252,0.018158,0.0194931,-0.000305176,0.030899,-0.00766754,0.0120926,-9.97986,0.0430679,-0.00473022,0.0602341,0.30426,0.0662613,-0.000686646,0.0249863,0.018692
32,0,-2.41801,0.00183105,0.0012207,-2.42653,0.0535448,-0.075063,0.0547383,0.146959,-0.0858222,0.145318,-0.121189,-0.0856222,0.0323486,0.0218964,0.0172043,0.0205994,0.00110626,0.032692,-0.00267029,0.00999451,-9.97986,0.0442123,-0.00205994,0.057373,0.279884,0.0690079,-0.00431061,0.0279236,0.0182343
32,1,5.66487,0.000305176,0.00244141,-2.42837,0.0538499,-0.0765889,0.0529073,0.153368,-0.0894843,0.144708,-0.121494,-0.0865377,0.0376511,0.0206375,0.0151443,0.0150299,-0.00274658,0.0350189,-0.00488281,0.0115967,-9.97986,0.0421143,-0.0063324,0.0546265,0.258751,0.0649643,-0.0069046,0.0266266,0.0220871
32,2,10.0097,0.00152588,0.00198364,-2.4305,0.0526292,-0.0768941,0.0516866,0.137193,-0.0931465,0.143182,-0.12363,-0.0880636,0.0185776,0.0244141,0.0203323,0.0177383,-0.00240326,0.0382614,-0.00087738,0.0134659,-9.97986,0.0398254,-0.00492096,0.0519943,0.236397,0.0645828,-0.0104523,0.0260925,0.0212479
32,3,10.0097,0.000305176,-0.000610352,-2.42989,0.0532396,-0.0765889,0.0501607,0.0938585,-0.0983344,0.142267,-0.126072,-0.0889791,0.00465393,0.0221634,0.0152969,0.0149918,-0.000915527,0.0443268,-0.00263214,0.00961304,-9.97986,0.0366211,-0.0037384,0.0526428,0.214691,0.0726318,-0.00972748,0.0243759,0.0225449
32,4,10.0097,-0.000305176,-0.00167847,-2.42989,0.0550706,-0.0762837,0.050771,0.0798204,-0.0971137,0.142877,-0.126377,-0.0877584,0.00377655,0.0239944,0.0132751,0.0162506,-0.00225067,0.0513077,7.62939e-005,0.0135803,-9.97986,0.0395966,-0.00102997,0.0488663,0.19455,0.0729752,-0.0126266,0.0246811,0.0254822
32,5,10.0097,0.000915527,-0.00213623,-2.42898,0.0547655,-0.0756734,0.0535176,0.0752428,-0.0946723,0.143487,-0.126987,-0.0874532,0.00728607,0.0220108,0.0136185,0.0128937,-0.00198364,0.0463104,-0.00473022,0.0122833,-9.97986,0.0365448,-0.00511169,0.052681,0.173531,0.0707626,-0.0139618,0.0234985,0.0233078
32,6,10.0097,-0.000610352,-0.00213623,-2.42714,0.0553758,-0.075063,0.0532125,0.0718859,-0.0943672,0.144403,-0.126987,-0.0859274,-0.0025177,0.0239944,0.0125122,0.0162506,-3.8147e-005,0.0523376,0.00190735,0.0180435,-9.97986,0.0280762,-0.00640869,0.0527191,0.151634,0.0727081,-0.0186157,0.0248718,0.0256348
32,7,10.0097,-0.000610352,-0.00167847,-2.42776,0.0547655,-0.075063,0.0544332,0.0709703,-0.0934516,0.145624,-0.126072,-0.0844015,-0.00541687,0.0233078,0.0165939,0.0144196,-0.000228882,0.0498199,0.0025177,0.0131226,-9.97986,0.0204468,-0.00545502,0.0523376,0.130081,0.0774002,-0.018959,0.0224686,0.0257492
32,8,10.0097,0.00244141,-0.00152588,-2.42714,0.0569017,-0.0738423,0.0550435,0.0718859,-0.0928413,0.145624,-0.126072,-0.0847066,-0.0157547,0.0262451,0.0154495,0.0155258,0.000572205,0.0524521,0.00553131,0.0172424,-9.97986,0.0138474,-0.00118256,0.0569916,0.113487,0.0754929,-0.0180817,0.0241852,0.0261307
32,9,10.0097,-0.0012207,-0.00152588,-2.42501,0.0569017,-0.0738423,0.0550435,0.0718859,-0.0919257,0.145318,-0.124851,-0.0825704,-0.0130844,0.0279999,0.0148392,0.017128,0.00144958,0.0530243,0.00404358,0.016861,-9.97986,0.0124741,-0.00717163,0.0538254,0.0930023,0.0769043,-0.0168991,0.0287628,0.0282669
33,0,10.0097,0.0012207,-0.00183105,-2.42409,0.0562914,-0.0738423,0.054128,0.0709703,-0.0928413,0.146234,-0.12363,-0.0819601,-0.0143433,0.0244141,0.016098,0.013504,0.000648499,0.0488663,0.00671387,0.0122833,-9.97986,0.0185013,-0.00835419,0.0556946,0.0739288,0.0788116,-0.0154877,0.0222397,0.0284576
33,1,10.0097,0.000610352,-0.00213623,-2.4244,0.0565965,-0.0729268,0.054128,0.0636461,-0.0934516,0.147455,-0.125766,-0.0825704,-0.0194931,0.0251007,0.0143051,0.017128,0.00171661,0.0478363,0.00999451,0.0104904,-9.97986,0.0228882,-0.00408173,0.0579453,0.0533676,0.0777817,-0.00770569,0.0241852,0.0289917
33,2,8.99556,0.000305176,-0.00396729,-2.42776,0.0547655,-0.075063,0.0513814,0.0108507,-0.0995551,0.145318,-0.126682,-0.0834859,-0.0269318,0.0257874,0.018692,0.0136185,0.00221252,0.0504684,0.0153732,0.0112915,-9.97986,0.0393295,-0.00423431,0.0590515,0.032959,0.0767899,-0.010376,0.0260925,0.0313568
33,3,-0.48686,0.000610352,-0.00701904,-2.42684,0.0569017,-0.073232,0.054128,-0.00532361,-0.095893,0.146539,-0.128818,-0.0831808,-0.029068,0.0275803,0.015831,0.0125122,0.00320435,0.0501251,0.0177383,0.0140762,-9.97986,0.0378799,-0.00488281,0.0538635,0.0127411,0.0767517,-0.0107193,0.0237656,0.0309372
33,4,-7.68779,0,-0.00747681,-2.42592,0.055681,-0.0741475,0.0526021,-0.0169203,-0.0968086,0.147149,-0.129734,-0.0822652,-0.0233459,0.0319672,0.0162125,0.0194168,0.00457764,0.0447464,0.0175095,0.0161362,-9.97986,0.0233078,-0.00785828,0.0504303,-0.00846863,0.0746918,-0.00709534,0.0220871,0.0294876
33,5,-9.99003,-0.000610352,-0.00488281,-2.42501,0.0569017,-0.0741475,0.0553487,0.00963,-0.0946723,0.146539,-0.129123,-0.0816549,-0.00865936,0.0257111,0.0130081,0.0167847,0.00778198,0.0466156,0.0220871,0.0187683,-9.97986,0.0101852,-0.00736237,0.0498199,-0.0240326,0.0588226,0.00259399,0.0227356,0.0231171
33,6,-9.99003,0.000915527,-0.00305176,-2.42592,0.0559862,-0.0744527,0.055959,0.0459459,-0.088874,0.145929,-0.126682,-0.0819601,-0.00148773,0.0273132,0.0179291,0.0143051,0.00282288,0.0417709,0.0247192,0.0244141,-9.97986,-0.00255585,-0.00579834,0.0493622,-0.0370026,0.0473404,0.00598907,0.0218964,0.0300217
33,7,-9.99003,0,-0.00152588,-2.42623,0.0541551,-0.0747579,0.0529073,0.0590685,-0.0900947,0.143792,-0.126072,-0.0825704,-0.00144958,0.0263977,0.0165939,0.0178909,0.00782013,0.043869,0.0235367,0.0213623,-9.97986,-0.00999451,-0.0063324,0.0431442,-0.0515747,0.045166,0.00328064,0.0224304,0.0271225
33,8,-9.99003,0.00152588,-0.00152588,-2.42562,0.055681,-0.0756734,0.0550435,0.0666979,-0.0913154,0.145013,-0.128818,-0.0837911,-0.00656128,0.0267029,0.0180817,0.0152588,0.00671387,0.0365067,0.02491,0.0218201,-9.97986,-0.0146484,-0.00732422,0.043602,-0.0605392,0.0466537,0.000648499,0.0234222,0.0268173
33,9,-9.99003,0.00152588,0.00106812,-2.42592,0.0550706,-0.0741475,0.0562642,0.13048,-0.0858222,0.146234,-0.121799,-0.0825704,-0.000495911,0.0266266,0.0154114,0.0154877,0.00869751,0.037384,0.0295639,0.0225067,-9.97986,-0.0134277,-0.00411987,0.0370789,-0.0732803,0.0665665,-0.00579834,0.0247192,0.0291061
34,0,-2.22575,0.00244141,0.00274658,-2.42714,0.0538499,-0.0747579,0.0565694,0.146044,-0.0858222,0.144098,-0.121494,-0.0840963,0.0147629,0.0260162,0.0192261,0.016861,0.0149536,0.0377655,0.0365448,0.0218201,-9.97986,0.00160217,-0.00747681,0.0376892,-0.083313,0.067215,-0.0144196,0.0263977,0.0315857
34,1,5.86354,0.000610352,0.00289917,-2.42714,0.0541551,-0.0759786,0.0522969,0.152452,-0.0891792,0.143487,-0.121494,-0.085317,0.0407791,0.0241089,0.0191879,0.0143051,0.00995636,0.0407791,0.0322723,0.0185013,-9.97986,0.0179672,-0.0050354,0.0292206,-0.0947189,0.0669098,-0.00526428,0.0235748,0.0306702
34,2,10.0097,-0.000305176,0.00289917,-2.43111,0.0535448,-0.0765889,0.050771,0.135057,-0.0934516,0.143182,-0.123325,-0.0874532,0.0445175,0.0245285,0.0143433,0.016098,0.0144958,0.0348663,0.0371552,0.0154114,-9.97986,0.0167465,-0.00408173,0.030899,-0.108223,0.0690079,-0.00682831,0.0230789,0.0278854
34,3,10.0097,0.00152588,0.000152588,-2.4305,0.0547655,-0.0756734,0.0513814,0.0935533,-0.0961982,0.141961,-0.124851,-0.0886739,0.0337982,0.0248337,0.0191116,0.014267,0.0142288,0.0360489,0.0411987,0.019455,-9.97986,0.0102234,-0.00461578,0.0256348,-0.119629,0.0614929,-0.0159454,0.021286,0.0296402
34,4,10.0097,0.000305176,-0.0012207,-2.43081,0.0538499,-0.0762837,0.0513814,0.0804308,-0.0965034,0.142877,-0.125766,-0.0883688,0.0324249,0.0295258,0.0208282,0.0177002,0.0100708,0.0287247,0.0393295,0.0193787,-9.97986,0.00255585,-0.00671387,0.0290298,-0.129013,0.0602722,-0.0191116,0.0196838,0.030365
34,5,10.0097,0,-0.00137329,-2.42837,0.0550706,-0.075063,0.0522969,0.0749376,-0.0961982,0.144098,-0.126072,-0.0871481,0.038147,0.0260544,0.0194931,0.0132751,0.0139618,0.0281906,0.0422668,0.0188065,-9.97986,0.00400543,-0.00530243,0.0215149,-0.14122,0.0655365,-0.0165939,0.0209427,0.0322342
34,6,10.0097,-0.000305176,-0.00152588,-2.42776,0.0550706,-0.0753682,0.0522969,0.0728014,-0.0925361,0.144708,-0.125766,-0.0856222,0.031395,0.0261307,0.0158691,0.0148773,0.018158,0.028801,0.0453568,0.0230408,-9.97986,0.010376,-0.00473022,0.018425,-0.147095,0.0605011,-0.0188446,0.0195313,0.0323105
34,7,10.0097,0.00183105,0,-2.42837,0.0547655,-0.0741475,0.0547383,0.072191,-0.0937568,0.145013,-0.12363,-0.0840963,0.0222778,0.0231934,0.0157547,0.0151062,0.0128937,0.0241089,0.0508499,0.0184631,-9.97986,0.0117493,-0.00289917,0.0171661,-0.143852,0.0615692,-0.0191116,0.0207901,0.0349045
34,8,10.0097,0.000305176,-0.000305176,-2.42623,0.0550706,-0.075063,0.0532125,0.0706652,-0.0928413,0.143792,-0.125461,-0.0844015,0.0165939,0.0260162,0.0216293,0.0138092,0.0152206,0.0271225,0.0467682,0.0148392,-9.97986,0.00999451,-0.00221252,0.0149536,-0.146751,0.0586319,-0.0227356,0.0165176,0.0331879
34,9,10.0097,0.000610352,0.000305176,-2.4247,0.0572069,-0.0741475,0.0556539,0.0709703,-0.0919257,0.146844,-0.124241,-0.0807394,0.00968933,0.0241852,0.0159836,0.0122452,0.0174713,0.0202179,0.0431824,0.0151443,-9.97986,-0.000572205,-0.00335693,0.0126648,-0.147934,0.0563049,-0.0221634,0.0172806,0.0336075
35,0,10.0097,0.000610352,0.000305176,-2.4247,0.0562914,-0.0738423,0.054128,0.0706652,-0.0919257,0.146539,-0.124851,-0.0813497,0.000762939,0.0234985,0.0136185,0.0125885,0.0165939,0.0196075,0.0434494,0.0193405,-9.97986,-0.0135803,-0.00171661,0.0135803,-0.153618,0.0541306,-0.0197983,0.015831,0.0309753
35,1,10.0097,0.000915527,-0.000152588,-2.42592,0.0562914,-0.0741475,0.0535176,0.0657823,-0.0928413,0.145624,-0.123935,-0.0819601,-0.0188065,0.0229645,0.0185394,0.0161743,0.0223541,0.0167465,0.0464249,0.0185776,-9.97986,-0.0181198,-0.0037384,0.00823975,-0.152664,0.0509262,-0.0178528,0.0153351,0.0341034
35,2,9.22292,0.00152588,-0.00213623,-2.42684,0.055681,-0.0747579,0.0522969,0.0108507,-0.0995551,0.145318,-0.128208,-0.0834859,-0.0370026,0.0247574,0.0185013,0.0133514,0.024147,0.0174332,0.0416565,0.0178528,-9.97986,-0.0292969,0.000495911,0.00801086,-0.151443,0.0508499,-0.0216675,0.0143051,0.0297928
35,3,-0.250959,0.00152588,-0.00411987,-2.42562,0.0572069,-0.073232,0.0535176,-0.00562879,-0.0955879,0.145929,-0.130039,-0.0813497,-0.0467682,0.0257111,0.0178909,0.0127792,0.0213242,0.0140381,0.042572,0.0183105,-9.97986,-0.025177,-0.0043869,0.00274658,-0.154381,0.0475693,-0.0140381,0.0139236,0.0349426
35,4,-7.51872,-0.000305176,-0.00473022,-2.4247,0.055681,-0.0735371,0.0529073,-0.0160048,-0.0955879,0.147455,-0.128818,-0.0819601,-0.0327301,0.0252151,0.0157928,0.0156021,0.0169373,0.0147247,0.0458908,0.022049,-9.97986,-0.0230408,-0.00312805,-0.00423431,-0.155449,0.0418472,-0.0134277,0.0152969,0.0343704
35,5,-9.99003,0.000610352,-0.00411987,-2.42562,0.0559862,-0.0747579,0.0544332,0.0117662,-0.0934516,0.145624,-0.128513,-0.0810445,-0.0153351,0.0258255,0.0192642,0.0101852,0.0204086,0.013237,0.0417328,0.0250244,-9.97986,-0.0197983,-0.00198364,-0.00518799,-0.1577,0.0284576,-0.0159073,0.00858307,0.0347137
35,6,-9.99003,0.000305176,-0.000915527,-2.4244,0.0572069,-0.0741475,0.0565694,0.0459459,-0.0897895,0.145624,-0.126377,-0.0813497,0.00263214,0.0248718,0.0152206,0.00968933,0.0210571,0.00961304,0.0425339,0.0278091,-9.97986,-0.0147629,-0.00152588,-0.00652313,-0.155258,0.0128174,-0.00946045,0.00839233,0.0312042
35,7,-9.99003,0.0012207,-0.000457764,-2.42714,0.0550706,-0.0744527,0.0547383,0.0590685,-0.0916206,0.145318,-0.126072,-0.0810445,-0.000419617,0.0229263,0.0192261,0.0108719,0.0214386,0.0131989,0.0457001,0.0282669,-9.97986,-0.0174332,-0.00354767,-0.00408173,-0.150032,0.013237,-0.0130463,0.00862122,0.0320816
35,8,-9.99003,-0.000610352,0.00106812,-2.42562,0.0550706,-0.0738423,0.0553487,0.0706652,-0.0903999,0.145013,-0.126072,-0.0828756,0.0056076,0.0234222,0.0172043,0.0110626,0.0189209,0.00946045,0.0463104,0.0260162,-9.97986,-0.0279999,-0.000724792,-0.00476837,-0.138817,0.0107193,-0.00846863,0.00614166,0.0307846
35,9,-9.93815,0.0012207,0.00366211,-2.42562,0.0550706,-0.075063,0.0565694,0.133837,-0.0849067,0.147149,-0.121494,-0.0816549,0.0205994,0.0224304,0.018692,0.0154114,0.0222015,0.00591278,0.0452805,0.0270462,-9.97986,-0.028801,0.000152588,-0.00854492,-0.132408,0.0366974,-0.00911713,0.00526428,0.0304031
36,0,-1.88945,0.00183105,0.00350952,-2.42684,0.0541551,-0.0744527,0.0544332,0.147569,-0.088874,0.144708,-0.121189,-0.0834859,0.0405884,0.0278091,0.0164032,0.0153732,0.0193405,0.00812531,0.0411987,0.0260162,-9.97986,-0.0221634,-0.00183105,-0.00644684,-0.131226,0.0329971,-0.00858307,0.00579834,0.026741
36,1,6.18672,0.00183105,0.00473022,-2.42776,0.0544603,-0.0756734,0.0529073,0.153673,-0.0891792,0.144098,-0.122104,-0.085317,0.0414658,0.02285,0.0180817,0.0111008,0.0225067,0.00938416,0.0424957,0.0294876,-9.97986,-0.0114059,-0.000991821,-0.0140381,-0.131531,0.0333786,-0.000343323,0.00659943,0.0268173
36,2,10.0097,0.0012207,0.00427246,-2.43111,0.0517137,-0.0765889,0.050771,0.132921,-0.0934516,0.141351,-0.124241,-0.0880636,0.023613,0.0202179,0.0165176,0.0112152,0.0213623,0.00652313,0.045166,0.0296021,-9.97986,0.0104904,0.000801086,-0.0087738,-0.127449,0.0268173,0.00999451,0.000801086,0.0298691
36,3,10.0097,0.00152588,0.00183105,-2.4302,0.0538499,-0.0762837,0.0498555,0.0941637,-0.0983344,0.142572,-0.126072,-0.0880636,0.00324249,0.0179672,0.0170898,0.010643,0.0242996,-0.000457764,0.0452423,0.028801,-9.97986,0.0354004,0.00221252,-0.00991821,-0.121346,0.0268555,0.0187683,0.00343323,0.0271988
36,4,10.0097,0.000610352,0.000305176,-2.4302,0.0532396,-0.0768941,0.0501607,0.0779894,-0.0971137,0.143182,-0.126987,-0.0886739,0.000762939,0.0226974,0.0218964,0.0118637,0.0234985,3.8147e-005,0.042038,0.0325012,-9.97986,0.0584793,0.000343323,-0.0128555,-0.108757,0.0255203,0.0272751,0.000801086,0.0279236
36,5,10.0097,0,0.000152588,-2.42867,0.0547655,-0.0762837,0.0529073,0.0749376,-0.0946723,0.143487,-0.127292,-0.0859274,0.0062561,0.0241089,0.0150299,0.0118637,0.0230408,0.000686646,0.0403595,0.029068,-9.97986,0.0736618,-0.00221252,-0.0138474,-0.11055,0.0257111,0.0275803,0.000419617,0.0296402
36,6,10.0097,0,0.000762939,-2.42776,0.0541551,-0.0747579,0.0532125,0.072191,-0.0943672,0.145013,-0.126072,-0.0859274,0.00740051,0.0200272,0.0172043,0.0127411,0.0270462,0.00141144,0.0449371,0.0305176,-9.97986,0.0807953,-0.00541687,-0.0142288,-0.111504,0.0204086,0.0286102,0.00167847,0.0278473
36,7,10.0097,0.000305176,0.000152588,-2.42714,0.0553758,-0.0744527,0.0522969,0.0706652,-0.0946723,0.144098,-0.125766,-0.0847066,0.00148773,0.0231171,0.0178909,0.0087738,0.02285,-0.00434875,0.0389481,0.0250626,-9.97986,0.0733566,-0.00289917,-0.0129318,-0.112305,0.0210571,0.0153351,0.00267029,0.0251007
36,8,10.0097,-0.000610352,0.0012207,-2.42745,0.055681,-0.0747579,0.0544332,0.0709703,-0.0925361,0.143792,-0.125766,-0.0831808,-0.0109482,0.021286,0.0223923,0.00679016,0.0263596,-0.00156403,0.0395203,0.0257874,-9.97986,0.0743866,-0.00141144,-0.00869751,-0.110855,0.0172043,0.00804901,0.00656128,0.0262833
36,9,10.0097,0.000610352,0.000152588,-2.4247,0.0553758,-0.0744527,0.0547383,0.0706652,-0.0919257,0.147149,-0.124546,-0.0819601,-0.0329971,0.0230789,0.020752,0.0151443,0.0275421,-0.00202179,0.0444412,0.0240326,-9.97986,0.0713348,-0.0030899,-0.0112152,-0.107346,0.0148392,0.00415802,0.00770569,0.0263214
37,0,10.0097,0.000305176,0.0012207,-2.42623,0.0569017,-0.0738423,0.0547383,0.0712755,-0.0925361,0.145929,-0.124546,-0.0816549,-0.0379562,0.021019,0.0180054,0.0125504,0.0286865,-0.000228882,0.0421906,0.0246048,-9.97986,0.0642776,-0.000228882,-0.0120926,-0.0997543,0.0143433,0.00507355,0.00556946,0.0287628
37,1,10.0097,0.00213623,0.000762939,-2.42623,0.0562914,-0.0738423,0.0544332,0.0630358,-0.0928413,0.144098,-0.125766,-0.0819601,-0.00865936,0.0223541,0.0233841,0.00980377,0.0234604,-0.00320435,0.0448227,0.0240326,-9.97986,0.0524139,0.000305176,-0.010643,-0.0959778,0.00835419,0.0069046,0.00419617,0.026474
37,2,9.02394,0,-0.00198364,-2.42745,0.0562914,-0.0747579,0.0513814,0.0108507,-0.0989448,0.145929,-0.129123,-0.0831808,0.037117,0.0195694,0.0218582,0.0128937,0.0274277,3.8147e-005,0.04776,0.0331497,-9.97986,0.0492859,-0.00938416,-0.00926971,-0.0939178,0.00499725,0.0107193,0.00682831,0.0257874
37,3,-0.378217,0.00274658,-0.00411987,-2.42531,0.0575121,-0.0741475,0.0535176,-0.00745984,-0.0974189,0.147455,-0.129123,-0.0810445,0.0523758,0.0239563,0.0193405,0.0109482,0.0294113,-0.00087738,0.0422287,0.0346375,-9.97986,0.0364685,-0.00270844,-0.00976563,-0.0889206,0.00236511,0.017128,0.00370026,0.0258255
37,4,-7.69328,-0.000305176,-0.00411987,-2.42501,0.0562914,-0.0735371,0.0532125,-0.0160048,-0.0955879,0.148675,-0.129429,-0.0816549,0.0439835,0.0241089,0.0144196,0.00518799,0.0267792,-0.00144958,0.0424194,0.0323105,-9.97986,0.0317383,0.000762939,-0.0128174,-0.0930786,-0.00247955,0.00888824,0.00587463,0.0247574
37,5,-9.99003,-0.000610352,-0.00289917,-2.42501,0.0562914,-0.0738423,0.0553487,0.0111559,-0.0919257,0.147149,-0.129123,-0.0807394,0.0357437,0.0241852,0.0201416,0.00789642,0.0324249,-0.00110626,0.0424957,0.0304794,-9.97986,0.0344849,-0.00156403,-0.01091,-0.0884247,-0.0161362,-0.00740051,0.00534058,0.0271988
37,6,-9.99003,0,-0.0012207,-2.42531,0.0562914,-0.0735371,0.0556539,0.0465563,-0.090705,0.146539,-0.126682,-0.0804342,0.0313568,0.0260925,0.0193024,0.0082016,0.031662,-0.00213623,0.0422668,0.0278473,-9.97986,0.0379562,0.000801086,-0.00919342,-0.0909042,-0.0294876,-0.0188828,0.00740051,0.026207
37,7,-9.99003,0.000915527,-0.000915527,-2.42653,0.0550706,-0.0744527,0.0553487,0.059984,-0.0913154,0.145624,-0.125766,-0.0822652,0.0138092,0.0261688,0.0225449,0.0124741,0.0279236,-0.00553131,0.042038,0.0221634,-9.97986,0.0345612,-7.62939e-005,-0.0112152,-0.0860977,-0.0310898,-0.0159836,0.0119781,0.0243378
37,8,-9.99003,0.000610352,0.000152588,-2.42531,0.0562914,-0.0741475,0.0544332,0.0685289,-0.0922309,0.145013,-0.125461,-0.0831808,0.0112915,0.0310135,0.0223541,0.0108337,0.030365,0.000953674,0.0454712,0.0195313,-9.97986,0.0282288,0.00102997,-0.0148773,-0.0883102,-0.0332642,-0.0116348,0.00854492,0.0244522
37,9,-9.99003,0.000915527,0.00305176,-2.42531,0.0550706,-0.0741475,0.0556539,0.130174,-0.0842964,0.146539,-0.122104,-0.0828756,0.00988007,0.0252533,0.0209808,0.0094986,0.0320816,-0.00202179,0.0448227,0.0133896,-9.97986,0.0218964,-0.00511169,-0.016098,-0.0822067,-0.00801086,-0.00724792,0.0101471,0.0255966
38,0,-2.08201,0,0.0038147,-2.42714,0.0532396,-0.0759786,0.054128,0.146959,-0.0870429,0.143487,-0.121799,-0.0840963,0.0105286,0.0253677,0.0211334,0.0127411,0.0333023,0.00217438,0.0492477,0.0167847,-9.97986,0.015564,0.00137329,-0.0185394,-0.0786972,-0.0112152,-0.00324249,0.0104904,0.0233841
38,1,5.92824,0,0.00442505,-2.42806,0.0547655,-0.0747579,0.0532125,0.154588,-0.0897895,0.142877,-0.121799,-0.0847066,0.0237656,0.0200653,0.0234222,0.0143433,0.0328445,0.00728607,0.0491333,0.00953674,-9.97986,0.017662,0.00148773,-0.0212479,-0.0763321,-0.0165939,-0.00106812,0.0112152,0.0230789
38,2,10.0097,0.000915527,0.00457764,-2.43111,0.0547655,-0.0771993,0.0526021,0.135362,-0.0952827,0.141961,-0.123935,-0.0877584,0.0359726,0.0246811,0.0196838,0.0122833,0.0334549,0.00171661,0.046196,0.0152969,-9.97986,0.00297546,0.00289917,-0.0253296,-0.0664902,-0.015831,0.00930786,0.0118256,0.023613
38,3,10.0097,-0.000915527,0.00167847,-2.4305,0.0538499,-0.0765889,0.0495503,0.0926378,-0.0980293,0.143182,-0.126072,-0.0883688,0.0345612,0.0214386,0.0162125,0.0116348,0.0318146,0.00526428,0.0461197,0.0178146,-9.97986,-0.00286102,0.0018692,-0.0239563,-0.0668335,-0.0165558,0.0113678,0.0138855,0.0199127
38,4,10.0097,0.000610352,0.000762939,-2.4302,0.0541551,-0.0759786,0.0519917,0.080736,-0.0971137,0.142572,-0.126072,-0.0880636,0.0290298,0.0224686,0.0208282,0.00888824,0.0334549,0.00267029,0.0490952,0.015564,-9.97986,0.00740051,0.0037384,-0.0276566,-0.0624847,-0.0176239,0.000762939,0.00839233,0.0236511
38,5,10.0097,0.000610352,0.000305176,-2.42898,0.0544603,-0.0765889,0.0519917,0.0746324,-0.0946723,0.143792,-0.125766,-0.0865377,0.0228119,0.0226593,0.016861,0.00881195,0.0349808,0.0043869,0.0442886,0.0245667,-9.97986,0.0214005,-0.00198364,-0.0273895,-0.0542831,-0.014801,-0.00102997,0.0136566,0.0236893
38,6,10.0097,0.00274658,0.00106812,-2.42837,0.0541551,-0.075063,0.0532125,0.0740221,-0.0937568,0.143487,-0.126072,-0.085317,0.0150681,0.0224686,0.015564,0.0102234,0.0346375,0.00511169,0.0495148,0.02285,-9.97986,0.0243759,-0.000534058,-0.0280762,-0.0423813,-0.0167847,-0.00499725,0.0129318,0.0230789
38,7,10.0097,0.000915527,0.000610352,-2.42684,0.055681,-0.0744527,0.0532125,0.0709703,-0.0934516,0.145318,-0.124851,-0.0837911,0.00617981,0.0248718,0.0157166,0.0063324,0.0345612,0.00389099,0.0504303,0.029068,-9.97986,0.0114822,-0.000839233,-0.0262451,-0.0377655,-0.0165558,-0.00682831,0.0134277,0.023613
38,8,10.0097,0.00213623,0.000457764,-2.42745,0.055681,-0.075063,0.0532125,0.07036,-0.0943672,0.144708,-0.125156,-0.0831808,0.000839233,0.0257874,0.0167084,0.00999451,0.0319672,-0.000152588,0.0526428,0.0273132,-9.97986,0.00274658,-0.00343323,-0.0275803,-0.0321579,-0.0201416,-0.00427246,0.0123215,0.0218582
38,9,10.0097,0.000915527,0.00183105,-2.42531,0.0562914,-0.0741475,0.0553487,0.0700548,-0.0900947,0.145318,-0.124546,-0.0816549,-0.00259399,0.0249481,0.0133133,0.01091,0.0368118,-0.00286102,0.0515747,0.0283051,-9.97986,-0.00087738,-0.00469208,-0.0173569,-0.0236893,-0.0224686,-0.00587463,0.0140381,0.0218964
39,0,10.0097,0.000610352,0.000610352,-2.42379,0.055681,-0.0738423,0.0550435,0.072191,-0.0913154,0.146844,-0.12363,-0.0807394,0.00114441,0.0252151,0.0162506,0.00953674,0.0391388,0.00537872,0.0508118,0.0301361,-9.97986,-0.010643,-0.00442505,-0.0152969,-0.0108337,-0.0233078,-0.000801086,0.0165558,0.0230789
39,1,10.0097,0.000610352,0.000915527,-2.42623,0.0550706,-0.075063,0.0547383,0.0630358,-0.0928413,0.146539,-0.126072,-0.0813497,0.00694275,0.0247192,0.0151825,0.0112152,0.0411987,0.00514984,0.0526428,0.0244904,-9.97986,-0.0121307,-0.00087738,-0.0112152,-0.0043869,-0.0227737,0.00217438,0.0167084,0.0221634
39,2,8.94124,0.000610352,-0.00106812,-2.42684,0.0565965,-0.0744527,0.0516866,0.00932483,-0.0995551,0.145929,-0.128208,-0.0828756,0.0102234,0.0220871,0.018959,0.00904083,0.044136,0.00629425,0.0563812,0.0170898,-9.97986,-0.00488281,-0.00198364,-0.00705719,0.00904083,-0.0218582,0.000572205,0.0148773,0.0179672
39,3,-0.497236,0,-0.00396729,-2.42592,0.0565965,-0.0735371,0.0532125,-0.00593396,-0.0961982,0.146539,-0.130039,-0.0822652,0.00328064,0.0241852,0.0238037,0.0136185,0.0437546,0.00705719,0.0531006,0.0109482,-9.97986,0.0108337,-0.00339508,-0.00408173,0.0172043,-0.0225067,0.00198364,0.0157547,0.0225067
39,4,-7.8538,0.00213623,-0.00396729,-2.42592,0.0565965,-0.0738423,0.0538228,-0.0166151,-0.0977241,0.14776,-0.128513,-0.0819601,-0.0130463,0.026474,0.0195694,0.0123215,0.0439835,0.00476837,0.0577545,0.0179672,-9.97986,0.0281906,-0.00415802,-0.000267029,0.0188828,-0.0259781,0.0056076,0.0160599,0.0198364
39,5,-9.99003,0,-0.00305176,-2.4247,0.0565965,-0.0738423,0.0556539,0.0126818,-0.0928413,0.145318,-0.127903,-0.080129,-0.0155258,0.0243759,0.016861,0.0114441,0.0421906,0.00320435,0.0494766,0.0186157,-9.97986,0.0309372,-0.00347137,-0.00221252,0.0246811,-0.0420761,0.00228882,0.018158,0.0164795
39,6,-9.99003,0.000915527,-0.000305176,-2.42562,0.0562914,-0.0747579,0.0562642,0.0474718,-0.0916206,0.146234,-0.126682,-0.0804342,0.0141144,0.026474,0.021019,0.0113678,0.0482941,0.00656128,0.051651,0.0239944,-9.97986,0.0255966,-0.0044632,0.0069046,0.0328064,-0.0518417,0.0063324,0.0152206,0.0139236
39,7,-9.99003,0.000610352,0.000305176,-2.42684,0.0553758,-0.0738423,0.0550435,0.0596788,-0.090705,0.145013,-0.125766,-0.0816549,0.0418854,0.0201416,0.0165939,0.00427246,0.0429535,0.0101852,0.0474548,0.02491,-9.97986,0.0157928,-0.00984192,0.00766754,0.0439453,-0.0507736,0.00900269,0.0147247,0.0143814
39,8,-9.99003,0.000305176,0.000762939,-2.42592,0.0550706,-0.073232,0.0544332,0.0682238,-0.0910102,0.146234,-0.125766,-0.0828756,0.0407791,0.0229263,0.0206757,0.00995636,0.0470734,0.00686646,0.0513458,0.0271606,-9.97986,0.010376,-0.00579834,0.0110626,0.0492477,-0.0482178,0.00961304,0.0141144,0.0114059
39,9,-9.99003,-0.000915527,0.00289917,-2.42409,0.0553758,-0.0744527,0.0571797,0.133531,-0.0846015,0.144403,-0.121799,-0.0807394,0.0385284,0.0265121,0.0159836,0.0111389,0.0473785,0.00442505,0.0523376,0.02285,-9.97986,0.00770569,-0.00488281,0.0111389,0.0602341,-0.0203705,0.0138092,0.00968933,0.0112534
40,0,-1.97642,0.000610352,0.00396729,-2.42684,0.0547655,-0.075063,0.0550435,0.146654,-0.0876533,0.144403,-0.121189,-0.0850118,0.0304794,0.0250626,0.0192261,0.0117493,0.0482559,0.00587463,0.0506973,0.019989,-9.97986,0.0111389,-0.000991821,0.0205994,0.0680542,-0.0224304,0.00976563,0.0156403,0.0100708
40,1,6.03871,0.000610352,0.00473022,-2.42806,0.0535448,-0.0747579,0.0544332,0.155199,-0.0903999,0.144098,-0.121189,-0.085317,0.022049,0.0222015,0.0140381,0.00778198,0.0495148,0.00156403,0.0421143,0.0165558,-9.97986,0.0162888,-0.00171661,0.0144958,0.0667572,-0.0219727,0.00640869,0.0109863,0.0063324
40,2,10.0097,-0.000305176,0.00411987,-2.43142,0.0532396,-0.0762837,0.0510762,0.133226,-0.0949775,0.142572,-0.12241,-0.0868429,0.0115204,0.0270462,0.0214767,0.0125504,0.0486755,-0.00137329,0.0468826,0.0184631,-9.97986,0.0255585,0.00247955,0.00999451,0.0762558,-0.0188828,0.0133896,0.0178146,0.00858307
40,3,10.0097,0.000610352,0.00228882,-2.42959,0.0529344,-0.0762837,0.0501607,0.092943,-0.0961982,0.143792,-0.126377,-0.0886739,-0.00961304,0.0229263,0.0208664,0.0144196,0.0460815,0.00152588,0.0448227,0.0116348,-9.97986,0.0244141,-0.000724792,0.00965118,0.080452,-0.0183868,0.0128937,0.0141525,0.00328064
40,4,10.0097,0.0012207,0.00106812,-2.42959,0.0544603,-0.0775044,0.0513814,0.0789049,-0.0971137,0.143487,-0.127598,-0.0877584,-0.0246429,0.0231934,0.0219345,0.0169754,0.0439835,0.00160217,0.0422668,0.0201797,-9.97986,0.0210571,-0.00102997,0.00682831,0.089798,-0.0129318,0.0124359,0.0196457,0.00576019
