
Devices
1200
,,BP Load cell - Voltage,String Length - Voltage,Clutch Active - Voltage,#7 iPecs - Voltage,,,,,,,,,EMG 1-8 Left - Voltage,,,,,,,,Pylon Force - Voltage,EMG 9-16 Right - Voltage,,,,,,,,
Frame,Sub Frame,BP Load Cell,String Length,From Arduino Logic,A45,A135,A225,A315,S0,S90,S180,S270,ZSum,EMG 1 Glut Max,EMG 2 Glut Med,EMG 3 Biceps Femoris Long,EMG 4 Rectus Femoris,EMG 5 Vastus Medialis,EMG 6 Tib Ant,EMG 7 Med Gas,EMG 8 Soleus,Pylon volts,EMG 9 Glut Max,EMG 10 Glut Med,EMG 11 Biceps Femoris Long,EMG 12 Rectus Femoris,EMG 13 Vastus Medialis,EMG 14 Tib Ant,EMG 15 Med Gas,EMG 16 Soleus
,,V,V,V,V,V,V,V,V,V,V,V,V,V,V,V,V,V,V,V,V,V,V,V,V,V,V,V,V,V
1,0,5.70485,0.000610352,0.00350952,-2.42776,0.0535448,-0.0759786,0.0535176,0.154283,-0.0891792,0.142267,-0.121799,-0.085317,0.0128555,0.014267,0.0188828,-0.00259399,0.0151825,0.0123978,0.0227356,0.0187683,-9.97986,0.010643,-0.01091,0.0138855,0.0063324,0.0158691,0.00419617,0.0182343,0.00637054
1,1,10.0097,-0.000610352,0.00442505,-2.42989,0.0538499,-0.0768941,0.0501607,0.135973,-0.0943672,0.143182,-0.12302,-0.0874532,0.0113297,0.0144196,0.0224304,0.00350952,0.0167084,0.00892639,0.0257111,0.013504,-9.97986,0.0108719,-0.014534,0.0127411,0.00892639,0.0148392,0.00778198,0.0169373,0.00400543
1,2,10.0097,0.000305176,0.0012207,-2.4305,0.0535448,-0.0756734,0.0504659,0.092943,-0.0974189,0.141961,-0.126987,-0.0886739,0.0108719,0.0207901,0.0188828,0.00934601,0.0224304,0.0130081,0.0221252,0.0133133,-9.97986,0.0144577,-0.0121689,0.0119019,0.00873566,0.0162125,0.00606537,0.0170517,0.00743866
1,3,10.0097,0,0.000305176,-2.42989,0.0538499,-0.0753682,0.050771,0.0804308,-0.0968086,0.143182,-0.125461,-0.0868429,0.0141907,0.021553,0.0171661,0.0069046,0.0146484,0.0102234,0.0226212,0.0154114,-9.97986,0.0124741,-0.000419617,0.0146103,0.00869751,0.0146103,7.62939e-005,0.0152588,0.00762939
1,4,10.0097,-0.000305176,0.000152588,-2.42928,0.0547655,-0.0759786,0.0526021,0.0734117,-0.0961982,0.143792,-0.126377,-0.0868429,0.0113678,0.0231171,0.0208282,0.00907898,0.0191879,0.0141907,0.0226593,0.0154877,-9.97986,0.0107956,0.00549316,0.0112915,0.00854492,0.0131607,0.00221252,0.0111389,0.00717163
1,5,10.0097,0.000610352,0.000152588,-2.42714,0.055681,-0.0741475,0.0532125,0.0718859,-0.0943672,0.144708,-0.125461,-0.0850118,0.0123215,0.0284576,0.0170898,0.000190735,0.0179291,0.0103378,0.0235748,0.0126266,-9.97986,0.0136948,0.00804901,0.0147247,0.00846863,0.0146103,-0.000762939,0.0183487,0.00778198
1,6,10.0097,-0.00213623,-0.000305176,-2.42745,0.0553758,-0.0762837,0.0519917,0.0715807,-0.0943672,0.145318,-0.125461,-0.085317,0.0148773,0.0259399,0.0185394,0,0.018158,0.0138092,0.0215149,0.019722,-9.97986,0.0165176,0.0012207,0.0150681,0.00858307,0.013237,0.0044632,0.0172806,0.00549316
1,7,10.0097,-0.000915527,0.000915527,-2.42592,0.0550706,-0.075063,0.0538228,0.0697496,-0.0925361,0.145318,-0.125156,-0.0844015,0.0094986,0.0285339,0.0191116,-0.00183105,0.0201035,0.0094986,0.0204849,0.0235367,-9.97986,0.0118256,0.00087738,0.0133514,0.00705719,0.0128937,0.00823975,0.0134659,0.00743866
1,8,10.0097,0,0.000152588,-2.42562,0.0562914,-0.0738423,0.0553487,0.0697496,-0.0922309,0.146844,-0.124546,-0.0822652,0.00717163,0.0278473,0.0198746,-0.00244141,0.0187302,0.00904083,0.018425,0.0215912,-9.97986,0.014801,0.00419617,0.0105667,0.0075531,0.0140381,0.0125504,0.0165176,0.00572205
1,9,10.0097,0,0.000152588,-2.4247,0.0569017,-0.0729268,0.0550435,0.0712755,-0.0922309,0.145929,-0.12363,-0.0813497,0.00976563,0.0294495,0.018959,-0.0126648,0.0171661,0.0107574,0.0227737,0.0279999,-9.97986,0.0131989,0.00106812,0.0129318,0.00125885,0.0119781,0.0139999,0.0177002,0.00614166
2,0,10.0097,0.000305176,0.000152588,-2.42531,0.0559862,-0.0738423,0.054128,0.07036,-0.0903999,0.145318,-0.124851,-0.0816549,0.0123978,0.0326157,0.0225449,-0.000839233,0.0185776,0.015831,0.0220871,0.0284195,-9.97986,0.0160217,0.00671387,0.0143051,0.00782013,0.0135422,0.0145721,0.015831,0.00541687
2,1,9.28761,0.000915527,-0.00198364,-2.42714,0.0569017,-0.0744527,0.0516866,0.0248888,-0.0977241,0.147149,-0.126987,-0.0828756,0.0087738,0.0272751,0.0190353,0.0250244,0.0154495,0.00793457,0.0198746,0.0205612,-9.97986,0.0138855,0.00495911,0.00991821,0.00377655,0.0119019,0.00747681,0.014801,0.000915527
2,2,0.447588,0.000305176,-0.00396729,-2.42562,0.0559862,-0.073232,0.054128,-0.00349256,-0.0965034,0.145929,-0.129123,-0.0819601,0.0114059,0.033493,0.0255966,0.0397491,0.0179291,0.0113678,0.0188065,0.0243759,-9.97986,0.0149155,0.00648499,0.0170135,0.0043869,0.0134277,0.0100327,0.0167465,0.00854492
2,3,-6.34807,-0.000915527,-0.00411987,-2.42531,0.0562914,-0.0735371,0.0547383,-0.0163099,-0.0968086,0.145013,-0.129734,-0.0816549,0.0127792,0.0267792,0.022583,0.0337601,0.0184631,0.0118637,0.018959,0.0327682,-9.97986,0.0128937,0.00495911,0.0154877,0.00972748,0.0111008,0.0056839,0.014801,0.00782013
2,4,-9.99003,-0.000305176,-0.00396729,-2.4247,0.0562914,-0.0738423,0.0547383,0.00963,-0.0928413,0.148065,-0.128818,-0.0813497,0.00640869,0.0276566,0.0206375,0.0375366,0.0180054,0.0123978,0.0222015,0.030632,-9.97986,0.0140762,-0.00102997,0.0169754,0.00717163,0.00965118,0.00904083,0.016861,0.00743866
2,5,-9.99003,-0.000915527,-0.00137329,-2.42592,0.055681,-0.0744527,0.0553487,0.0398424,-0.0910102,0.145013,-0.126987,-0.0804342,0.0105286,0.0314331,0.0159073,0.0279617,0.0143433,0.00862122,0.0211334,0.0207901,-9.97986,0.0157547,-0.0130463,0.0120544,0.00881195,-0.01297,0.00453949,0.0146866,0.00610352
2,6,-9.99003,0.00244141,-0.000610352,-2.42592,0.0562914,-0.0744527,0.0556539,0.0578478,-0.0910102,0.145624,-0.125461,-0.0822652,0.0106049,0.0340271,0.0172043,0.0208282,0.0223541,0.0102615,0.0214005,0.020256,-9.97986,0.016861,-0.0225067,0.0138092,0.00358582,-0.01091,0.0030899,0.0159836,0.00495911
2,7,-9.99003,0.000610352,0.000457764,-2.42592,0.0553758,-0.075063,0.0547383,0.0682238,-0.0916206,0.145013,-0.124851,-0.0828756,0.0142288,0.0350189,0.0229263,0.0215912,0.0173187,0.0146866,0.0218964,0.0177383,-9.97986,0.0110626,-0.0180435,0.0163651,0.00782013,-0.0144196,0,0.0154495,0.00415802
2,8,-9.99003,-0.000915527,0.00137329,-2.42562,0.0547655,-0.0741475,0.0568746,0.122545,-0.0849067,0.146844,-0.12241,-0.0822652,0.00930786,0.042038,0.0163269,0.025444,0.0143051,0.00984192,0.0199509,0.0154877,-9.97986,0.0126266,-0.00179291,0.0151825,0.00831604,0.0105286,-0.00579834,0.0144958,0.00400543
2,9,-2.46501,-0.000610352,0.00350952,-2.42776,0.0541551,-0.0759786,0.0550435,0.141466,-0.0882636,0.144403,-0.12302,-0.0847066,0.00972748,0.039978,0.0164032,0.0169754,0.0190735,0.0133514,0.0184631,0.0146866,-9.97986,0.0164032,0.00225067,0.0141144,0.0121307,0.00980377,-0.00591278,0.0156403,0.00705719
3,0,5.48696,0.00183105,0.00366211,-2.42776,0.0541551,-0.0756734,0.0532125,0.154283,-0.088874,0.143792,-0.120884,-0.0850118,0.0104141,0.0366211,0.013504,0.0186157,0.0189972,0.0101852,0.0218964,0.00431061,-9.97986,0.0106049,-0.000953674,0.0135422,0.0103378,0.0105286,-0.00595093,0.0127029,0.00495911
3,1,10.0097,-0.000915527,0.00442505,-2.42989,0.0535448,-0.0765889,0.0516866,0.139025,-0.0928413,0.143182,-0.123325,-0.0868429,0.0139999,0.033989,0.0117493,0.0117874,0.0201035,0.0112915,0.0219727,0.00709534,-9.97986,0.0165558,-0.0130844,0.0146484,0.00556946,0.00995636,-0.000572205,0.0144577,0.00736237
3,2,10.0097,0,0.00137329,-2.4305,0.0532396,-0.0781148,0.0504659,0.0944689,-0.0980293,0.142572,-0.125766,-0.0889791,0.00812531,0.0243759,0.01297,0.00789642,0.0166321,0.00888824,0.0189972,0.0069046,-9.97986,0.0136948,-0.0158691,0.0138855,0.00865936,0.015564,-0.000152588,0.0173187,0.00507355
3,3,10.0097,0.0012207,0.000610352,-2.4302,0.0535448,-0.0756734,0.0519917,0.0795153,-0.0965034,0.143487,-0.127292,-0.0883688,0.0143051,0.0150681,0.0110626,0.00934601,0.0179291,0.0127029,0.020256,0.0063324,-9.97986,0.0153732,-0.013237,0.0166321,0.00488281,0.00816345,-0.00469208,0.0134277,0.00743866
3,4,10.0097,0,-0.000305176,-2.42745,0.0535448,-0.0753682,0.0519917,0.0746324,-0.0946723,0.144708,-0.127292,-0.0865377,0.0123978,0.015831,0.0173187,0.0131989,0.0187683,0.0138092,0.020752,0.00617981,-9.97986,0.0177002,-0.0130463,0.0153732,0.00606537,0.00896454,-0.00133514,0.0164413,0.0056076
3,5,10.0097,0.000915527,0,-2.42776,0.055681,-0.0744527,0.0526021,0.0728014,-0.0952827,0.144403,-0.126377,-0.0847066,0.00976563,0.0232697,0.0166702,0.0151825,0.0178909,0.00724792,0.0191879,0.00534058,-9.97986,0.0165558,-0.00679016,0.0172043,0.0125504,0.0160599,-0.00179291,0.0146866,0.00701904
3,6,10.0097,-0.000305176,0.000762939,-2.42776,0.0541551,-0.0753682,0.0532125,0.0709703,-0.0928413,0.144708,-0.125156,-0.0844015,0.0143814,0.0236893,0.0169754,0.00606537,0.0173569,0.0110626,0.0207138,0.00556946,-9.97986,0.0133133,-0.00682831,0.0162125,0.00564575,0.00919342,-0.00289917,0.0138092,0.00617981
3,7,10.0097,0.000610352,0.000915527,-2.42714,0.0547655,-0.0747579,0.0522969,0.07036,-0.0928413,0.145013,-0.126377,-0.0834859,0.0147247,0.022583,0.0107193,0.0125885,0.0127792,0.00675201,0.0188446,0.0069809,-9.97986,0.0189972,-0.00713348,0.00965118,0.00926971,0.0109482,-0.00965118,0.0186157,0.00965118
3,8,10.0097,0.0012207,0.000457764,-2.42409,0.0562914,-0.0744527,0.054128,0.0709703,-0.0922309,0.145929,-0.124241,-0.0816549,0.0162506,0.0201035,0.00644684,0.0162506,0.0129318,0.00709534,0.016098,0.0149155,-9.97986,0.0165176,-0.00282288,0.0126266,0.00595093,0.0112152,-0.00965118,0.0177765,0.00907898
3,9,10.0097,0.00152588,0.000152588,-2.42531,0.0572069,-0.0726216,0.054128,0.0715807,-0.0925361,0.145929,-0.125766,-0.0828756,0.0136185,0.0251007,0.0142288,0.0167084,0.017128,0.0109482,0.0209045,0.0126648,-9.97986,0.016098,-0.00305176,0.0178909,0.00293732,0.0139999,-0.00743866,0.0165176,0.00484467
4,0,10.0097,-0.000305176,0.000305176,-2.42562,0.0572069,-0.0735371,0.0550435,0.0706652,-0.0925361,0.146234,-0.124241,-0.0810445,0.0113678,0.0336456,0.0232315,0.0134659,0.0192261,0.00823975,0.0193787,0.0122833,-9.97986,0.0214386,0.00358582,0.0153732,0.00621796,0.013237,-0.00705719,0.0162125,0.00808716
4,1,9.30867,0,-0.00259399,-2.42714,0.0562914,-0.0747579,0.0522969,0.0248888,-0.0971137,0.145929,-0.127598,-0.0825704,0.0115585,0.0314331,0.0231552,-0.0031662,0.0161743,0.00679016,0.018959,0.0147247,-9.97986,0.0120544,-0.000991821,0.0123978,0.00770569,0.0123215,-0.00247955,0.0167084,0.00736237
4,2,0.437517,-0.000610352,-0.00549316,-2.42653,0.0572069,-0.0735371,0.0532125,-0.00440808,-0.0977241,0.146539,-0.128208,-0.0813497,0.0152969,0.0289536,0.0284958,-0.018959,0.0185776,0.0152206,0.0179291,0.0101089,-9.97986,0.0138855,-0.001297,0.0118256,0.00663757,0.0113297,-0.00263214,0.0133133,0.0069046
4,3,-6.38133,0.000305176,-0.00457764,-2.42592,0.055681,-0.0738423,0.0538228,-0.0135634,-0.0968086,0.146844,-0.130039,-0.0813497,0.011673,0.0255966,0.0331116,0.00324249,0.016861,0.0111389,0.0191116,0.0125885,-9.97986,0.0162888,-0.00228882,0.0116348,0.00694275,0.0157166,-0.00324249,0.0159073,0.00694275
4,4,-9.99003,0.000915527,-0.00289917,-2.42501,0.0569017,-0.0738423,0.0556539,0.0105455,-0.0931465,0.146234,-0.127598,-0.0804342,0.0111771,0.0278854,0.0311279,0.0174713,0.0175476,0.0111389,0.0213623,0.0157547,-9.97986,0.0158691,0.00499725,0.0164413,0.00743866,0.0114441,-0.00644684,0.0151443,0.00930786
4,5,-9.99003,0.000610352,-0.00152588,-2.4244,0.0565965,-0.0738423,0.0562642,0.0422838,-0.0916206,0.147149,-0.126682,-0.0804342,0.0111389,0.0329971,0.0211334,0.0138092,0.0141525,0.0139618,0.0190353,0.0141907,-9.97986,0.0144958,0.00492096,0.0111771,0.0069046,-0.0143814,-0.0265121,0.0143433,0.00549316
4,6,-9.99003,-0.0012207,-0.000457764,-2.42623,0.0550706,-0.0744527,0.0547383,0.0572374,-0.0897895,0.144403,-0.126072,-0.0813497,0.00984192,0.0267029,0.0188065,0.0182724,0.018425,0.0134277,0.0237274,0.0187302,-9.97986,0.0177765,0.00728607,0.0141144,0.0111008,-0.00991821,-0.0227356,0.0153732,0.00663757
4,7,-9.99003,-0.0012207,0.000152588,-2.42684,0.0541551,-0.0735371,0.0547383,0.0694445,-0.0919257,0.145318,-0.126072,-0.0822652,0.00961304,0.0111389,0.0122833,0.0134277,0.0164032,0.012207,0.0196838,0.0158691,-9.97986,0.0190353,0.00534058,0.0130081,0.00858307,-0.00808716,-0.0174332,0.0162888,0.00770569
4,8,-9.99003,0.00183105,0.00106812,-2.42531,0.0553758,-0.0741475,0.0580953,0.129259,-0.0839912,0.145929,-0.121494,-0.0816549,0.0088501,0.015564,0.0162506,0.0094223,0.0168228,0.0119019,0.0239182,0.014534,-9.97986,0.018692,0.0087738,0.0116348,0.00694275,0.0114441,-0.0121689,0.0178146,0.00465393
4,9,-1.94957,-0.000610352,0.00366211,-2.42714,0.0535448,-0.0747579,0.0544332,0.14055,-0.088874,0.142877,-0.122104,-0.0840963,0.0105286,0.0132751,0.0121307,0.00415802,0.0179672,0.0132751,0.0214005,0.0188828,-9.97986,0.0206375,0.00770569,0.0141525,0.00713348,0.0100708,-0.00354767,0.0154877,0.00766754
5,0,5.68654,-0.000610352,0.00411987,-2.42776,0.0526292,-0.0756734,0.0535176,0.153673,-0.0894843,0.144098,-0.120884,-0.085317,0.0104523,0.0152588,0.00812531,0.00522614,0.0175095,0.00988007,0.025444,0.0185776,-9.97986,0.017395,-0.00450134,0.0175476,0.00701904,0.0136185,0.00904083,0.0162125,0.00808716
5,1,10.0097,-0.000610352,0.00442505,-2.42989,0.0529344,-0.0775044,0.0513814,0.135973,-0.0955879,0.144098,-0.123325,-0.0862325,0.0115204,0.0169754,0.00938416,0.0189209,0.0164795,0.00766754,0.0213623,0.0141525,-9.97986,0.0169373,-0.00328064,0.0107193,0.00492096,0.0127411,0.017128,0.0141907,0.00747681
5,2,10.0097,-0.000610352,0.00137329,-2.43081,0.0535448,-0.0765889,0.0504659,0.0935533,-0.0971137,0.142572,-0.126987,-0.0886739,0.0104904,0.0239563,0.00984192,0.036087,0.0165176,0.00862122,0.0254822,0.0175095,-9.97986,0.0149918,-0.00347137,0.016861,0.0075531,0.0154495,0.0172806,0.0143051,0.00572205
5,3,10.0097,0.000915527,0.000305176,-2.4305,0.0544603,-0.0762837,0.0513814,0.0798204,-0.0961982,0.142877,-0.126377,-0.0874532,0.00759125,0.0177002,0.00614166,0.0341415,0.0130463,0.00835419,0.0231552,0.0170898,-9.97986,0.0190735,-0.010376,0.0154495,0.0102997,0.0118256,0.011673,0.015831,0.00514984
5,4,10.0097,0.000610352,0,-2.42837,0.0541551,-0.0759786,0.0513814,0.0737169,-0.0955879,0.142572,-0.126377,-0.0865377,0.0130081,0.0214386,0.0138855,0.0289917,0.0178909,0.0108337,0.0203323,0.0186539,-9.97986,0.0165558,-0.0056076,0.0152588,0.00896454,0.0114822,0.00926971,0.014267,0.0088501
5,5,10.0097,0,0,-2.42837,0.0547655,-0.0756734,0.0532125,0.0712755,-0.095893,0.144403,-0.126682,-0.085317,0.0108337,0.0233459,0.0145721,0.021286,0.018158,0.00934601,0.0193787,0.018692,-9.97986,0.020256,-0.00457764,0.01297,0.0116348,0.0163269,0.00675201,0.0177383,0.00617981
5,6,10.0097,0,0.000305176,-2.42745,0.0547655,-0.075063,0.0547383,0.0709703,-0.0937568,0.145013,-0.126377,-0.0847066,0.0102234,0.0181961,0.0181961,0.0205612,0.0189972,0.0125122,0.0177002,0.0172806,-9.97986,0.0185013,-0.00244141,0.014801,0.00816345,0.0143433,0.00610352,0.0165939,0.00679016
5,7,10.0097,0.000610352,0.000915527,-2.42806,0.0547655,-0.0744527,0.0529073,0.0712755,-0.0928413,0.146539,-0.124546,-0.0837911,0.0128174,0.00659943,0.0175858,0.0116348,0.0159836,0.00640869,0.0276947,0.020752,-9.97986,0.0150299,0.0038147,0.0148773,0.00720978,0.0125885,0.00343323,0.0123596,0.00457764
5,8,10.0097,-0.0012207,0,-2.4247,0.0559862,-0.0741475,0.0544332,0.0706652,-0.0922309,0.146234,-0.125156,-0.0816549,0.00896454,0.00514984,0.0188065,0.00667572,0.0194168,0.0112915,0.0257874,0.0217438,-9.97986,0.0149918,0.00766754,0.0104141,0.00801086,0.0107574,0.00648499,0.0167084,0.00682831
5,9,10.0097,0,0.000457764,-2.42409,0.0559862,-0.0747579,0.054128,0.0712755,-0.0922309,0.145318,-0.124241,-0.0816549,0.00728607,0.00556946,0.0136948,0.00202179,0.0172806,0.00617981,0.0190353,0.0157166,-9.97986,0.0174713,0.0082016,0.0157547,0.00888824,0.0126266,0.00232697,0.0159073,0.00682831
6,0,10.0097,0.000610352,0.000305176,-2.42592,0.0569017,-0.0744527,0.0547383,0.0724962,-0.0922309,0.146844,-0.12302,-0.0819601,0.00968933,0.0102234,0.00267029,0.0019455,0.0141144,0.00720978,0.019989,0.0209045,-9.97986,0.0172806,0.00663757,0.0157166,0.00770569,0.0137329,-0.00236511,0.0124741,0.00556946
6,1,9.41121,0.000915527,-0.00259399,-2.42684,0.0553758,-0.0741475,0.0532125,0.0248888,-0.0980293,0.146539,-0.127903,-0.0825704,0.0110245,0.0206757,-0.000686646,0.00534058,0.0155258,0.00808716,0.0219727,0.0153732,-9.97986,0.0151062,-0.0019455,0.0159836,0.00743866,0.00961304,-0.00717163,0.0149155,0.00442505
6,2,0.562945,0,-0.00518799,-2.42592,0.0569017,-0.0726216,0.0532125,-0.00227185,-0.0965034,0.14776,-0.130039,-0.0813497,0.00896454,0.0273514,-0.000915527,0.0025177,0.0177002,0.00774384,0.0217819,0.0221252,-9.97986,0.0195313,0.00114441,0.0166702,0.00896454,0.014267,-0.00469208,0.0137711,0.00694275
6,3,-6.1967,-0.0012207,-0.00427246,-2.42562,0.055681,-0.0738423,0.0532125,-0.0144789,-0.0971137,0.14837,-0.130039,-0.0816549,0.0149536,0.0337601,-0.00293732,0.0106049,0.0177765,0.00640869,0.0234222,0.018425,-9.97986,0.0166321,0.00213623,0.0152206,0.00522614,0.016861,-0.00362396,0.0136948,0.00701904
6,4,-9.99003,-0.000305176,-0.00289917,-2.42409,0.0562914,-0.0735371,0.0544332,0.00932483,-0.0928413,0.146539,-0.127903,-0.0816549,0.012207,0.0257492,-0.000343323,0.0210953,0.0186539,0.00610352,0.0263596,0.0232697,-9.97986,0.0143814,0.000190735,0.0152969,0.0043869,0.0140762,-0.00377655,0.0139236,0.00679016
6,5,-9.99003,0.0012207,-0.00213623,-2.4247,0.0562914,-0.0738423,0.055959,0.0401476,-0.0913154,0.145929,-0.126377,-0.0810445,0.0107193,0.0303268,0.00370026,0.02491,0.0180817,0.00869751,0.0241852,0.0234222,-9.97986,0.0140762,-0.0038147,0.0138474,0.00602722,-0.0110245,-0.0112152,0.0158691,0.00934601
6,6,-9.99003,0.00152588,-0.000457764,-2.42653,0.055681,-0.0744527,0.0553487,0.0578478,-0.090705,0.145624,-0.126072,-0.0822652,0.00743866,0.0235367,0.00644684,0.0258636,0.0165558,0.00679016,0.0225449,0.0239182,-9.97986,0.0118256,-0.00205994,0.0121689,0.00984192,-0.0120926,-0.00782013,0.0153732,0.00587463
6,7,-9.99003,0.000305176,0.000152588,-2.42623,0.0559862,-0.0747579,0.0556539,0.0715807,-0.0903999,0.143792,-0.126377,-0.0822652,0.0156784,0.0236893,0.00808716,0.019455,0.0180817,0.00743866,0.0218582,0.0224304,-9.97986,0.0170898,0.00392914,0.0127411,0.00621796,-0.00789642,-0.00213623,0.0173187,0.00591278
6,8,-9.99003,0.00213623,0.00213623,-2.42592,0.0550706,-0.0744527,0.0571797,0.119188,-0.0864326,0.145624,-0.122715,-0.0825704,0.0136566,0.0209808,0.0075531,0.0148773,0.0177002,0.0101089,0.0202179,0.0230026,-9.97986,0.0130081,0.00232697,0.0175858,0.00801086,0.0148773,-0.000648499,0.0138092,0.00846863
6,9,-1.9221,0.000610352,0.00350952,-2.42776,0.0550706,-0.075063,0.0550435,0.141771,-0.0876533,0.143182,-0.121799,-0.0834859,0.0100708,0.0200272,0.013504,0.00377655,0.0144958,0.00919342,0.0214767,0.0203705,-9.97986,0.0120544,0.00114441,0.0131989,0.00976563,0.0156784,-0.00228882,0.0164795,0.00671387
7,0,5.88491,-0.000610352,0.00457764,-2.42776,0.0532396,-0.0738423,0.0538228,0.154588,-0.0894843,0.144403,-0.121189,-0.0859274,0.0123596,0.0195313,0.0115204,-3.8147e-005,0.0168228,0.00801086,0.0206375,0.0239182,-9.97986,0.0137711,-7.62939e-005,0.01297,0.00534058,0.0115585,-0.00614166,0.0108719,0.00293732
7,1,10.0097,0.000305176,0.0050354,-2.42989,0.0538499,-0.0765889,0.0526021,0.133531,-0.0952827,0.142877,-0.124546,-0.0877584,0.0112534,0.0259399,0.0196457,0.00350952,0.0219345,0.0152588,0.0255966,0.0323868,-9.97986,0.0122452,-0.00419617,0.0125504,0.00850677,0.0130081,0.00164032,0.0169754,0.00801086
7,2,10.0097,0,0.00137329,-2.43172,0.0538499,-0.0756734,0.0495503,0.094774,-0.095893,0.142267,-0.125766,-0.0880636,0.0101852,0.0220871,0.0174713,-0.0209045,0.0149536,0.00247955,0.0205612,0.018959,-9.97986,0.0113678,-0.000991821,0.01297,0.0063324,0.0111389,0.00411987,0.0140762,0.00671387
7,3,10.0097,0.000610352,-0.000305176,-2.4302,0.0541551,-0.0747579,0.050771,0.0798204,-0.0977241,0.144098,-0.126377,-0.0880636,0.00709534,0.0282669,0.0193024,-0.021019,0.0213242,0.0108719,0.0235367,0.0223923,-9.97986,0.0120544,7.62939e-005,0.0112152,0.00694275,0.0119781,0.00724792,0.0127411,0.00461578
7,4,10.0097,0.000610352,-0.000152588,-2.42867,0.0535448,-0.0759786,0.0522969,0.0743273,-0.0961982,0.145013,-0.126987,-0.0859274,0.015831,0.0282669,0.0242233,-0.00514984,0.0157547,0.010376,0.0227737,0.0182343,-9.97986,0.0151062,-0.000305176,0.0152206,0.0110245,0.01194,0.0102615,0.0174332,0.00667572
7,5,10.0097,0.000915527,0,-2.42714,0.0541551,-0.0759786,0.0538228,0.072191,-0.0946723,0.145318,-0.125156,-0.0847066,0.0119019,0.0225449,0.0234222,-0.000991821,0.0149918,0.00980377,0.018158,0.0105286,-9.97986,0.0167084,-0.00728607,0.0153732,0.00804901,0.0119019,0.00926971,0.0120163,0.00301361
7,6,10.0097,0,0.000152588,-2.42745,0.0547655,-0.0756734,0.0535176,0.07036,-0.0943672,0.144708,-0.126072,-0.0844015,0.0124359,0.0226593,0.0191879,-0.00694275,0.0197983,0.0120163,0.0204086,0.00934601,-9.97986,0.0131226,7.62939e-005,0.0181198,0.0062561,0.0169373,0.00579834,0.0103378,0.00518799
7,7,10.0097,0.000610352,0.000305176,-2.42623,0.0553758,-0.0735371,0.054128,0.0712755,-0.0925361,0.143792,-0.125156,-0.0840963,0.0104904,0.0192261,0.0236511,-0.00522614,0.0163269,0.00850677,0.0246811,0.0107574,-9.97986,0.0111008,0.0062561,0.0154877,0.00801086,0.0117493,0.00106812,0.0121689,0.0043869
7,8,10.0097,0.000610352,0.000305176,-2.42531,0.0569017,-0.075063,0.054128,0.0718859,-0.0937568,0.14776,-0.124241,-0.0822652,0.0111008,0.0146866,0.029068,-0.017128,0.0165558,0.00865936,0.0237274,0.0133133,-9.97986,0.00919342,0.00778198,0.0148392,0.00595093,0.0117874,-0.00331879,0.0149536,0.00621796
7,9,10.0097,0.0012207,-0.000152588,-2.42531,0.0553758,-0.0744527,0.0544332,0.0718859,-0.0919257,0.146844,-0.124851,-0.0816549,0.00988007,0.022316,0.0340271,-0.0266266,0.0153351,0.00705719,0.0223541,0.0163269,-9.97986,0.0104904,0.0144196,0.0152206,0.00682831,0.0165558,-0.00644684,0.0146484,0.00629425
8,0,10.0097,0.00213623,0.000152588,-2.42409,0.0559862,-0.0738423,0.0544332,0.0697496,-0.0922309,0.146234,-0.12363,-0.0810445,0.0144958,0.0305176,0.0366974,-0.0182724,0.0179672,0.00785828,0.0205994,0.0111008,-9.97986,0.0129318,0.0123215,0.0124741,0.00404358,0.0148773,-0.00968933,0.0159454,0.00522614
8,1,9.24275,0.00183105,-0.00228882,-2.42592,0.0553758,-0.073232,0.0535176,0.0239733,-0.0974189,0.145929,-0.127292,-0.0831808,0.0137329,0.0291061,0.0439072,-0.021286,0.0140381,0.00686646,0.0220108,0.0141525,-9.97986,0.00904083,0.00301361,0.0133896,0.00988007,0.0136185,-0.0144196,0.0133133,0.00804901
8,2,0.343218,0.00183105,-0.00442505,-2.42562,0.0572069,-0.0744527,0.0532125,-0.00440808,-0.0961982,0.145929,-0.128208,-0.0819601,0.00759125,0.0241089,0.0485229,0.00488281,0.015564,0.00640869,0.0216675,0.0161362,-9.97986,0.0113297,-0.00225067,0.0141525,0.00850677,0.0172043,-0.0118637,0.0139999,0.00953674
8,3,-6.47349,0.0274658,-0.00473022,-2.42592,0.0559862,-0.0747579,0.0538228,-0.0147841,-0.0961982,0.161493,-0.129123,-0.0828756,0.00904083,0.0179672,0.0464249,0.0305176,0.0191498,0.0117493,0.0241852,0.0189972,-9.97986,0.0149155,-0.00720978,0.0124359,0.00965118,0.0163651,-0.0223541,0.0144958,0.00675201
8,4,-9.99003,0.00244141,-0.00259399,-2.42562,0.0562914,-0.0738423,0.0553487,0.0102404,-0.0928413,0.150506,-0.129123,-0.0807394,0.0094223,0.0170898,0.0406265,0.01297,0.0203323,0.00507355,0.0208282,0.0151825,-9.97986,0.0135422,-0.013237,0.0147629,0.00736237,0.0126266,-0.0388336,0.0141144,0.00972748
8,5,-9.99003,0,-0.00213623,-2.42379,0.0559862,-0.073232,0.0562642,0.0422838,-0.0910102,0.14898,-0.126377,-0.0810445,0.0100327,0.0256729,0.0373459,0.00705719,0.0187302,0.0107956,0.0223541,0.0191498,-9.97986,0.0189209,-0.0121689,0.0143814,0.00671387,-0.0114822,-0.0419998,0.0140762,0.00732422
8,6,-9.99003,0.00152588,-0.000457764,-2.42623,0.0550706,-0.0747579,0.0553487,0.0575426,-0.0916206,0.146844,-0.125461,-0.0816549,0.00827789,0.0305557,0.0269699,0.0554276,0.0167084,0.0110245,0.0239563,0.0179672,-9.97986,0.0140381,-0.00652313,0.010643,0.00843048,-0.00831604,-0.0226974,0.0141525,0.00659943
8,7,-9.99003,-0.00152588,0.000610352,-2.42684,0.055681,-0.0747579,0.0544332,0.0685289,-0.0900947,0.145318,-0.125461,-0.0828756,0.00457764,0.0278854,0.0150299,0.0914383,0.0175858,0.00965118,0.0244522,0.0230408,-9.97986,0.0227737,-0.00427246,0.0173187,0.00934601,-0.00423431,-0.0126648,0.0136948,0.00576019
8,8,-9.99003,-0.000305176,0.00137329,-2.42562,0.0553758,-0.0753682,0.0568746,0.124376,-0.0849067,0.145929,-0.121189,-0.0825704,0.00904083,0.0216675,0.0111008,0.0740051,0.0151062,0.00888824,0.0193787,0.0182724,-9.97986,0.0178146,-0.00442505,0.00926971,0.00667572,0.0163269,-0.000114441,0.0111389,0.00816345
8,9,-2.11345,0.000610352,0.00396729,-2.42684,0.0547655,-0.0753682,0.0550435,0.140856,-0.0876533,0.144098,-0.122715,-0.0847066,0.00675201,0.0231171,0.015564,0.0538635,0.0147629,0.0128174,0.0245285,0.0113678,-9.97986,0.0186539,-0.00320435,0.0139236,0.00923157,0.0157547,0.0147247,0.0132751,0.00408173
9,0,5.62673,0.000610352,0.00396729,-2.42837,0.0532396,-0.075063,0.0535176,0.154894,-0.0897895,0.144098,-0.121799,-0.0847066,0.00656128,0.0203705,0.0199509,0.0485992,0.0185013,0.00995636,0.0247192,0.0140381,-9.97986,0.0149918,-0.00659943,0.013504,0.00270844,0.0140381,0.0244141,0.0135803,0.00709534
9,1,10.0097,0.00152588,0.00473022,-2.4305,0.0526292,-0.0762837,0.0516866,0.137499,-0.0922309,0.144403,-0.123325,-0.0874532,0.0102615,0.0218582,0.0229263,0.047493,0.0167465,0.00946045,0.0214767,0.0102615,-9.97986,0.0141144,-0.00236511,0.01297,0.00297546,0.0129318,0.0248718,0.0171661,0.00617981
9,2,10.0097,0.00183105,0.000915527,-2.43111,0.0532396,-0.0762837,0.0501607,0.094774,-0.0983344,0.143182,-0.126072,-0.0883688,0.0105286,0.0187683,0.0209808,0.0408936,0.0177765,0.0104141,0.0230026,0.0167847,-9.97986,0.0203323,0.000267029,0.014801,0.00835419,0.0182724,0.022049,0.0171661,0.0127029
9,3,10.0097,-0.000610352,-0.000305176,-2.42959,0.0529344,-0.0753682,0.0504659,0.0792101,-0.0961982,0.143487,-0.126072,-0.0880636,0.00530243,0.0192642,0.0151062,0.03582,0.0166702,0.0117111,0.0170898,0.0162506,-9.97986,0.0167084,0.00133514,0.014267,7.62939e-005,0.0165176,0.0136185,0.0112152,0.00602722
9,4,10.0097,0.000610352,-0.000152588,-2.42898,0.0532396,-0.0768941,0.0522969,0.0740221,-0.0955879,0.144403,-0.127598,-0.0862325,0.0105286,0.0188828,0.0118637,0.0263596,0.0205994,0.0117111,0.0263977,0.0181961,-9.97986,0.018158,0.0107574,0.0162888,0.00808716,0.0175858,0.00919342,0.0144958,0.00850677
9,5,10.0097,-0.000305176,-0.000457764,-2.42745,0.0538499,-0.0744527,0.0535176,0.0724962,-0.0946723,0.146539,-0.126072,-0.0859274,0.00602722,0.0237274,0.00499725,0.0343323,0.0143051,0.00766754,0.0247955,0.017395,-9.97986,0.018692,0.0122833,0.0101089,0.00740051,0.017662,0.00507355,0.0146103,0.00881195
9,6,10.0097,0,0.000152588,-2.42806,0.0550706,-0.0744527,0.0532125,0.0712755,-0.094062,0.145624,-0.126377,-0.0847066,0.00865936,0.0240707,0.000305176,0.0414276,0.0157166,0.00984192,0.0177765,0.0159836,-9.97986,0.0167465,0.0112915,0.0149918,0.00656128,0.0159836,-0.00442505,0.0159454,0.00717163
9,7,10.0097,-0.000610352,0.000152588,-2.42592,0.0535448,-0.0744527,0.0544332,0.0712755,-0.0931465,0.145318,-0.126072,-0.0840963,0.00614166,0.0198746,-0.000457764,0.0366974,0.0187302,0.00980377,0.0203323,0.0215149,-9.97986,0.0205994,0.00797272,0.018158,0.00629425,0.0139236,-0.00377655,0.0162506,0.0087738
9,8,10.0097,0.000915527,0,-2.42501,0.0569017,-0.0744527,0.0544332,0.0718859,-0.0916206,0.145624,-0.124546,-0.0822652,0.0117493,0.0195694,0.000152588,0.0282669,0.0179672,0.00888824,0.0153351,0.0152588,-9.97986,0.0110245,-0.00297546,0.0129318,0.00320435,0.0151825,-0.00549316,0.0125122,0.00930786
9,9,10.0097,0.0012207,-0.000152588,-2.42623,0.0572069,-0.0735371,0.0550435,0.0712755,-0.0913154,0.145318,-0.125156,-0.0819601,0.00968933,0.0143814,-0.0018692,0.0218964,0.0175476,0.0125885,0.021286,0.0183105,-9.97986,0.0156784,-0.0150681,0.0150681,0.00190735,0.0148773,-0.0105286,0.0152588,0.00648499
10,0,10.0097,0.0012207,0.000457764,-2.42501,0.0569017,-0.075063,0.0538228,0.0697496,-0.0916206,0.146234,-0.124241,-0.0813497,0.00850677,0.0161743,0.00431061,0.0172806,0.0196075,0.0128555,0.0154877,0.0206375,-9.97986,0.0133896,-0.0175476,0.0108719,0.00782013,0.0153732,-0.00888824,0.0164413,0.00724792
10,1,9.28853,0.000915527,-0.00244141,-2.42745,0.055681,-0.0741475,0.0526021,0.0248888,-0.095893,0.145318,-0.127292,-0.0834859,0.0138474,0.0152588,0.0139999,0.0118637,0.0162125,0.00995636,0.0198746,0.0151062,-9.97986,0.0131989,-0.0156784,0.0108337,0.00518799,0.014267,-0.00797272,0.0135803,0.00652313
10,2,0.371905,0.000305176,-0.0050354,-2.42623,0.0569017,-0.073232,0.0538228,-0.00501844,-0.0971137,0.146844,-0.128513,-0.0816549,0.0101089,0.0140762,0.0106812,0.00617981,0.0168228,0.0107574,0.0227737,0.0172424,-9.97986,0.0155258,-0.00957489,0.0107574,0.00255585,0.0138855,-0.00774384,0.0117874,0.00686646
10,3,-6.41673,0.000610352,-0.00442505,-2.42531,0.0572069,-0.0747579,0.0535176,-0.0138685,-0.0955879,0.146844,-0.129734,-0.0819601,0.00881195,0.0235367,0.0155258,0.00900269,0.0195313,0.0107193,0.023613,0.0236511,-9.97986,0.0164413,-0.00205994,0.0117111,0.00923157,0.0149918,-0.00324249,0.0173187,0.00610352
10,4,-9.99003,0.000610352,-0.00366211,-2.42501,0.0562914,-0.0741475,0.0556539,0.00963,-0.0925361,0.14776,-0.127598,-0.0810445,0.00812531,0.0245667,0.0134277,0.00892639,0.0164032,0.00946045,0.0218201,0.0235748,-9.97986,0.0135422,-0.0056839,0.0112152,0.00720978,0.0153732,-0.00217438,0.0134659,0.00881195
10,5,-9.99003,0.00183105,-0.00106812,-2.4244,0.0547655,-0.0741475,0.055959,0.0416735,-0.0897895,0.145624,-0.127903,-0.0810445,0.0123215,0.0255966,0.0180054,0.00850677,0.0172424,0.0124741,0.0236511,0.0190353,-9.97986,0.0114441,-0.00732422,0.0129318,0.00701904,-0.00648499,-0.000801086,0.019455,0.00579834
10,6,-9.99003,0.0012207,-0.000457764,-2.42684,0.0559862,-0.073232,0.0550435,0.0578478,-0.0913154,0.146539,-0.125766,-0.0831808,0.0118637,0.0252151,0.022583,0.0111008,0.0136948,0.0082016,0.0193787,0.017662,-9.97986,0.0138855,-0.00297546,0.0117493,0.00297546,-0.00396729,-0.00228882,0.0181961,0.00537872
10,7,-9.99003,0.000610352,0.000305176,-2.42653,0.0559862,-0.0741475,0.0547383,0.0688341,-0.0900947,0.146234,-0.125766,-0.0828756,0.013237,0.0206375,0.0195313,0.00804901,0.0161362,0.0107956,0.0188446,0.0202942,-9.97986,0.0165558,-0.00434875,0.0153351,0.00553131,-0.00488281,0.00141144,0.0155258,0.00602722
10,8,-9.99003,0.0012207,0.00183105,-2.42623,0.0544603,-0.0753682,0.0565694,0.12285,-0.0858222,0.145929,-0.121799,-0.0813497,0.0113297,0.0195313,0.0154495,0.00404358,0.0144958,0.0112152,0.0218582,0.0148773,-9.97986,0.0127792,-0.00301361,0.0183105,0.0050354,0.0183868,0.00038147,0.0163651,0.00595093
10,9,-2.09697,-0.000305176,0.00305176,-2.42653,0.0532396,-0.0756734,0.0553487,0.143297,-0.088874,0.143487,-0.121799,-0.0844015,0.0159073,0.0218201,0.0218582,0.00621796,0.0143433,0.00907898,0.0188065,0.014801,-9.97986,0.0146866,0.00038147,0.010643,0.0069809,0.021553,-0.00164032,0.0180054,0.00682831
11,0,5.67861,0.000305176,0.00427246,-2.42867,0.0541551,-0.0753682,0.0532125,0.153673,-0.0894843,0.142877,-0.120884,-0.085317,0.0117874,0.0210571,0.0182343,0.0037384,0.0197601,0.0094986,0.0222397,0.0168228,-9.97986,0.0102615,0.0025177,0.0175095,0.00331879,0.0147629,-0.00244141,0.0140762,0.00705719
11,1,10.0097,0.000305176,0.00457764,-2.4302,0.0526292,-0.0765889,0.0510762,0.136278,-0.0937568,0.142267,-0.12363,-0.0871481,0.012207,0.0249863,0.020256,0.00495911,0.0148392,0.00766754,0.0237274,0.0167465,-9.97986,0.00915527,0.00465393,0.0104141,0.00766754,0.0167847,-0.0037384,0.014267,0.0056076
11,2,10.0097,0.000915527,0.000915527,-2.4302,0.0535448,-0.0759786,0.0498555,0.0920275,-0.0977241,0.143182,-0.126377,-0.0889791,0.0172424,0.0191879,0.0231171,0.00148773,0.0189209,0.0123978,0.021286,0.0144577,-9.97986,0.014534,0.00370026,0.0115585,0.00537872,0.0198364,-0.00537872,0.0146103,0.00400543
11,3,10.0097,-0.000915527,0.000457764,-2.42928,0.0547655,-0.0762837,0.0501607,0.0789049,-0.0971137,0.142877,-0.127292,-0.0874532,0.0133133,0.0239563,0.0240707,0.00434875,0.0178528,0.0100327,0.0185013,0.014801,-9.97986,0.0149918,0.00385284,0.0121689,0.00545502,0.0179291,-0.010376,0.0157547,0.00553131
11,4,10.0097,0,-0.000610352,-2.42837,0.0535448,-0.0762837,0.0516866,0.0740221,-0.0949775,0.144098,-0.126377,-0.0859274,0.00919342,0.0207901,0.0201416,0.0050354,0.0202942,0.00556946,0.0208664,0.0149536,-9.97986,0.0114441,-0.00617981,0.0130463,0.00305176,0.0218582,-0.00984192,0.0113678,0.0018692
11,5,10.0097,-0.00183105,0.000305176,-2.42806,0.0562914,-0.075063,0.0513814,0.0718859,-0.0943672,0.143792,-0.126072,-0.085317,0.0130844,0.0279617,0.024147,0.00553131,0.0167847,0.00926971,0.0248718,0.0161743,-9.97986,0.0147629,-0.00717163,0.0159073,0.00671387,0.0203323,-0.0069046,0.0180435,0.00743866
11,6,10.0097,-0.0012207,0.000305176,-2.42684,0.0547655,-0.0747579,0.0532125,0.0709703,-0.0934516,0.145318,-0.125156,-0.0844015,0.0139999,0.0246429,0.0230789,0.00404358,0.0144196,0.00953674,0.0207138,0.0183487,-9.97986,0.0120544,-0.00637054,0.00900269,0.00408173,0.0185013,-0.00751495,0.0157166,0.0101471
11,7,10.0097,0.000610352,-0.000305176,-2.42745,0.0547655,-0.0747579,0.0538228,0.0724962,-0.0943672,0.145318,-0.125766,-0.0847066,0.011673,0.016861,0.0194931,0.000305176,0.0170898,0.0159836,0.0214386,0.0162506,-9.97986,0.0119781,-0.00213623,0.0127029,0.00232697,0.0194931,-0.00720978,0.016098,0.00804901
11,8,10.0097,0.000305176,0.000610352,-2.4247,0.055681,-0.073232,0.0553487,0.0712755,-0.0916206,0.145624,-0.125156,-0.0822652,0.0143433,0.0203323,0.0191879,-0.0038147,0.0173569,0.0116348,0.0226974,0.0133896,-9.97986,0.0172043,-0.00205994,0.0138092,0.00583649,0.0194931,-0.0030899,0.0146103,0.00228882
11,9,10.0097,0.00213623,0.000152588,-2.42684,0.0575121,-0.0738423,0.0544332,0.0718859,-0.0913154,0.145013,-0.123935,-0.0819601,0.0106049,0.0276566,0.0203705,-0.0130081,0.0133896,0.00717163,0.0183105,0.0150299,-9.97986,0.0111389,-0.00900269,0.011673,0.00270844,0.0125885,-0.00595093,0.014534,0.00312805
12,0,10.0097,-0.000610352,0.000152588,-2.4247,0.0562914,-0.0744527,0.0550435,0.072191,-0.0913154,0.146539,-0.125156,-0.0810445,0.0162125,0.0285721,0.0235748,-0.0184631,0.0163651,0.00984192,0.0215912,0.0166321,-9.97986,0.0156403,-0.00434875,0.0136566,0.0069046,0.0188065,-0.00198364,0.0152206,0.00213623
12,1,9.30074,0.000305176,-0.00244141,-2.42714,0.055681,-0.0744527,0.0532125,0.0233629,-0.0965034,0.146539,-0.127903,-0.0825704,0.0109482,0.0274277,0.0192642,-0.026741,0.0150681,0.0069809,0.0189972,0.0185776,-9.97986,0.0154877,-0.000228882,0.0135422,0.00350952,0.0199509,-0.000343323,0.0130463,0.00522614
12,2,0.482683,0.00305176,-0.00488281,-2.42531,0.0569017,-0.0735371,0.0532125,-0.0028822,-0.0971137,0.146844,-0.128513,-0.0813497,0.00896454,0.0358582,0.0157928,-0.0253296,0.018692,0.0088501,0.0190735,0.0218582,-9.97986,0.0139236,-0.00156403,0.0141525,0.00221252,0.0144958,-0.00198364,0.0138092,0.00144958
12,3,-6.36424,0.000305176,-0.00457764,-2.4247,0.0562914,-0.0738423,0.0544332,-0.0150892,-0.0965034,0.145929,-0.128818,-0.0819601,0.0133133,0.0373459,0.0160599,-0.0322342,0.0196457,0.0113297,0.0209045,0.019722,-9.97986,0.0130844,-0.00267029,0.0102234,0.00366211,0.019989,0,0.0163651,0.00389099
12,4,-9.99003,-0.000915527,-0.00366211,-2.4247,0.0575121,-0.0744527,0.0556539,0.0108507,-0.0925361,0.147455,-0.127903,-0.0807394,0.0100327,0.0270844,0.0188446,-0.0426865,0.0138092,0.00999451,0.0191116,0.0191879,-9.97986,0.0102997,0.00137329,0.0138474,0.00679016,0.0183868,-0.00370026,0.0151443,0.00587463
12,5,-9.99003,0.00152588,-0.00137329,-2.4244,0.0559862,-0.0744527,0.055959,0.0413683,-0.0891792,0.146844,-0.125766,-0.0807394,0.0109482,0.0241089,0.0205612,-0.0244904,0.0165558,0.00873566,0.0206757,0.0230789,-9.97986,0.0134277,-0.00236511,0.0105286,0,-0.00526428,-0.000648499,0.0197983,0.00553131
12,6,-9.99003,-0.000610352,-0.000457764,-2.42531,0.055681,-0.0747579,0.0550435,0.0560167,-0.0916206,0.145929,-0.126072,-0.0825704,0.00835419,0.0279617,0.0281143,0.017128,0.0178146,0.0129318,0.0220108,0.0137711,-9.97986,0.0125122,-0.000572205,0.013237,0.00160217,-0.00473022,-0.00347137,0.0204086,0.00404358
12,7,-9.99003,0.000610352,-0.000457764,-2.42531,0.0569017,-0.0738423,0.0547383,0.0712755,-0.0910102,0.145624,-0.125766,-0.0834859,0.0143433,0.0334549,0.0335312,0.0216675,0.0147247,0.00804901,0.0138855,0.0205994,-9.97986,0.0150299,-0.0019455,0.0156403,0.00823975,0.00587463,0.000762939,0.0165176,0.00652313
12,8,-9.99003,0.000610352,0.00198364,-2.42592,0.0550706,-0.0741475,0.0556539,0.124986,-0.0852119,0.145318,-0.121799,-0.0825704,0.0100708,0.0325394,0.0304031,0.00656128,0.0195694,0.0111771,0.0196457,0.0167465,-9.97986,0.0142288,-0.00301361,0.0122452,0.00354767,0.0211716,-0.00270844,0.0171661,0.00667572
12,9,-2.0692,0,0.00305176,-2.42776,0.0532396,-0.075063,0.0550435,0.142381,-0.0882636,0.143487,-0.121799,-0.0840963,0.0115967,0.014267,0.0161743,0.0167084,0.0169373,0.00865936,0.0169373,0.0136185,-9.97986,0.0144196,0.000686646,0.0154114,0.00179291,0.014534,-0.00564575,0.0202942,0.00709534
13,0,5.7668,0.000305176,0.00442505,-2.42776,0.0538499,-0.0753682,0.0550435,0.154283,-0.0900947,0.143487,-0.121494,-0.0856222,0.0102615,0.00392914,0.0121689,0.0328445,0.0177765,0.00839233,0.019455,0.0108337,-9.97986,0.0172424,-0.00225067,0.0136185,0.00408173,0.0173569,-0.00495911,0.0199127,0.00728607
13,1,10.0097,0.0012207,0.00442505,-2.42959,0.0538499,-0.0765889,0.0513814,0.134447,-0.0943672,0.143182,-0.123935,-0.0874532,0.0142288,0.0146866,0.0193024,0.0439453,0.0177765,0.00629425,0.0183868,0.0140381,-9.97986,0.018425,-0.00087738,0.015564,-0.000495911,0.0180435,-0.00610352,0.0162125,0.00846863
13,2,10.0097,0.00213623,0.0012207,-2.43142,0.0541551,-0.0756734,0.0492452,0.092943,-0.0980293,0.142572,-0.126377,-0.0895895,0.00972748,0.0113297,0.0193787,0.0304031,0.0159073,0.00846863,0.0174332,0.0114059,-9.97986,0.0183105,-0.00221252,0.0141907,0.00442505,0.0168228,-0.0152969,0.0143814,0.00526428
13,3,10.0097,0.000610352,0,-2.42837,0.0538499,-0.0762837,0.0522969,0.0782946,-0.0965034,0.143182,-0.127292,-0.0877584,0.0118637,0.0205994,0.0247955,0.0187683,0.0152588,0.0109482,0.0171661,0.0120544,-9.97986,0.0153351,0.00267029,0.0162506,0.00110626,0.0183105,-0.0121689,0.0183487,0.00892639
13,4,10.0097,0.000610352,0.000457764,-2.42745,0.0535448,-0.075063,0.0529073,0.0749376,-0.0955879,0.144708,-0.126072,-0.0865377,0.0109863,0.0260925,0.0245285,0.00102997,0.0218964,0.0120926,0.015831,0.0167084,-9.97986,0.017662,0.00324249,0.0133133,0.0069046,0.0156784,-0.00682831,0.0173187,0.00614166
13,5,10.0097,0.000610352,0.000152588,-2.42806,0.055681,-0.0762837,0.0522969,0.0724962,-0.094062,0.143487,-0.126377,-0.085317,0.0105667,0.0245285,0.0220108,-0.0056839,0.0162125,0.0128174,0.0192642,0.018425,-9.97986,0.0118637,0.0019455,0.0131226,0.00736237,0.0217819,-0.00331879,0.0166321,0.00473022
13,6,10.0097,-0.000305176,0.000305176,-2.42623,0.0553758,-0.0753682,0.054128,0.07036,-0.0931465,0.144708,-0.125766,-0.0850118,0.00598907,0.0214386,0.0165176,0.0109482,0.0206757,0.0126266,0.025444,0.0197983,-9.97986,0.0205994,-0.00118256,0.0121307,0.00415802,0.0178146,0.0018692,0.0177765,0.00354767
13,7,10.0097,0,0.000152588,-2.42806,0.055681,-0.0741475,0.0526021,0.0712755,-0.0937568,0.145624,-0.126072,-0.0837911,0.0119781,0.0229263,0.0154114,0.0167465,0.0165558,0.0104904,0.0258255,0.0173187,-9.97986,0.0179291,-0.00534058,0.0155258,0.00415802,0.0172806,0.00423431,0.0209427,0.00476837
13,8,10.0097,0.000610352,0.000915527,-2.4244,0.0572069,-0.0741475,0.0547383,0.072191,-0.0928413,0.145929,-0.124546,-0.0822652,0.00846863,0.0263977,0.00862122,0.0159073,0.0194931,0.0123215,0.0254822,0.0165176,-9.97986,0.0216675,-0.000572205,0.0107956,0.00598907,0.0196457,0.00881195,0.0219345,0.00370026
13,9,10.0097,-0.000610352,0.000305176,-2.4244,0.0569017,-0.0735371,0.0535176,0.0712755,-0.0922309,0.146539,-0.124241,-0.0813497,0.0100327,0.0241852,0.0131989,0.00984192,0.0130463,0.0094986,0.0190353,0.0185776,-9.97986,0.0209427,-0.000190735,0.0120544,0.00484467,0.018425,0.00743866,0.018158,0.0037384
14,0,10.0097,0.00152588,-0.000457764,-2.42623,0.0559862,-0.0735371,0.0550435,0.0718859,-0.090705,0.148065,-0.123325,-0.0804342,0.0143051,0.0254059,0.00648499,0.0149536,0.0201035,0.00778198,0.0209427,0.018692,-9.97986,0.0213242,0.00347137,0.00865936,0.00583649,0.0195694,0.00259399,0.0218964,0.0038147
14,1,9.36879,0.000305176,-0.00320435,-2.42592,0.0565965,-0.0729268,0.0532125,0.0233629,-0.0980293,0.145624,-0.126987,-0.0831808,0.0108337,0.0265503,0.00835419,0.016098,0.0191498,0.0104141,0.0199127,0.0159836,-9.97986,0.0185776,0.00198364,0.018692,0.00331879,0.0179291,-0.0069809,0.0174332,0.00453949
14,2,0.537005,0.0012207,-0.00457764,-2.42501,0.0569017,-0.0735371,0.0535176,-0.00410291,-0.0949775,0.145624,-0.130039,-0.0819601,0.0104904,0.0246429,0.0063324,0.00858307,0.0163269,0.0115204,0.0174713,0.0199127,-9.97986,0.017662,0.00423431,0.0119781,0.00205994,0.0163651,-0.0115585,0.0177383,0.00144958
14,3,-6.23881,-0.000915527,-0.00427246,-2.42623,0.0581224,-0.0738423,0.0538228,-0.0141737,-0.0965034,0.147149,-0.129429,-0.0813497,0.0112534,0.0329971,0.0117874,0.0121307,0.0156403,0.0140762,0.0233459,0.0219345,-9.97986,0.0164795,0.00457764,0.0150299,0.00347137,0.0216675,-0.00473022,0.0169754,0.00518799
14,4,-9.99003,0.00213623,-0.00366211,-2.42501,0.0559862,-0.0729268,0.0556539,0.0111559,-0.0925361,0.146539,-0.128513,-0.0810445,0.0130081,0.0258255,0.014267,0.0130844,0.0166702,0.0116348,0.0196075,0.0281143,-9.97986,0.0193787,0.011673,0.0132751,0.00637054,0.0197983,-0.00507355,0.0181961,0.00217438
14,5,-9.99003,0.000915527,-0.00167847,-2.4247,0.055681,-0.0735371,0.055959,0.0407579,-0.0903999,0.146234,-0.126377,-0.0807394,0.0114822,0.025177,0.0153732,0.0122452,0.0200653,0.0120926,0.0221634,0.0267792,-9.97986,0.0174713,0.00675201,0.0110626,0.0082016,-0.00747681,-0.00511169,0.0144958,0.00324249
14,6,-9.99003,0,-0.000610352,-2.42623,0.0550706,-0.0738423,0.055959,0.0560167,-0.090705,0.146539,-0.126682,-0.0825704,0.00743866,0.0256348,0.0164795,0.00694275,0.0186157,0.0117493,0.0226593,0.0301361,-9.97986,0.0149155,-0.000267029,0.0152206,0.00362396,-0.00701904,-0.000457764,0.0166702,0.00484467
14,7,-9.99003,0.000610352,-0.000152588,-2.42684,0.0541551,-0.0738423,0.0550435,0.07036,-0.0903999,0.145929,-0.124851,-0.0825704,0.00804901,0.0267792,0.0177002,0.0111771,0.0179672,0.0116348,0.0191879,0.0206757,-9.97986,0.017128,-0.00926971,0.0159454,0.00576019,-0.00274658,-0.00179291,0.0183868,0.00530243
14,8,-9.99003,-0.000305176,0.00137329,-2.4247,0.0553758,-0.075063,0.0565694,0.124681,-0.0858222,0.145318,-0.121494,-0.0822652,0.00968933,0.0282288,0.0131989,0.00236511,0.0231171,0.0103378,0.0231171,0.0252914,-9.97986,0.0148392,-0.00526428,0.0144577,0.0069046,0.0212097,0.00499725,0.0182724,0.00415802
14,9,-1.96849,0.00274658,0.00350952,-2.42684,0.0532396,-0.075063,0.0556539,0.140856,-0.0894843,0.144708,-0.121799,-0.0837911,0.0100708,0.0278091,0.0163651,0.00606537,0.0198746,0.00888824,0.0199127,0.0268555,-9.97986,0.0161362,-0.00980377,0.01297,0.001297,0.0168991,-0.000762939,0.0150299,0.00278473
15,0,5.81624,-0.0012207,0.00427246,-2.42806,0.0532396,-0.0756734,0.054128,0.154588,-0.0900947,0.144403,-0.121799,-0.0856222,0.0125504,0.0241852,0.0144958,0.00602722,0.0201797,0.00923157,0.0244141,0.0222015,-9.97986,0.0159836,-0.00972748,0.0138855,0.00583649,0.0221252,0.000534058,0.0177383,0.00328064
15,1,10.0097,0.000915527,0.0050354,-2.42989,0.0529344,-0.0747579,0.0516866,0.134447,-0.0934516,0.143792,-0.123325,-0.0883688,0.0082016,0.0218582,0.0112152,0.00232697,0.0143814,0.00751495,0.021553,0.0156403,-9.97986,0.0185013,-0.00720978,0.0112152,0.00522614,0.0179672,-0.000762939,0.0160599,0.00160217
15,2,10.0097,-0.0012207,0.00106812,-2.43081,0.0535448,-0.0753682,0.0501607,0.0935533,-0.0968086,0.141961,-0.125156,-0.0883688,0.00965118,0.0223923,0.0165558,0.00370026,0.0170898,0.00854492,0.0222015,0.0162506,-9.97986,0.0141525,-0.00530243,0.0118256,0.000991821,0.0201035,-0.00255585,0.0131607,0.00640869
15,3,10.0097,-0.000305176,0.000305176,-2.4305,0.0535448,-0.0771993,0.0513814,0.0795153,-0.0971137,0.143182,-0.126072,-0.0883688,0.00904083,0.02388,0.0141144,0.00526428,0.0164795,0.01194,0.0205612,0.011673,-9.97986,0.014801,-0.00411987,0.0148773,0.00621796,0.0192642,-0.000648499,0.0168228,0.00743866
15,4,10.0097,0.000305176,0,-2.42776,0.0538499,-0.075063,0.0529073,0.0746324,-0.0952827,0.145013,-0.126682,-0.0865377,0.00667572,0.0189972,0.0145721,0.00701904,0.0170135,0.0112152,0.022049,0.0112915,-9.97986,0.0137711,-0.000305176,0.0139999,0.00350952,0.0138092,-0.00522614,0.0153351,0.00255585
15,5,10.0097,0.000610352,0,-2.42928,0.0535448,-0.075063,0.0522969,0.0731066,-0.0928413,0.144708,-0.126987,-0.085317,0.00785828,0.0186157,0.0134277,0.00839233,0.020256,0.0103378,0.0184631,0.0135422,-9.97986,0.0160599,-0.000839233,0.0159454,0.00431061,0.0153732,-0.00370026,0.0162506,0.00507355
15,6,10.0097,0.000915527,0.000457764,-2.42745,0.0553758,-0.0744527,0.0538228,0.07036,-0.0946723,0.145624,-0.126377,-0.0850118,0.00782013,0.0198746,0.015831,0.0118637,0.0185013,0.00785828,0.0205612,0.0123596,-9.97986,0.0150299,-0.000762939,0.0138855,0.00343323,0.0177765,-0.00350952,0.0183868,0.0063324
15,7,10.0097,-0.000305176,0.000152588,-2.42623,0.0553758,-0.0753682,0.0538228,0.0709703,-0.0931465,0.145013,-0.125156,-0.0840963,0.0120544,0.0147629,0.0118637,0.0135803,0.0172043,0.0117493,0.0171661,0.0141907,-9.97986,0.0107193,-0.00335693,0.0177002,0.00370026,0.0181961,-0.00347137,0.0176239,0.0044632
15,8,10.0097,0.000610352,0.000305176,-2.42592,0.0569017,-0.0753682,0.0547383,0.072191,-0.0903999,0.145624,-0.124851,-0.0819601,0.00827789,0.0177765,0.0111008,0.0154495,0.014801,0.00984192,0.0221634,0.0149536,-9.97986,0.016098,0.000152588,0.0149918,0.00457764,0.0183105,-0.0025177,0.0197983,0.00572205
15,9,10.0097,-0.000610352,0.000915527,-2.42592,0.0575121,-0.0741475,0.0547383,0.0712755,-0.0922309,0.147149,-0.124546,-0.0816549,0.00846863,0.0225067,0.0120163,0.0173569,0.014534,0.0124741,0.0172043,0.0125885,-9.97986,0.0149536,0.00476837,0.0141144,0.00492096,0.0177765,0.00133514,0.0159073,0.00389099
16,0,10.0097,0.000610352,0,-2.42562,0.055681,-0.0738423,0.0556539,0.0694445,-0.0922309,0.146539,-0.124546,-0.0810445,0.00713348,0.0216293,0.0137329,0.0148392,0.0131607,0.00793457,0.0172806,0.0152969,-9.97986,0.0149155,0.00148773,0.0198364,0.00736237,0.0210571,0.001297,0.0163651,0.00423431
16,1,9.24123,0.000915527,-0.00259399,-2.42684,0.055681,-0.0741475,0.0519917,0.0221422,-0.0971137,0.146539,-0.127903,-0.0828756,0.0087738,0.0252151,0.014534,0.0153351,0.0203705,0.0115967,0.0197601,0.0140381,-9.97986,0.0147247,-0.00247955,0.0180054,0.00843048,0.019989,-0.001297,0.017662,0.00537872
16,2,0.331316,0.00152588,-0.00534058,-2.4247,0.0575121,-0.0735371,0.054128,-0.00532361,-0.0961982,0.145929,-0.128208,-0.0819601,0.00961304,0.0234222,0.019455,0.0159073,0.0145721,0.0119781,0.0167465,0.0149155,-9.97986,0.0113297,0.0025177,0.0173569,0.00801086,0.0207901,0.00331879,0.0153732,0.00846863
16,3,-6.47502,0.000305176,-0.00488281,-2.42592,0.0562914,-0.0741475,0.0535176,-0.0141737,-0.0961982,0.146844,-0.129734,-0.0816549,0.0088501,0.0234222,0.0193024,0.0127029,0.0127792,0.0118637,0.0178146,0.0182724,-9.97986,0.0114059,-0.0019455,0.0178909,0.00614166,0.0194168,0.000534058,0.0190735,0.00469208
16,4,-9.99003,0.000915527,-0.00335693,-2.42501,0.0559862,-0.0735371,0.0562642,0.00871447,-0.0922309,0.146234,-0.128818,-0.0810445,0.00991821,0.0276184,0.0224686,0.012207,0.015564,0.00961304,0.0159836,0.0139999,-9.97986,0.0100708,0.00934601,0.0188065,0.00923157,0.0190353,-0.00213623,0.0156403,0.00648499
16,5,-9.99003,0.0012207,-0.00183105,-2.4247,0.0553758,-0.0729268,0.055959,0.0431993,-0.0894843,0.145624,-0.127292,-0.0819601,0.0125885,0.0279999,0.0210571,0.0142288,0.0168228,0.0103378,0.0205231,0.0163269,-9.97986,0.0115967,0.00846863,0.0172806,0.0031662,-0.00911713,-0.00343323,0.0154114,0.00778198
16,6,-9.99003,0.000305176,-0.000610352,-2.42531,0.0559862,-0.0747579,0.0550435,0.0569322,-0.0910102,0.146539,-0.126072,-0.0813497,0.0139618,0.0324631,0.018692,0.0113297,0.0183487,0.0130463,0.0177002,0.0146484,-9.97986,0.0146866,0.0124741,0.0175858,0.00957489,-0.00507355,-0.00514984,0.0156403,0.00465393
16,7,-9.99003,0.000305176,0.000915527,-2.42592,0.0547655,-0.0747579,0.0562642,0.0697496,-0.0910102,0.146844,-0.125156,-0.0822652,0.0104141,0.032196,0.0269699,0.00972748,0.0214386,0.00804901,0.0218201,0.0189209,-9.97986,0.0161743,0.00846863,0.017662,0.00957489,-0.00389099,-0.00823975,0.014534,0.00530243
16,8,-9.99003,-0.00183105,0.00152588,-2.42592,0.055681,-0.0741475,0.0565694,0.124071,-0.0852119,0.145318,-0.121799,-0.0819601,0.00465393,0.0311661,0.0207901,0.0127792,0.0138855,0.0108337,0.0198746,0.0201035,-9.97986,0.0130081,0.00751495,0.0122833,0.00705719,0.0193405,-0.0106049,0.0173187,0.00709534
16,9,-2.17021,0.00152588,0.00350952,-2.42714,0.0532396,-0.0741475,0.0550435,0.142687,-0.0876533,0.144708,-0.122715,-0.0840963,0.0106812,0.0297928,0.0226593,0.0240326,0.0185394,0.0114059,0.0201035,0.0128555,-9.97986,0.0128937,0.00782013,0.0173569,0.00720978,0.0174332,-0.00484467,0.0157547,0.00495911
17,0,5.62917,0.00244141,0.00411987,-2.42837,0.0535448,-0.075063,0.0529073,0.153368,-0.0891792,0.143792,-0.121189,-0.0850118,0.0111771,0.0292206,0.0224686,0.0199127,0.0172806,0.0105667,0.0199509,0.0154877,-9.97986,0.0156021,-0.00396729,0.0174332,0.00679016,0.0169754,-0.00358582,0.0173187,0.00816345
17,1,10.0097,0.00183105,0.00442505,-2.4302,0.0523241,-0.0765889,0.0519917,0.136888,-0.094062,0.144708,-0.123325,-0.0868429,0.0121689,0.0271225,0.0185394,0.0125122,0.0193787,0.0100327,0.0229263,0.0158691,-9.97986,0.00602722,-0.0131226,0.0175095,0.00545502,0.0222778,-0.00415802,0.0162125,0.00579834
17,2,10.0097,-0.000305176,0.0012207,-2.42959,0.0535448,-0.0765889,0.0498555,0.0944689,-0.0977241,0.142267,-0.125766,-0.0880636,0.0100708,0.0267792,0.0249863,0.0113297,0.0189972,0.00961304,0.0229645,0.0190735,-9.97986,0.0102615,-0.0157928,0.0177383,0.0069046,0.0227356,-0.00274658,0.0181198,0.0075531
17,3,10.0097,-0.000915527,0.000152588,-2.4305,0.0538499,-0.0762837,0.0513814,0.0792101,-0.0968086,0.143182,-0.127598,-0.0883688,0.0114059,0.0301743,0.0201035,0.0107193,0.0127411,0.0130844,0.0231552,0.0246429,-9.97986,0.0105667,-0.0173187,0.0148392,0.00823975,0.0203323,-0.00331879,0.0175858,0.00736237
17,4,10.0097,0.000305176,0.000305176,-2.42837,0.0547655,-0.0759786,0.0504659,0.0749376,-0.0955879,0.144403,-0.126072,-0.0865377,0.0133133,0.0339127,0.0175095,0.00926971,0.016861,0.0126648,0.0225449,0.0239563,-9.97986,0.00793457,-0.0154114,0.0137329,0.00705719,0.0208664,-0.00118256,0.0161743,0.00408173
17,5,10.0097,0.00213623,0.000152588,-2.42776,0.0538499,-0.0753682,0.0529073,0.0718859,-0.0937568,0.145013,-0.125766,-0.0850118,0.00923157,0.0373459,0.0165558,0.00278473,0.0111389,0.0104141,0.0244141,0.0216293,-9.97986,0.0162506,-0.0156021,0.0176239,0.00957489,0.0235748,-0.00709534,0.0197601,-0.000572205
17,6,10.0097,0.000915527,-0.000305176,-2.42745,0.0569017,-0.0747579,0.0532125,0.0718859,-0.094062,0.144708,-0.125461,-0.0850118,0.0103378,0.0484848,0.016861,0.001297,0.00907898,0.00637054,0.0255585,0.0257874,-9.97986,0.0123215,-0.0148773,0.0153351,0.00724792,0.018158,-0.017662,0.0174332,-0.000114441
17,7,10.0097,0,0.000762939,-2.42684,0.0553758,-0.0753682,0.0538228,0.0709703,-0.0955879,0.144098,-0.125461,-0.0840963,0.0132751,0.0267029,0.020256,0.00221252,0.0150681,0.00804901,0.0259399,0.0233078,-9.97986,0.0162125,-0.00686646,0.0145721,0.00938416,0.0182343,-0.0126266,0.0191498,0.00816345
17,8,10.0097,0.000610352,0.000305176,-2.42623,0.0562914,-0.0735371,0.0547383,0.0709703,-0.0919257,0.145624,-0.124851,-0.0831808,0.0109482,0.00473022,0.0229263,0.000648499,0.0172043,0.00862122,0.021286,0.0293732,-9.97986,0.0157547,-0.00171661,0.017662,0.00679016,0.0264359,-0.00686646,0.0153732,0.00362396
17,9,10.0097,0.000305176,0.000457764,-2.42562,0.0559862,-0.073232,0.0538228,0.0712755,-0.0919257,0.147455,-0.124241,-0.0819601,0.0115204,0.00747681,0.020752,0.00419617,0.0144196,0.00907898,0.0237656,0.0329971,-9.97986,0.0139618,0.00720978,0.0179291,0.0062561,0.0210571,0.00354767,0.0147247,0.0056076
18,0,10.0097,0.0012207,-0.000305176,-2.42562,0.0562914,-0.0741475,0.0544332,0.0697496,-0.0913154,0.146539,-0.123935,-0.0807394,0.0107956,0.0114822,0.0239563,-0.00854492,0.0142288,0.00743866,0.0224686,0.0274658,-9.97986,0.0160599,0.00682831,0.0162506,0.00713348,0.0165558,0.0102997,0.0181198,0.00343323
18,1,9.21437,0.0012207,-0.00228882,-2.42714,0.0569017,-0.0726216,0.0529073,0.0242784,-0.0977241,0.145929,-0.127903,-0.0825704,0.00724792,0.0200653,0.0224304,-0.0137711,0.0087738,0.0127792,0.0229645,0.0262451,-9.97986,0.016098,0.0127411,0.0133514,0.00679016,0.020752,0.0102997,0.015831,0.00537872
18,2,0.2773,0,-0.0050354,-2.42531,0.0569017,-0.0729268,0.054128,-0.00593396,-0.0955879,0.147455,-0.128513,-0.0819601,0.00980377,0.0289536,0.0296783,-0.0146103,0.0159073,0.0102234,0.0258255,0.0238037,-9.97986,0.0161362,0.00957489,0.0139999,0.00766754,0.0189209,0.0146866,0.0166321,0.00583649
18,3,-6.51439,0.00152588,-0.00488281,-2.42623,0.0559862,-0.0744527,0.054128,-0.0153944,-0.0961982,0.146844,-0.129123,-0.0825704,0.0119781,0.0295258,0.0344086,-0.0164795,0.01297,0.00724792,0.0253677,0.0157547,-9.97986,0.0181198,0.00404358,0.0154877,0.00629425,0.0175858,0.0143814,0.0154495,0.00522614
18,4,-9.99003,0.000610352,-0.00289917,-2.42592,0.055681,-0.0738423,0.0544332,0.0108507,-0.0934516,0.14776,-0.127903,-0.080129,0.0127411,0.0241089,0.0323105,0.00740051,0.013237,0.0108337,0.02285,0.0131226,-9.97986,0.0119781,0.00331879,0.0123978,0.00583649,0.0179672,0.0127792,0.018959,0.00511169
18,5,-9.99003,-0.000610352,-0.00152588,-2.4244,0.0562914,-0.075063,0.055959,0.0419786,-0.0897895,0.146539,-0.126987,-0.0810445,0.0120163,0.00804901,0.0395966,0.0385666,0.0196457,0.0133896,0.0214767,0.00457764,-9.97986,0.0198746,-0.00125885,0.0139618,0.0111389,-0.00843048,0.0056839,0.0171661,0.0062561
18,6,-9.99003,0.0012207,-0.000610352,-2.42623,0.055681,-0.0738423,0.0544332,0.058153,-0.0900947,0.145929,-0.126682,-0.0822652,0.00854492,0.00640869,0.0383377,0.0618362,0.0177002,0.00991821,0.0203323,-0.00404358,-9.97986,0.019989,-0.00148773,0.0164413,0.00900269,-0.00659943,0.00579834,0.0151062,0.0038147
18,7,-9.99003,0,0.000305176,-2.42562,0.0559862,-0.073232,0.0553487,0.07036,-0.0900947,0.145013,-0.125766,-0.0825704,0.0131226,0.0094986,0.0372696,0.0609207,0.0175858,0.0124741,0.0218582,-0.00274658,-9.97986,0.0170135,-0.00545502,0.0141144,0.00675201,-0.00564575,-0.000915527,0.0162888,0.00827789
18,8,-9.99003,0.00244141,0.0012207,-2.4247,0.0553758,-0.0735371,0.0565694,0.124071,-0.0852119,0.144098,-0.121799,-0.0825704,0.0119019,0.00465393,0.0344467,0.0469208,0.0172043,0.0127411,0.0196457,0.00610352,-9.97986,0.0196075,-0.00938416,0.0145721,0.00545502,0.0170898,-0.0102997,0.0146103,0.00457764
18,9,-2.11802,0.000915527,0.00366211,-2.42684,0.0541551,-0.0759786,0.0535176,0.141466,-0.0882636,0.145318,-0.122104,-0.0837911,0.0136185,0.00686646,0.02388,0.0304794,0.0150681,0.0105667,0.0186539,0.0062561,-9.97986,0.0189972,-0.00930786,0.0152588,0.00179291,0.0180817,-0.0201035,0.0164032,0.00686646
19,0,5.64504,0.000305176,0.00411987,-2.42837,0.0535448,-0.0747579,0.0522969,0.153673,-0.088874,0.143792,-0.120884,-0.0847066,0.0102234,0.011673,0.0252914,0.0249481,0.0201035,0.0133133,0.0245285,0.0157166,-9.97986,0.0205231,0.00102997,0.0152969,0.00709534,0.0212097,-0.015564,0.0198746,0.00709534
19,1,10.0097,0.000305176,0.00427246,-2.4302,0.0523241,-0.0765889,0.0498555,0.135973,-0.0943672,0.142877,-0.12363,-0.0877584,0.0112915,0.0114822,0.0173569,0.0188828,0.017662,0.0104523,0.0199509,0.0123215,-9.97986,0.0161743,0.00545502,0.0141144,0.00411987,0.0156403,-0.0106049,0.0163651,0.00396729
19,2,10.0097,-0.000305176,0.000610352,-2.42959,0.0541551,-0.0759786,0.0504659,0.0935533,-0.0971137,0.143487,-0.125461,-0.0898946,0.00965118,0.0159073,0.019722,0.020256,0.0182724,0.0108719,0.0222015,0.0156403,-9.97986,0.018692,0.0063324,0.0122833,0.00621796,0.0141144,-0.0112915,0.0170517,0.00667572
19,3,10.0097,0.000610352,0.000610352,-2.4302,0.0541551,-0.0756734,0.0516866,0.0782946,-0.0955879,0.143487,-0.126072,-0.0880636,0.00938416,0.0174332,0.00915527,0.0153732,0.0172424,0.0094223,0.0216293,0.0153732,-9.97986,0.0183105,0.00892639,0.0176239,0.00587463,0.018425,-0.0112152,0.0171661,0.00862122
19,4,10.0097,0.0012207,0,-2.42898,0.0541551,-0.0747579,0.0519917,0.0740221,-0.0943672,0.143487,-0.126682,-0.0862325,0.0104904,0.0220871,0.0122833,0.0199127,0.0202179,0.01194,0.0210953,0.0178528,-9.97986,0.028038,0.00671387,0.0178528,0.0123596,0.0223923,0.000953674,0.0207138,0.00919342
19,5,10.0097,-0.000610352,-0.000305176,-2.42837,0.0553758,-0.0756734,0.0538228,0.0718859,-0.0949775,0.143792,-0.126682,-0.0847066,0.001297,0.0119019,0,0.0118637,0.0144958,0.00427246,0.0138855,0.00919342,-9.97986,0.0149536,-0.0172043,0.00682831,0.00225067,0.0107956,-0.00423431,0.01297,0.00240326
19,6,10.0097,-0.000305176,0.000610352,-2.42714,0.055681,-0.0765889,0.0522969,0.0715807,-0.0931465,0.144708,-0.124851,-0.0847066,0.0120544,0.0218964,0.00656128,0.0199127,0.0205994,0.014801,0.0267029,0.0160599,-9.97986,0.0178909,-0.0126266,0.0157166,0.00694275,0.0214767,0.00869751,0.0143814,0.00709534
19,7,10.0097,0.00305176,-0.000152588,-2.42776,0.0550706,-0.0741475,0.054128,0.0712755,-0.0934516,0.144098,-0.126072,-0.0834859,0.00576019,0.0186157,0.00411987,0.0119781,0.0136185,0.0113678,0.0193405,0.0143814,-9.97986,0.0181961,-0.0127029,0.0160599,0.00499725,0.0177383,0.0104523,0.015564,0.0100708
19,8,10.0097,-0.00152588,0.000152588,-2.42501,0.0544603,-0.0735371,0.0547383,0.0715807,-0.0916206,0.146844,-0.124851,-0.0825704,0.00507355,0.0225449,0.00713348,0.0147629,0.014534,0.0120544,0.0242615,0.0178146,-9.97986,0.015564,-0.00766754,0.0166702,0.00514984,0.0215912,0.015564,0.0159836,0.00740051
19,9,10.0097,0.00152588,0,-2.42653,0.0562914,-0.0738423,0.054128,0.0718859,-0.0919257,0.147455,-0.123935,-0.0825704,0.00816345,0.0234604,0.00938416,0.01091,0.0162888,0.0122452,0.0239182,0.0168228,-9.97986,0.0155258,-0.00171661,0.0157547,0.0062561,0.016098,0.0119019,0.0160599,0.0063324
20,0,10.0097,0,-0.000305176,-2.42562,0.055681,-0.0744527,0.0550435,0.07036,-0.0922309,0.146844,-0.12363,-0.0810445,0.00743866,0.0271988,0.0186157,0.0111008,0.0161362,0.0133514,0.0208664,0.0190735,-9.97986,0.0130081,0.0056839,0.0112534,0.00732422,0.0191116,0.0111771,0.0152588,0.00953674
20,1,9.31996,0.000305176,-0.00183105,-2.42745,0.0569017,-0.075063,0.0526021,0.0224474,-0.0977241,0.145624,-0.126987,-0.0825704,0.0101089,0.0320816,0.0108719,0.0135422,0.0149918,0.00701904,0.0234985,0.022049,-9.97986,0.0128937,0.00385284,0.0153732,0.00724792,0.0168228,0.00232697,0.0115967,0.00682831
20,2,0.391131,-0.000610352,-0.00442505,-2.42684,0.0572069,-0.0735371,0.054128,-0.00471326,-0.0980293,0.14776,-0.129429,-0.0822652,0.0110245,0.0310516,0.0156784,0.0150299,0.0148392,0.00926971,0.0225449,0.0269699,-9.97986,0.0130081,0.00621796,0.0128555,0.00759125,0.0166702,0.00183105,0.0167847,0.00396729
20,3,-6.42894,0.000915527,-0.00442505,-2.42562,0.0569017,-0.0714009,0.0544332,-0.0141737,-0.095893,0.146234,-0.130039,-0.0816549,0.0112534,0.0327682,0.0159454,0.0151825,0.0180054,0.00617981,0.0201797,0.0242233,-9.97986,0.0105667,0.0056839,0.0152969,0.00667572,0.013504,0.00102997,0.0173569,0.0113678
20,4,-9.99003,0.000305176,-0.00320435,-2.4247,0.055681,-0.0738423,0.0547383,0.0114611,-0.0931465,0.147149,-0.127292,-0.0804342,0.0127029,0.0344467,0.0215912,0.0114822,0.0152206,0.0114441,0.016861,0.0231934,-9.97986,0.0120163,0.000915527,0.0144577,0.00907898,0.0144958,-0.00228882,0.0143433,0.0111389
20,5,-9.99003,0.000305176,-0.00152588,-2.42531,0.0565965,-0.0738423,0.055959,0.0410631,-0.0900947,0.146234,-0.127292,-0.0804342,0.0122452,0.0329971,0.0273132,0.0139618,0.0169754,0.0105667,0.0217056,0.0203323,-9.97986,0.0103378,0.00259399,0.0157547,0.00774384,-0.00640869,-0.00694275,0.0165558,0.0101089
20,6,-9.99003,-0.00152588,-0.000305176,-2.42562,0.0544603,-0.075063,0.0550435,0.058153,-0.090705,0.145929,-0.126072,-0.0819601,0.0106049,0.0290298,0.0183105,0.00656128,0.0190353,0.00904083,0.0182724,0.0178909,-9.97986,0.0126266,-0.0044632,0.0143433,0.00957489,-0.00930786,-0.00926971,0.016861,0.00873566
20,7,-9.99003,-0.000610352,-0.000305176,-2.42592,0.0550706,-0.073232,0.055959,0.0700548,-0.090705,0.145318,-0.125766,-0.0834859,0.0122452,0.0376129,0.0172806,0.00274658,0.0213242,0.00988007,0.0213623,0.0188065,-9.97986,0.0163269,-0.01091,0.0165558,0.00816345,-0.00904083,-0.00961304,0.0147247,0.00991821
20,8,-9.99003,0.000915527,0.00213623,-2.42501,0.0547655,-0.075063,0.0562642,0.123461,-0.0849067,0.145624,-0.122715,-0.0822652,0.0127792,0.0366974,0.0159073,0.00602722,0.0159073,0.0134277,0.0239182,0.0151825,-9.97986,0.0118256,-0.0184631,0.0182343,0.00282288,0.0151443,-0.00522614,0.016861,0.0114059
20,9,-2.11162,-0.000915527,0.00396729,-2.42745,0.0550706,-0.0744527,0.0550435,0.142381,-0.0876533,0.143182,-0.121494,-0.0847066,0.00869751,0.0399399,0.0122833,0.00530243,0.0127792,0.00808716,0.0211716,0.0138474,-9.97986,0.0139618,-0.00991821,0.0143051,0.0075531,0.0136566,-0.00232697,0.0134659,0.0107193
21,0,5.67861,0.0012207,0.00396729,-2.42714,0.0535448,-0.0762837,0.0553487,0.154283,-0.0879585,0.145624,-0.121189,-0.0844015,0.00766754,0.0515747,0.0146103,0.00797272,0.0176239,0.00911713,0.0195313,0.0196457,-9.97986,0.0154114,-0.00583649,0.00984192,0.00694275,0.0145721,-0.00709534,0.0122833,0.00804901
21,1,10.0097,0.000305176,0.00518799,-2.42989,0.0538499,-0.0756734,0.0510762,0.137193,-0.0931465,0.142572,-0.12302,-0.0871481,0.0113297,0.0535965,0.017662,0.00843048,0.0172806,0.0112534,0.0193405,0.0157547,-9.97986,0.0119781,0.00164032,0.0127029,0.00713348,0.0127792,-0.00179291,0.01297,0.00835419
21,2,10.0097,0.000305176,0.0012207,-2.43081,0.0535448,-0.0768941,0.0513814,0.0935533,-0.0977241,0.143487,-0.125766,-0.0886739,0.0125885,0.0602722,0.0189972,0.0130081,0.0167465,0.0120926,0.0211716,0.0179291,-9.97986,0.0119781,0.00499725,0.016098,0.0101089,0.0159454,0.00499725,0.0163651,0.00652313
21,3,10.0097,0,0.000305176,-2.42959,0.0535448,-0.0756734,0.0516866,0.0798204,-0.0949775,0.144098,-0.127598,-0.0880636,0.0133514,0.0515747,0.0138855,0.00511169,0.0193405,0.00953674,0.026207,0.0205231,-9.97986,0.0108337,0.00572205,0.0196838,0.00915527,0.0149918,0.0133896,0.0135803,0.0094223
21,4,10.0097,-0.000305176,-0.000610352,-2.42837,0.0547655,-0.0759786,0.0519917,0.0752428,-0.0955879,0.144403,-0.126072,-0.0871481,0.0128555,0.0366974,0.0113297,0.0094986,0.0139999,0.00869751,0.0194931,0.0201035,-9.97986,0.0101471,0.0019455,0.0156403,0.00617981,0.0137711,0.0137329,0.0133896,0.0103378
21,5,10.0097,-0.000915527,0.000152588,-2.42806,0.0544603,-0.0747579,0.0522969,0.0718859,-0.0955879,0.142572,-0.126682,-0.0856222,0.0069046,0.0226974,0.0056839,-0.00164032,0.0117493,0.0118637,0.0216675,0.0196457,-9.97986,0.0128937,-0.00873566,0.00915527,0.0107574,0.015831,0.0062561,0.0130463,0.00583649
21,6,10.0097,0,0.000457764,-2.42684,0.0550706,-0.0747579,0.0535176,0.0700548,-0.0934516,0.144403,-0.126377,-0.0847066,0.0109863,-0.00679016,0.00705719,-0.0310898,0.0193787,0.010376,0.02285,0.0221252,-9.97986,0.0149918,-0.00537872,0.0143814,0.00972748,0.0148392,0.00595093,0.0158691,0.00858307
21,7,10.0097,0.00213623,0,-2.42592,0.0553758,-0.0738423,0.0532125,0.0712755,-0.0934516,0.145013,-0.125766,-0.0840963,0.00671387,-0.0372314,0.00930786,-0.0550461,0.018959,0.0114059,0.0181961,0.0141144,-9.97986,0.0108337,-0.0106812,0.0117493,0.010643,0.0125504,0.00152588,0.0157166,0.00659943
21,8,10.0097,0.000305176,0.000915527,-2.42592,0.0553758,-0.0744527,0.054128,0.072191,-0.0910102,0.145929,-0.124546,-0.0822652,0.0117874,-0.0255585,0.0167847,-0.0613403,0.0199509,0.010376,0.0216675,0.0147247,-9.97986,0.0152206,-0.00846863,0.0139618,0.0102997,0.0112534,0.000495911,0.0131226,0.00812531
21,9,10.0097,-0.000610352,0.000152588,-2.4244,0.0559862,-0.0738423,0.0535176,0.0700548,-0.0925361,0.146234,-0.124241,-0.0816549,0.0123596,-0.00453949,0.0227737,-0.0471497,0.0181961,0.00919342,0.0273514,0.0138092,-9.97986,0.0164795,-0.00747681,0.0164795,0.010643,0.0134277,-0.00118256,0.0147247,0.0128937
22,0,10.0097,0.000915527,0.000305176,-2.42501,0.0575121,-0.0738423,0.0547383,0.0706652,-0.0934516,0.146539,-0.124546,-0.0816549,0.00865936,0.00640869,0.02388,-0.0337982,0.0195313,0.0135422,0.0253677,0.0101852,-9.97986,0.0105286,-0.000495911,0.0143051,0.00930786,0.0186539,-0.0130463,0.0156403,0.0063324
22,1,9.26198,0,-0.00213623,-2.42714,0.0581224,-0.075063,0.0529073,0.0239733,-0.0965034,0.145929,-0.127598,-0.0825704,0.0094986,0.0197983,0.0187302,-0.00801086,0.0163269,0.0162125,0.0203323,0.00724792,-9.97986,0.0143433,-0.00152588,0.0177383,0.00789642,0.0149918,-0.019989,0.0112534,0.00808716
22,2,0.302019,-0.000305176,-0.00518799,-2.42531,0.0562914,-0.0738423,0.0529073,-0.00532361,-0.0961982,0.148065,-0.130344,-0.0813497,0.0145721,0.0265121,0.0213242,-0.00217438,0.0218582,0.0151443,0.0208282,0.00831604,-9.97986,0.0125504,0.000724792,0.0146484,0.00530243,0.0111389,-0.028801,0.0157166,0.0119781
22,3,-6.48967,0.000305176,-0.00427246,-2.42592,0.0569017,-0.073232,0.0544332,-0.0138685,-0.0971137,0.14776,-0.129734,-0.0816549,0.0163269,0.0257111,0.0261307,0.00183105,0.0182343,0.0108719,0.0221252,0.00740051,-9.97986,0.0112534,0.00221252,0.0153732,0.0133896,0.011673,-0.0353622,0.0153351,0.010376
22,4,-9.99003,0.000305176,-0.00335693,-2.42531,0.0575121,-0.073232,0.0553487,0.0105455,-0.0934516,0.14776,-0.128513,-0.0813497,0.0117111,0.0246048,0.0367737,0.029335,0.0205612,0.00873566,0.0226593,0.0118256,-9.97986,0.0143814,0.000686646,0.0163651,0.00732422,0.0150681,-0.0229263,0.0130844,0.00831604
22,5,-9.99003,0.0012207,-0.00183105,-2.4247,0.0547655,-0.0747579,0.0565694,0.0407579,-0.0903999,0.147455,-0.126682,-0.0804342,0.00988007,0.014801,0.0439072,0.0217819,0.0143051,0.0106812,0.022316,0.0118256,-9.97986,0.0143814,-0.00213623,0.0139618,0.00881195,-0.0101852,-0.0136185,0.0143433,0.0111008
22,6,-9.99003,-0.00183105,0.000305176,-2.42653,0.0553758,-0.0744527,0.0553487,0.0572374,-0.0916206,0.144098,-0.126987,-0.0816549,0.0113678,0.00896454,0.0456238,0.0147247,0.0201797,0.0143433,0.0204086,0.0117493,-9.97986,0.0157928,-0.00156403,0.0103378,0.00774384,-0.0106049,-0.0019455,0.0151825,0.0115204
22,7,-9.99003,-0.000305176,-0.000305176,-2.42714,0.0553758,-0.0744527,0.0544332,0.0706652,-0.090705,0.146844,-0.124851,-0.0831808,0.0104523,0.0126648,0.0417709,0.0421906,0.0202179,0.00869751,0.0219345,0.0102234,-9.97986,0.0202179,0.0019455,0.00846863,0.00694275,-0.00869751,0.00656128,0.0153351,0.00793457
22,8,-9.99003,0,0.0012207,-2.42531,0.0565965,-0.0747579,0.0565694,0.126207,-0.0855171,0.144403,-0.121494,-0.0819601,0.0106049,0.0125504,0.0408173,0.0498962,0.0184631,0.013237,0.0244141,0.0157928,-9.97986,0.0212097,0.00164032,0.0153351,0.00686646,0.0141144,0.0107574,0.0152969,0.00934601
22,9,-2.01243,0.00183105,0.00320435,-2.42745,0.0541551,-0.0756734,0.0544332,0.143907,-0.0882636,0.143182,-0.122104,-0.0847066,0.013237,0.0156021,0.0377655,0.0698471,0.0156021,0.0133133,0.0216293,0.0189209,-9.97986,0.0183487,0.00350952,0.0136566,0.0094986,0.014801,0.00831604,0.0134659,0.010643
23,0,5.81319,0.000610352,0.00488281,-2.42837,0.0532396,-0.0747579,0.0535176,0.154894,-0.0897895,0.144098,-0.122715,-0.085317,0.01091,0.018959,0.0312424,0.098114,0.0187302,0.0103378,0.0221252,0.0153732,-9.97986,0.0185776,0.00171661,0.0157166,0.00946045,0.0119781,-0.0018692,0.0143814,0.00614166
23,1,10.0097,0.00152588,0.00427246,-2.4302,0.0535448,-0.0778096,0.0513814,0.136583,-0.0946723,0.143182,-0.12302,-0.0877584,0.00862122,0.0251389,0.030899,0.0793839,0.021553,0.00434875,0.02285,0.0142288,-9.97986,0.0218582,0.00450134,0.0135422,0.00358582,0.0136566,-0.00244141,0.0125122,0.00377655
23,2,10.0097,0.000915527,0.00106812,-2.4305,0.0526292,-0.0759786,0.0501607,0.0941637,-0.0974189,0.143487,-0.125766,-0.0883688,0.00789642,0.0236511,0.0220108,0.0662231,0.0216675,0.0136185,0.0260544,0.0158691,-9.97986,0.0204849,0.00183105,0.0137329,0.00797272,0.0165558,-0.00087738,0.014534,0.0102234
23,3,10.0097,-0.000305176,0.000152588,-2.42959,0.0538499,-0.0762837,0.0504659,0.0792101,-0.0968086,0.142877,-0.125766,-0.0877584,0.00724792,0.0260544,0.0125122,0.0529099,0.0206375,0.0107956,0.0244904,0.0156403,-9.97986,0.0198746,0.00236511,0.016098,0.00740051,0.0173569,0.000305176,0.0131607,0.00865936
23,4,10.0097,0.000915527,-0.000152588,-2.42867,0.0526292,-0.0747579,0.0519917,0.0737169,-0.094062,0.144708,-0.127598,-0.0868429,0.00976563,0.0284195,0.00293732,0.0370026,0.0214767,0.00583649,0.0217438,0.0223541,-9.97986,0.0170898,0.00259399,0.0146103,0.00743866,0.0124741,0.00244141,0.0139618,0.00919342
23,5,10.0097,0.000610352,0.000305176,-2.42684,0.0547655,-0.0753682,0.0519917,0.0728014,-0.0946723,0.145318,-0.126377,-0.0847066,0.0115585,0.0259781,-0.00778198,0.0346375,0.0205231,0.00762939,0.022583,0.0159454,-9.97986,0.0188446,-0.00473022,0.0122452,0.00904083,0.0127411,0.00133514,0.0133133,0.00652313
23,6,10.0097,0,0.000152588,-2.42806,0.0550706,-0.0762837,0.0522969,0.0712755,-0.0946723,0.145624,-0.126072,-0.0850118,0.0146103,0.0247955,-0.0150299,0.0248718,0.018959,0.0152206,0.0190735,0.0208664,-9.97986,0.0188446,-0.000915527,0.012207,0.0063324,0.0139999,-0.00240326,0.0139618,0.00556946
23,7,10.0097,0.00152588,0.000152588,-2.42745,0.055681,-0.0741475,0.0532125,0.0697496,-0.0925361,0.144708,-0.125156,-0.0847066,0.0112534,0.0206757,-0.0198364,0.0224686,0.0203705,0.0130463,0.0180435,0.0245285,-9.97986,0.0157928,0.00358582,0.0151825,0.00995636,0.0167084,-0.000343323,0.0145721,0.00778198
23,8,10.0097,0.0012207,0.000152588,-2.42531,0.0562914,-0.0738423,0.054128,0.0731066,-0.0922309,0.146234,-0.12363,-0.0819601,0.00793457,0.0277328,-0.0196075,0.0275803,0.0168991,0.0111389,0.0220871,0.0230789,-9.97986,0.0167465,-0.000686646,0.0150681,0.0132751,0.0161743,-0.00457764,0.0152588,0.0101471
23,9,10.0097,0.000610352,0.000457764,-2.4247,0.0575121,-0.0735371,0.0550435,0.0718859,-0.0919257,0.146539,-0.123935,-0.0813497,0.00957489,0.0202942,-0.0175858,0.0178909,0.0193787,0.00766754,0.0208664,0.0179291,-9.97986,0.0150681,0.00114441,0.0120163,0.00591278,0.0115585,-0.0113297,0.0135422,0.00778198
24,0,10.0097,0.000610352,0.000305176,-2.42592,0.0565965,-0.0738423,0.0532125,0.0697496,-0.0931465,0.147455,-0.124241,-0.0813497,0.0162888,0.0255203,-0.00801086,0.0163269,0.0171661,0.00965118,0.0218964,0.0198364,-9.97986,0.0188446,0.0119781,0.0155258,0.00938416,0.0148392,-0.00938416,0.0137711,0.0056076
24,1,9.28426,0.000915527,-0.00213623,-2.42623,0.055681,-0.0744527,0.0526021,0.0227526,-0.095893,0.146234,-0.127292,-0.0831808,0.010643,0.019989,-0.00499725,0.011673,0.0143814,0.014534,0.0222397,0.0178528,-9.97986,0.0130463,0.011673,0.0145721,0.00362396,0.0157166,-0.00930786,0.0135803,0.0088501
24,2,0.316973,0.000305176,-0.00457764,-2.42501,0.0575121,-0.0729268,0.0526021,-0.00379773,-0.0971137,0.146844,-0.127292,-0.0819601,0.0127411,0.0180054,0,0.0123215,0.0164032,0.0113297,0.025177,0.0217438,-9.97986,0.0158691,0.0160599,0.0107574,0.00854492,0.0166702,-0.00839233,0.0159454,0.00797272
24,3,-6.4973,-0.00274658,-0.00427246,-2.42592,0.0569017,-0.0744527,0.0544332,-0.0135634,-0.0968086,0.146234,-0.128818,-0.0822652,0.00957489,0.0183487,0.00999451,0.0150681,0.0183487,0.00888824,0.0231552,0.018692,-9.97986,0.0154114,0.0133514,0.0118637,0.00576019,0.0136185,-0.00854492,0.0170898,0.00835419
24,4,-9.99003,0.000915527,-0.00366211,-2.42562,0.0553758,-0.075063,0.0556539,0.0105455,-0.0928413,0.147149,-0.128513,-0.0804342,0.0109863,0.022049,0.00839233,0.00827789,0.0177002,0.0056839,0.0222015,0.0200653,-9.97986,0.0141907,0.0110626,0.0153732,0.00717163,0.0144958,-0.00926971,0.0142288,0.0062561
24,5,-9.99003,0.000915527,-0.00198364,-2.42501,0.0562914,-0.075063,0.0562642,0.0404528,-0.0900947,0.144708,-0.127292,-0.0810445,0.00854492,0.022583,0.0114059,0.0056839,0.0160217,0.0102615,0.0199509,0.0209045,-9.97986,0.0151062,0.00865936,0.013504,0.00659943,-0.0107956,-0.00171661,0.0167084,0.00713348
24,6,-9.99003,-0.000610352,-0.000457764,-2.42501,0.0550706,-0.0756734,0.055959,0.0569322,-0.0919257,0.144708,-0.125766,-0.0816549,0.0143433,0.0220871,0.0141907,0.00972748,0.0174713,0.00843048,0.0242233,0.0235748,-9.97986,0.0156403,-0.00282288,0.0148392,0.0056839,-0.0127792,-0.00679016,0.0160217,0.00694275
24,7,-9.99003,0,-0.000152588,-2.42592,0.0547655,-0.0753682,0.0547383,0.0718859,-0.0916206,0.148065,-0.125461,-0.0825704,0.0143433,0.0264359,0.0160217,0.00736237,0.0168228,0.00873566,0.0210571,0.0209808,-9.97986,0.0144958,-0.017395,0.0130844,0.00728607,-0.00598907,-0.00434875,0.0193405,0.00587463
24,8,-9.99003,-0.000610352,0.0012207,-2.42531,0.0541551,-0.075063,0.0565694,0.124681,-0.0870429,0.146539,-0.120578,-0.0813497,0.0118637,0.0259781,0.0174713,0.00850677,0.0155258,0.00839233,0.0205994,0.0170517,-9.97986,0.0157928,-0.0202179,0.0122833,0.00400543,0.0165939,-0.00423431,0.0146484,0.00572205
24,9,-1.93583,-0.000305176,0.00396729,-2.42837,0.0541551,-0.0753682,0.054128,0.142381,-0.0882636,0.144403,-0.122104,-0.0850118,0.0100327,0.0261688,0.0197983,0.00457764,0.0107193,0.00976563,0.024147,0.0199127,-9.97986,0.013504,-0.0117493,0.0149536,0.00789642,0.0190735,-0.00434875,0.0157166,0.00576019
25,0,5.8608,0.00152588,0.00488281,-2.42745,0.0541551,-0.0747579,0.0538228,0.154894,-0.0897895,0.144098,-0.122104,-0.085317,0.0113297,0.0203323,0.0163651,0.00579834,0.016861,0.0108719,0.0255203,0.0198364,-9.97986,0.0168228,-0.00968933,0.0141907,0.00881195,0.0164795,-0.00400543,0.0167847,0.0094223
25,1,10.0097,0.000305176,0.00442505,-2.4302,0.0523241,-0.0771993,0.0504659,0.135057,-0.0946723,0.143487,-0.124241,-0.0871481,0.00873566,0.0230408,0.0182724,0.00339508,0.0163651,0.00957489,0.0242996,0.0218201,-9.97986,0.0149918,-0.00732422,0.0131989,0.00717163,0.0191879,0.00125885,0.0139618,0.00858307
25,2,10.0097,-0.000305176,0.00183105,-2.4302,0.0541551,-0.0762837,0.0495503,0.0932482,-0.0961982,0.142572,-0.126072,-0.0877584,0.0122833,0.0240326,0.0221634,0.000991821,0.0142288,0.0108337,0.0266647,0.0192642,-9.97986,0.0144958,-0.0121307,0.0219345,0.00827789,0.0130463,0.00396729,0.0169373,0.00343323
25,3,10.0097,-0.00244141,0.000457764,-2.4305,0.0526292,-0.0759786,0.0513814,0.0792101,-0.0971137,0.143182,-0.126377,-0.0874532,0.0135422,0.0242233,0.0221634,0.00156403,0.018959,0.00694275,0.022583,0.021553,-9.97986,0.0122452,-0.011673,0.0113678,0.00797272,0.0154114,0.000305176,0.0156784,0.0056076
25,4,10.0097,0.00213623,-0.000305176,-2.42806,0.0535448,-0.0762837,0.0526021,0.0743273,-0.0946723,0.143792,-0.127292,-0.0859274,0.0111771,0.0245667,0.0266266,0.00343323,0.0158691,0.0112915,0.0238037,0.0214005,-9.97986,0.0148773,-0.0144196,0.013504,0.00247955,0.0151443,0,0.0163269,0.00923157
25,5,10.0097,0.000610352,0,-2.42745,0.0550706,-0.0762837,0.0522969,0.0700548,-0.094062,0.143792,-0.126682,-0.0856222,0.0125122,0.0247192,0.017128,0.00293732,0.0168228,0.00862122,0.0241089,0.020752,-9.97986,0.0134277,-0.0104523,0.0145721,0.00854492,0.0164795,-0.0043869,0.0183868,0.00461578
25,6,10.0097,0.000610352,0.000305176,-2.42653,0.0553758,-0.0747579,0.0529073,0.0715807,-0.0943672,0.144708,-0.126072,-0.0850118,0.0116348,0.0248337,0.0236511,0.00293732,0.0183868,0.00789642,0.0224304,0.0233078,-9.97986,0.0170898,-0.000534058,0.00900269,0.0062561,0.0162506,-0.00728607,0.0154114,0.00640869
25,7,10.0097,0.000915527,0.000305176,-2.42592,0.0553758,-0.0744527,0.0538228,0.0715807,-0.0922309,0.144098,-0.125766,-0.0837911,0.0125885,0.0252151,0.0287247,-0.00110626,0.0153351,0.00858307,0.0209427,0.0234222,-9.97986,0.0130844,0.000724792,0.0138474,0.00972748,0.0190735,-0.00888824,0.0165176,0.00663757
25,8,10.0097,0.000915527,-0.000610352,-2.42623,0.0562914,-0.0747579,0.0544332,0.0709703,-0.0931465,0.145318,-0.125766,-0.0825704,0.0130463,0.027504,0.0259781,0.00370026,0.0141144,0.00713348,0.0241852,0.0192642,-9.97986,0.0130463,-0.00297546,0.0144196,0.00740051,0.018959,-0.00648499,0.0157928,0.00652313
25,9,10.0097,0.000305176,0.000152588,-2.4247,0.0565965,-0.0735371,0.0550435,0.0712755,-0.0925361,0.145624,-0.125156,-0.0816549,0.0121689,0.0289536,0.026741,0.000953674,0.0187683,0.0104141,0.0230408,0.0226593,-9.97986,0.0109863,-0.00621796,0.0121307,0.00343323,0.0157166,-0.00450134,0.014534,0.00545502
26,0,10.0097,0.00244141,0.000305176,-2.42684,0.0550706,-0.0726216,0.0547383,0.0688341,-0.0919257,0.145624,-0.124241,-0.0810445,0.010643,0.028801,0.0241852,0.00202179,0.0158691,0.0128555,0.0233841,0.0237274,-9.97986,0.0117874,0.000915527,0.0117111,0.00759125,0.0138092,-0.00473022,0.0156021,0.00900269
26,1,9.12862,0,-0.00274658,-2.42714,0.055681,-0.0744527,0.0529073,0.0230577,-0.0977241,0.145929,-0.128208,-0.0837911,0.0082016,0.0261307,0.0234222,-0.00259399,0.0171661,0.0127411,0.0239563,0.0193024,-9.97986,0.0108719,-0.00522614,0.0130463,0.00499725,0.0154877,-0.00545502,0.0175476,0.00640869
26,2,0.215655,0.00274658,-0.0050354,-2.42592,0.0572069,-0.0741475,0.0535176,-0.00410291,-0.0965034,0.147149,-0.128818,-0.0816549,0.0133514,0.0249481,0.0269318,-0.00263214,0.0152588,0.00953674,0.0218582,0.0208282,-9.97986,0.0130081,0.00118256,0.0141525,0.00770569,0.0154877,-0.00556946,0.0154114,0.00469208
26,3,-6.61174,-0.000305176,-0.0050354,-2.42531,0.0550706,-0.0735371,0.0544332,-0.0132582,-0.0949775,0.146844,-0.129734,-0.0810445,0.0110626,0.0227737,0.0280762,0.00343323,0.0154114,0.00907898,0.0205612,0.016861,-9.97986,0.0126648,-0.00167847,0.0138474,0.00530243,0.0180054,0.00141144,0.0169373,0.00389099
26,4,-9.99003,0.00183105,-0.00335693,-2.4244,0.0572069,-0.0735371,0.0553487,0.0117662,-0.0910102,0.146539,-0.127903,-0.0804342,0.0101852,0.0247574,0.0262833,-0.0012207,0.0167465,0.00991821,0.0257111,0.0177765,-9.97986,0.0111389,0.00415802,0.0158691,0.00400543,0.0159836,0.00751495,0.0138474,0.00385284
26,5,-9.99003,0,-0.00152588,-2.42501,0.0553758,-0.0735371,0.0565694,0.0422838,-0.0900947,0.145929,-0.127292,-0.0813497,0.0131226,0.0292969,0.0301361,0.00389099,0.0182343,0.0128937,0.0238037,0.0179291,-9.97986,0.0121307,0.00511169,0.0143051,0.00717163,-0.0069046,0.0105286,0.0163269,0.00469208
26,6,-9.99003,0.0012207,-0.000610352,-2.4247,0.0553758,-0.073232,0.055959,0.0590685,-0.0913154,0.146539,-0.125766,-0.0822652,0.0115585,0.0309372,0.0250244,0.000686646,0.0136185,0.0063324,0.0208282,0.0115204,-9.97986,0.0107956,0.00564575,0.0123215,0.00556946,-0.00843048,0.00545502,0.0186157,0.00728607
26,7,-9.99003,0.0012207,0.000152588,-2.42592,0.0559862,-0.0747579,0.0556539,0.0691393,-0.0916206,0.146234,-0.125766,-0.0834859,0.0125122,0.0309753,0.0260162,0.0056076,0.0172043,0.0104904,0.0219727,0.0169373,-9.97986,0.0144577,0.00686646,0.0167084,0.00396729,-0.0038147,0.00782013,0.0177383,0.0075531
26,8,-9.99003,0.000305176,0.00198364,-2.42501,0.0553758,-0.0738423,0.0574849,0.124681,-0.0839912,0.145318,-0.122104,-0.0816549,0.0087738,0.0228882,0.0255966,0.00270844,0.0141525,0.0112915,0.020256,0.0172806,-9.97986,0.012207,-0.00240326,0.0117874,0.00419617,0.0166702,0.00370026,0.0174713,0.00431061
26,9,-1.99687,0.000915527,0.00366211,-2.42867,0.0553758,-0.075063,0.0556539,0.143602,-0.0873481,0.144708,-0.121799,-0.0844015,0.0153732,0.0292969,0.0270844,0.00484467,0.0157166,0.01091,0.0225067,0.0148392,-9.97986,0.0131226,-0.000419617,0.0115967,0.0088501,0.0183868,0.00480652,0.0168991,0.00640869
27,0,5.8669,0.000915527,0.00457764,-2.42745,0.0535448,-0.0747579,0.0538228,0.153368,-0.088874,0.143487,-0.120273,-0.0850118,0.0117493,0.0214767,0.0264359,0.00179291,0.0157166,0.0104523,0.0217438,0.0177765,-9.97986,0.0139999,0.00354767,0.00801086,0.00541687,0.0182724,0.00148773,0.0196075,0.00789642
27,1,10.0097,0.00244141,0.00518799,-2.43081,0.0523241,-0.0762837,0.0519917,0.134752,-0.0949775,0.142877,-0.12363,-0.0880636,0.0172043,0.0204849,0.0230789,0.00766754,0.00976563,0.010643,0.0199509,0.0179291,-9.97986,0.01297,0.00038147,0.0125885,0.00331879,0.0152969,-0.00270844,0.0185013,0.00770569
27,2,10.0097,0.0012207,0.00137329,-2.4302,0.0541551,-0.0765889,0.0495503,0.0944689,-0.0980293,0.141351,-0.125156,-0.0883688,0.0107574,0.018692,0.0196075,0.0154877,0.0167465,0.00572205,0.0218582,0.0165558,-9.97986,0.0107574,0.00114441,0.0119781,0.00415802,0.0173569,-0.0037384,0.0189209,0.00663757
27,3,10.0097,-0.000305176,0.000305176,-2.4302,0.0532396,-0.0759786,0.0501607,0.0792101,-0.0965034,0.142267,-0.126987,-0.0871481,0.0119019,0.0207138,0.0244141,0.0201797,0.0177002,0.00740051,0.0209427,0.0159454,-9.97986,0.0179672,0.00450134,0.01091,0.00579834,0.0203705,-0.00404358,0.0147247,0.00476837
27,4,10.0097,-0.000915527,-0.000152588,-2.42867,0.055681,-0.075063,0.0532125,0.0746324,-0.0952827,0.144403,-0.126987,-0.0865377,0.00999451,0.0205231,0.0272751,0.0206757,0.0159073,0.00972748,0.0232697,0.0152969,-9.97986,0.0146103,-0.00415802,0.0122452,0.00762939,0.0222015,-0.00267029,0.0175476,0.00450134
27,5,10.0097,0.000610352,-0.000762939,-2.42745,0.0547655,-0.0747579,0.0544332,0.0712755,-0.0943672,0.144403,-0.126072,-0.0856222,0.0124741,0.0214767,0.0270462,0.0164795,0.0189972,0.0104523,0.0239563,0.0188828,-9.97986,0.00812531,-0.00274658,0.0114822,0.00743866,0.0188828,-0.00579834,0.0168228,0.00736237
27,6,10.0097,0.000305176,0.000610352,-2.42806,0.0547655,-0.0747579,0.0526021,0.0706652,-0.0934516,0.145624,-0.126682,-0.0850118,0.00995636,0.020752,0.0215149,0.0146484,0.0185013,0.0138474,0.0208664,0.0230408,-9.97986,0.0144196,-0.0038147,0.013504,0.00411987,0.0178146,-0.000572205,0.0164795,0.00602722
27,7,10.0097,0.000610352,-0.000305176,-2.42684,0.055681,-0.0741475,0.0535176,0.0709703,-0.0946723,0.145318,-0.125766,-0.0837911,0.0134277,0.0246429,0.015564,0.0117111,0.0188065,0.00888824,0.0216675,0.0203705,-9.97986,0.0160599,-0.00171661,0.0140381,0.00213623,0.0185394,7.62939e-005,0.0178146,0.0037384
27,8,10.0097,0.00152588,0.00137329,-2.42409,0.0550706,-0.0741475,0.0544332,0.0718859,-0.0922309,0.146234,-0.124241,-0.0822652,0.0119019,0.0233841,0.0199509,0.00793457,0.0175858,0.0104141,0.0215149,0.0224304,-9.97986,0.0194168,-0.00457764,0.0119781,0.00732422,0.0198364,0.00114441,0.0146103,0.00759125
27,9,10.0097,-0.0012207,0.000610352,-2.42501,0.0562914,-0.0747579,0.0538228,0.0712755,-0.0919257,0.147149,-0.124546,-0.0816549,0.0151443,0.0202179,0.020752,-0.0019455,0.0170898,0.00892639,0.028038,0.0175858,-9.97986,0.0172806,-0.00377655,0.0114441,0.00293732,0.0177383,0.00350952,0.0132751,0.00762939
28,0,10.0097,-0.00213623,0.000610352,-2.42592,0.055681,-0.0735371,0.0550435,0.0724962,-0.0916206,0.147149,-0.124241,-0.0810445,0.0131607,0.0205612,0.0170898,-0.0209808,0.0157166,0.00785828,0.0208664,0.019989,-9.97986,0.0147247,-0.00228882,0.0136566,0.00663757,0.0209427,0.00209808,0.018425,0.00411987
28,1,9.52077,0,-0.00183105,-2.42776,0.0550706,-0.0738423,0.050771,0.0239733,-0.0965034,0.145318,-0.127292,-0.0825704,0.011673,0.0187683,0.0180435,-0.00297546,0.0146866,0.0104141,0.0232697,0.0152588,-9.97986,0.014267,0.00385284,0.0130463,0.00476837,0.0164032,-0.0038147,0.0157166,0.00804901
28,2,0.62459,0.000915527,-0.00457764,-2.42531,0.0569017,-0.0738423,0.0535176,-0.00471326,-0.0971137,0.148065,-0.128513,-0.0807394,0.0112152,0.0164795,0.0209808,0.0128555,0.0187302,0.00892639,0.0196457,0.0166321,-9.97986,0.0132751,-0.000915527,0.0136566,0.00396729,0.0229263,-0.0168228,0.0195694,0.00297546
28,3,-6.19029,0.000915527,-0.00396729,-2.42501,0.0559862,-0.0729268,0.0550435,-0.0132582,-0.0968086,0.146234,-0.128818,-0.0819601,0.0103378,0.0170517,0.0170898,0.0115585,0.0163269,0.00873566,0.0224304,0.0151062,-9.97986,0.0157166,0.00549316,0.0137329,0.00358582,0.0177765,-0.0149536,0.0166321,0.00621796
28,4,-9.99003,0.00183105,-0.00350952,-2.42501,0.055681,-0.0744527,0.0556539,0.0108507,-0.0931465,0.146539,-0.128208,-0.0813497,0.010643,0.0209045,0.0196457,0.0146103,0.0134659,0.0129318,0.0252151,0.0196838,-9.97986,0.0138474,0.00274658,0.0102997,0.0037384,0.0187302,-0.00827789,0.0177383,0.0100708
28,5,-9.99003,0.000915527,-0.00213623,-2.42623,0.0559862,-0.0741475,0.0553487,0.0386217,-0.090705,0.146234,-0.126987,-0.0810445,0.0121307,0.026207,0.0214767,0.0177383,0.014801,0.00911713,0.0215912,0.0175858,-9.97986,0.0129318,0.00507355,0.0130844,0.00434875,-0.00507355,-0.00720978,0.0149536,0.0063324
28,6,-9.99003,0.000305176,-0.0012207,-2.42562,0.0562914,-0.0747579,0.0544332,0.0563219,-0.090705,0.145013,-0.126072,-0.0822652,0.0140381,0.0319672,0.0234222,0.00545502,0.0143814,0.00598907,0.0234604,0.0217819,-9.97986,0.0161362,-0.000152588,0.0127029,0.00488281,-0.00389099,-0.00221252,0.0134659,0.00720978
28,7,-9.99003,0.000305176,0.000457764,-2.42592,0.0569017,-0.0744527,0.0547383,0.0746324,-0.0900947,0.145624,-0.124851,-0.0828756,0.00797272,0.0373459,0.021019,-0.00602722,0.0192642,0.00843048,0.0212479,0.0136566,-9.97986,0.0156403,-0.000686646,0.0125122,0.0038147,0.00331879,0.00663757,0.0161743,0.00545502
28,8,-9.97508,0.00152588,0.00244141,-2.42501,0.0553758,-0.0741475,0.0574849,0.127123,-0.0855171,0.146844,-0.12302,-0.0816549,0.0118256,0.0377274,0.0220871,0.00423431,0.014801,0.00850677,0.020752,0.0126648,-9.97986,0.0154114,-0.00297546,0.0143051,0.0063324,0.0202179,0.0110626,0.0168991,0.00705719
28,9,-1.32579,-0.000610352,0.00366211,-2.42837,0.0547655,-0.0759786,0.0538228,0.144518,-0.0879585,0.142877,-0.12241,-0.0850118,0.0117874,0.0312805,0.0185013,0.0139999,0.012207,0.0111008,0.0236511,0.0175858,-9.97986,0.0123215,-0.00427246,0.00961304,0.00274658,0.0172424,0.0082016,0.0156403,0.00629425
29,0,6.58559,-0.000610352,0.00473022,-2.42714,0.0535448,-0.0753682,0.0538228,0.154894,-0.088874,0.142877,-0.122104,-0.0850118,0.0102997,0.0164032,0.0219345,0.00507355,0.0168228,0.0107193,0.0243759,0.012207,-9.97986,0.0168991,-0.000801086,0.0107193,0.00305176,0.0207901,0.0037384,0.0165558,0.00453949
29,1,10.0097,0.0012207,0.00396729,-2.4305,0.0526292,-0.0768941,0.050771,0.127428,-0.0968086,0.142572,-0.12363,-0.0883688,0.0121689,0.0218582,0.0212479,-0.00232697,0.0165176,0.00907898,0.0185394,0.018692,-9.97986,0.0181961,-0.00156403,0.0107193,0.00415802,0.0217819,0.00171661,0.019455,0.00774384
29,2,10.0097,-0.000610352,0.0012207,-2.43111,0.0529344,-0.0762837,0.0510762,0.0905016,-0.0971137,0.143792,-0.126072,-0.0892843,0.00999451,0.0271606,0.0187683,-0.00362396,0.0169754,0.0112534,0.0177002,0.0176239,-9.97986,0.014534,-0.000343323,0.0113297,0.00339508,0.0175095,0.00087738,0.0150299,0.00461578
29,3,10.0097,0.000610352,-0.000305176,-2.4302,0.0529344,-0.0756734,0.0513814,0.0795153,-0.0968086,0.143792,-0.126682,-0.0880636,0.00869751,0.026474,0.0222015,-0.00514984,0.0109482,0.00530243,0.0220871,0.0154114,-9.97986,0.0174332,0.001297,0.0135803,0.00530243,0.0173187,-0.000114441,0.0184631,0.0043869
29,4,10.0097,0.000915527,-0.000762939,-2.42806,0.0535448,-0.0753682,0.0516866,0.0740221,-0.0946723,0.144403,-0.126987,-0.0859274,0.00709534,0.0304413,0.0181961,0.0190353,0.0102615,0.012207,0.0215149,0.0167847,-9.97986,0.0165939,-0.00232697,0.0120926,0.00240326,0.019455,-0.00175476,0.0146484,0.00514984
29,5,10.0097,0.00213623,0.000152588,-2.42806,0.0550706,-0.0738423,0.0516866,0.0715807,-0.0946723,0.145624,-0.126377,-0.085317,0.0151062,0.0338745,0.0195313,0.0269699,0.014534,0.0115967,0.0235367,0.0175095,-9.97986,0.0138092,0.000495911,0.0114441,0.0038147,0.0181961,-0.0043869,0.0136566,0.00179291
29,6,10.0097,0.000610352,0.000305176,-2.42684,0.0538499,-0.0762837,0.0529073,0.0709703,-0.0937568,0.144098,-0.125156,-0.0850118,0.0134277,0.0403214,0.0215912,0.0195313,0.0224686,0.0142288,0.0217438,0.0207138,-9.97986,0.0159454,0.00274658,0.0147247,0.0056076,0.0204086,3.8147e-005,0.0197601,0.00793457
29,7,10.0097,0.00152588,0.000152588,-2.42653,0.0550706,-0.075063,0.0538228,0.0718859,-0.0934516,0.144403,-0.125461,-0.0840963,0.00995636,0.0293732,0.0157166,0.0179291,0.0148773,0.0062561,0.0187683,0.0146866,-9.97986,0.01297,-0.00572205,0.0128174,0.00213623,0.0219727,-0.00518799,0.0162125,0.00514984
29,8,10.0097,0.000610352,0.00106812,-2.42531,0.0559862,-0.0738423,0.0556539,0.0718859,-0.0916206,0.145318,-0.125156,-0.0819601,0.0146866,0.026207,0.0204468,0.0204086,0.0162888,0.0128174,0.0185394,0.0195313,-9.97986,0.0113297,0.00492096,0.0129318,0.00263214,0.0213242,-0.00476837,0.0188065,0.00518799
29,9,10.0097,-0.000610352,0.000457764,-2.4247,0.0575121,-0.0735371,0.0550435,0.072191,-0.0900947,0.145318,-0.123935,-0.0816549,0.00957489,0.0159836,0.0191879,0.0193787,0.0135422,0.0117874,0.019989,0.0157166,-9.97986,0.0164795,-0.00221252,0.0170898,0.00801086,0.0227356,-0.00389099,0.0187683,0.00762939
30,0,10.0097,0.00152588,0,-2.42592,0.055681,-0.0735371,0.0556539,0.0715807,-0.0922309,0.147455,-0.125461,-0.0813497,0.0106812,0.0131607,0.018158,0.02388,0.0181961,0.00976563,0.022583,0.017662,-9.97986,0.017395,0.000152588,0.0156403,0.00331879,0.0219727,-0.000610352,0.0173187,0.00606537
30,1,9.3224,0,-0.00335693,-2.42684,0.055681,-0.0741475,0.0522969,0.0227526,-0.0974189,0.146844,-0.128208,-0.0822652,0.0111389,0.0147629,0.0218582,0.0218201,0.0172806,0.00934601,0.0231934,0.0138855,-9.97986,0.017128,0.00614166,0.0157166,0.00427246,0.0204849,-0.00488281,0.0148392,0.00785828
30,2,0.416765,-0.000915527,-0.00457764,-2.42592,0.0562914,-0.0738423,0.0529073,-0.00349256,-0.0965034,0.145318,-0.129123,-0.0822652,0.00652313,0.0160217,0.0167084,0.0154877,0.0137329,0.00980377,0.0233459,0.0159454,-9.97986,0.0144196,0.00347137,0.0114822,0.00572205,0.0210953,-0.00453949,0.0208664,0.00598907
30,3,-6.45915,0.00152588,-0.0050354,-2.42531,0.0569017,-0.0744527,0.0547383,-0.0147841,-0.0971137,0.147149,-0.129429,-0.0810445,0.00709534,0.0228882,0.0156021,0.0147629,0.015831,0.00972748,0.0242615,0.0167847,-9.97986,0.00873566,0.00179291,0.0167084,0.00385284,0.0232697,-0.00465393,0.018959,0.00217438
30,4,-9.99003,-0.000610352,-0.00289917,-2.4247,0.0562914,-0.0747579,0.0553487,0.0111559,-0.0925361,0.145929,-0.128513,-0.080129,0.0105667,0.0216293,0.0192642,0.0128174,0.0178146,0.0107574,0.0200653,0.0217819,-9.97986,0.0162506,0.00247955,0.0138092,0.00267029,0.0214386,-0.00541687,0.0168991,0.00679016
30,5,-9.99003,-0.000305176,-0.00152588,-2.42623,0.055681,-0.0741475,0.0556539,0.0407579,-0.0903999,0.146539,-0.127903,-0.0813497,0.0105667,0.0271606,0.0208664,0.0102234,0.0156403,0.0102234,0.0216293,0.0177383,-9.97986,0.0170135,0.00396729,0.0154114,0.00717163,-0.00553131,-0.00873566,0.0190735,0.0050354
30,6,-9.99003,0,0,-2.42562,0.0547655,-0.0747579,0.0553487,0.0572374,-0.0913154,0.146234,-0.127598,-0.0819601,0.0102997,0.0217056,0.021286,0.00724792,0.0183868,0.00839233,0.0196075,0.0125122,-9.97986,0.0139618,0.00236511,0.0141144,0.00297546,-0.00709534,-0.00549316,0.017128,0.00762939
30,7,-9.99003,0.000305176,0.000152588,-2.42714,0.0562914,-0.0753682,0.0544332,0.0718859,-0.0891792,0.145929,-0.126072,-0.0819601,0.0113678,0.0242615,0.0210953,0.00919342,0.0164413,0.00614166,0.021019,0.0183868,-9.97986,0.0154114,0.00301361,0.0148392,0.00400543,-0.000610352,-0.00423431,0.021019,0.00671387
30,8,-9.99003,0.000610352,0.00106812,-2.42562,0.0553758,-0.0741475,0.0574849,0.126512,-0.0855171,0.146234,-0.121494,-0.0828756,0.01297,0.0231171,0.0219727,0.00167847,0.0174713,0.0101089,0.0223923,0.0175476,-9.97986,0.014267,-0.00247955,0.0139618,0.0025177,0.0221634,-0.00865936,0.0183105,0.00282288
30,9,-1.77073,0,0.00350952,-2.42684,0.0538499,-0.0753682,0.054128,0.142687,-0.0885688,0.144708,-0.121494,-0.0844015,0.00988007,0.0203705,0.0178909,0.00247955,0.017662,0.00953674,0.0212479,0.0174713,-9.97986,0.0108719,-0.00614166,0.0136948,0.00778198,0.0177002,-0.00671387,0.0215149,0.00583649
31,0,6.06191,0.000610352,0.00473022,-2.42837,0.0535448,-0.0765889,0.054128,0.153673,-0.0897895,0.143792,-0.121799,-0.085317,0.00915527,0.015831,0.019455,-0.00225067,0.0160599,0.0127029,0.0197601,0.0166321,-9.97986,0.0141525,-0.0019455,0.0137711,0.00640869,0.0203705,-0.0018692,0.0169373,0.00579834
31,1,10.0097,-0.000610352,0.00457764,-2.43172,0.0526292,-0.0759786,0.0510762,0.132921,-0.0937568,0.142877,-0.124241,-0.0883688,0.010643,0.0215149,0.0165558,-0.00156403,0.0205231,0.00988007,0.0198746,0.0120163,-9.97986,0.0152588,-0.000457764,0.0174332,0.00873566,0.0208282,-0.00144958,0.0194931,0.00759125
31,2,10.0097,0.0012207,0.000915527,-2.4302,0.0538499,-0.0759786,0.0516866,0.0926378,-0.0974189,0.142267,-0.126682,-0.0883688,0.014534,0.0196838,0.0183868,0.000419617,0.0157928,0.00770569,0.0202179,0.0179672,-9.97986,0.0118256,-0.00152588,0.0112534,0.00667572,0.018158,-0.00583649,0.019722,0.00461578
31,3,10.0097,0.000610352,0.000457764,-2.4302,0.0532396,-0.0759786,0.0504659,0.0785997,-0.0968086,0.144403,-0.126987,-0.0874532,0.00980377,0.0193024,0.0183105,0.00225067,0.0143433,0.00984192,0.0209427,0.0125122,-9.97986,0.0125504,-0.000152588,0.0141144,0.00640869,0.0226593,-0.00267029,0.0226593,0.00640869
31,4,10.0097,-0.00183105,0,-2.42898,0.0541551,-0.0753682,0.0519917,0.0731066,-0.0952827,0.144098,-0.126682,-0.0868429,0.0150299,0.0204468,0.0171661,0.01091,0.0152588,0.0116348,0.0204086,0.0174713,-9.97986,0.00953674,-0.00087738,0.0164032,0.00385284,0.020256,-0.00110626,0.0205994,0.00743866
31,5,10.0097,0.00183105,0.000152588,-2.42684,0.0532396,-0.075063,0.0532125,0.0724962,-0.094062,0.144098,-0.125766,-0.085317,0.0113678,0.02285,0.0189209,0.0183487,0.016098,0.0117493,0.0214005,0.0170517,-9.97986,0.0114822,0.000190735,0.00946045,0.00305176,0.017128,-0.00240326,0.0201797,0.00640869
31,6,10.0097,0.00183105,0,-2.42806,0.0553758,-0.0744527,0.0547383,0.0697496,-0.0931465,0.145318,-0.125766,-0.0837911,0.0130081,0.0215912,0.0156021,0.0273132,0.0190735,0.0105667,0.0255585,0.0194168,-9.97986,0.0138855,0.0019455,0.0126266,0.00888824,0.0201797,-0.00621796,0.024147,0.0100327
31,7,10.0097,0.000610352,0,-2.42684,0.0547655,-0.0756734,0.0529073,0.0715807,-0.0928413,0.143182,-0.12363,-0.0847066,0.00911713,0.0141907,0.0105286,0.017128,0.0124741,0.00682831,0.0160599,0.0148773,-9.97986,0.00766754,-0.00450134,0.0102997,0.00141144,0.0117111,-0.0139618,0.0123215,0.0030899
31,8,10.0097,0.00213623,0.000762939,-2.42623,0.0569017,-0.0738423,0.0553487,0.0728014,-0.0925361,0.145624,-0.125156,-0.0816549,0.0138855,0.0162888,0.0205231,0.0270844,0.0218582,0.010643,0.0217819,0.0174332,-9.97986,0.0130844,0.000267029,0.0159073,0.0106049,0.0180817,-0.00675201,0.0172424,0.00514984
31,9,10.0097,0.000305176,-0.000152588,-2.4247,0.0562914,-0.073232,0.0553487,0.07036,-0.0916206,0.145929,-0.125156,-0.0804342,0.010643,0.0162506,0.0154495,0.0209427,0.0186539,0.0130844,0.0212097,0.0200653,-9.97986,0.0136566,0.00450134,0.0139236,0.00595093,0.015831,-0.00858307,0.018425,0.00209808
32,0,10.0097,0.000610352,0.000305176,-2.42684,0.0569017,-0.0741475,0.0544332,0.07036,-0.0916206,0.146234,-0.124546,-0.0810445,0.00919342,0.0172424,0.0179672,0.0183105,0.0176239,0.0133896,0.0195694,0.0157928,-9.97986,0.0102997,0.0102997,0.0146103,0.00785828,0.0190735,-0.00179291,0.0162506,0.00514984
32,1,9.41091,0.000915527,-0.00244141,-2.42745,0.0559862,-0.0729268,0.0532125,0.021837,-0.0983344,0.146234,-0.128208,-0.0825704,0.0125885,0.0120544,0.0205612,0.0063324,0.0159454,0.0124741,0.0176239,0.0230789,-9.97986,0.00915527,0.0137329,0.0127029,0.00900269,0.0193787,-0.000610352,0.0190353,0.00274658
32,2,0.456133,0.000305176,-0.0050354,-2.42623,0.0575121,-0.073232,0.0535176,-0.00349256,-0.0961982,0.146539,-0.127903,-0.0813497,0.00865936,0.0157547,0.0310135,0.00106812,0.0204086,0.0088501,0.0214005,0.0183487,-9.97986,0.00823975,0.0115204,0.0134277,0.00652313,0.0194168,0.00442505,0.019722,0.00644684
32,3,-6.38835,0.0012207,-0.00457764,-2.42653,0.0569017,-0.0729268,0.0544332,-0.0144789,-0.0955879,0.146844,-0.129123,-0.0819601,0.0125885,0.0200653,0.0342178,0.000114441,0.0172043,0.00831604,0.0212479,0.0164413,-9.97986,0.0134659,0.0171661,0.0157547,0.00926971,0.0156021,0.0115967,0.018158,0.00328064
32,4,-9.99003,0,-0.00305176,-2.4244,0.0553758,-0.0747579,0.0553487,0.0105455,-0.0922309,0.146539,-0.127903,-0.0804342,0.00839233,0.0210953,0.0354385,0.00415802,0.0178528,0.0106049,0.0185394,0.0170135,-9.97986,0.016861,0.00785828,0.0165558,0.00995636,0.0199509,0.0145721,0.0196457,0.00923157
32,5,-9.99003,-0.000915527,-0.00198364,-2.4247,0.0550706,-0.075063,0.0571797,0.0416735,-0.0903999,0.14776,-0.126682,-0.0804342,0.0107956,0.0294876,0.0320816,0.0162125,0.017662,0.0144196,0.0224686,0.0177383,-9.97986,0.0145721,-0.00843048,0.0131607,0.0082016,-0.00572205,0.0113678,0.0168991,0.00595093
32,6,-9.99003,0.000305176,-0.000457764,-2.42562,0.0553758,-0.0744527,0.0553487,0.0578478,-0.0925361,0.145013,-0.126682,-0.0825704,0.0112915,0.0347519,0.0278473,0.0340652,0.0164032,0.0100708,0.0200653,0.0200272,-9.97986,0.018158,-0.0144577,0.0157928,0.00686646,-0.00461578,0.00938416,0.0190353,0.00488281
32,7,-9.99003,0.000610352,0.000610352,-2.42531,0.0550706,-0.075063,0.0556539,0.0737169,-0.0897895,0.145318,-0.126072,-0.0831808,0.00850677,0.034523,0.0208664,0.0509262,0.017662,0.0121689,0.0239944,0.0248718,-9.97986,0.0125504,-0.0218582,0.0114059,0.00587463,0.000915527,0.00801086,0.0181961,0.00534058
32,8,-9.99003,-0.000305176,0.00167847,-2.42379,0.0547655,-0.0744527,0.0562642,0.126512,-0.0849067,0.145929,-0.121189,-0.0822652,0.0122452,0.038147,0.0162125,0.0534821,0.0148392,0.0102997,0.0263977,0.0243759,-9.97986,0.0116348,-0.0158691,0.0128174,0.00324249,0.0183868,-0.000457764,0.0191498,0.00499725
32,9,-1.6801,0.00183105,0.00366211,-2.42684,0.0535448,-0.0744527,0.0550435,0.142687,-0.0897895,0.143487,-0.122715,-0.0856222,0.0125122,0.0385284,0.0128937,0.0291824,0.018959,0.00679016,0.0242996,0.0249481,-9.97986,0.0162125,-0.00816345,0.0139999,0.00469208,0.0183868,-0.0019455,0.0173187,0.00606537
33,0,6.10097,0.0012207,0.00427246,-2.42806,0.0547655,-0.0753682,0.0522969,0.153673,-0.0882636,0.142877,-0.120273,-0.0859274,0.00930786,0.030899,0.0129318,0.0178909,0.0167847,0.01091,0.0213242,0.0241852,-9.97986,0.018692,-0.01091,0.0176239,0.00621796,0.0164795,-0.00545502,0.0151443,0.00583649
33,1,10.0097,-0.0012207,0.00488281,-2.4305,0.0523241,-0.0768941,0.050771,0.132311,-0.0943672,0.142877,-0.124241,-0.0874532,0.0141144,0.0316238,0.00839233,0.0124359,0.0157547,0.00965118,0.0215912,0.0192642,-9.97986,0.0185013,-0.00442505,0.0144577,0.00823975,0.0180817,-0.00507355,0.0208664,0.00724792
33,2,10.0097,0.000915527,0.00106812,-2.42989,0.0538499,-0.0762837,0.0495503,0.0926378,-0.0974189,0.142877,-0.125766,-0.0880636,0.01194,0.0357056,0.0115585,0.00358582,0.0143051,0.0106812,0.0230789,0.0229645,-9.97986,0.0175476,0.000152588,0.0154114,0.00797272,0.0178146,-0.0119019,0.0181961,0.00530243
33,3,10.0097,0,0.000305176,-2.42928,0.0541551,-0.0762837,0.0526021,0.0785997,-0.0971137,0.143487,-0.126682,-0.0886739,0.0127029,0.0365448,0.00953674,0.0109482,0.017395,0.00976563,0.0243759,0.0196075,-9.97986,0.0170135,-0.00320435,0.0166702,0.0101852,0.0188446,-0.0143051,0.0193024,0.00339508
33,4,10.0097,0.00213623,0.000152588,-2.42989,0.0541551,-0.0756734,0.0516866,0.0743273,-0.0949775,0.144708,-0.126072,-0.0871481,0.0112152,0.0346375,0.0156403,0.0117493,0.0194168,0.0111008,0.0213242,0.0200653,-9.97986,0.018692,0.00137329,0.0112915,0.0101471,0.0153351,-0.0223923,0.0177765,0.00743866
33,5,10.0097,-0.000305176,-0.000305176,-2.42776,0.0547655,-0.075063,0.0519917,0.0737169,-0.0934516,0.144708,-0.126072,-0.0856222,0.0110245,0.0296783,0.0133514,0.000686646,0.0173187,0.0037384,0.0226593,0.0150681,-9.97986,0.0178146,0.00087738,0.0128174,0.0094986,0.0151825,-0.0144958,0.0167847,0.00614166
33,6,10.0097,0.00152588,-0.000152588,-2.42653,0.0547655,-0.0753682,0.0532125,0.0709703,-0.0937568,0.145624,-0.125461,-0.0850118,0.00968933,0.0297546,0.0203705,-0.00270844,0.0198746,0.0130463,0.0245667,0.0172424,-9.97986,0.0164795,0.00102997,0.0162506,0.0087738,0.0167084,-0.00999451,0.0178146,0.00694275
33,7,10.0097,0.000305176,0.000152588,-2.42684,0.0547655,-0.0747579,0.054128,0.07036,-0.0928413,0.145013,-0.126072,-0.0831808,0.0111008,0.0244522,0.0245667,0.00171661,0.0198746,0.0102234,0.022583,0.0136566,-9.97986,0.0102234,-3.8147e-005,0.0144577,0.00873566,0.0164032,-0.00785828,0.0154877,0.00682831
33,8,10.0097,0.000610352,-0.000457764,-2.42562,0.0565965,-0.073232,0.054128,0.0706652,-0.0919257,0.145929,-0.124546,-0.0816549,0.0126266,0.0280762,0.0266266,0.00801086,0.021019,0.00717163,0.0218201,0.0159454,-9.97986,0.0139618,-0.00137329,0.0162888,0.00892639,0.0199127,-0.010643,0.0217438,0.00648499
33,9,10.0097,-0.00183105,0.000305176,-2.42531,0.0581224,-0.073232,0.0544332,0.0715807,-0.0916206,0.146844,-0.12363,-0.0813497,0.0107193,0.0289917,0.0274277,0.0038147,0.0154877,0.00888824,0.023613,0.00663757,-9.97986,0.0124741,-0.00411987,0.0123215,0.00637054,0.0188065,-0.00827789,0.019989,0.00740051
34,0,10.0097,-0.00305176,0,-2.42501,0.0569017,-0.0738423,0.054128,0.0697496,-0.0922309,0.146844,-0.124241,-0.0810445,0.0120544,0.0270844,0.0172806,0.00572205,0.0140762,0.0110626,0.0201035,0.00377655,-9.97986,0.0159454,0.0018692,0.0143051,0.00831604,0.0160217,-0.00259399,0.0182343,0.00679016
34,1,9.24733,-0.000305176,-0.00289917,-2.42745,0.0562914,-0.0738423,0.0526021,0.0221422,-0.0974189,0.146539,-0.128513,-0.0834859,0.0136566,0.0212097,0.0044632,0.0364304,0.0204468,0.0178909,0.0203323,0.00183105,-9.97986,0.0178146,-0.00137329,0.0123215,0.00831604,0.0193405,-0.00350952,0.0181961,0.00793457
34,2,0.26906,0.00152588,-0.0050354,-2.42592,0.0572069,-0.0741475,0.0526021,-0.00318738,-0.0961982,0.146234,-0.129123,-0.0822652,0.00812531,0.0255585,0.00526428,0.039978,0.018959,0.00850677,0.0172806,0.00263214,-9.97986,0.0162888,-0.0031662,0.0150299,0.00637054,0.0159454,-0.00976563,0.0148773,0.00221252
34,3,-6.55955,-0.000305176,-0.00427246,-2.42501,0.0562914,-0.0738423,0.0532125,-0.0147841,-0.0968086,0.146844,-0.129734,-0.0819601,0.0136566,0.0367737,0.00740051,0.0382996,0.0166702,0.0156403,0.0180435,0.00953674,-9.97986,0.0169373,-0.00297546,0.01091,0.0105667,0.0154495,-0.00495911,0.017395,0.00892639
34,4,-9.99003,0.00183105,-0.00289917,-2.42409,0.055681,-0.0726216,0.0568746,0.0120714,-0.0925361,0.147149,-0.128513,-0.0813497,0.0094223,0.0325775,0.0123596,0.0470352,0.0167084,0.00576019,0.0170135,0.0106049,-9.97986,0.018692,-0.00190735,0.0146103,0.00976563,0.0195313,0.000762939,0.0166702,0.00644684
34,5,-9.99003,0.000915527,-0.00152588,-2.4244,0.0559862,-0.0735371,0.0550435,0.042589,-0.090705,0.145929,-0.126987,-0.0816549,0.0120926,0.029068,0.00873566,0.0408173,0.0135422,0.011673,0.0194168,0.0181961,-9.97986,0.0188065,-0.0025177,0.0170517,0.00518799,-0.0103378,-0.00579834,0.0134659,0.0043869
34,6,-9.99003,0.00152588,-0.000762939,-2.42623,0.0547655,-0.0753682,0.0553487,0.0572374,-0.0903999,0.146234,-0.125156,-0.0813497,0.0122833,0.0291443,0.0117874,0.0339127,0.0177383,0.0112152,0.0226212,0.0210953,-9.97986,0.017395,-0.000991821,0.0170517,0.0115967,-0.00774384,0.00301361,0.0181961,0.00865936
34,7,-9.99003,0.000305176,0.000915527,-2.42684,0.0559862,-0.075063,0.0562642,0.0728014,-0.0897895,0.146234,-0.123935,-0.0831808,0.0118637,0.026207,0.0187302,0.0256348,0.0175858,0.0130081,0.0240326,0.0207901,-9.97986,0.0172424,-0.00183105,0.0134659,0.00858307,-0.00469208,-0.00640869,0.0152588,0.00522614
34,8,-9.86827,0.00152588,0.00213623,-2.42562,0.055681,-0.0744527,0.055959,0.125292,-0.0849067,0.145318,-0.122104,-0.0828756,0.00854492,0.0187683,0.0217438,0.0176239,0.0197601,0.0112534,0.0180435,0.0191498,-9.97986,0.0182724,-0.00350952,0.0161743,0.00839233,0.0136185,-0.00133514,0.0169373,0.00541687
34,9,-1.73839,0.000610352,0.00335693,-2.42684,0.0544603,-0.0756734,0.0547383,0.144823,-0.0879585,0.144708,-0.121494,-0.0844015,0.0113678,0.0201797,0.0195313,0.0167084,0.0196838,0.0154495,0.0232697,0.0188065,-9.97986,0.0182724,-0.00389099,0.0143814,0.00839233,0.0149155,-0.000419617,0.0171661,0.00774384
35,0,6.16994,0.000610352,0.00411987,-2.42806,0.0535448,-0.0759786,0.0544332,0.154894,-0.0885688,0.144098,-0.121494,-0.0862325,0.0108337,0.0217438,0.0199509,0.0128555,0.0185013,0.0107193,0.0231934,0.0142288,-9.97986,0.0138474,-0.00415802,0.0157547,0.00713348,0.0151443,-0.00377655,0.0150299,0.00770569
35,1,10.0097,-0.000305176,0.00442505,-2.4305,0.0517137,-0.0765889,0.0510762,0.131395,-0.0955879,0.141656,-0.12363,-0.0874532,0.0124359,0.0226974,0.0161362,0.00858307,0.0200272,0.0087738,0.0204849,0.0149536,-9.97986,0.0167465,-0.00434875,0.0141907,0.00961304,0.0157547,0.0069046,0.0165176,0.00808716
35,2,10.0097,0.000610352,0.000610352,-2.42989,0.0538499,-0.0759786,0.0498555,0.0917223,-0.0977241,0.142572,-0.126682,-0.0877584,0.0109482,0.0312424,0.00968933,0.0114822,0.022583,0.0127411,0.0210571,0.00980377,-9.97986,0.0102234,-0.00114441,0.0138474,0.00743866,0.0147247,0.00659943,0.0177765,0.00782013
35,3,10.0097,0.00152588,0.000305176,-2.42989,0.0532396,-0.0759786,0.0513814,0.0795153,-0.0961982,0.143792,-0.127292,-0.0877584,0.0136566,0.0278854,0.0113678,0.00709534,0.0177002,0.00720978,0.018959,0.0146484,-9.97986,0.0153351,0.00114441,0.0182724,0.00675201,0.0161362,0.00499725,0.0165939,0.00926971
35,4,10.0097,-0.000305176,0,-2.42959,0.0544603,-0.0753682,0.0510762,0.0743273,-0.0943672,0.144098,-0.125766,-0.0868429,0.0108337,0.00144958,0.0107193,0.0043869,0.0180817,0.0063324,0.0223923,0.0168228,-9.97986,0.0192261,0.00770569,0.0119019,0.0113297,0.0136185,-0.00244141,0.0141144,0.00968933
35,5,10.0097,0,0.000152588,-2.42806,0.0547655,-0.0753682,0.0516866,0.0712755,-0.0946723,0.144708,-0.126072,-0.085317,0.00617981,0.0101471,0.0102234,0.000801086,0.0169373,0.00946045,0.0253677,0.0137329,-9.97986,0.0179672,0.0175476,0.0172043,0.010643,0.0208282,0.00385284,0.0164032,0.00522614
35,6,10.0097,0.00305176,0,-2.42653,0.0550706,-0.0759786,0.0532125,0.0718859,-0.0937568,0.145624,-0.126072,-0.0844015,0.00976563,0.0153732,0.00793457,0.0018692,0.0203323,0.0133133,0.031929,0.0149536,-9.97986,0.0148392,0.0136948,0.0141525,0.0101852,0.0197601,0.00156403,0.0160599,0.00980377
35,7,10.0097,0.00152588,-0.000457764,-2.42714,0.055681,-0.0747579,0.0544332,0.0712755,-0.0943672,0.145624,-0.126072,-0.0831808,0.0109863,0.0183868,0.000419617,-0.00305176,0.0224686,0.0130844,0.0283432,0.0163269,-9.97986,0.0169373,0.0135803,0.014267,0.00751495,0.0186157,0.00133514,0.0181198,0.0100327
35,8,10.0097,0.000610352,0.000610352,-2.42592,0.0553758,-0.0738423,0.0550435,0.0706652,-0.0919257,0.146234,-0.12363,-0.0822652,0.0135422,0.0193024,0.00415802,-0.0069046,0.0195313,0.0131226,0.0294495,0.0215149,-9.97986,0.0177002,0.00328064,0.0149918,0.00823975,0.0168228,0.00164032,0.0121689,0.00648499
35,9,10.0097,0.00152588,-0.000457764,-2.42531,0.0559862,-0.0735371,0.0556539,0.0715807,-0.0925361,0.146844,-0.125156,-0.0813497,0.00717163,0.0167084,0.0123596,-0.00232697,0.0175476,0.0111008,0.02285,0.017662,-9.97986,0.0141144,-0.0056839,0.0148773,0.0104904,0.016861,0.00152588,0.0154495,0.00614166
36,0,10.0097,-0.000305176,0.000152588,-2.42562,0.0550706,-0.0735371,0.0532125,0.0682238,-0.0903999,0.146539,-0.124546,-0.0813497,0.0107193,0.016098,0.0205612,-0.00442505,0.0153351,0.0119781,0.0247192,0.0149536,-9.97986,0.0161362,-0.0102234,0.0141144,0.00804901,0.0170898,0.00797272,0.00980377,0.00862122
36,1,9.15578,0.000610352,-0.00228882,-2.42837,0.0553758,-0.0738423,0.0516866,0.0206163,-0.0983344,0.146539,-0.128513,-0.0840963,0.0128555,0.0186539,0.0279999,0.00209808,0.0198364,0.0094986,0.0272751,0.016861,-9.97986,0.0139236,-0.00228882,0.0120926,0.0107193,0.0196075,0.00583649,0.0141144,0.00961304
36,2,0.12868,0.00152588,-0.00427246,-2.42592,0.0596483,-0.0729268,0.0532125,-0.00349256,-0.0968086,0.146539,-0.128208,-0.0819601,0.01091,0.0162888,0.0263214,0.00522614,0.0186157,0.00865936,0.0201416,0.0162888,-9.97986,0.0144196,-0.0101471,0.0105667,0.0114441,0.0134277,0.00328064,0.0164413,0.00617981
36,3,-6.65233,0.00183105,-0.00411987,-2.42653,0.0572069,-0.073232,0.0544332,-0.0147841,-0.0968086,0.145929,-0.130344,-0.0813497,0.00728607,0.0218201,0.0157928,0.00896454,0.0208664,0.00904083,0.022583,0.0178528,-9.97986,0.0151062,-0.0131226,0.0102615,0.00995636,0.0143051,0.00347137,0.0153351,0.0088501
36,4,-9.99003,-0.000915527,-0.00320435,-2.4244,0.0569017,-0.0744527,0.0553487,0.0117662,-0.0928413,0.146539,-0.127598,-0.0810445,0.00999451,0.0246048,0.017395,0.0194168,0.0202179,0.0109482,0.0212097,0.014267,-9.97986,0.0198746,-0.0155258,0.0123215,0.00862122,0.0156403,-0.00183105,0.0160217,0.00648499
36,5,-9.99003,0.000305176,-0.00183105,-2.42501,0.0559862,-0.0738423,0.055959,0.0410631,-0.090705,0.147455,-0.126682,-0.0810445,0.00904083,0.0247955,0.0161743,0.0120926,0.0164032,0.0107574,0.0224686,0.0215149,-9.97986,0.0132751,-0.0178528,0.0120163,0.00892639,-0.00534058,-0.00549316,0.0136185,0.00492096
36,6,-9.99003,0.0012207,-0.000152588,-2.42531,0.0547655,-0.0741475,0.0547383,0.0578478,-0.0913154,0.145929,-0.126072,-0.0834859,0.0114822,0.0217819,0.00968933,0.0117874,0.0227356,0.00961304,0.0200272,0.0171661,-9.97986,0.0118637,-0.0141907,0.0144196,0.0119781,-0.00686646,-0.0043869,0.0208664,0.00434875
36,7,-9.99003,0.00183105,0.000152588,-2.42592,0.055681,-0.0753682,0.0562642,0.0709703,-0.090705,0.145624,-0.125156,-0.0819601,0.0115204,0.0205612,0.00545502,0.0183487,0.0221634,0.0123978,0.0245667,0.0160599,-9.97986,0.0152206,-0.00797272,0.01194,0.0118256,-0.0075531,-0.00461578,0.0185776,0.00797272
36,8,-9.99003,0,0.00228882,-2.42531,0.0544603,-0.0744527,0.0562642,0.123155,-0.0846015,0.146234,-0.12241,-0.0828756,0.00930786,0.0219345,0.00389099,0.0169754,0.0199509,0.0094986,0.0210953,0.0182724,-9.97986,0.0125885,0.00106812,0.0175858,0.00759125,0.0140381,-0.00705719,0.0171661,0.00888824
36,9,-2.01182,0.00152588,0.00289917,-2.42806,0.0538499,-0.075063,0.0544332,0.143907,-0.088874,0.143792,-0.121799,-0.0844015,0.0107574,0.018692,0.0114059,0.0118256,0.0182724,0.00667572,0.0225067,0.0193405,-9.97986,0.0156403,0.000457764,0.0159836,0.00808716,0.0178909,-0.00988007,0.0148773,0.0056839
37,0,5.84706,-0.00152588,0.00457764,-2.42806,0.0535448,-0.0762837,0.0538228,0.153368,-0.088874,0.143182,-0.121494,-0.0856222,0.00701904,0.0203323,0.0112152,0.0138474,0.0186157,0.0111771,0.0225067,0.0204086,-9.97986,0.0169373,0.00358582,0.0124359,0.00938416,0.0148773,-0.00976563,0.0156784,0.0056839
37,1,10.0097,-0.000305176,0.00442505,-2.43142,0.0523241,-0.0778096,0.050771,0.135973,-0.094062,0.143182,-0.124546,-0.0877584,0.00850677,0.0175858,0.0136566,0.0117111,0.0129318,0.0114441,0.0245285,0.0191879,-9.97986,0.0144577,0.00595093,0.00858307,0.0138474,0.0130081,-0.0124741,0.0137711,0.00545502
37,2,10.0097,0.000915527,0.0012207,-2.4302,0.0535448,-0.0771993,0.0513814,0.0944689,-0.0977241,0.142877,-0.126987,-0.0886739,0.0124359,0.0204849,0.0172424,0.0133896,0.0190353,0.0134659,0.0214005,0.0159073,-9.97986,0.0138855,0.00370026,0.0138855,0.00743866,0.017662,-0.0115585,0.014534,0.00656128
37,3,10.0097,0.000305176,0.000610352,-2.42989,0.0538499,-0.0759786,0.0513814,0.0798204,-0.0971137,0.144098,-0.126377,-0.0883688,0.0104523,0.0194931,0.0191116,0.0138855,0.0182343,0.0128937,0.0191879,0.0177383,-9.97986,0.0169754,0.000190735,0.014801,0.00789642,0.0130463,-0.0120163,0.01297,0.00652313
37,4,10.0097,0.000915527,-0.000305176,-2.42867,0.0541551,-0.0762837,0.0516866,0.0746324,-0.0946723,0.143487,-0.126072,-0.0862325,0.0114059,0.0186539,0.0167084,0.0122833,0.0196457,0.0100708,0.0179291,0.0164795,-9.97986,0.0134277,-0.000724792,0.0160217,0.010643,0.0180435,-0.00808716,0.0174332,0.00442505
37,5,10.0097,0.00213623,0.000457764,-2.42776,0.0550706,-0.0753682,0.0532125,0.0724962,-0.0943672,0.145013,-0.126072,-0.085317,0.00892639,0.0223541,0.0200653,0.0107956,0.0174332,0.0133133,0.0196075,0.0239182,-9.97986,0.0153351,-0.0111389,0.0168228,0.00606537,0.0143433,-0.00629425,0.0156021,0.00244141
37,6,10.0097,-0.000915527,0.000152588,-2.42623,0.0532396,-0.0759786,0.0529073,0.0706652,-0.0934516,0.145624,-0.126987,-0.0850118,0.0110245,0.018158,0.0201416,0.0144196,0.0114059,0.0121307,0.0227356,0.0190353,-9.97986,0.0142288,-0.0186539,0.0125885,0.0115585,0.0143433,-0.00492096,0.0143814,0.00541687
37,7,10.0097,0.0012207,0.000152588,-2.42653,0.0562914,-0.0744527,0.0529073,0.0715807,-0.0931465,0.144403,-0.125766,-0.0837911,0.0139999,0.020752,0.0212479,0.0158691,0.0183105,0.01297,0.0211334,0.0183868,-9.97986,0.0160599,-0.0153351,0.0165176,0.00881195,0.015564,0.00358582,0.0124359,0.00423431
37,8,10.0097,-0.000305176,0.000610352,-2.4244,0.0562914,-0.0747579,0.0544332,0.07036,-0.090705,0.145929,-0.12363,-0.0819601,0.00801086,0.0157166,0.0180435,0.0106049,0.0189972,0.0122833,0.0238419,0.0203323,-9.97986,0.0133514,-0.00530243,0.0156021,0.00839233,0.0185394,0.00709534,0.0156021,0.00507355
37,9,10.0097,-0.000610352,-0.000610352,-2.42531,0.0559862,-0.0735371,0.0544332,0.0712755,-0.0922309,0.146539,-0.123325,-0.0810445,0.0088501,0.017662,0.0203705,0.0110626,0.015564,0.0136566,0.020256,0.0188828,-9.97986,0.00923157,0.00038147,0.0154114,0.00724792,0.0159836,-0.00202179,0.0152969,0.00747681
38,0,10.0097,-0.000610352,0,-2.42562,0.0565965,-0.0741475,0.0547383,0.0700548,-0.0913154,0.146234,-0.124851,-0.0807394,0.0122452,0.0186157,0.0177383,-0.00480652,0.0195313,0.0127411,0.0272751,0.0246811,-9.97986,0.0141525,0.000457764,0.017128,0.00812531,0.0188828,-0.00934601,0.0162125,0.00862122
38,1,9.24611,-0.0012207,-0.00274658,-2.42714,0.0572069,-0.0744527,0.0532125,0.020006,-0.0980293,0.145929,-0.127598,-0.0834859,0.00720978,0.0143814,0.0219345,-0.0275421,0.0164032,0.00766754,0.022583,0.0179672,-9.97986,0.0111771,-0.00465393,0.0153732,0.00576019,0.0159073,-0.0165558,0.0119781,0.00457764
38,2,0.211382,0.00244141,-0.0050354,-2.42562,0.0572069,-0.073232,0.0535176,-0.00318738,-0.0965034,0.146844,-0.128818,-0.0819601,0.0121689,0.0197983,0.0214005,-0.018692,0.0193024,0.0117493,0.028038,0.022583,-9.97986,0.0108719,-0.00370026,0.014534,0.00839233,0.0153351,-0.00724792,0.0160217,0.0063324
38,3,-6.6035,0.000610352,-0.00534058,-2.42623,0.0578172,-0.0729268,0.054128,-0.0150892,-0.0955879,0.146539,-0.129734,-0.0804342,0.00511169,0.018959,0.0233459,-0.01297,0.0170135,0.0100327,0.0230408,0.0228119,-9.97986,0.0105286,-0.00427246,0.0150299,0.00919342,0.0172043,-0.00038147,0.0126266,0.00793457
38,4,-9.99003,-0.000915527,-0.00335693,-2.4247,0.0553758,-0.073232,0.0547383,0.0120714,-0.0925361,0.145013,-0.128513,-0.0810445,0.0144196,0.0223541,0.0284576,-0.0105667,0.0170135,0.011673,0.0272751,0.0196075,-9.97986,0.0105667,-0.00556946,0.0150681,0.00782013,0.0143051,0.0069046,0.019722,0.00259399
38,5,-9.99003,0.000305176,-0.00198364,-2.4247,0.0569017,-0.0744527,0.0562642,0.0419786,-0.0910102,0.145929,-0.127292,-0.0810445,0.0108719,0.0220108,0.0269318,-0.000915527,0.0167465,0.00789642,0.0201035,0.0178146,-9.97986,0.00652313,-0.0018692,0.0136566,0.00553131,-0.0106049,0.0144958,0.0150299,0.00656128
38,6,-9.99003,0,-0.000305176,-2.42592,0.0553758,-0.0738423,0.0550435,0.0572374,-0.0910102,0.145318,-0.125156,-0.0822652,0.0114822,0.0215912,0.0292969,-0.00427246,0.0165939,0.0113297,0.0197601,0.0185394,-9.97986,0.0107956,0.00301361,0.0144958,0.00675201,-0.0101852,0.0170135,0.0116348,0.00694275
38,7,-9.99003,0.00152588,0.000610352,-2.42653,0.0550706,-0.0747579,0.0538228,0.072191,-0.0903999,0.145318,-0.124546,-0.0828756,0.0117874,0.0233459,0.0286484,-0.00522614,0.0183487,0.0111008,0.0218964,0.0180817,-9.97986,0.0100327,0.00297546,0.0110245,0.00572205,-0.00484467,0.0127792,0.0131607,0.00514984
38,8,-9.99003,-0.000305176,0.00274658,-2.4247,0.0547655,-0.0738423,0.0584004,0.127428,-0.0855171,0.146844,-0.121189,-0.0822652,0.0127792,0.029068,0.0346756,-0.00598907,0.0174713,0.00320435,0.0189209,0.0182724,-9.97986,0.0109482,0.00324249,0.0146484,0.00530243,0.0149536,0.00694275,0.0159836,0.00499725
38,9,-1.88548,0,0.00289917,-2.42592,0.0547655,-0.0753682,0.0544332,0.143297,-0.0879585,0.145318,-0.122104,-0.0847066,0.0151062,0.0255203,0.0311661,-0.000915527,0.0173187,0.00740051,0.0154877,0.0143814,-9.97986,0.00659943,0.00236511,0.0135422,0.00782013,0.014267,0.00694275,0.0128937,0.00873566
39,0,5.85225,0.00152588,0.00457764,-2.42837,0.0535448,-0.0759786,0.054128,0.154283,-0.0885688,0.143487,-0.121799,-0.0862325,0.0120544,0.038681,0.0347519,0.00537872,0.0160599,0.00682831,0.0204849,0.0185776,-9.97986,0.00976563,0.00263214,0.0141907,0.00804901,0.0177765,0.00328064,0.0170135,0.00457764
39,1,10.0097,0,0.00366211,-2.4305,0.0523241,-0.0771993,0.0519917,0.133837,-0.094062,0.143182,-0.12363,-0.0874532,0.01091,0.037117,0.03685,0.00953674,0.0213623,0.0125885,0.0231934,0.0193787,-9.97986,0.0114059,-0.000762939,0.0115204,0.00667572,0.0141525,0,0.0119019,0.00545502
39,2,10.0097,0.000610352,0.00106812,-2.43142,0.0547655,-0.0765889,0.0513814,0.0938585,-0.0983344,0.142877,-0.126377,-0.0883688,0.0121307,0.041008,0.0378418,-0.0037384,0.0164032,0.0125885,0.0257492,0.0208664,-9.97986,0.00694275,0.00228882,0.0128555,0.00358582,0.0121307,0.000686646,0.0139236,0.0075531
39,3,10.0097,0.00183105,0.000152588,-2.42867,0.0532396,-0.0765889,0.050771,0.0792101,-0.0965034,0.144098,-0.126987,-0.0880636,0.0131607,0.0431824,0.0356293,-0.0102615,0.0183487,0.00717163,0.024147,0.0160599,-9.97986,0.00988007,0.0056839,0.0111008,0.00350952,0.0146103,-0.000610352,0.0143433,0.00469208
39,4,10.0097,0,0.000457764,-2.42898,0.0550706,-0.0753682,0.0522969,0.0740221,-0.0961982,0.144098,-0.126377,-0.0877584,0.0131989,0.0460052,0.0251389,-0.00358582,0.0201797,0.0146484,0.0185776,0.0173569,-9.97986,0.0141525,-0.000724792,0.0114822,0.00591278,0.0163651,-0.00125885,0.0128937,0.00743866
39,5,10.0097,0.000305176,-0.000152588,-2.42592,0.0550706,-0.0756734,0.0516866,0.0731066,-0.0931465,0.144708,-0.126682,-0.0859274,0.0109482,0.0282669,0.0137711,0.0350571,0.0179291,0.0119019,0.0252914,0.0130844,-9.97986,0.0134659,-0.00507355,0.0143051,0.0050354,0.0166702,-0.0012207,0.0159836,0.0110245
39,6,10.0097,0.0012207,0,-2.42653,0.0541551,-0.075063,0.0547383,0.07036,-0.0922309,0.145318,-0.125461,-0.0844015,0.0105667,0.0232697,0.0139618,0.0746155,0.0163269,0.00930786,0.0256729,0.0138474,-9.97986,0.0162125,0.000915527,0.0130844,0.00801086,0.017128,-0.00553131,0.0138855,0.00797272
39,7,10.0097,0.000305176,0.000305176,-2.42623,0.0559862,-0.075063,0.054128,0.0715807,-0.0946723,0.145013,-0.125156,-0.0844015,0.0136566,0.0189972,0.0196838,0.0801086,0.0114441,0.00858307,0.0203323,0.018425,-9.97986,0.0152206,-0.000152588,0.010643,0.00595093,0.0177383,-0.00141144,0.0139618,0.00663757
39,8,10.0097,0.000305176,0.000610352,-2.42501,0.0572069,-0.0741475,0.0556539,0.072191,-0.0928413,0.145624,-0.125156,-0.0822652,0.0111771,0.00587463,0.018425,0.0429535,0.018158,0.0119781,0.020752,0.0163269,-9.97986,0.0134277,0.00492096,0.0113297,0.00644684,0.0149918,-0.00732422,0.0131989,0.00682831
39,9,10.0097,0,0.000305176,-2.42531,0.0565965,-0.0726216,0.0550435,0.0718859,-0.0916206,0.146844,-0.12363,-0.0807394,0.00873566,-0.00370026,0.0174332,0.0177383,0.0150299,0.01297,0.0218582,0.017662,-9.97986,0.0177383,0.0127411,0.0154114,0.00591278,0.0156784,-0.0142288,0.0151825,0.00694275
40,0,10.0097,0.000305176,0.000152588,-2.42623,0.0562914,-0.0747579,0.0550435,0.0691393,-0.0931465,0.146539,-0.125156,-0.0807394,0.0094986,-0.00667572,0.0185776,0.0187683,0.0139999,0.00911713,0.0259399,0.0191116,-9.97986,0.0196075,0.0131989,0.0131989,0.00537872,0.0177002,-0.0227356,0.0139618,0.00354767
40,1,9.27724,-0.000610352,-0.00213623,-2.42653,0.0544603,-0.0747579,0.0519917,0.0206163,-0.0977241,0.145013,-0.127292,-0.0825704,0.00579834,-0.00358582,0.0242233,0.0182343,0.0138092,0.0107193,0.0189209,0.022049,-9.97986,0.0215149,0.0159836,0.0127411,0.00614166,0.0152206,-0.0256348,0.0120544,0.00679016
40,2,0.162859,0.00213623,-0.00488281,-2.42501,0.0562914,-0.0738423,0.0535176,-0.00440808,-0.0955879,0.146539,-0.129429,-0.0822652,0.0088501,0.0025177,0.0152588,0.0109863,0.0147247,0.00911713,0.0156403,0.0191498,-9.97986,0.0175858,0.0146484,0.0115967,0.00717163,0.0157547,-0.0165176,0.0124359,0.00736237
40,3,-6.61998,0.000915527,-0.0050354,-2.42562,0.0578172,-0.0744527,0.0532125,-0.0150892,-0.0961982,0.146844,-0.130649,-0.0816549,0.0105667,0.0146103,0.011673,0.00766754,0.0207138,0.00907898,0.0216293,0.0218582,-9.97986,0.0167847,0.00675201,0.0133514,0.00362396,0.0134659,-0.0146866,0.0172043,0.00343323
40,4,-9.99003,-0.00152588,-0.00350952,-2.4247,0.0559862,-0.0741475,0.0556539,0.0108507,-0.0931465,0.146539,-0.128818,-0.0813497,0.00534058,0.022583,0.0109482,0.0112915,0.0182724,0.0109863,0.025177,0.0247955,-9.97986,0.0191116,-0.00926971,0.0153732,0.00263214,0.0123596,-0.0128174,0.0133133,0.00679016
40,5,-9.99003,0,-0.00183105,-2.42501,0.0559862,-0.0735371,0.0565694,0.0416735,-0.0897895,0.145624,-0.127292,-0.0813497,0.0111008,0.0244904,0.00411987,0.0115967,0.0174713,0.00610352,0.0225067,0.0243759,-9.97986,0.0167847,-0.0125504,0.0116348,0.000801086,-0.00713348,-0.00488281,0.0153732,0.0094223
40,6,-9.99003,0.0012207,-0.000610352,-2.42562,0.0550706,-0.0741475,0.0568746,0.0578478,-0.090705,0.145624,-0.126072,-0.0828756,0.0120544,0.0226212,0.00392914,-0.00396729,0.0177765,0.0105667,0.0222778,0.0196838,-9.97986,0.0159836,-0.0104141,0.0147629,0.00156403,-0.0125122,0.0075531,0.01194,0.00423431
