
Devices
1200
,,BP Load cell - Voltage,String Length - Voltage,Clutch Active - Voltage,#7 iPecs - Voltage,,,,,,,,,EMG 1-8 Left - Voltage,,,,,,,,Pylon Force - Voltage,EMG 9-16 Right - Voltage,,,,,,,,
Frame,Sub Frame,BP Load Cell,String Length,From Arduino Logic,A45,A135,A225,A315,S0,S90,S180,S270,ZSum,EMG 1 Glut Max,EMG 2 Glut Med,EMG 3 Biceps Femoris Long,EMG 4 Rectus Femoris,EMG 5 Vastus Medialis,EMG 6 Tib Ant,EMG 7 Med Gas,EMG 8 Soleus,Pylon volts,EMG 9 Glut Max,EMG 10 Glut Med,EMG 11 Biceps Femoris Long,EMG 12 Rectus Femoris,EMG 13 Vastus Medialis,EMG 14 Tib Ant,EMG 15 Med Gas,EMG 16 Soleus
,,V,V,V,V,V,V,V,V,V,V,V,V,V,V,V,V,V,V,V,V,V,V,V,V,V,V,V,V,V
1,0,10.0097,0.00152588,-0.000610352,-2.4247,0.0559862,-0.0741475,0.0547383,0.0709703,-0.0919257,0.146234,-0.124546,-0.0813497,0.020256,-0.0705719,-0.0452423,0.017662,0.0206375,0.0326538,0.0267792,0.0196838,-9.97986,0.0314713,-0.00709534,0.0611877,-0.0518799,-0.0117493,-0.00202179,0.0328827,0.0753021
1,1,10.0097,0.000610352,-0.000152588,-2.42623,0.0575121,-0.0747579,0.054128,0.0709703,-0.090705,0.146234,-0.124241,-0.0816549,0.0138855,-0.0758362,-0.055542,0.0106049,0.0183868,0.033493,0.0228882,0.0245285,-9.97986,0.0252533,-0.00682831,0.0592422,-0.05867,-0.0111771,0.000572205,0.0251007,0.0787735
1,2,10.0097,-0.000305176,-0.000305176,-2.42409,0.0562914,-0.073232,0.0556539,0.0709703,-0.090705,0.146844,-0.123325,-0.0813497,0.0175095,-0.0720596,-0.0577927,0.0104523,0.0145721,0.0339508,0.0250626,0.0247192,-9.97986,0.0198746,-0.00644684,0.0634766,-0.063858,-0.0161362,0.00217438,0.024147,0.0802231
1,3,10.0097,0.00244141,-0.000762939,-2.42562,0.0559862,-0.0744527,0.054128,0.0587633,-0.0937568,0.146844,-0.125461,-0.0822652,0.0114441,-0.0811768,-0.0550842,0.00812531,0.0131989,0.0294113,0.0227737,0.0227737,-9.97986,0.0241852,-0.0111389,0.0639725,-0.07267,-0.0149536,-0.00179291,0.0221634,0.0827789
1,4,10.0097,0,-0.00213623,-2.42623,0.0584276,-0.0747579,0.0547383,0.0386217,-0.0943672,0.146844,-0.125766,-0.0825704,0.0134659,-0.0760269,-0.0421906,0.0156021,0.00629425,0.0297546,0.0253677,0.0268173,-9.97986,0.0265503,-0.0102615,0.0698853,-0.072937,-0.0129318,-0.00362396,0.0222778,0.0843048
1,5,7.89479,0,-0.0012207,-2.42623,0.0562914,-0.073232,0.0544332,0.0499132,-0.0931465,0.146844,-0.124546,-0.0825704,0.0157928,-0.0624084,-0.0260925,0.0143814,-0.00152588,0.0343704,0.0240707,0.0289536,-9.97986,0.0217438,-0.00514984,0.0674438,-0.0761032,-0.0140381,-0.00148773,0.021019,0.0846863
1,6,7.30123,0.00152588,-0.000305176,-2.42623,0.0559862,-0.0744527,0.0547383,0.0605944,-0.0928413,0.147455,-0.126072,-0.0822652,0.00904083,-0.0479126,-0.0157166,0.0138474,-0.00858307,0.0357437,0.0243378,0.0276184,-9.97986,0.0236893,-0.00415802,0.0656128,-0.0779724,-0.0100708,0.00347137,0.0165558,0.088501
1,7,7.35158,0.000305176,-0.000152588,-2.42623,0.0547655,-0.0747579,0.054128,0.0682238,-0.0919257,0.145318,-0.125766,-0.0825704,0.0110626,-0.0304031,-0.0159454,0.014267,-0.0138092,0.0365067,0.0227737,0.0265121,-9.97986,0.0151062,-0.00968933,0.0640869,-0.0723648,-0.0110245,0.00740051,0.0129318,0.0899887
1,8,8.25276,0.000305176,0.00106812,-2.42623,0.0541551,-0.0738423,0.0547383,0.0831774,-0.0900947,0.144708,-0.128208,-0.0834859,0.00988007,-0.0193405,-0.00827789,0.0110245,-0.0231552,0.0356293,0.0268555,0.0225449,-9.97986,0.0146866,-0.01194,0.0617218,-0.0766373,-0.00518799,0.00770569,0.0136948,0.0806808
1,9,10.0097,0,0.00259399,-2.42684,0.0547655,-0.0744527,0.0535176,0.110033,-0.088874,0.144708,-0.124241,-0.0847066,0.0120163,-0.0176239,-0.00209808,0.0144577,-0.0277328,0.0296402,0.0276566,0.0209427,-9.97986,0.0122833,-0.0131607,0.0618744,-0.072403,-0.000762939,0.012207,0.0115967,0.0799942
2,0,10.0097,0,0.000762939,-2.42928,0.0535448,-0.0747579,0.0526021,0.0822618,-0.0946723,0.144098,-0.126072,-0.0871481,0.0116348,-0.01194,-0.00247955,0.0159836,-0.031929,0.0343704,0.0269699,0.0191879,-9.97986,0.0105286,-0.0101471,0.0606918,-0.0705719,-0.00106812,0.0141144,0.00576019,0.077858
2,1,10.0097,0.000915527,0.000457764,-2.42867,0.0541551,-0.0762837,0.0526021,0.0734117,-0.0949775,0.142877,-0.126682,-0.0877584,0.0111008,-0.00667572,0.00205994,0.0177765,-0.0362778,0.0356674,0.0318909,0.0224686,-9.97986,0.0115585,-0.0139999,0.0534439,-0.0671387,0.00354767,0.0156784,-0.000801086,0.0700378
2,2,10.0097,0.000915527,0,-2.42959,0.0532396,-0.0765889,0.0522969,0.0700548,-0.0946723,0.144098,-0.126987,-0.0874532,0.0132751,0.000343323,0.00537872,0.013237,-0.0330734,0.0420761,0.0326538,0.0221634,-9.97986,0.0100327,-0.0111008,0.0514221,-0.0657654,0.00583649,0.0198746,-0.00408173,0.0687408
2,3,10.0097,0.00335693,-0.000305176,-2.42928,0.0529344,-0.0759786,0.0504659,0.0706652,-0.0946723,0.143182,-0.127598,-0.0874532,0.00984192,0.00514984,0.0134659,0.0112915,-0.0284195,0.0549316,0.0343704,0.0320053,-9.97986,0.00843048,-0.00789642,0.0458908,-0.0640488,0.0075531,0.0185013,-0.0128174,0.0649643
2,4,10.0097,0.000915527,-0.000305176,-2.42837,0.0538499,-0.0747579,0.0516866,0.0694445,-0.0946723,0.144403,-0.125766,-0.0871481,0.0104523,0.0069046,0.0195313,0.00907898,-0.0301361,0.0551605,0.0346375,0.0294113,-9.97986,0.00556946,-0.00522614,0.0388336,-0.0590515,0.00938416,0.0239182,-0.0151825,0.0598907
2,5,10.0097,0.000610352,0.000305176,-2.42898,0.0541551,-0.0744527,0.0535176,0.07036,-0.0937568,0.144403,-0.126987,-0.085317,0.00965118,0.0151825,0.019722,0.0121689,-0.0205994,0.0599289,0.0341034,0.0297546,-9.97986,0.00656128,0.000724792,0.0285339,-0.0622177,0.0152969,0.022316,-0.0131989,0.0525284
2,6,10.0097,0.0012207,-0.000610352,-2.42745,0.0538499,-0.0744527,0.0550435,0.07036,-0.0937568,0.144403,-0.126072,-0.0856222,0.0105667,0.0178146,0.0247955,0.00751495,-0.0144577,0.0632477,0.0377655,0.0337601,-9.97986,0.00423431,0.00598907,0.0242233,-0.0610733,0.0159073,0.0278091,-0.016861,0.0440598
2,7,10.0097,0.000610352,0,-2.42898,0.0538499,-0.0762837,0.0529073,0.07036,-0.0937568,0.144098,-0.126072,-0.0834859,0.0125122,0.0239182,0.0271225,0.00507355,-0.00988007,0.0608444,0.0351334,0.0359726,-9.97986,0.00835419,0.00278473,0.0159073,-0.0616074,0.0216293,0.0289536,-0.0185013,0.041275
2,8,10.0097,0.000915527,-0.000610352,-2.42684,0.0550706,-0.075063,0.0535176,0.0709703,-0.0919257,0.145929,-0.126072,-0.0825704,0.0111008,0.0333786,0.030098,0.00499725,-0.00102997,0.0688553,0.0372696,0.0336838,-9.97986,0.00637054,0.0025177,0.0129318,-0.0760651,0.0195694,0.0335312,-0.0124741,0.026741
2,9,10.0097,0.000915527,-0.000915527,-2.4247,0.055681,-0.0744527,0.0553487,0.0706652,-0.0916206,0.146234,-0.124851,-0.0819601,0.012207,0.0388336,0.0314713,0.0018692,0.00961304,0.0708771,0.038681,0.0279236,-9.97986,0.00476837,0.00423431,0.0019455,-0.0817108,0.0254059,0.0309372,-0.0140381,0.0217438
3,0,10.0097,0.000610352,-0.000152588,-2.42592,0.0562914,-0.0735371,0.0556539,0.0706652,-0.090705,0.14776,-0.124546,-0.0816549,0.0162506,0.0511932,0.0325775,0.00320435,0.0214005,0.0706863,0.0397491,0.0269699,-9.97986,-0.000839233,0.00709534,-0.010643,-0.093689,0.0334167,0.0313568,-0.0126266,0.0157166
3,1,10.0097,-0.0012207,-0.000457764,-2.42623,0.0572069,-0.0744527,0.054128,0.0709703,-0.0928413,0.147149,-0.124546,-0.0813497,0.00915527,0.0545502,0.0318146,0.00343323,0.029068,0.0789642,0.042038,0.0304794,-9.97986,0.000686646,0.0151443,-0.0127411,-0.0950241,0.032196,0.0317764,-0.0125122,0.00247955
3,2,10.0097,0.00152588,-0.000457764,-2.42501,0.0562914,-0.0735371,0.0547383,0.07036,-0.0910102,0.147149,-0.123935,-0.0810445,0.0104523,0.0578308,0.0366974,0.00190735,0.0390625,0.0810623,0.0429916,0.0267029,-9.97986,0.00144958,0.0148773,-0.0243378,-0.100288,0.0366592,0.0324631,-0.00614166,0.00358582
3,3,10.0097,-0.00274658,-0.000457764,-2.42562,0.055681,-0.0744527,0.054128,0.0605944,-0.0946723,0.147455,-0.124546,-0.0816549,0.0101852,0.0523758,0.0297928,-0.000762939,0.0487518,0.0796127,0.0460434,0.0278091,-9.97986,0.00709534,0.0101852,-0.0328064,-0.106087,0.0351715,0.0327682,-0.00396729,-0.00354767
3,4,10.0097,-0.000610352,-0.00213623,-2.42714,0.0559862,-0.0747579,0.0526021,0.0389269,-0.0943672,0.14776,-0.126072,-0.0831808,0.0101089,0.057869,0.0305176,0.000953674,0.0605011,0.0876236,0.0490952,0.0266647,-9.97986,0.0044632,0.00888824,-0.0372696,-0.111122,0.0383759,0.0329208,-0.00255585,-0.01091
3,5,7.99733,-0.000610352,-0.00228882,-2.42531,0.0569017,-0.0735371,0.0519917,0.0511339,-0.0916206,0.145624,-0.124546,-0.0825704,0.0106812,0.0501251,0.0276566,0.00488281,0.067215,0.0815964,0.0465393,0.0172043,-9.97986,0.0012207,0.00198364,-0.0496292,-0.121765,0.0421906,0.0320435,-0.00293732,-0.0186539
3,6,7.44771,0.00152588,-0.00106812,-2.42562,0.0550706,-0.0747579,0.0538228,0.059984,-0.0928413,0.144403,-0.125766,-0.0825704,0.0135422,0.0602341,0.03685,0.0117874,0.0774002,0.0878143,0.0501251,0.0141525,-9.97986,0.00087738,0.00858307,-0.0547028,-0.13031,0.0435257,0.0347519,0.0025177,-0.0245667
3,7,7.48708,0.000915527,-0.000457764,-2.42531,0.0550706,-0.075063,0.0535176,0.0679186,-0.0913154,0.145013,-0.124241,-0.0831808,0.0130081,0.0675964,0.0439072,0.0043869,0.0850296,0.0869751,0.0525284,0.0160599,-9.97986,0.00263214,0.0159073,-0.0576401,-0.141296,0.0510025,0.0326157,0.00495911,-0.0310898
3,8,8.37178,-0.000305176,-0.000762939,-2.42745,0.0541551,-0.0756734,0.0535176,0.0843981,-0.0897895,0.145013,-0.124241,-0.0844015,0.0137711,0.0548935,0.0449753,0.00217438,0.0915146,0.0927734,0.0529099,0.0238419,-9.97986,0.000419617,0.0118637,-0.0707245,-0.155449,0.0482178,0.0373077,0.010376,-0.0305939
3,9,10.0097,0.00152588,0.00137329,-2.42684,0.0553758,-0.075063,0.0547383,0.110338,-0.0894843,0.142267,-0.123935,-0.0850118,0.0194931,0.0153351,0.0457764,0.000495911,0.0960541,0.0868607,0.0539398,0.0273514,-9.97986,0.00404358,0.00904083,-0.0753021,-0.163612,0.0508499,0.039711,0.0123596,-0.0324631
4,0,10.0097,0,-0.000915527,-2.42928,0.0526292,-0.075063,0.0516866,0.0819567,-0.0943672,0.141656,-0.126072,-0.0874532,0.0159454,-0.0266647,0.0410461,-0.0143433,0.101166,0.0808334,0.0557327,0.0275421,-9.97986,0.00675201,0.013504,-0.0806808,-0.182304,0.0481033,0.0420761,0.0143433,-0.0314331
4,1,10.0097,0.0012207,-0.0012207,-2.42959,0.0535448,-0.0762837,0.0516866,0.0749376,-0.0952827,0.144708,-0.126987,-0.0871481,0.0139618,-0.0273895,0.0374222,-0.0246048,0.10025,0.0784302,0.0588608,0.0366592,-9.97986,0.0127029,0.0153732,-0.0859833,-0.198631,0.04673,0.0469589,0.0202179,-0.0334167
4,2,10.0097,0.0012207,-0.00213623,-2.42928,0.0541551,-0.0756734,0.0516866,0.07036,-0.0949775,0.143792,-0.127598,-0.0868429,0.0159836,-0.00366211,0.0469208,-0.0278473,0.101776,0.0732422,0.0598526,0.0383759,-9.97986,0.0122452,0.0104523,-0.0935745,-0.21389,0.0465393,0.0506973,0.0175858,-0.0340271
4,3,10.0097,0.00152588,-0.00198364,-2.42959,0.0529344,-0.0756734,0.0522969,0.0694445,-0.0955879,0.143792,-0.128513,-0.0871481,0.0160599,0.0175095,0.0525665,-0.0317764,0.101662,0.0724411,0.0603104,0.0427246,-9.97986,0.00995636,0.0128174,-0.0951385,-0.220261,0.0473404,0.0477982,0.0192261,-0.0359344
4,4,10.0097,0.000610352,-0.00198364,-2.42837,0.0538499,-0.0744527,0.054128,0.0688341,-0.0955879,0.143792,-0.127903,-0.0871481,0.0145721,0.0345612,0.0571823,-0.0128555,0.0934982,0.0767899,0.0550461,0.0347137,-9.97986,0.00232697,0.0188446,-0.0959015,-0.233917,0.0469971,0.0514221,0.020752,-0.0395203
4,5,10.0097,0.000610352,-0.000457764,-2.42898,0.0538499,-0.0756734,0.0532125,0.0691393,-0.0937568,0.144708,-0.126682,-0.085317,0.0180817,0.038681,0.0522995,-0.00919342,0.0753403,0.0797653,0.0506592,0.035553,-9.97986,0.00766754,0.0166702,-0.094986,-0.2425,0.0447464,0.0507355,0.0268555,-0.0436401
4,6,10.0097,0.000305176,-0.00152588,-2.42806,0.0550706,-0.0747579,0.0532125,0.0700548,-0.0937568,0.144708,-0.126377,-0.085317,0.0153732,0.0426865,0.04879,-0.00644684,0.0485611,0.0728226,0.0469589,0.0378418,-9.97986,0.00576019,0.0206375,-0.0965881,-0.250854,0.0426102,0.0508118,0.0302887,-0.0501633
4,7,10.0097,-0.0012207,0.000152588,-2.42745,0.0553758,-0.0753682,0.0535176,0.0697496,-0.0931465,0.145624,-0.126682,-0.0840963,0.0160599,0.0431061,0.0611115,-0.0062561,0.0293732,0.0689316,0.0493622,0.0328445,-9.97986,0.00812531,0.0213623,-0.0918198,-0.262032,0.0407028,0.0452423,0.0301361,-0.0520706
4,8,10.0097,0.000610352,-0.000915527,-2.42653,0.0550706,-0.075063,0.0535176,0.0718859,-0.0919257,0.144098,-0.125461,-0.0837911,0.0151062,0.0308609,0.0723648,-0.0370407,0.0165939,0.0598145,0.0524139,0.0267029,-9.97986,0.00591278,0.0165176,-0.0855255,-0.268326,0.0419235,0.0455093,0.0333023,-0.0552368
4,9,10.0097,0.00213623,-0.0012207,-2.42592,0.0559862,-0.0741475,0.0550435,0.07036,-0.0922309,0.146844,-0.124546,-0.0813497,0.0180435,0.0242996,0.0759888,-0.0497818,0.00473022,0.0629807,0.0488281,0.0265121,-9.97986,0.00812531,0.00808716,-0.0795746,-0.276985,0.0376892,0.0414658,0.0364304,-0.0548172
5,0,10.0097,0,-0.000305176,-2.42501,0.0562914,-0.073232,0.0547383,0.0706652,-0.090705,0.145624,-0.123935,-0.0810445,0.0144577,0.0395584,0.0824356,-0.0427628,-0.00686646,0.0603485,0.0413895,0.0259781,-9.97986,0.0116348,0.0122833,-0.0707245,-0.278511,0.0358582,0.0405502,0.0427628,-0.0524139
5,1,10.0097,0,-0.000305176,-2.42531,0.0559862,-0.073232,0.0553487,0.072191,-0.0916206,0.145929,-0.125156,-0.0816549,0.0104523,0.0434875,0.0724411,-0.0111389,-0.016861,0.0615311,0.0340652,0.0244904,-9.97986,0.0134659,0.00968933,-0.0646973,-0.284004,0.0281525,0.0399017,0.044632,-0.0525665
5,2,10.0097,0,0.000305176,-2.42501,0.0565965,-0.0735371,0.0556539,0.0715807,-0.090705,0.147455,-0.125156,-0.0807394,0.0169754,0.0488663,0.0634384,0.0272751,-0.021286,0.065155,0.0345612,0.0159073,-9.97986,0.0160217,0.0139618,-0.0591278,-0.293846,0.02491,0.0360107,0.0456238,-0.0524902
5,3,10.0097,0.000915527,0,-2.42592,0.0553758,-0.0741475,0.0562642,0.0596788,-0.0922309,0.146539,-0.124546,-0.0816549,0.0127792,0.0505829,0.0481796,0.0262451,-0.0350952,0.070076,0.034256,0.0103378,-9.97986,0.0120544,0.0147247,-0.0522614,-0.298424,0.0216293,0.0388336,0.0453949,-0.0497055
5,4,10.0097,0.00152588,-0.00137329,-2.42714,0.0569017,-0.075063,0.054128,0.0386217,-0.095893,0.146234,-0.126072,-0.0819601,0.0160217,0.0790787,0.0495529,0.0374222,-0.0422287,0.0799179,0.036087,0.00980377,-9.97986,0.0116348,0.0111389,-0.0417709,-0.298195,0.0101852,0.0399017,0.0498962,-0.0509644
5,5,8.04219,-0.000915527,-0.000915527,-2.42684,0.0559862,-0.0735371,0.054128,0.0499132,-0.0922309,0.146234,-0.125766,-0.0819601,0.0198364,0.0817108,0.0402451,0.069046,-0.0365067,0.0834274,0.043335,0.00831604,-9.97986,0.0183105,0.0151825,-0.0292206,-0.296059,0.00217438,0.0402451,0.0523376,-0.0495911
5,6,7.43733,-0.000915527,-0.000305176,-2.42531,0.0550706,-0.0747579,0.0547383,0.0602892,-0.0922309,0.144403,-0.126377,-0.0828756,0.0120926,0.0230026,0.0225067,0.117645,-0.0419998,0.0888062,0.0393677,0.0151443,-9.97986,0.0217438,0.0105286,-0.0154877,-0.289536,-0.00434875,0.0404739,0.055809,-0.0472641
5,7,7.45534,0.000610352,0.000152588,-2.42684,0.0565965,-0.0738423,0.0547383,0.0676134,-0.0928413,0.145624,-0.125156,-0.0825704,0.0123596,-0.000152588,-0.00686646,0.136414,-0.0502396,0.0943375,0.0272369,0.0213623,-9.97986,0.0279999,0.0142288,-0.00747681,-0.28801,-0.00331879,0.0364304,0.054512,-0.0437546
5,8,8.29854,0.00152588,0.00183105,-2.42653,0.0550706,-0.0753682,0.0556539,0.0837877,-0.0903999,0.145929,-0.124851,-0.0834859,0.0122452,0.0317383,-0.0188828,0.121841,-0.0452805,0.0986862,0.0269318,0.0205612,-9.97986,0.0319672,0.0151443,0.00205994,-0.283737,-0.00434875,0.0334549,0.0550079,-0.0410843
5,9,10.0097,0.000305176,0.00244141,-2.42745,0.0541551,-0.0756734,0.0544332,0.111559,-0.0897895,0.142877,-0.12363,-0.0850118,0.0110626,0.0164795,-0.00576019,0.105209,-0.0434875,0.101242,0.0302887,0.0259399,-9.97986,0.0368118,0.0117111,0.00839233,-0.274315,-0.0100327,0.030365,0.054512,-0.0431061
6,0,10.0097,-0.00152588,0.0012207,-2.42928,0.0544603,-0.0753682,0.0522969,0.0840929,-0.0946723,0.146234,-0.127598,-0.0868429,0.0111771,-0.0108337,-0.0214767,0.0914001,-0.0444031,0.099678,0.026207,0.028038,-9.97986,0.0411606,0.0119781,0.0165558,-0.266266,-0.0141525,0.0295258,0.05867,-0.0402069
6,1,10.0097,-0.0012207,0.000915527,-2.42837,0.0538499,-0.0747579,0.0526021,0.0734117,-0.0955879,0.142572,-0.127292,-0.0871481,0.00991821,-0.0218582,-0.0416183,0.0849533,-0.0371933,0.0925064,0.0123596,0.025177,-9.97986,0.0380325,0.0087738,0.025444,-0.249634,-0.0240326,0.0270844,0.0581741,-0.0380707
6,2,10.0097,0,0.000915527,-2.42928,0.0541551,-0.0744527,0.0513814,0.0700548,-0.0961982,0.144098,-0.126987,-0.0868429,0.00999451,-0.015831,-0.0433731,0.0884247,-0.0307465,0.0912857,0.00782013,0.0259018,-9.97986,0.0379562,0.010376,0.033226,-0.237427,-0.0386047,0.0263977,0.0645447,-0.0329971
6,3,10.0097,0.000915527,0.000457764,-2.42928,0.0526292,-0.0762837,0.0535176,0.0697496,-0.0943672,0.143182,-0.126682,-0.0862325,0.00583649,-0.00988007,-0.0499344,0.089035,-0.0252151,0.0963974,-0.00785828,0.0254822,-9.97986,0.0364685,0.0114822,0.0424576,-0.222359,-0.0491714,0.0246048,0.0641251,-0.0287628
6,4,10.0097,-0.000915527,0.000457764,-2.42959,0.0541551,-0.0744527,0.0519917,0.0700548,-0.0961982,0.141961,-0.127903,-0.0877584,0.00915527,-0.00934601,-0.0596619,0.0868225,-0.0267029,0.0979614,-0.0218201,0.0205231,-9.97986,0.0288391,0.00564575,0.044632,-0.208931,-0.0593567,0.0224686,0.0633621,-0.0276947
6,5,10.0097,0,0.0012207,-2.42806,0.0547655,-0.0744527,0.0544332,0.0700548,-0.0943672,0.144098,-0.126072,-0.0856222,0.00984192,-0.00637054,-0.0561523,0.0791931,-0.0140762,0.0944519,-0.0203705,0.0224304,-9.97986,0.0263214,0.00793457,0.0563431,-0.19043,-0.0717926,0.0232697,0.0629044,-0.0208664
6,6,10.0097,-0.000305176,0.00198364,-2.42745,0.0550706,-0.075063,0.0538228,0.0691393,-0.0934516,0.145013,-0.126072,-0.0837911,0.0108337,-0.00385284,-0.0451279,0.0331879,-0.000267029,0.0983047,-0.0157547,0.0222015,-9.97986,0.0269699,0.00411987,0.0619888,-0.170021,-0.0957489,0.0178146,0.0603867,-0.0186157
6,7,10.0097,0.000915527,0.00274658,-2.42623,0.0544603,-0.0747579,0.0535176,0.0700548,-0.094062,0.145624,-0.126377,-0.0828756,0.00923157,-0.00732422,-0.0331497,-0.0204468,0.00926971,0.0889969,-0.00873566,0.0226212,-9.97986,0.0218964,0.00907898,0.0677109,-0.151138,-0.0986862,0.0192642,0.0569153,-0.0154114
6,8,10.0097,0.0012207,0.00183105,-2.42562,0.0547655,-0.0701802,0.0544332,0.0697496,-0.0928413,0.145318,-0.124851,-0.0828756,0.00873566,-0.00240326,-0.0223923,-0.0343704,0.0185776,0.0865173,-0.0069809,0.0241089,-9.97986,0.0215912,0.00904083,0.0760651,-0.128746,-0.0999069,0.0152588,0.0555038,-0.0082016
6,9,10.0097,-0.000305176,0.00228882,-2.42501,0.0578172,-0.0738423,0.0544332,0.07036,-0.0919257,0.14837,-0.124546,-0.0810445,0.00717163,-3.8147e-005,-0.0250626,-0.00232697,0.0294113,0.0888443,-0.0219727,0.022583,-9.97986,0.018158,0.00801086,0.0766373,-0.107498,-0.102959,0.0141907,0.0516129,-0.00556946
7,0,10.0097,0.0012207,0.000762939,-2.42562,0.0569017,-0.0741475,0.054128,0.0706652,-0.0910102,0.147455,-0.124546,-0.0813497,0.0110626,0.00328064,-0.0123978,0.021286,0.0383377,0.0852585,-0.0183105,0.0181961,-9.97986,0.0193024,0.00934601,0.0793457,-0.0981522,-0.103531,0.0122452,0.0498199,-0.000190735
7,1,10.0097,0.00152588,0.00137329,-2.4247,0.0565965,-0.0735371,0.0544332,0.0715807,-0.0916206,0.14776,-0.124241,-0.0810445,0.00640869,0.0094223,0.000419617,0.00934601,0.0494003,0.0812912,-0.0245285,0.022583,-9.97986,0.0144577,0.00850677,0.0787354,-0.0848007,-0.0962067,0.00907898,0.0421143,-0.00110626
7,2,10.0097,-0.00183105,0.00183105,-2.42501,0.0565965,-0.0735371,0.0547383,0.07036,-0.0919257,0.14837,-0.124546,-0.080129,0.0102615,0.0192261,0.0031662,-0.0148773,0.0565338,0.0748825,-0.0151825,0.0207138,-9.97986,0.0149536,0.00499725,0.0854111,-0.071373,-0.080719,0.0112915,0.0347519,0.00606537
7,3,10.0097,-0.000305176,0.00106812,-2.42623,0.0559862,-0.075063,0.0544332,0.058153,-0.0937568,0.147455,-0.124546,-0.0816549,0.0102997,0.0205612,0.00164032,-0.0170135,0.0592041,0.0761414,-0.0190735,0.0182343,-9.97986,0.012207,0.00240326,0.0860977,-0.0657272,-0.075531,0.00782013,0.0276947,0.00648499
7,4,10.0097,0.000915527,-0.000152588,-2.42653,0.0550706,-0.0726216,0.0529073,0.0389269,-0.0943672,0.14776,-0.126987,-0.0816549,0.00926971,0.0219727,0.00675201,-0.0394821,0.059433,0.0731277,-0.0183487,0.0142288,-9.97986,0.0149918,0.00350952,0.0955963,-0.0518799,-0.0527954,0.00938416,0.025444,0.00999451
7,5,7.95796,0.00183105,-0.000457764,-2.42531,0.0562914,-0.073232,0.0544332,0.0505236,-0.0928413,0.147149,-0.124851,-0.080129,0.0154495,0.0173569,0.00816345,-0.0817871,0.0556946,0.0740433,-0.0209808,0.0123215,-9.97986,0.0170517,0.00209808,0.0907516,-0.0364304,-0.037384,0.00827789,0.0231171,0.0169754
7,6,7.36592,-0.000915527,0.000915527,-2.42592,0.0544603,-0.0741475,0.0544332,0.0602892,-0.0922309,0.145624,-0.124851,-0.0828756,0.0101852,0.0127411,0.0196838,-0.0873566,0.0502014,0.0705719,-0.0125885,0.018425,-9.97986,0.0175095,0.000762939,0.0987244,-0.0254822,-0.0202179,0.0104523,0.0202942,0.017128
7,7,7.40224,0.00152588,0.000915527,-2.42653,0.0553758,-0.0778096,0.054128,0.067003,-0.090705,0.146844,-0.125766,-0.0825704,0.00953674,0.0234222,0.0117493,-0.0431824,0.0476456,0.0658417,-0.0149155,0.0131607,-9.97986,0.0141144,0.00957489,0.095787,-0.0149155,-0.00907898,0.00511169,0.0117874,0.0182724
7,8,8.25978,0.000610352,0.00152588,-2.42653,0.0547655,-0.0744527,0.0547383,0.0840929,-0.0910102,0.145929,-0.124851,-0.0834859,0.00869751,0.031662,0.0139618,-0.00495911,0.0385666,0.0555801,-0.0107193,0.0146866,-9.97986,0.0130844,0.00537872,0.0989532,-0.0112534,-0.00377655,0.00331879,0.00770569,0.0188446
7,9,10.0097,-0.000305176,0.00259399,-2.42714,0.0541551,-0.0759786,0.0544332,0.111559,-0.0894843,0.144708,-0.124241,-0.0840963,0.0056839,0.0341797,0.0163651,-0.00469208,0.0302124,0.0511169,-0.00862122,0.0188828,-9.97986,0.0121689,0.00720978,0.0992203,-0.00274658,0.00686646,0.00644684,0.000991821,0.0191498
8,0,10.0097,0.000915527,0.00167847,-2.42989,0.0532396,-0.080251,0.0526021,0.0828722,-0.0952827,0.145318,-0.126987,-0.0865377,0.0056076,0.0390625,0.019455,-0.0428391,0.0261307,0.0533676,-0.00782013,0.0239563,-9.97986,0.0131989,0.0103378,0.100327,0.00968933,0.0190735,0.00713348,0.00102997,0.0201035
8,1,10.0097,0.000915527,0.00183105,-2.42959,0.0535448,-0.0765889,0.0522969,0.0740221,-0.0949775,0.144403,-0.126377,-0.0862325,0.00846863,0.0402069,0.0269318,-0.0669098,0.018425,0.0501251,-0.0104141,0.0325394,-9.97986,0.0202942,0.0125122,0.110512,0.0310135,0.0269318,0.0109863,-0.00389099,0.029068
8,2,10.0097,-0.0012207,0.00106812,-2.42928,0.0532396,-0.0765889,0.0519917,0.0715807,-0.094062,0.144098,-0.127598,-0.0865377,0.00087738,0.0370789,0.0143433,-0.0976944,0.00106812,0.0401306,-0.0228119,0.0193787,-9.97986,0.0114441,0.00244141,0.0966644,0.0492859,0.0311661,-0.0043869,-0.0123596,0.0204468
8,3,10.0097,0.000915527,0.00305176,-2.42959,0.0538499,-0.0744527,0.0519917,0.0700548,-0.0943672,0.144098,-0.127292,-0.0865377,0.00869751,0.0494385,0.0264359,-0.0693893,-0.00160217,0.0457382,-0.0131989,0.0265884,-9.97986,0.0211334,0.00988007,0.108299,0.08255,0.042572,-0.00144958,-0.00831604,0.0285339
8,4,10.0097,-0.000610352,0.00167847,-2.42989,0.0538499,-0.0756734,0.0513814,0.0688341,-0.0943672,0.143792,-0.128208,-0.085317,0.00816345,0.039978,0.0345612,-0.0167465,-0.0149155,0.039978,-0.0108719,0.019455,-9.97986,0.0178528,0.00591278,0.104218,0.104103,0.0509262,-0.00450134,-0.00980377,0.027504
8,5,10.0097,0.000610352,0.000762939,-2.42745,0.0547655,-0.0765889,0.0526021,0.0709703,-0.0946723,0.145013,-0.126072,-0.085317,0.00762939,0.0424957,0.0465393,0.0163651,-0.0219345,0.0350952,-0.00667572,0.0151062,-9.97986,0.0111008,0.01194,0.104179,0.112572,0.0557327,-0.00572205,-0.0196838,0.0301743
8,6,10.0097,0.000305176,0.000457764,-2.42745,0.0553758,-0.073232,0.0535176,0.0697496,-0.0925361,0.142877,-0.126377,-0.0850118,0.00396729,0.0415802,0.0587463,0.0246048,-0.0308228,0.0354385,-0.0105667,0.0125122,-9.97986,0.0154877,0.0114441,0.106544,0.117378,0.0603104,-0.00785828,-0.0185394,0.0284576
8,7,10.0097,0,0.000152588,-2.42714,0.0544603,-0.0747579,0.054128,0.07036,-0.0934516,0.144403,-0.126072,-0.0844015,0.0075531,0.0415039,0.0750732,0.089035,-0.0424194,0.0294495,-0.00118256,0.0156784,-9.97986,0.0180435,0.0112152,0.102882,0.110245,0.0648117,-0.0127792,-0.0167465,0.0284576
8,8,10.0097,0.00152588,-0.000610352,-2.42745,0.0553758,-0.0741475,0.0544332,0.07036,-0.0928413,0.146234,-0.125156,-0.0834859,0.0107193,0.0395584,0.0910568,0.181084,-0.0504684,0.0209808,0.000762939,0.016861,-9.97986,0.0175095,0.0111389,0.103912,0.100555,0.0673294,-0.00888824,-0.0246811,0.0306702
8,9,10.0097,0.000305176,-0.000457764,-2.42531,0.0562914,-0.0747579,0.0544332,0.0718859,-0.0910102,0.146539,-0.124546,-0.0813497,0.00686646,0.0410843,0.102272,0.208855,-0.0619507,0.0185013,-0.00125885,0.0207901,-9.97986,0.0164795,0.0120544,0.104446,0.0865555,0.0698853,-0.00682831,-0.0236511,0.0331879
9,0,10.0097,-0.000305176,-0.000152588,-2.4244,0.0569017,-0.0738423,0.0544332,0.0718859,-0.0910102,0.145013,-0.125156,-0.0810445,0.0119781,0.0439072,0.110779,0.151749,-0.0691986,0.0154114,0.00205994,0.0149155,-9.97986,0.0159454,0.00946045,0.100899,0.0876236,0.0718689,-0.00671387,-0.0262833,0.0302887
9,1,10.0097,0.000305176,-0.000152588,-2.42562,0.0562914,-0.0729268,0.0553487,0.0715807,-0.0919257,0.146844,-0.123935,-0.0804342,0.00919342,0.0404739,0.105515,0.0913239,-0.0790405,0.0119019,0.00305176,0.0197983,-9.97986,0.0241089,0.0094986,0.0984192,0.0872803,0.0666046,-0.01297,-0.0292587,0.0324249
9,2,10.0097,-0.000610352,-0.000152588,-2.42501,0.0553758,-0.0735371,0.0544332,0.0712755,-0.0913154,0.147455,-0.123935,-0.0810445,0.00831604,0.0463486,0.0915909,0.0652313,-0.0820541,0.00667572,0.00488281,0.0227356,-9.97986,0.0214005,0.00747681,0.0954819,0.0912476,0.0726318,-0.0166702,-0.0249481,0.0343704
9,3,10.0097,0.000305176,0.000305176,-2.42531,0.0553758,-0.0747579,0.0550435,0.0596788,-0.0937568,0.146539,-0.125156,-0.0813497,0.00740051,0.0491333,0.071106,0.0593948,-0.0826263,-0.000534058,0.00656128,0.0228119,-9.97986,0.0200272,0.00976563,0.0934982,0.092659,0.0771332,-0.0200272,-0.0227356,0.0320053
9,4,10.0097,-0.000915527,-0.00137329,-2.42623,0.0575121,-0.0744527,0.0535176,0.0389269,-0.0937568,0.146539,-0.126987,-0.0822652,0.0105667,0.0460434,0.0353622,0.067749,-0.0876236,0.000839233,0.0056076,0.0180817,-9.97986,0.0188446,0.0101471,0.0925446,0.092926,0.0727463,-0.0177765,-0.0245667,0.03685
9,5,8.04067,0.000915527,-0.000762939,-2.42531,0.0559862,-0.0744527,0.0544332,0.049608,-0.0943672,0.146844,-0.125461,-0.0816549,0.00808716,0.0471115,0.00125885,0.0692368,-0.0863647,-0.00534058,0.00892639,0.0217056,-9.97986,0.0247192,0.00839233,0.0893402,0.0970078,0.0762177,-0.015831,-0.0209045,0.0385666
9,6,7.46816,-0.000610352,0.000305176,-2.42501,0.0553758,-0.0744527,0.0550435,0.0602892,-0.0928413,0.146844,-0.126377,-0.0816549,0.00926971,0.045166,-0.038414,0.0576019,-0.0856781,-0.0105286,0.0144958,0.017395,-9.97986,0.0218201,0.00629425,0.0849533,0.106506,0.0708389,-0.0149536,-0.0219727,0.039444
9,7,7.50386,-0.000915527,0.000152588,-2.42592,0.0547655,-0.0756734,0.0535176,0.0694445,-0.090705,0.144708,-0.126072,-0.0837911,0.00976563,0.041275,-0.0595093,0.0456238,-0.0819016,-0.0125122,0.0149918,0.0195694,-9.97986,0.0238419,0.00663757,0.080719,0.112495,0.0738525,-0.0149155,-0.0194931,0.0405502
9,8,8.35134,-0.000915527,0.000915527,-2.42684,0.0547655,-0.0747579,0.0544332,0.082567,-0.0900947,0.145929,-0.125156,-0.0828756,0.0115967,0.0327682,-0.0611877,0.0381088,-0.0811005,-0.00984192,0.0143814,0.0139999,-9.97986,0.0215149,0.00812531,0.0783157,0.117989,0.0812912,-0.0170517,-0.0176239,0.0408173
9,9,10.0097,0.000610352,0.00335693,-2.42653,0.0532396,-0.0756734,0.0532125,0.110033,-0.0882636,0.142877,-0.124241,-0.0840963,0.0122833,0.0313568,-0.0629044,0.0281525,-0.074501,-0.0165939,0.0159073,0.0166702,-9.97986,0.0180435,0.00499725,0.0731659,0.123634,0.0799179,-0.0196838,-0.0151443,0.0409698
10,0,10.0097,0.00152588,0.00183105,-2.42928,0.0541551,-0.075063,0.0513814,0.082567,-0.0952827,0.142877,-0.126987,-0.0868429,0.0119019,0.025444,-0.0539017,0.0206375,-0.066185,-0.0126648,0.0147629,0.0159454,-9.97986,0.020256,0.00106812,0.0759888,0.134544,0.0799942,-0.0274277,-0.0110626,0.0419617
10,1,10.0097,0.0012207,0.00137329,-2.42989,0.0535448,-0.0771993,0.0519917,0.0740221,-0.0949775,0.143487,-0.127903,-0.0871481,0.00549316,0.021286,-0.0469589,0.0273132,-0.062561,-0.00980377,0.0213242,0.0162506,-9.97986,0.0234222,0.00556946,0.0702667,0.136681,0.0812912,-0.0340271,-0.0111008,0.0440598
10,2,10.0097,0.000915527,0.000305176,-2.42989,0.0538499,-0.0756734,0.0522969,0.0715807,-0.0946723,0.143792,-0.127292,-0.0877584,0.00904083,0.022316,-0.0313568,0.0242615,-0.0513077,-0.0156784,0.0199127,0.0159454,-9.97986,0.0169373,0.000534058,0.0666046,0.137825,0.0816727,-0.0303268,-0.00652313,0.0471878
10,3,10.0097,0.000610352,-0.000152588,-2.42989,0.0538499,-0.0756734,0.0510762,0.0697496,-0.0955879,0.142572,-0.127903,-0.0868429,0.00392914,0.0219345,-0.0152206,0.0172043,-0.0449371,-0.0187302,0.0170898,0.0199127,-9.97986,0.0192261,3.8147e-005,0.0584793,0.141716,0.0775146,-0.0264359,-0.00671387,0.0460815
10,4,10.0097,0.00244141,0.000152588,-2.42898,0.0535448,-0.0765889,0.0519917,0.0688341,-0.0946723,0.143792,-0.127598,-0.0862325,0.0075531,0.018158,-0.0117111,0.0143051,-0.0353241,-0.0199127,0.0211716,0.0167465,-9.97986,0.0204849,-0.00125885,0.0460052,0.149612,0.0817871,-0.0259018,-0.00389099,0.0492096
10,5,10.0097,0.000610352,-0.000152588,-2.42776,0.0544603,-0.0759786,0.0532125,0.0706652,-0.094062,0.144403,-0.127292,-0.0859274,0.00724792,0.020752,-0.00423431,0.00553131,-0.0245285,-0.0230026,0.0238037,0.0153351,-9.97986,0.0151443,0.00652313,0.0443649,0.151978,0.0719833,-0.024147,-0.00415802,0.0482178
10,6,10.0097,0.00152588,0.000457764,-2.42837,0.0550706,-0.0759786,0.0538228,0.07036,-0.0937568,0.144098,-0.125461,-0.0844015,0.00865936,0.0180435,0.00289917,0.0037384,-0.0160217,-0.0272369,0.0265121,0.0171661,-9.97986,0.0171661,0.0056076,0.0368118,0.15255,0.0642395,-0.0247574,-0.00133514,0.0465012
10,7,10.0097,0.000305176,0,-2.42653,0.055681,-0.0753682,0.0532125,0.0694445,-0.0943672,0.143792,-0.125766,-0.0834859,0.00984192,0.0210953,0.00629425,-0.000267029,-0.00862122,-0.0222778,0.0267029,0.0205612,-9.97986,0.0131607,0.000457764,0.0351334,0.149841,0.059166,-0.0172806,-0.00377655,0.0424957
10,8,10.0097,-0.000305176,-0.000610352,-2.42684,0.0562914,-0.075063,0.054128,0.0712755,-0.0946723,0.145318,-0.126987,-0.0828756,0.00724792,0.0173569,0.00453949,-0.00389099,0.00217438,-0.0333023,0.0263596,0.015831,-9.97986,0.0152969,0.00270844,0.030365,0.141258,0.0537872,-0.0128174,0.0025177,0.0426865
10,9,10.0097,0.00152588,-0.000915527,-2.42562,0.0559862,-0.0744527,0.0550435,0.0718859,-0.0919257,0.146234,-0.125156,-0.0822652,0.00598907,0.0187302,0.00972748,-0.00389099,0.00797272,-0.0349808,0.0295258,0.0232315,-9.97986,0.0183487,0.00312805,0.0324631,0.133514,0.0465393,-0.00591278,0.00507355,0.0421143
11,0,10.0097,0.00152588,-0.000610352,-2.42501,0.0562914,-0.0744527,0.0547383,0.0706652,-0.0925361,0.146539,-0.123325,-0.0813497,0.0125504,0.0186157,0.0141144,-0.00282288,0.019722,-0.0438309,0.0317764,0.0178909,-9.97986,0.0117493,7.62939e-005,0.0289536,0.124397,0.0375366,-0.00137329,0.0111771,0.0413895
11,1,10.0097,0.0012207,-0.000762939,-2.42531,0.0562914,-0.073232,0.0544332,0.0712755,-0.0919257,0.146234,-0.12363,-0.0807394,0.010643,0.0203323,0.0149536,-0.00652313,0.0256348,-0.0531387,0.0294876,0.0190353,-9.97986,0.0130463,-0.00175476,0.0296021,0.120621,0.0322723,-0.00431061,0.0222397,0.0377274
11,2,10.0097,0,-0.000457764,-2.4247,0.0562914,-0.0735371,0.0547383,0.0706652,-0.090705,0.147149,-0.123935,-0.0813497,0.0075531,0.0175095,0.0193787,-0.0107193,0.0289154,-0.0578308,0.0323868,0.0136566,-9.97986,0.0143433,-0.00396729,0.0340271,0.115051,0.0284958,-0.00301361,0.0295639,0.0409698
11,3,10.0097,-0.000305176,-0.000305176,-2.42562,0.0559862,-0.0738423,0.0535176,0.059984,-0.0934516,0.145624,-0.125156,-0.0822652,0.0127411,0.0219345,0.0226593,-0.00823975,0.0424957,-0.0675583,0.0328445,0.0178146,-9.97986,0.0145721,-0.00354767,0.0358582,0.10952,0.0227356,-0.00709534,0.0265884,0.0403976
11,4,10.0097,0,-0.00228882,-2.42592,0.0565965,-0.0741475,0.0529073,0.037401,-0.0952827,0.145318,-0.126072,-0.0819601,0.01194,0.0188065,0.0227737,-0.0151825,0.043335,-0.0762177,0.0337601,0.0215149,-9.97986,0.0126266,-0.00125885,0.0350189,0.103874,0.0173569,-0.0128937,0.0279236,0.0371552
11,5,8.04128,0.000610352,-0.00183105,-2.42562,0.0553758,-0.073232,0.0538228,0.0505236,-0.0928413,0.146234,-0.126682,-0.0825704,0.0117493,0.022049,0.0278473,-0.0131226,0.0510788,-0.0799179,0.037117,0.0182343,-9.97986,0.0117111,-0.00621796,0.0402069,0.0946808,0.0187683,-0.00366211,0.0261307,0.0345612
11,6,7.44252,0.00152588,-0.000762939,-2.42562,0.0547655,-0.0738423,0.0553487,0.0602892,-0.0913154,0.145013,-0.126377,-0.0825704,0.0139236,0.0215912,0.0284576,-0.0167084,0.0569916,-0.0861359,0.0377274,0.0178909,-9.97986,0.0120926,-0.00350952,0.030632,0.0893784,0.0201797,0.00213623,0.0209427,0.0343323
11,7,7.47853,-0.000610352,-0.000610352,-2.42714,0.0547655,-0.0738423,0.0538228,0.0666979,-0.0919257,0.145013,-0.125461,-0.0831808,0.0111771,0.0180817,0.0289154,-0.0130081,0.0601959,-0.0923157,0.0401306,0.0164032,-9.97986,0.015564,-0.000228882,0.0207138,0.069046,0.0177002,-0.00610352,0.0199127,0.0376511
11,8,8.35164,0.000610352,0,-2.42745,0.0547655,-0.0744527,0.0538228,0.0843981,-0.0903999,0.146844,-0.123935,-0.0828756,0.0101471,0.0242996,0.0266647,-0.0109863,0.0662613,-0.0987244,0.0374603,0.014267,-9.97986,0.0139999,-0.00713348,0.0136185,0.0676727,0.0176239,-0.0130463,0.016098,0.0360107
11,9,10.0097,0,0.00106812,-2.42714,0.0547655,-0.075063,0.0550435,0.108812,-0.0885688,0.144098,-0.124546,-0.0844015,0.012207,0.0222397,0.0247574,-0.0109482,0.0651932,-0.10006,0.0409317,0.0167847,-9.97986,0.0149918,-0.00953674,0.0130081,0.051651,0.0164032,-0.015564,0.00812531,0.0362396
12,0,10.0097,0.000610352,-0.000457764,-2.42959,0.0541551,-0.0765889,0.0513814,0.0822618,-0.094062,0.143182,-0.126987,-0.0874532,0.00675201,0.0218582,0.0275803,-0.0140762,0.0669098,-0.103264,0.042572,0.0217438,-9.97986,0.0101471,-0.00587463,0.00801086,0.0429535,0.0191498,-0.020256,0.00862122,0.034256
12,1,10.0097,0.000305176,-0.0012207,-2.43081,0.0535448,-0.0765889,0.0513814,0.0737169,-0.0952827,0.142877,-0.126987,-0.0868429,0.00663757,0.0228882,0.0299835,-0.0157547,0.0666428,-0.111732,0.0408936,0.0127792,-9.97986,0.0130844,-0.00484467,0.010643,0.0307846,0.0183868,-0.0233459,0.00366211,0.0334549
12,2,10.0097,0.000610352,-0.0012207,-2.42989,0.0523241,-0.0765889,0.0522969,0.0700548,-0.0943672,0.142877,-0.126682,-0.0880636,0.0114822,0.0220871,0.030098,-0.0140762,0.0613403,-0.10437,0.0414658,0.0164795,-9.97986,0.0113678,-0.00751495,0.00797272,0.0219727,0.0189209,-0.0209808,0.00144958,0.032196
12,3,10.0097,-0.000305176,-0.00137329,-2.42928,0.0529344,-0.075063,0.0538228,0.0688341,-0.0952827,0.144098,-0.127292,-0.0871481,0.0135422,0.0240326,0.0343323,-0.00965118,0.0605011,-0.109634,0.0450897,0.0132751,-9.97986,0.00648499,-0.0101471,0.00499725,0.00858307,0.02491,-0.0109863,-0.00225067,0.0295258
12,4,10.0097,0,-0.00167847,-2.42806,0.0529344,-0.0765889,0.0516866,0.0682238,-0.0955879,0.143792,-0.126987,-0.0868429,0.00583649,0.0258636,0.0308609,-0.0152969,0.0574493,-0.114288,0.042305,0.0152588,-9.97986,0.0104523,-0.00888824,0.00293732,-0.00419617,0.0250244,-0.00854492,-0.00858307,0.0279617
12,5,10.0097,0.000915527,-0.00137329,-2.42806,0.0547655,-0.0771993,0.0526021,0.0697496,-0.0934516,0.144708,-0.126072,-0.0865377,0.0141144,0.0227737,0.034256,-0.0106049,0.0515747,-0.108757,0.0409317,0.0114822,-9.97986,0.0112152,-0.00598907,-0.000686646,-0.0117493,0.0325775,-0.00484467,-0.00740051,0.0296402
12,6,10.0097,0.000915527,-0.00167847,-2.42623,0.0538499,-0.0738423,0.0526021,0.0694445,-0.0937568,0.145013,-0.126072,-0.0847066,0.0151443,0.0224304,0.0334167,-0.0143051,0.0476074,-0.110779,0.0431442,0.0157166,-9.97986,0.0114822,-0.00621796,0.000114441,-0.0235367,0.0361252,-0.00537872,-0.0109863,0.0252914
12,7,10.0097,0.000915527,-0.00137329,-2.42623,0.0550706,-0.0747579,0.0532125,0.0697496,-0.0934516,0.145318,-0.125766,-0.0840963,0.0134277,0.0231552,0.030899,-0.0165939,0.0402451,-0.106163,0.0412369,0.0114441,-9.97986,0.0113297,-0.00457764,0.00228882,-0.0346375,0.0383759,-0.00221252,-0.0146866,0.0257492
12,8,10.0097,0.000305176,-0.000610352,-2.42714,0.0544603,-0.0741475,0.0532125,0.07036,-0.0922309,0.144403,-0.125156,-0.0837911,0.0163651,0.0218582,0.0340652,-0.0234222,0.0325012,-0.104942,0.0400162,0.0158691,-9.97986,0.0107956,-0.00968933,-0.00247955,-0.0458527,0.0396347,-0.00038147,-0.015831,0.0192261
12,9,10.0097,0.000915527,-0.000762939,-2.42379,0.0565965,-0.075063,0.054128,0.072191,-0.0910102,0.145929,-0.124851,-0.0813497,0.0170898,0.0259781,0.0247574,-0.0375366,0.0327682,-0.09655,0.0441742,0.0186157,-9.97986,0.00640869,-0.00968933,-0.00595093,-0.0595093,0.0400925,-0.00957489,-0.0172043,0.0219727
13,0,10.0097,-0.000305176,-0.000915527,-2.42531,0.0565965,-0.0735371,0.0553487,0.0715807,-0.0916206,0.146844,-0.123325,-0.0819601,0.0128174,0.02285,0.0224304,-0.0643921,0.0260162,-0.09552,0.0413513,0.0168228,-9.97986,0.0109863,-0.00434875,-0.00404358,-0.0645447,0.0428009,-0.0136185,-0.019455,0.0226974
13,1,10.0097,0.000610352,-0.000457764,-2.4247,0.0562914,-0.0741475,0.054128,0.0706652,-0.0916206,0.145318,-0.12363,-0.0810445,0.0119781,0.0234985,0.0172043,-0.0793457,0.0192642,-0.0875854,0.0389862,0.0235367,-9.97986,0.0056839,-0.00850677,-0.00232697,-0.0709915,0.0429916,-0.0175476,-0.0211716,0.0205612
13,2,10.0097,0.000915527,-0.000305176,-2.42379,0.0562914,-0.073232,0.0538228,0.0718859,-0.0897895,0.147149,-0.12363,-0.0810445,0.0148773,0.0255203,0.0154114,-0.0914764,0.0159454,-0.085144,0.0430679,0.0217438,-9.97986,0.00930786,-0.0094223,-0.00431061,-0.0726318,0.0454712,-0.0174713,-0.0221252,0.0200272
13,3,10.0097,0.000915527,0.000457764,-2.42684,0.0565965,-0.073232,0.0529073,0.0578478,-0.0934516,0.147149,-0.125461,-0.0822652,0.0107193,0.0184631,0.00984192,-0.11219,0.0115204,-0.0822067,0.0421143,0.0184631,-9.97986,0.01194,-0.0094223,-0.00892639,-0.0749588,0.0465775,-0.0215912,-0.0229263,0.0178909
13,4,10.0097,0.00183105,-0.00167847,-2.42653,0.055681,-0.0738423,0.0535176,0.037401,-0.0949775,0.146234,-0.126987,-0.0825704,0.0131989,0.0170135,0.0215149,-0.100822,0.00938416,-0.0737762,0.0392151,0.0164032,-9.97986,0.00549316,-0.00961304,-0.00507355,-0.0749207,0.0490189,-0.0257874,-0.0223541,0.018425
13,5,7.87557,0.00213623,-0.00183105,-2.42562,0.0562914,-0.0747579,0.0550435,0.0505236,-0.0922309,0.147455,-0.125461,-0.0813497,0.0102615,0.0150681,0.0273132,-0.0602341,0.00846863,-0.0734711,0.041008,0.0159454,-9.97986,0.0119781,-0.0119781,-0.0044632,-0.0756454,0.0476074,-0.0239944,-0.0210571,0.019455
13,6,7.30153,0.000610352,-0.000610352,-2.42684,0.0559862,-0.075063,0.0556539,0.0593737,-0.0903999,0.146234,-0.126377,-0.0825704,0.00976563,0.017395,0.0460434,-0.0850296,0.00541687,-0.069046,0.0378036,0.0130463,-9.97986,0.00488281,-0.0149918,-0.00991821,-0.0741196,0.0520706,-0.018692,-0.0180435,0.0163269
13,7,7.33388,0.000610352,0.000305176,-2.42592,0.0550706,-0.0747579,0.0553487,0.0682238,-0.0910102,0.145624,-0.125156,-0.0837911,0.0126648,0.0164032,0.0524902,-0.0524902,0.00389099,-0.0617218,0.0403595,0.0156403,-9.97986,0.00831604,-0.00961304,-0.00846863,-0.0728607,0.0513458,-0.0148392,-0.015831,0.0196838
13,8,8.15175,-0.000305176,0.000305176,-2.42623,0.0553758,-0.075063,0.054128,0.0834825,-0.0913154,0.145013,-0.121799,-0.0831808,0.0127792,0.0191879,0.055275,-0.0257111,0.00679016,-0.0577164,0.0354004,0.00556946,-9.97986,0.0103378,-0.0122833,-0.0112152,-0.0743484,0.0527191,-0.00804901,-0.00839233,0.019722
13,9,10.0097,0.00244141,0.00198364,-2.42806,0.0547655,-0.0759786,0.0535176,0.111864,-0.0897895,0.144403,-0.123935,-0.0840963,0.0146103,0.0193405,0.0629425,-0.0308609,0.00469208,-0.053978,0.0357437,0,-9.97986,0.0102997,-0.0104141,-0.013237,-0.0763702,0.0533295,-0.00293732,-0.00827789,0.0192261
14,0,10.0097,0,0.000610352,-2.42928,0.0547655,-0.0759786,0.0519917,0.0837877,-0.0946723,0.144098,-0.126072,-0.0874532,0.0157547,0.0283051,0.0697708,0.039711,0.0101852,-0.0468063,0.0379944,-0.00221252,-9.97986,0.0114822,-0.0087738,-0.0107574,-0.0807571,0.0551224,0.00289917,-0.00854492,0.0203705
14,1,10.0097,0.00244141,-0.000610352,-2.4302,0.0535448,-0.0753682,0.0513814,0.0743273,-0.0949775,0.144403,-0.127292,-0.0865377,0.0128555,0.0320816,0.0877762,0.0880432,0.0125122,-0.0431061,0.0389099,-0.000343323,-9.97986,0.00968933,-0.0094223,-0.0111771,-0.0843811,0.0596237,0.000343323,-0.000724792,0.0224304
14,2,10.0097,0.000305176,-0.000305176,-2.42959,0.0541551,-0.0756734,0.0513814,0.0709703,-0.0949775,0.142877,-0.128208,-0.0877584,0.0149918,0.0382614,0.105476,0.0577545,0.0115585,-0.0463486,0.0355148,0.0050354,-9.97986,0.0115585,-0.0123978,-0.0140762,-0.082016,0.0576782,-0.00961304,-0.000343323,0.022049
14,3,10.0097,0.000305176,-0.000457764,-2.42837,0.0526292,-0.0759786,0.04894,0.0685289,-0.0955879,0.145013,-0.128208,-0.0871481,0.014801,0.0218582,0.100441,0.0528717,0.0128174,-0.0367737,0.0360489,0.0037384,-9.97986,0.0149155,-0.0069809,-0.0152588,-0.0888824,0.0592041,-0.0139618,0.00526428,0.0247955
14,4,10.0097,0.0012207,-0.0012207,-2.42959,0.0535448,-0.0759786,0.0544332,0.0688341,-0.0949775,0.143792,-0.126682,-0.0874532,0.0105286,0.0198746,0.0878525,0.0636292,0.0135803,-0.0257492,0.033493,0.00881195,-9.97986,0.0178909,-0.00900269,-0.0149155,-0.0976944,0.0597,-0.0312042,0.00762939,0.0233459
14,5,10.0097,0.000610352,-0.00137329,-2.42745,0.0541551,-0.0744527,0.0535176,0.0697496,-0.0937568,0.145929,-0.127292,-0.0868429,0.0128937,0.0201035,0.0625229,0.0927353,0.00785828,-0.0209045,0.0350571,0.0138855,-9.97986,0.0219345,-0.00888824,-0.0171661,-0.108261,0.0609589,-0.0421143,0.0122833,0.0224304
14,6,10.0097,0.00152588,-0.00167847,-2.42776,0.0547655,-0.0762837,0.0556539,0.0700548,-0.0943672,0.144098,-0.126377,-0.0856222,0.00873566,0.0209045,0.0270844,0.08564,0.00656128,-0.0162125,0.0314331,0.013504,-9.97986,0.0294113,-0.01091,-0.0187302,-0.114212,0.0629425,-0.0376892,0.0143051,0.0284195
14,7,10.0097,-0.000305176,0,-2.42653,0.055681,-0.075063,0.0532125,0.0697496,-0.0913154,0.145013,-0.124851,-0.0840963,0.0114822,0.0271988,0.00415802,0.0690842,0.0094223,-0.010643,0.0337219,0.0153732,-9.97986,0.026474,-0.00858307,-0.018959,-0.117302,0.063591,-0.0289154,0.0196075,0.0257492
14,8,10.0097,-0.000610352,0.000152588,-2.42623,0.0553758,-0.075063,0.0535176,0.07036,-0.0925361,0.145013,-0.125766,-0.0828756,0.0119019,0.0304794,-0.0167465,0.0632477,0.0133896,-0.00392914,0.0302887,0.0192642,-9.97986,0.0255966,-0.00919342,-0.0196075,-0.116463,0.0616074,-0.0234985,0.0201416,0.0273132
14,9,10.0097,-0.000305176,-0.000305176,-2.42592,0.0575121,-0.0738423,0.0504659,0.0715807,-0.0922309,0.146844,-0.123935,-0.0816549,0.00984192,0.0259781,-0.0288773,0.0576782,0.0162125,-0.00087738,0.0343323,0.0183487,-9.97986,0.0202179,-0.0149918,-0.0166702,-0.117378,0.0676346,-0.0171661,0.0282288,0.032959
15,0,10.0097,0.00152588,0.000152588,-2.4244,0.0569017,-0.0738423,0.0547383,0.07036,-0.0922309,0.147149,-0.124241,-0.0816549,0.0069809,0.0282669,-0.0333405,0.063324,0.0185776,0.00640869,0.0370789,0.0175476,-9.97986,0.0194168,-0.0101471,-0.0218201,-0.121918,0.0710678,-0.0107574,0.0323868,0.0318909
15,1,10.0097,-0.000305176,-0.000610352,-2.42592,0.0559862,-0.0738423,0.0535176,0.0712755,-0.0897895,0.146539,-0.123935,-0.0810445,0.00652313,0.0227356,-0.0460434,0.0633621,0.0187302,0.0139618,0.0356674,0.0137711,-9.97986,0.0238037,-0.0102615,-0.018425,-0.116577,0.0759888,-0.00389099,0.0365067,0.0297165
15,2,10.0097,-0.000305176,0,-2.42562,0.0578172,-0.0741475,0.050771,0.0706652,-0.0897895,0.14776,-0.123935,-0.0807394,0.0126266,0.0161362,-0.0465775,0.0585175,0.0251389,0.0157928,0.029335,0.0151062,-9.97986,0.0220108,-0.0143814,-0.0188446,-0.120583,0.0814819,0.00232697,0.0416183,0.0270844
15,3,10.0097,0.00183105,-0.000152588,-2.42745,0.0562914,-0.0747579,0.0538228,0.0596788,-0.0931465,0.14776,-0.125766,-0.0810445,0.0143051,0.014801,-0.0376511,0.0577545,0.0273514,0.0188446,0.0326538,0.0148392,-9.97986,0.0194168,-0.00724792,-0.0225067,-0.117722,0.0843811,0.00778198,0.0415802,0.0266647
15,4,10.0097,-0.000305176,-0.00198364,-2.42653,0.0553758,-0.0738423,0.0544332,0.0401476,-0.0937568,0.146844,-0.126682,-0.0819601,0.0104141,0.0136948,-0.0273514,0.0476456,0.0294113,0.0250244,0.0320816,0.0170898,-9.97986,0.0179291,-0.00995636,-0.019989,-0.1157,0.0854874,0.00556946,0.0428009,0.0247955
15,5,8.04067,0.00244141,-0.00152588,-2.42531,0.0572069,-0.073232,0.0577901,0.049608,-0.0931465,0.146234,-0.125461,-0.0825704,0.0148773,0.0185776,-0.0165176,0.0301743,0.0303268,0.0326157,0.0317383,0.0165558,-9.97986,0.0188828,-0.0105286,-0.0170517,-0.11467,0.0895309,-0.00267029,0.0443649,0.0258636
15,6,7.44863,-0.000305176,-0.000305176,-2.42562,0.0544603,-0.0747579,0.054128,0.0602892,-0.0931465,0.145624,-0.124241,-0.0825704,0.0146484,0.020256,-0.014534,0.0138855,0.0324249,0.0365067,0.0341797,0.01297,-9.97986,0.0208282,-0.0107956,-0.018425,-0.102425,0.0881195,-0.00850677,0.0416565,0.0232697
15,7,7.524,-0.000610352,0.000457764,-2.42623,0.0562914,-0.0747579,0.0547383,0.0691393,-0.0928413,0.146539,-0.125766,-0.0825704,0.0131989,0.0180054,-0.00701904,0.015831,0.0341797,0.0401306,0.0325012,0.0146866,-9.97986,0.0176239,-0.00930786,-0.0186157,-0.102921,0.0820923,-0.00202179,0.0431824,0.0226212
15,8,8.3315,0.000610352,0.00106812,-2.42653,0.0547655,-0.0741475,0.0544332,0.0837877,-0.0922309,0.145929,-0.124546,-0.0825704,0.0119781,0.0175476,0.000610352,0.0162888,0.0305557,0.0393677,0.029068,0.0149155,-9.97986,0.0186157,-0.00957489,-0.016098,-0.0893021,0.0806808,0.001297,0.0400543,0.0236893
15,9,10.0097,0,0.00350952,-2.42745,0.0532396,-0.0753682,0.0553487,0.110643,-0.0903999,0.143487,-0.124241,-0.0825704,0.0150299,0.0182724,0.000915527,0.0168991,0.0340652,0.0435638,0.0281906,0.0126648,-9.97986,0.0194168,-0.00850677,-0.0175476,-0.074234,0.073204,0.00495911,0.039444,0.0198746
16,0,10.0097,0.000915527,0.00274658,-2.42745,0.0544603,-0.0762837,0.0516866,0.0816515,-0.0955879,0.144098,-0.126682,-0.0859274,0.0118256,0.0269318,0.00881195,0.0148392,0.0321579,0.0466156,0.026207,0.0165176,-9.97986,0.016861,-0.00988007,-0.0185776,-0.0511551,0.0623322,0.0056076,0.0403595,0.0120926
16,1,10.0097,0.000915527,0.00152588,-2.42928,0.0541551,-0.0756734,0.0504659,0.0737169,-0.0955879,0.142267,-0.126987,-0.0865377,0.0141144,0.0245667,0.0121689,0.0186539,0.0302887,0.0516891,0.0269699,0.0197983,-9.97986,0.0156403,-0.010643,-0.0175858,-0.0395203,0.0595856,0.000419617,0.0406647,0.0145721
16,2,10.0097,0.0012207,0.00137329,-2.42837,0.0535448,-0.0756734,0.0513814,0.0706652,-0.095893,0.142572,-0.127598,-0.0868429,0.0136185,0.029335,0.0153351,0.0227737,0.0363922,0.0527191,0.0304031,0.0312424,-9.97986,0.00793457,-0.00888824,-0.013237,-0.0230026,0.0480652,0.00331879,0.0365067,0.0138092
16,3,10.0097,0,0.00137329,-2.42959,0.0538499,-0.0747579,0.0522969,0.0685289,-0.0955879,0.143792,-0.127598,-0.0865377,0.00640869,0.0294495,0.0151443,0.0127029,0.0337982,0.0486755,0.0265121,0.0328064,-9.97986,0.0102997,-0.0147247,-0.013237,-0.00610352,0.0370407,0.00839233,0.0305939,0.00823975
16,4,10.0097,-0.000305176,0.00213623,-2.42959,0.0541551,-0.0759786,0.0495503,0.0688341,-0.0946723,0.141351,-0.127598,-0.0859274,0.00812531,0.0317764,0.0177002,0.0160599,0.0341415,0.0580215,0.028801,0.0283051,-9.97986,0.0113297,-0.0110245,-0.0115585,0.017662,0.0284195,0.0038147,0.0296783,0.00778198
16,5,10.0097,0.000915527,0.00152588,-2.42776,0.055681,-0.0762837,0.0532125,0.0688341,-0.094062,0.144098,-0.126377,-0.0865377,0.0118637,0.0623703,0.0138855,0.0128174,0.0284195,0.0563812,0.0265884,0.0271606,-9.97986,0.0132751,-0.00850677,-0.0119019,0.0397873,0.0170517,0.00324249,0.0232315,0.00564575
16,6,10.0097,0,0.00228882,-2.43081,0.0547655,-0.0759786,0.0529073,0.07036,-0.0946723,0.143182,-0.126072,-0.0837911,0.00919342,0.0428009,0.0240326,0.00514984,0.0291824,0.0546646,0.0240707,0.0273132,-9.97986,0.0114441,-0.00858307,-0.00995636,0.0606155,0.0196075,0.00133514,0.0234985,0.00202179
16,7,10.0097,0,0.00244141,-2.42684,0.0550706,-0.075063,0.0535176,0.0697496,-0.0922309,0.144403,-0.126987,-0.0844015,0.0141907,0.0211334,0.0262833,0.00469208,0.0322342,0.0621796,0.0248718,0.016098,-9.97986,0.0102234,-0.00797272,-0.0050354,0.0779343,0.014267,0.000724792,0.0232315,0.00289917
16,8,10.0097,0.00213623,0.00137329,-2.42592,0.055681,-0.075063,0.054128,0.0715807,-0.0931465,0.144708,-0.125156,-0.0822652,0.0137711,0.0179291,0.0209045,-0.00125885,0.0296021,0.0629807,0.0271606,0.0142288,-9.97986,0.0119019,-0.00938416,-0.00671387,0.0898361,0.0122833,-0.00423431,0.0207901,0.00247955
16,9,10.0097,0.000610352,0.00152588,-2.42837,0.0559862,-0.0738423,0.0553487,0.0731066,-0.0916206,0.146234,-0.124241,-0.0813497,0.0152969,0.0199509,0.0273895,-0.0069809,0.029335,0.0675201,0.0240326,0.00793457,-9.97986,0.0139618,-0.00473022,-0.00427246,0.113335,0.00339508,-0.00354767,0.0192261,-0.000991821
17,0,10.0097,0.00152588,0.00228882,-2.42531,0.0569017,-0.0723164,0.0535176,0.0709703,-0.0922309,0.14776,-0.125461,-0.0810445,0.0136948,0.0320816,0.0333405,-0.00644684,0.0291824,0.0780869,0.0236511,0.00263214,-9.97986,0.0113297,-0.00720978,-0.0030899,0.127678,-0.00453949,-0.00759125,0.0156784,-0.00652313
17,1,10.0097,0.000915527,0.00213623,-2.4244,0.0547655,-0.0735371,0.054128,0.07036,-0.0913154,0.147455,-0.123935,-0.0816549,0.0106812,0.0294495,0.0364304,-0.0226974,0.0252151,0.0802994,0.0246048,-0.00442505,-9.97986,0.0122452,-0.00717163,-0.00572205,0.145645,-0.00289917,-0.0106812,0.0146103,-0.00473022
17,2,10.0097,0.000610352,0.00198364,-2.42257,0.0559862,-0.0741475,0.0556539,0.0709703,-0.090705,0.148065,-0.124546,-0.0798238,0.0130844,0.0396347,0.035553,-0.0350571,0.0214386,0.086937,0.0252151,-0.0129318,-9.97986,0.00919342,-0.00728607,-0.00209808,0.162582,-0.0101471,-0.0196457,0.0104904,-0.00797272
17,3,10.0097,0.000305176,0.00183105,-2.42653,0.0562914,-0.0747579,0.0535176,0.0630358,-0.0943672,0.145624,-0.124851,-0.0813497,0.0127411,0.0352478,0.0284195,-0.0375748,0.0202179,0.096283,0.021286,-0.0181961,-9.97986,0.0154495,-0.00572205,-0.000190735,0.177269,-0.00869751,-0.0204086,0.0110245,-0.0118637
17,4,10.0097,-0.000915527,-0.000610352,-2.42592,0.0550706,-0.073232,0.0532125,0.0383165,-0.0943672,0.146539,-0.126682,-0.078298,0.0157928,0.0243759,0.0251007,-0.0331879,0.0187683,0.102386,0.0188828,-0.00728607,-9.97986,0.0178528,-0.000991821,0.00297546,0.188293,-0.0153351,-0.0151443,0.00873566,-0.0136948
17,5,8.03456,-0.000305176,-0.000610352,-2.42989,0.055681,-0.0738423,0.0553487,0.0499132,-0.0928413,0.146234,-0.126682,-0.0816549,0.0118256,0.0164413,0.0169754,-0.0481415,0.0248337,0.110664,0.017662,0.000305176,-9.97986,0.0123596,-0.00774384,0.00389099,0.194664,-0.0262451,-0.00717163,0.00583649,-0.0131989
17,6,7.44588,0.000305176,0.000610352,-2.42592,0.0562914,-0.0747579,0.0556539,0.0618151,-0.0928413,0.145318,-0.125156,-0.0831808,0.0128555,-0.00797272,0.014534,-0.0627518,0.0238037,0.107079,0.0185394,0.00499725,-9.97986,0.0169373,-0.00366211,0.000839233,0.208969,-0.0238419,-0.000610352,0.00392914,-0.0178146
17,7,7.45412,-0.00152588,0.00137329,-2.42653,0.0553758,-0.0747579,0.054128,0.0676134,-0.0925361,0.144403,-0.125766,-0.0844015,0.0107193,-0.0193405,0.0062561,-0.0562668,0.0182724,0.112343,0.0140381,0.0101852,-9.97986,0.0120926,-0.00453949,0.00522614,0.217361,-0.0294113,0.00507355,-0.0018692,-0.0202179
17,8,8.33364,-0.000305176,0.00198364,-2.42684,0.0547655,-0.0747579,0.0556539,0.0828722,-0.0922309,0.146234,-0.125156,-0.0834859,0.0117111,-0.0111771,-0.00152588,-0.000114441,0.0204086,0.112152,0.0146866,0.00858307,-9.97986,0.0209808,-0.00762939,0.00808716,0.229416,-0.0301743,0.00167847,-0.00221252,-0.0225067
17,9,10.0097,0.0012207,0.00335693,-2.42837,0.0535448,-0.0753682,0.054128,0.110033,-0.0885688,0.143792,-0.122715,-0.0840963,0.0146103,0.00450134,0.00419617,0.0381088,0.0217819,0.106049,0.0200653,0.0120544,-9.97986,0.0177765,-0.00675201,0.00545502,0.242653,-0.0367355,0.00137329,-0.00179291,-0.0241089
18,0,10.0097,0.00213623,0.00213623,-2.42989,0.0541551,-0.0762837,0.0510762,0.082567,-0.094062,0.143487,-0.127903,-0.085317,0.0111771,0.0191116,0.00705719,0.00953674,0.0220108,0.0970078,0.0172806,0.0141907,-9.97986,0.0172806,-0.00770569,0.00434875,0.251045,-0.0367355,-0.00328064,-0.0050354,-0.0271225
18,1,10.0097,0.000305176,0.00152588,-2.43111,0.0541551,-0.0765889,0.0522969,0.0734117,-0.095893,0.144403,-0.127292,-0.0859274,0.00835419,0.0131989,0.0131989,0.00751495,0.0221634,0.0994873,0.0172424,0.00602722,-9.97986,0.0130844,-0.0102234,0.00980377,0.261421,-0.039978,-0.00370026,-0.00785828,-0.0247955
18,2,10.0097,0.00183105,0.000915527,-2.42959,0.0541551,-0.0768941,0.0526021,0.0663927,-0.095893,0.141961,-0.126987,-0.0874532,0.013504,-0.000534058,0.0230408,0.0191879,0.0182343,0.0912476,0.010643,0.011673,-9.97986,0.0157166,-0.00656128,0.00888824,0.275574,-0.0455475,-0.0146484,-0.0104523,-0.029068
18,3,10.0097,0.000305176,0.000762939,-2.42867,0.0538499,-0.0759786,0.0516866,0.0685289,-0.0943672,0.143487,-0.127292,-0.085317,0.00988007,-0.00804901,0.021553,0.0222778,0.0270844,0.0941467,0.0153351,0.0130844,-9.97986,0.0162888,-0.00434875,0.00671387,0.284958,-0.0462341,-0.0190735,-0.00995636,-0.0270462
18,4,10.0097,-0.000305176,0.000305176,-2.43294,0.0538499,-0.0759786,0.0529073,0.0694445,-0.0934516,0.142877,-0.127598,-0.0859274,0.00816345,-0.00770569,0.0238419,0.0353241,0.0261307,0.0939178,0.0151443,0.0165176,-9.97986,0.0176239,-0.00411987,0.00629425,0.293694,-0.0469208,-0.0142288,-0.0130844,-0.0313187
18,5,10.0097,0.00152588,0.000610352,-2.42745,0.0544603,-0.075063,0.0544332,0.0694445,-0.0937568,0.145318,-0.126987,-0.0844015,0.0130081,0.00473022,0.0294876,0.0423813,0.0266647,0.101204,0.0175858,0.0183487,-9.97986,0.020256,-0.00652313,0.0087738,0.306168,-0.0499344,-0.0133514,-0.010643,-0.0326538
18,6,10.0097,0.000610352,0.00106812,-2.42776,0.055681,-0.0756734,0.0529073,0.0688341,-0.0934516,0.145318,-0.126987,-0.0880636,0.00991821,0.015564,0.0266266,0.0500107,0.0250626,0.100021,0.0122833,0.00980377,-9.97986,0.019455,-0.0104523,0.00652313,0.319023,-0.0485611,-0.0104904,-0.0126648,-0.0350571
18,7,10.0097,0,0.00167847,-2.42592,0.0550706,-0.0747579,0.0532125,0.0709703,-0.0928413,0.144708,-0.125766,-0.0840963,0.00804901,0.0213242,0.028038,0.0614929,0.0266647,0.108833,0.016861,0.0136948,-9.97986,0.0188828,-0.00659943,0.00663757,0.338173,-0.0511169,-0.0156403,-0.0104141,-0.0362778
18,8,10.0097,0.0012207,0.00152588,-2.42653,0.0547655,-0.0744527,0.0544332,0.0743273,-0.0916206,0.146234,-0.125766,-0.0834859,0.0137329,0.0238419,0.0234985,0.0523376,0.0272751,0.108833,0.0144196,0.0157166,-9.97986,0.0196457,-0.00366211,0.00240326,0.34523,-0.0456238,-0.0172424,-0.0106812,-0.0378799
18,9,10.0097,0,0.00152588,-2.42501,0.0559862,-0.0744527,0.0544332,0.0706652,-0.0910102,0.145929,-0.12363,-0.0822652,0.00923157,0.0248718,0.0205231,0.0435638,0.0260925,0.112801,0.0123215,0.0153351,-9.97986,0.0202942,-0.00782013,0.00968933,0.352974,-0.0423813,-0.0200653,-0.00976563,-0.0387955
19,0,10.0097,0.000305176,0.000915527,-2.42226,0.0565965,-0.073232,0.0544332,0.0715807,-0.0922309,0.147149,-0.124546,-0.0804342,0.0169373,0.0259018,0.0146484,0.0350189,0.0268936,0.114822,0.0138855,0.0151062,-9.97986,0.0224686,-0.00598907,0.000801086,0.362053,-0.038147,-0.0225067,-0.0102234,-0.0430679
19,1,10.0097,0,0.000610352,-2.42531,0.0559862,-0.0741475,0.0547383,0.0743273,-0.090705,0.145624,-0.124851,-0.0810445,0.0119019,0.0329208,0.00347137,0.0339508,0.0274277,0.110207,0.0109482,0.0165176,-9.97986,0.0188446,-0.00743866,0.00740051,0.369873,-0.0400162,-0.0198364,-0.0118637,-0.0421906
19,2,10.0097,0.000610352,0,-2.42501,0.0569017,-0.0735371,0.055959,0.0709703,-0.0919257,0.146539,-0.124241,-0.0807394,0.00934601,0.0240707,-0.00301361,0.0320435,0.0283813,0.0993729,0.0131607,0.0201035,-9.97986,0.0167465,-0.00358582,0.00102997,0.377274,-0.0356293,-0.0281906,-0.0119781,-0.0411224
19,3,10.0097,0.00152588,0.000152588,-2.42409,0.0572069,-0.0747579,0.0538228,0.0612047,-0.0934516,0.146539,-0.124851,-0.0816549,0.0137329,0.0230789,-0.00324249,0.0245285,0.0291824,0.0915146,0.0131989,0.0189972,-9.97986,0.0161362,-0.00480652,0.00305176,0.376053,-0.0328064,-0.0270081,-0.01194,-0.0420761
19,4,10.0097,-0.0012207,-0.000610352,-2.42653,0.0550706,-0.0741475,0.0532125,0.0441149,-0.0934516,0.146234,-0.126682,-0.0807394,0.0127029,0.0245667,0.0012207,0.0192642,0.0341415,0.0789261,0.0140381,0.0177002,-9.97986,0.0131607,-0.00408173,0.00366211,0.376205,-0.0283432,-0.0111771,-0.00930786,-0.045929
19,5,8.20882,0.000610352,-0.000915527,-2.42623,0.055681,-0.0738423,0.0538228,0.0493029,-0.0925361,0.145624,-0.127292,-0.0804342,0.0123596,0.0219345,0.00473022,0.0165558,0.0324249,0.0689316,0.0128937,0.0185394,-9.97986,0.0156021,-0.00370026,0.00240326,0.37674,-0.0308228,-0.00598907,-0.00221252,-0.0419235
19,6,7.64699,0.000610352,-0.000610352,-2.42714,0.055681,-0.075063,0.0547383,0.0615099,-0.0925361,0.145929,-0.125766,-0.0825704,0.0131226,0.0184631,0.0044632,0.0141907,0.0348282,0.0616455,0.0178909,0.0112152,-9.97986,0.0121307,-0.000457764,0.00137329,0.370216,-0.0247192,-0.0056076,0.0012207,-0.0446701
19,7,7.67324,0,0,-2.42684,0.0553758,-0.0744527,0.0538228,0.0718859,-0.0919257,0.145013,-0.126377,-0.0834859,0.0118637,0.0175476,0.00862122,0.0143814,0.0297928,0.0603104,0.0130081,0.0154114,-9.97986,0.014801,-0.00675201,0.00328064,0.366211,-0.0257492,-0.00125885,0.00442505,-0.0437546
19,8,8.52803,-0.000610352,0.000457764,-2.42806,0.0559862,-0.0747579,0.054128,0.0831774,-0.0916206,0.145318,-0.125156,-0.0834859,0.0134659,0.0228119,0.0115204,0.0147629,0.0300217,0.0542831,0.0120163,0.0165558,-9.97986,0.0154495,-0.00411987,0.00148773,0.364494,-0.0240326,-0.00209808,0.00881195,-0.0450897
19,9,10.0097,0.000915527,0.00213623,-2.42806,0.0547655,-0.0753682,0.0553487,0.108812,-0.0894843,0.144098,-0.12363,-0.0840963,0.00923157,0.0214386,0.0124359,0.0119781,0.0328445,0.056839,0.0139618,0.019989,-9.97986,0.0169754,-0.00614166,0.0056076,0.360031,-0.0233841,0.00259399,0.0094223,-0.0444031
20,0,10.0097,-0.000305176,0,-2.42989,0.0535448,-0.0762837,0.0519917,0.0865343,-0.0952827,0.143792,-0.126377,-0.0874532,0.0118637,0.0217819,0.0145721,0.0127029,0.029335,0.0511551,0.0139618,0.0228119,-9.97986,0.0176239,-0.00125885,0.00564575,0.353088,-0.0230026,0.00576019,0.0102997,-0.0477982
20,1,10.0097,-0.000305176,-0.000610352,-2.42806,0.0541551,-0.0756734,0.0526021,0.0734117,-0.0952827,0.144098,-0.127598,-0.0834859,0.0128937,0.02491,0.0203323,0.0188446,0.0273132,0.0462341,0.0145721,0.0151443,-9.97986,0.0143433,-0.00331879,0.00480652,0.340004,-0.0201035,0.000762939,0.0126266,-0.0445938
20,2,10.0097,0.000305176,-0.00137329,-2.42745,0.0532396,-0.0762837,0.0516866,0.0694445,-0.0961982,0.142877,-0.127598,-0.0874532,0.0115204,0.0200272,0.0226212,0.0104523,0.0276566,0.0492096,0.0155258,0.0196838,-9.97986,0.0211334,-0.0018692,0.00782013,0.331993,-0.0191879,-0.00434875,0.00873566,-0.0436783
20,3,10.0097,0.00213623,-0.0012207,-2.42959,0.0532396,-0.0753682,0.0522969,0.0752428,-0.095893,0.144403,-0.126377,-0.0877584,0.0082016,0.0257111,0.022316,0.00598907,0.0246429,0.0421143,0.0146484,0.0143814,-9.97986,0.0143433,-0.00785828,0.00339508,0.319977,-0.0250626,-0.0037384,0.0120926,-0.0479507
20,4,10.0097,0.000305176,-0.0012207,-2.42959,0.0544603,-0.0765889,0.0513814,0.0685289,-0.0949775,0.143792,-0.127292,-0.0895895,0.0137711,0.0270081,0.0269318,0.00812531,0.0295258,0.0442123,0.022049,0.0195694,-9.97986,0.0160217,-0.00205994,0.00896454,0.317192,-0.0138855,-0.00167847,0.0135422,-0.0427246
20,5,10.0097,0.000915527,-0.0012207,-2.42898,0.0532396,-0.0756734,0.0538228,0.0691393,-0.0943672,0.145624,-0.126377,-0.0856222,0.00766754,0.0154114,0.0224686,-0.00247955,0.0186157,0.0260162,0.0125885,0.0123978,-9.97986,0.0149536,-0.00411987,0.0082016,0.295982,-0.0157547,-0.00972748,0.00736237,-0.0445938
20,6,10.0097,-0.000610352,-0.000915527,-2.42837,0.0544603,-0.0753682,0.0529073,0.0657823,-0.095893,0.144708,-0.125766,-0.0856222,0.0119781,0.0237274,0.0261307,0.00453949,0.0228882,0.0335312,0.0170898,0.0119781,-9.97986,0.0139618,-0.0044632,0.00862122,0.294533,-0.0170135,-0.0104904,0.0141907,-0.0443649
20,7,10.0097,0.0012207,-0.000457764,-2.42623,0.0544603,-0.0753682,0.0529073,0.07036,-0.0925361,0.144098,-0.125461,-0.0859274,0.00988007,0.025177,0.0310135,-0.0018692,0.0326538,0.026474,0.0154495,0.0160599,-9.97986,0.00873566,-0.00320435,0.00530243,0.285454,-0.0094223,-0.00888824,0.0169373,-0.0415802
20,8,10.0097,0.000610352,-0.000305176,-2.42837,0.055681,-0.0741475,0.054128,0.07036,-0.0928413,0.145013,-0.125461,-0.0834859,0.00965118,0.0236893,0.028801,-0.00274658,0.0263214,0.0279617,0.0123215,0.0168228,-9.97986,0.00595093,0.000495911,0.00350952,0.27256,-0.0082016,-0.00774384,0.017395,-0.0396729
20,9,10.0097,-0.000915527,-0.000305176,-2.42623,0.055681,-0.073232,0.0550435,0.07036,-0.0922309,0.147149,-0.125156,-0.0819601,0.014801,0.0174713,0.0252151,-0.0153351,0.022316,0.0240326,0.0157547,0.0126266,-9.97986,0.00766754,-0.00495911,0.00724792,0.268173,-0.00839233,-0.0133133,0.0168228,-0.0349045
21,0,10.0097,0.000610352,-0.0012207,-2.42531,0.0569017,-0.0738423,0.0553487,0.0712755,-0.0910102,0.147149,-0.123935,-0.0825704,0.0130463,0.0175095,0.018692,-0.0281525,0.0193787,0.0282288,0.0163269,0.0169373,-9.97986,0.0115585,-0.0124359,0.0043869,0.259132,-0.0121689,-0.01091,0.0231552,-0.0366211
21,1,10.0097,0.00152588,-0.000305176,-2.42928,0.0562914,-0.0741475,0.0544332,0.0715807,-0.0925361,0.146844,-0.123935,-0.0810445,0.0146866,0.0128174,0.0220108,-0.0655746,0.0164413,0.0213623,0.018158,0.0149536,-9.97986,0.0114822,-0.00640869,0.0037384,0.254021,-0.0117493,-0.0122452,0.0243378,-0.035553
21,2,10.0097,0.000305176,-0.00106812,-2.42348,0.0565965,-0.0735371,0.0544332,0.0743273,-0.0913154,0.146234,-0.123325,-0.0813497,0.0133514,0.0148773,0.0252151,-0.118103,0.0190353,0.0193787,0.0189972,0.0157547,-9.97986,0.0120926,-0.00423431,0.000457764,0.247536,-0.00938416,-0.0122833,0.0283432,-0.0309372
21,3,10.0097,0.000305176,-0.000610352,-2.42684,0.0553758,-0.0735371,0.0532125,0.0584581,-0.094062,0.146234,-0.124851,-0.0837911,0.0110626,0.0178146,0.0257492,-0.0980759,0.0158691,0.0137329,0.0193787,0.0136566,-9.97986,0.00988007,-0.00553131,-0.00476837,0.239563,-0.00740051,-0.00968933,0.0287247,-0.028038
21,4,10.0097,-0.000610352,-0.00289917,-2.42531,0.0575121,-0.0744527,0.0535176,0.0380113,-0.0949775,0.146539,-0.126682,-0.0816549,0.00961304,0.0196075,0.0232697,-0.0737762,0.0115967,0.0102615,0.0200272,0.0165558,-9.97986,0.0125885,-0.00137329,-0.00808716,0.222054,-0.00255585,-0.0138855,0.0309372,-0.0304413
21,5,7.95919,-0.000305176,-0.00213623,-2.42531,0.0547655,-0.0741475,0.054128,0.0499132,-0.0919257,0.145013,-0.126072,-0.0825704,0.00919342,0.0206375,0.0312805,-0.0851059,0.00782013,0.00442505,0.021286,0.0130081,-9.97986,0.00980377,-0.00270844,-0.0122452,0.211487,0.0031662,-0.00778198,0.0315094,-0.0265503
21,6,7.34548,0.00152588,-0.00198364,-2.42714,0.055681,-0.0747579,0.0532125,0.0593737,-0.0913154,0.146234,-0.126072,-0.0825704,0.0135803,0.0243759,0.0332642,-0.0400162,0.00572205,-0.000267029,0.0245667,0.0117493,-9.97986,0.0143433,-0.00198364,-0.0125122,0.19722,0.00839233,-0.0063324,0.0354004,-0.0250626
21,7,7.34578,-0.000305176,-0.00152588,-2.42348,0.0544603,-0.0741475,0.0547383,0.0676134,-0.0916206,0.146539,-0.125156,-0.0834859,0.00854492,0.0297928,0.0376511,0.00247955,0.00915527,0.00270844,0.021286,0.0174713,-9.97986,0.0148392,-0.00476837,-0.0156021,0.173683,0.010643,-0.0063324,0.0336075,-0.0218964
21,8,8.17311,-0.000305176,-0.000762939,-2.42653,0.0544603,-0.0756734,0.0544332,0.082567,-0.0903999,0.145318,-0.123935,-0.0837911,0.00537872,0.033226,0.032196,0.00442505,0.00747681,-0.00202179,0.0205231,0.0157928,-9.97986,0.0150681,-0.00492096,-0.0177383,0.158195,0.0118637,-0.00228882,0.0396729,-0.0177002
21,9,10.0097,0.00213623,0.000457764,-2.42837,0.0544603,-0.0753682,0.0556539,0.110338,-0.0891792,0.145013,-0.123935,-0.0859274,0.0124359,0.0345993,0.0271606,-0.0037384,0.010643,-0.0130081,0.0198364,0.014801,-9.97986,0.0131989,-0.00556946,-0.0178528,0.139275,0.0157928,-0.00465393,0.0455856,-0.0171661
22,0,10.0097,-0.000915527,-0.000762939,-2.43477,0.0526292,-0.0768941,0.0519917,0.0834825,-0.094062,0.143487,-0.125461,-0.0871481,0.0114441,0.0328064,0.0292206,0.0384521,0.00865936,-0.0257111,0.018692,0.0135422,-9.97986,0.0115204,0.00225067,-0.0193024,0.120773,0.0132751,-0.00663757,0.0468445,-0.0144577
22,1,10.0097,0.0012207,-0.00198364,-2.42959,0.0544603,-0.0759786,0.0526021,0.0795153,-0.0961982,0.144403,-0.126987,-0.0874532,0.0113678,0.0442886,0.028038,0.122108,0.0101089,-0.0373077,0.0164032,0.0165176,-9.97986,0.0137329,-0.00110626,-0.0233459,0.104141,0.0197983,-0.00823975,0.0551605,-0.0102997
22,2,10.0097,0.00152588,-0.00183105,-2.4302,0.0544603,-0.0759786,0.0516866,0.07036,-0.0955879,0.142572,-0.127903,-0.0908102,0.00965118,0.0457764,0.0324631,0.148163,0.00953674,-0.0429153,0.0157166,0.0172806,-9.97986,0.0140381,-0.00572205,-0.02285,0.0821686,0.0183105,-0.00846863,0.0549316,-0.0115204
22,3,10.0097,0.00244141,-0.00228882,-2.42867,0.0532396,-0.0759786,0.0516866,0.0685289,-0.0955879,0.143792,-0.127292,-0.0880636,0.00774384,0.0458145,0.0331879,0.123825,0.0121307,-0.0389862,0.0125885,0.0189972,-9.97986,0.0159073,-0.00785828,-0.0254059,0.0619888,0.0223541,-0.00759125,0.0556183,-0.00709534
22,4,10.0097,0.000305176,-0.00228882,-2.42989,0.0526292,-0.075063,0.0522969,0.0642565,-0.0943672,0.144098,-0.127598,-0.0865377,0.0101471,0.0457001,0.0464249,0.1054,0.0172424,-0.042572,0.0140381,0.0240326,-9.97986,0.0201035,-0.00427246,-0.027504,0.0432968,0.0249481,-0.000534058,0.056572,-0.0030899
22,5,10.0097,0.000915527,-0.00244141,-2.42837,0.0553758,-0.075063,0.0535176,0.0682238,-0.0952827,0.143487,-0.126682,-0.0874532,0.0088501,0.038681,0.0458527,0.0760269,0.0166702,-0.0488663,0.00923157,0.0225067,-9.97986,0.0198746,-0.00102997,-0.0305176,0.0160599,0.0219727,-0.00679016,0.058136,-0.00465393
22,6,10.0097,-0.000305176,-0.00274658,-2.4302,0.0547655,-0.075063,0.0522969,0.0685289,-0.0934516,0.145318,-0.126072,-0.0859274,0.00907898,0.0377274,0.0418854,0.0637054,0.0135422,-0.0540543,0.00812531,0.0241089,-9.97986,0.0205231,-0.00087738,-0.0363922,-0.00305176,0.0226593,-0.00648499,0.0568771,-0.00530243
22,7,10.0097,0,-0.00228882,-2.42592,0.0559862,-0.0765889,0.054128,0.0648668,-0.0931465,0.145318,-0.126377,-0.0850118,0.0151062,0.035553,0.0265121,0.0559998,0.018959,-0.054512,0.00492096,0.0160599,-9.97986,0.0156403,0.000114441,-0.0363541,-0.026207,0.023613,-0.00740051,0.0555801,7.62939e-005
22,8,10.0097,0.000610352,-0.00167847,-2.42562,0.0550706,-0.0744527,0.0535176,0.0691393,-0.0937568,0.144403,-0.125156,-0.0834859,0.0069809,0.0284195,0.0148392,0.0577545,0.0216293,-0.0564575,0.00354767,0.0194931,-9.97986,0.0172424,-0.00171661,-0.0393677,-0.0496292,0.018158,-0.0120163,0.0535583,0.000457764
22,9,10.0097,0.0756836,-0.00152588,-2.42409,0.0569017,-0.0738423,0.054128,0.0709703,-0.0910102,0.16607,-0.123935,-0.0813497,0.0121689,0.0249481,0.00160217,0.0473404,0.019455,-0.059967,0.00148773,0.018692,-9.97986,0.0204468,-0.00125885,-0.038147,-0.0736618,0.0178146,-0.0117111,0.051651,0.00217438
23,0,10.0097,0.00457764,-0.00213623,-2.42501,0.0559862,-0.0738423,0.0547383,0.067003,-0.0925361,0.152337,-0.124241,-0.0810445,0.00858307,0.0210571,-0.0116348,0.0411606,0.0215149,-0.0642395,0.00267029,0.0152588,-9.97986,0.0154877,-0.000267029,-0.0371552,-0.0942993,0.017128,-0.00823975,0.0546646,0.00259399
23,1,10.0097,0.00183105,-0.00183105,-2.42623,0.0569017,-0.0741475,0.054128,0.0718859,-0.0916206,0.14898,-0.12363,-0.0825704,0.00679016,0.0220871,-0.0120544,0.0408554,0.0264359,-0.0666428,0.00507355,0.0210571,-9.97986,0.0191116,-0.0019455,-0.0396729,-0.109138,0.0188828,-0.00831604,0.0519562,0.00331879
23,2,10.0097,0.00152588,-0.00167847,-2.4247,0.0578172,-0.0738423,0.0550435,0.0706652,-0.0922309,0.148065,-0.123935,-0.0810445,0.0128937,0.0183487,-0.0162125,0.030632,0.026474,-0.0645065,-0.000228882,0.0187302,-9.97986,0.0178528,-0.000648499,-0.0401688,-0.125008,0.0218582,-0.00602722,0.0539398,0.00919342
23,3,10.0097,0.000915527,-0.0012207,-2.42623,0.0572069,-0.0744527,0.054128,0.0569322,-0.0943672,0.147455,-0.124851,-0.0816549,0.0069046,0.0223923,-0.0114441,0.0292206,0.0324249,-0.0683212,0.00450134,0.0215149,-9.97986,0.019455,-0.000457764,-0.0392914,-0.145149,0.0188065,-0.00946045,0.0547028,0.01194
23,4,10.0097,-0.000305176,-0.00305176,-2.42684,0.0578172,-0.0741475,0.0526021,0.0380113,-0.0952827,0.146844,-0.125766,-0.0822652,0.0116348,0.0225449,-0.00606537,0.028038,0.0330734,-0.0657654,0.00171661,0.022316,-9.97986,0.0152969,-0.00118256,-0.0405121,-0.151596,0.0172043,-0.00717163,0.0524902,0.00888824
23,5,7.83528,-0.000610352,-0.00259399,-2.42592,0.0565965,-0.0744527,0.054128,0.0486925,-0.0931465,0.145929,-0.126377,-0.0825704,0.0075531,0.0195313,-0.00999451,0.0261688,0.0353622,-0.0686264,0.00400543,0.0208282,-9.97986,0.0187302,-0.00419617,-0.0426483,-0.168114,0.0172424,-0.00656128,0.0477219,0.0114822
23,6,7.26216,0.0012207,-0.00183105,-2.42592,0.0553758,-0.0735371,0.054128,0.0596788,-0.0919257,0.146234,-0.126072,-0.0828756,0.0088501,0.0227737,7.62939e-005,0.0230789,0.038414,-0.0690842,0.00324249,0.026207,-9.97986,0.0170517,-0.00087738,-0.0405121,-0.17704,0.0214386,-0.00743866,0.0509644,0.0153351
23,7,7.27193,0.00152588,-0.00106812,-2.42623,0.0547655,-0.0735371,0.0553487,0.0679186,-0.0925361,0.145318,-0.125766,-0.0828756,0.010376,0.0164413,0.00331879,0.021286,0.0344849,-0.065918,0.00892639,0.0211334,-9.97986,0.0178528,-0.000457764,-0.037384,-0.184174,0.0233078,-0.0101471,0.0457764,0.0117493
23,8,8.08583,0.00183105,-0.000762939,-2.42714,0.0544603,-0.0744527,0.0547383,0.082567,-0.0910102,0.145624,-0.125156,-0.0837911,0.00808716,0.0151062,0.00743866,0.0169754,0.0345612,-0.0675964,0.00453949,0.0213623,-9.97986,0.0169754,-0.00522614,-0.037384,-0.195885,0.0226974,0.000953674,0.0445557,0.0154877
23,9,10.0097,0.00274658,0.0012207,-2.42837,0.0550706,-0.075063,0.0544332,0.113695,-0.0894843,0.144708,-0.123325,-0.0850118,0.0117493,0.0197983,0.0130844,0.019989,0.0413513,-0.0689697,0.0102997,0.022316,-9.97986,0.0101852,-0.00144958,-0.0343704,-0.205307,0.0252533,0.001297,0.0428009,0.016861
24,0,10.0097,0.000915527,-0.000610352,-2.42959,0.0532396,-0.0771993,0.0519917,0.0834825,-0.095893,0.143487,-0.127292,-0.0877584,0.0112152,0.0209045,0.0174332,0.0120544,0.0408173,-0.060463,0.010643,0.02388,-9.97986,0.0110626,-0.00488281,-0.0388718,-0.213814,0.0260162,0.00289917,0.039978,0.0197983
24,1,10.0097,0.00152588,-0.000915527,-2.42837,0.0538499,-0.0756734,0.0516866,0.0737169,-0.0949775,0.144403,-0.125461,-0.0883688,0.0112152,0.0278091,0.0202179,0.0147629,0.0423431,-0.0601578,0.0134277,0.0197601,-9.97986,0.00988007,-0.00286102,-0.0331116,-0.22625,0.0291824,0.00427246,0.0380707,0.0226212
24,2,10.0097,-0.000610352,-0.00213623,-2.43142,0.0544603,-0.0765889,0.0510762,0.0712755,-0.0961982,0.143487,-0.127903,-0.0874532,0.00686646,0.0290298,0.019989,0.0132751,0.0392532,-0.0575256,0.0199127,0.0212097,-9.97986,0.00457764,-0.00347137,-0.0292587,-0.233955,0.0315094,0.00572205,0.0401688,0.0196457
24,3,10.0097,-0.000305176,-0.00106812,-2.42928,0.0535448,-0.0762837,0.0516866,0.07036,-0.0949775,0.142877,-0.127292,-0.0871481,0.00965118,0.0293732,0.0240326,0.00946045,0.0415802,-0.0605774,0.022583,0.0162125,-9.97986,0.00938416,-0.00469208,-0.0278091,-0.244255,0.0331116,-7.62939e-005,0.0333786,0.0233459
24,4,10.0097,0.000915527,-0.000762939,-2.4305,0.0535448,-0.0765889,0.0526021,0.0685289,-0.094062,0.143792,-0.127292,-0.0874532,0.00892639,0.0245285,0.0254822,0.0115585,0.0415039,-0.0583267,0.0308609,0.0176239,-9.97986,0.00610352,-0.00328064,-0.0279236,-0.249901,0.0337219,0.00232697,0.0271988,0.0219727
24,5,10.0097,0.00152588,-0.00106812,-2.42837,0.0538499,-0.0756734,0.0529073,0.0706652,-0.0946723,0.144098,-0.126987,-0.085317,0.0102234,0.0301361,0.0318527,0.0104523,0.0418091,-0.0585556,0.0391388,0.0102615,-9.97986,0.00812531,-0.00171661,-0.025177,-0.25486,0.033989,0.000190735,0.033989,0.0239944
24,6,10.0097,0.000915527,-0.000305176,-2.42684,0.0547655,-0.0744527,0.0532125,0.0691393,-0.0931465,0.145318,-0.126377,-0.0847066,0.0101471,0.0310516,0.0363922,0.00823975,0.0452423,-0.0545502,0.0390244,0.00801086,-9.97986,0.00938416,-0.0025177,-0.0233841,-0.258484,0.0332642,0.00545502,0.0258255,0.0255585
24,7,10.0097,0.00213623,-0.000610352,-2.42806,0.0541551,-0.0753682,0.0532125,0.0709703,-0.0931465,0.144708,-0.126072,-0.0844015,0.0117111,0.0339508,0.0306702,0.0124741,0.0413895,-0.055542,0.0439072,0.00221252,-9.97986,0.00644684,-0.00156403,-0.0239944,-0.261307,0.0363922,0.01194,0.0272369,0.0266266
24,8,10.0097,0.000305176,0.000305176,-2.42592,0.0553758,-0.075063,0.0547383,0.0709703,-0.0922309,0.145929,-0.126072,-0.0825704,0.0110245,0.0286865,0.0336456,0.0069046,0.0413132,-0.0538635,0.049057,0.0111771,-9.97986,0.00843048,-0.0037384,-0.0162888,-0.26104,0.0333023,0.018425,0.0242233,0.0260925
24,9,10.0097,0.000305176,-0.000610352,-2.42562,0.0562914,-0.0744527,0.0535176,0.0715807,-0.0916206,0.146844,-0.124851,-0.0816549,0.0115585,0.0333405,0.0376511,-0.00106812,0.0389099,-0.0536728,0.0485229,0.00900269,-9.97986,0.0104904,-0.00038147,-0.0177383,-0.258484,0.0337601,0.0217819,0.0227737,0.0263977
25,0,10.0097,0.00152588,0.000152588,-2.42562,0.0575121,-0.0741475,0.0547383,0.0715807,-0.0925361,0.146844,-0.124241,-0.0813497,0.0112152,0.0443649,0.038147,-0.00530243,0.0359726,-0.0502014,0.0517654,0.00591278,-9.97986,0.0118637,-0.00442505,-0.0164413,-0.257912,0.0382233,0.0127792,0.0228119,0.0260162
25,1,10.0097,0.00183105,0.000762939,-2.4244,0.0559862,-0.0738423,0.054128,0.0697496,-0.0922309,0.145929,-0.123935,-0.0813497,0.0130463,0.0398254,0.0255585,-0.00617981,0.0335312,-0.0473022,0.0456238,0.00701904,-9.97986,0.015564,0.00179291,-0.0177765,-0.249481,0.0332642,0.0188446,0.0217819,0.0278854
25,2,10.0097,0.000915527,0.000305176,-2.4247,0.0569017,-0.075063,0.0550435,0.0731066,-0.0910102,0.147455,-0.12363,-0.0795187,0.0122833,0.0201797,0.0149536,-0.0152206,0.0360107,-0.0445938,0.0446701,0.0172806,-9.97986,0.00965118,-0.0012207,-0.00991821,-0.241966,0.0386047,0.0134277,0.0215912,0.0318146
25,3,10.0097,0.000610352,0.000915527,-2.42501,0.0565965,-0.0741475,0.0535176,0.0590685,-0.0934516,0.144708,-0.125461,-0.0816549,0.0113678,0.0113297,0.00961304,-0.0230789,0.0302887,-0.0451279,0.0285721,0.0178909,-9.97986,0.0172806,-0.00183105,-0.00930786,-0.236893,0.0362015,0.00743866,0.0166321,0.0289154
25,4,10.0097,-0.000305176,-0.00106812,-2.42653,0.0569017,-0.0741475,0.0538228,0.0377062,-0.0949775,0.145318,-0.125156,-0.0822652,0.00938416,0.0104904,0.00854492,-0.0274658,0.0248337,-0.0434113,0.0201797,0.017395,-9.97986,0.0172043,-0.00255585,-0.00751495,-0.228844,0.0419998,0.0063324,0.0140381,0.0310516
25,5,7.94728,0,-0.000915527,-2.42684,0.0559862,-0.075063,0.0553487,0.0493029,-0.0931465,0.146234,-0.125461,-0.0822652,0.00782013,0.0214386,0.00930786,-0.0302124,0.0231171,-0.039978,0.00965118,0.021019,-9.97986,0.017128,-0.00450134,-0.00610352,-0.218163,0.0416183,0.0104904,0.0178528,0.0300217
25,6,7.37935,0.00152588,0.000305176,-2.42592,0.0550706,-0.0738423,0.054128,0.0596788,-0.090705,0.146844,-0.126377,-0.0828756,0.0123978,0.021019,0.00164032,-0.0390244,0.0177002,-0.0419998,0.00282288,0.0188065,-9.97986,0.0170135,-0.00114441,-0.0082016,-0.212631,0.0439453,0.0168228,0.0101471,0.0296783
25,7,7.41811,-0.0012207,0.00106812,-2.42562,0.0553758,-0.0741475,0.054128,0.0682238,-0.0919257,0.145318,-0.126072,-0.0840963,0.010643,0.0161362,-0.00362396,-0.0555038,0.0131989,-0.031929,-0.00331879,0.0179291,-9.97986,0.0216293,0.00209808,-0.00637054,-0.200844,0.0452042,0.022049,0.0144958,0.0293732
25,8,8.26741,-0.000610352,0.0012207,-2.42745,0.055681,-0.0747579,0.0544332,0.0816515,-0.0910102,0.144403,-0.124851,-0.0822652,0.00980377,0.0201416,-0.00556946,-0.0812149,0.00648499,-0.0362015,-0.00915527,0.0156021,-9.97986,0.0203705,-0.00659943,-0.00232697,-0.193291,0.0419617,0.0255203,0.0107574,0.0305176
25,9,10.0097,0.000610352,0.00335693,-2.42806,0.0541551,-0.0753682,0.0532125,0.110948,-0.0882636,0.143487,-0.124241,-0.0844015,0.00873566,-0.00354767,-0.00598907,-0.0847626,0.00598907,-0.0252914,-0.0149536,0.0159454,-9.97986,0.0238037,-0.000610352,-0.00324249,-0.187302,0.0434113,0.0288391,0.0115967,0.0293732
26,0,10.0097,0.000610352,0.00198364,-2.42989,0.0538499,-0.0756734,0.0529073,0.0834825,-0.0952827,0.143792,-0.126987,-0.0859274,0.0118256,-0.0171661,0.000686646,-0.032692,-0.00465393,-0.0267792,-0.0201797,0.0141907,-9.97986,0.0240326,0.000915527,0.00221252,-0.181961,0.0466156,0.033226,0.0146103,0.0316238
26,1,10.0097,0.000610352,0.000762939,-2.42837,0.0544603,-0.0753682,0.0522969,0.0731066,-0.0943672,0.144098,-0.126682,-0.0868429,0.0147629,-0.00606537,0.00419617,0.0543213,-0.00934601,-0.0252914,-0.0181198,0.0167084,-9.97986,0.0172424,0.000190735,-0.000686646,-0.171738,0.0413895,0.0293732,0.0103378,0.0274277
26,2,10.0097,0.00305176,0.000457764,-2.42989,0.0529344,-0.0759786,0.0519917,0.0706652,-0.095893,0.142267,-0.127598,-0.0877584,0.0120544,-0.00217438,0.00957489,0.099411,-0.0141907,-0.0195313,-0.0176239,0.0167847,-9.97986,0.0194931,0.00141144,0.00148773,-0.16243,0.0453949,0.0259781,0.0106049,0.0309753
26,3,10.0097,0.000305176,-0.000152588,-2.42989,0.0538499,-0.0768941,0.0516866,0.0697496,-0.0952827,0.143792,-0.127598,-0.0859274,0.00740051,-0.00709534,0.0205231,0.0943756,-0.020752,-0.021286,-0.0161743,0.0203323,-9.97986,0.0230789,-0.00480652,0.00598907,-0.161247,0.0439835,0.0267029,0.00762939,0.0291443
26,4,10.0097,0.000915527,0.000305176,-2.42928,0.0535448,-0.0762837,0.0522969,0.0706652,-0.0946723,0.143792,-0.126987,-0.085317,0.00812531,-0.000991821,0.0291443,0.0778198,-0.0223923,-0.0164032,-0.00595093,0.0242996,-9.97986,0.0252533,0.000419617,0.0031662,-0.154953,0.0431061,0.0221634,0.0069046,0.0289154
26,5,10.0097,0.000610352,-0.000152588,-2.42867,0.0541551,-0.0765889,0.0532125,0.0694445,-0.0955879,0.144403,-0.126987,-0.0859274,0.00736237,0.00694275,0.0247955,0.0301743,-0.0305939,-0.00999451,0.000228882,0.0235748,-9.97986,0.0213623,7.62939e-005,0.00682831,-0.146255,0.0465775,0.0233841,0.00839233,0.0293732
26,6,10.0097,0,0.000457764,-2.42684,0.0550706,-0.0759786,0.0538228,0.0682238,-0.0937568,0.143792,-0.126987,-0.0840963,0.00328064,0.0144196,0.0236511,0.0094223,-0.03479,-0.0134659,0.0138855,0.0238419,-9.97986,0.021019,-0.00282288,0.00400543,-0.1437,0.0449371,0.0212097,0.0133133,0.0281906
26,7,10.0097,0.00183105,0.00106812,-2.42745,0.0532396,-0.075063,0.0526021,0.0691393,-0.0931465,0.145013,-0.126072,-0.0847066,0.010376,0.0214005,0.0194931,0.0249481,-0.0332642,-0.0056076,0.0172806,0.0221252,-9.97986,0.0195694,-0.00152588,0.00843048,-0.135689,0.0435638,0.0226974,0.00812531,0.0259018
26,8,10.0097,0.00183105,0.000457764,-2.42684,0.0550706,-0.075063,0.0538228,0.0709703,-0.0934516,0.145929,-0.125766,-0.0831808,0.00919342,0.0218201,0.0122833,0.0338745,-0.0339127,-0.00289917,0.0276947,0.0218201,-9.97986,0.0200653,0,0.0109863,-0.125923,0.0390244,0.0236511,0.0104523,0.0259781
26,9,10.0097,0.000610352,0.000915527,-2.4244,0.0565965,-0.075063,0.0538228,0.072191,-0.0903999,0.145624,-0.124241,-0.0813497,0.00766754,0.0234604,0.00637054,0.0307465,-0.0385666,-0.000839233,0.0300598,0.0194168,-9.97986,0.0213623,-0.000228882,0.0130081,-0.122337,0.0432587,0.0251389,0.0101089,0.0243759
27,0,10.0097,0.00244141,0.000915527,-2.42653,0.0565965,-0.0744527,0.0547383,0.0715807,-0.0919257,0.147149,-0.124241,-0.0813497,0.00946045,0.0266647,0.00522614,0.0302505,-0.0346756,0.00541687,0.0384903,0.0242615,-9.97986,0.0183105,0.00038147,0.016098,-0.11261,0.0421143,0.0263596,0.00846863,0.0245285
27,1,10.0097,0.000305176,0.000762939,-2.42531,0.0553758,-0.0747579,0.054128,0.07036,-0.0916206,0.146844,-0.12363,-0.0807394,0.00362396,0.0233841,0.00160217,0.0252151,-0.0362015,0.00492096,0.0338745,0.019722,-9.97986,0.0178528,-0.000762939,0.0186539,-0.108528,0.0374603,0.0238419,0.0122452,0.0239944
27,2,10.0097,-0.000610352,0.000762939,-2.4244,0.0559862,-0.073232,0.0550435,0.0718859,-0.090705,0.146844,-0.123935,-0.0804342,0.00915527,0.0253296,0.00923157,0.0208282,-0.0304413,0.00736237,0.0376892,0.0195694,-9.97986,0.0164032,-0.00400543,0.0166321,-0.10601,0.0362778,0.0245667,0.00530243,0.0220108
27,3,10.0097,0,0.0012207,-2.42592,0.0562914,-0.0747579,0.0544332,0.0584581,-0.0943672,0.145318,-0.125156,-0.0810445,0.00839233,0.0248337,0.00598907,0.021019,-0.0347519,0.010376,0.0411606,0.0196838,-9.97986,0.0201797,0.00324249,0.0239563,-0.0952148,0.0403595,0.0234985,0.00728607,0.0170898
27,4,10.0097,0.000915527,-0.000915527,-2.42653,0.0565965,-0.0735371,0.054128,0.0380113,-0.0943672,0.146539,-0.125766,-0.0831808,0.00762939,0.0267029,0.00709534,0.0143051,-0.0298691,0.013504,0.041275,0.0174713,-9.97986,0.0164795,-0.00392914,0.020752,-0.0880814,0.0352097,0.0178909,0.00461578,0.0162888
27,5,7.86214,0.00152588,-0.000457764,-2.42623,0.0559862,-0.0744527,0.0544332,0.0471666,-0.0937568,0.145624,-0.126072,-0.0816549,0.0109482,0.0248337,0.00999451,0.0143814,-0.0274658,0.0107956,0.0444412,0.020752,-9.97986,0.0152588,0.0012207,0.0254059,-0.0774384,0.03685,0.018425,0.00701904,0.0186539
27,6,7.24752,-0.000610352,0,-2.42562,0.0553758,-0.0735371,0.0547383,0.0602892,-0.0919257,0.145929,-0.126377,-0.0816549,0.00812531,0.0233841,0.0198746,0.0144958,-0.0248718,0.019455,0.0454712,0.0270081,-9.97986,0.0170898,-0.00175476,0.0273895,-0.0727463,0.0370407,0.0188446,0.00202179,0.018692
27,7,7.26247,0.00274658,0.000610352,-2.42562,0.0547655,-0.0738423,0.0544332,0.0676134,-0.0913154,0.145318,-0.125156,-0.0828756,0.00816345,0.0233841,0.0192261,0.0147247,-0.0211716,0.0228882,0.0477219,0.0265884,-9.97986,0.0166702,-0.00228882,0.0277328,-0.0642014,0.0310516,0.0203705,0.00675201,0.0169373
27,8,8.0547,0.0012207,0.00106812,-2.42684,0.0559862,-0.0756734,0.054128,0.0831774,-0.0916206,0.145929,-0.125461,-0.0840963,0.00846863,0.0271606,0.020256,0.0109863,-0.0199509,0.0253677,0.0510788,0.0314331,-9.97986,0.0157547,0.0018692,0.0289536,-0.0564957,0.0371552,0.0204849,0.00530243,0.0150299
27,9,10.0097,0.000915527,0.00289917,-2.42714,0.0547655,-0.0747579,0.0550435,0.111864,-0.0894843,0.144403,-0.123935,-0.0850118,0.00984192,0.023613,0.0175095,0.0102234,-0.0209427,0.0254822,0.0552368,0.0289536,-9.97986,0.0170898,-0.00415802,0.0283813,-0.0537491,0.0312805,0.0229263,0.00473022,0.0122833
28,0,10.0097,0.000610352,0.00106812,-2.42867,0.0538499,-0.0759786,0.0519917,0.0840929,-0.0955879,0.143487,-0.126987,-0.0862325,0.0111008,0.0201035,0.0180054,0.010376,-0.0167847,0.0245667,0.0608826,0.0275803,-9.97986,0.0136185,-0.00190735,0.0322723,-0.046196,0.0328445,0.0207901,0.00564575,0.0131989
28,1,10.0097,-0.000610352,0.00137329,-2.4302,0.0535448,-0.0756734,0.0519917,0.0743273,-0.0955879,0.143792,-0.127292,-0.0862325,0.00930786,0.0226593,0.0204468,0.00671387,-0.0170898,0.0255585,0.0637436,0.0276184,-9.97986,0.0132751,-0.00038147,0.0307846,-0.0358963,0.0299072,0.0266266,0.00377655,0.00904083
28,2,10.0097,0.00183105,0.000152588,-2.42928,0.0529344,-0.0762837,0.0516866,0.0694445,-0.0961982,0.143182,-0.127903,-0.0874532,0.00679016,0.0230789,0.026207,0.0087738,-0.0157547,0.0356674,0.0720596,0.0273514,-9.97986,0.0148773,0.000114441,0.0342941,-0.0315475,0.0300217,0.0246429,0.0102615,0.00984192
28,3,10.0097,0.000610352,0.000152588,-2.42959,0.0532396,-0.0768941,0.0516866,0.07036,-0.0955879,0.143792,-0.126987,-0.0871481,0.0117111,0.0232697,0.026741,0.00930786,-0.0156021,0.0428772,0.0760269,0.0247192,-9.97986,0.0113297,-0.00473022,0.0355148,-0.0227356,0.0314713,0.0226593,0.0103378,0.00907898
28,4,10.0097,0.0012207,-0.000152588,-2.42867,0.0535448,-0.0759786,0.0529073,0.0676134,-0.0943672,0.145013,-0.127598,-0.0859274,0.00823975,0.0263214,0.0267792,0.00812531,-0.00602722,0.0493622,0.0841522,0.0254822,-9.97986,0.0134277,-0.00328064,0.0379181,-0.0197601,0.03685,0.0239944,0.00663757,0.00843048
28,5,10.0097,0,-0.000152588,-2.42714,0.0535448,-0.0753682,0.0538228,0.0694445,-0.0949775,0.143792,-0.126682,-0.0856222,0.00881195,0.023613,0.0269699,0.00617981,-0.00434875,0.0554657,0.0869751,0.0236511,-9.97986,0.00797272,-0.00377655,0.0378418,-0.0189972,0.0266647,0.0251389,0.00850677,0.00598907
28,6,10.0097,0.00152588,0.000152588,-2.42745,0.0562914,-0.0759786,0.0538228,0.0697496,-0.0934516,0.145624,-0.126377,-0.0850118,0.0112152,0.0278091,0.0298309,0.00572205,-0.00434875,0.0534058,0.0919342,0.0209427,-9.97986,0.00862122,-0.000114441,0.0421143,-0.00484467,0.0287628,0.0267792,0.0112152,0.00816345
28,7,10.0097,0.000610352,0.000762939,-2.42806,0.0550706,-0.0741475,0.0538228,0.07036,-0.0931465,0.144098,-0.125461,-0.0840963,0.00682831,0.0251389,0.0259018,0.000190735,-0.00205994,0.0499344,0.0868607,0.0161743,-9.97986,0.0141907,-0.00354767,0.0395966,-0.00564575,0.0286865,0.0239182,0.0056839,0.0019455
28,8,10.0097,0.000305176,0.00106812,-2.42592,0.0553758,-0.0747579,0.0556539,0.07036,-0.0928413,0.145624,-0.125766,-0.0840963,0.00896454,0.026741,0.0292206,0.000228882,0.00156403,0.0522614,0.083313,0.0175095,-9.97986,0.0125504,-0.00225067,0.0430298,0.00160217,0.0275803,0.0223541,0.0113678,0.00137329
28,9,10.0097,0,0.000762939,-2.42592,0.0562914,-0.0744527,0.0550435,0.07036,-0.0910102,0.146234,-0.124546,-0.0810445,0.0142288,0.0246811,0.0328827,-0.00274658,0.00576019,0.0526428,0.0782776,0.00980377,-9.97986,0.0132751,-0.00534058,0.0452423,0.00297546,0.0279617,0.0166702,0.0105667,0.0012207
29,0,10.0097,0.000610352,0.000305176,-2.42379,0.055681,-0.0747579,0.0553487,0.0718859,-0.0922309,0.146539,-0.124241,-0.0825704,0.0118637,0.0291443,0.0318146,-0.00175476,0.0130463,0.0548172,0.0629807,0.0132751,-9.97986,0.00934601,0.000267029,0.0456619,0.0111008,0.0246429,0.0166321,0.010376,-0.00255585
29,1,10.0097,0.00305176,-0.000457764,-2.42531,0.0575121,-0.0723164,0.0550435,0.0718859,-0.090705,0.146844,-0.124546,-0.0816549,0.00953674,0.0247192,0.0243378,-0.00904083,0.0124741,0.046196,0.0458908,0.0113297,-9.97986,0.0117493,-0.00236511,0.0476456,0.0101089,0.0200653,0.0126648,0.00991821,-0.00232697
29,2,10.0097,-0.00152588,0.000762939,-2.4247,0.0544603,-0.0735371,0.0547383,0.0718859,-0.0916206,0.147455,-0.125156,-0.0810445,0.0111008,0.0201416,0.0222015,-0.00938416,0.0143051,0.0439072,0.0338364,0.0119019,-9.97986,0.0115585,0.000190735,0.0484848,0.0151443,0.021553,0.0122833,0.00919342,-0.00541687
29,3,10.0097,-0.000305176,0.000762939,-2.42623,0.0559862,-0.0738423,0.054128,0.0596788,-0.0931465,0.144708,-0.126072,-0.0822652,0.0126266,0.0231171,0.0183105,-0.00434875,0.0125122,0.0489044,0.0242615,0.0130081,-9.97986,0.0149155,0.00171661,0.0485992,0.0246048,0.0207138,0.0109863,0.0107193,-0.00675201
29,4,10.0097,0.00274658,-0.000762939,-2.42714,0.0569017,-0.0738423,0.0544332,0.0386217,-0.0946723,0.144708,-0.126072,-0.0819601,0.0127792,0.0255966,0.0224686,-0.0166702,0.0168228,0.0494003,0.0178146,0.0175095,-9.97986,0.0134277,-0.00110626,0.0508881,0.0239182,0.0205612,0.0132751,0.0124359,-0.00225067
29,5,7.98085,0.000305176,-0.00106812,-2.42592,0.0578172,-0.0729268,0.0547383,0.0486925,-0.0925361,0.146234,-0.126377,-0.0816549,0.0118256,0.0321198,0.025444,-0.0153351,0.0188828,0.0491714,0.0146103,0.0130463,-9.97986,0.00911713,0.00343323,0.0522232,0.0273514,0.0206757,0.0144196,0.0113678,-0.00587463
29,6,7.36806,0.000915527,-0.000305176,-2.42562,0.0559862,-0.0741475,0.0544332,0.0602892,-0.0946723,0.145624,-0.124851,-0.0822652,0.00576019,0.0345612,0.0278091,0.0196457,0.0178909,0.042305,0.0103378,0.0141525,-9.97986,0.0162506,-0.0056076,0.0518417,0.0292587,0.0215149,0.00896454,0.0117874,-0.00709534
29,7,7.37569,0.000915527,-0.000152588,-2.42562,0.0550706,-0.075063,0.0550435,0.0673082,-0.0916206,0.145318,-0.125461,-0.0834859,0.00976563,0.0379944,0.0288391,0.0310135,0.0274277,0.0411224,0.014534,0.0188828,-9.97986,0.0163651,0.0012207,0.0577927,0.0255203,0.0172806,0.0120163,0.0117111,-0.00434875
29,8,8.18929,-0.000305176,0.000762939,-2.42623,0.0550706,-0.075063,0.0553487,0.082567,-0.0910102,0.145013,-0.123935,-0.0831808,0.00865936,0.0228119,0.0234604,0.0197983,0.0228119,0.0428772,0.0019455,0.0186157,-9.97986,0.0144577,0.00240326,0.0518036,0.0286484,0.0167465,0.00747681,0.0153351,-0.00556946
29,9,10.0097,-0.000610352,0.00335693,-2.42745,0.0541551,-0.0762837,0.0538228,0.110338,-0.0928413,0.143792,-0.12363,-0.0840963,0.0139999,0.0232315,0.021286,0.0204086,0.0237656,0.042572,-0.00144958,0.0191116,-9.97986,0.0144196,-0.00213623,0.0512695,0.0305176,0.0178146,0.00179291,0.0133133,-0.00709534
30,0,10.0097,-0.0012207,0.00106812,-2.4305,0.0535448,-0.0756734,0.0516866,0.0837877,-0.0955879,0.141046,-0.126377,-0.0868429,0.011673,0.0205231,0.0222397,0.0218964,0.0261688,0.041275,-0.00720978,0.0194168,-9.97986,0.0164795,0.00255585,0.0551224,0.0329971,0.0233841,-0.0082016,0.0101471,-0.00789642
30,1,10.0097,0.000915527,0.000457764,-2.42928,0.0541551,-0.0765889,0.0513814,0.0743273,-0.0946723,0.144098,-0.126682,-0.0868429,0.0087738,0.0220108,0.0211334,0.0193405,0.0283051,0.042305,-0.0112915,0.0189209,-9.97986,0.0144958,-0.00240326,0.0550842,0.0331497,0.0348282,-0.0114822,0.0111389,-0.00900269
30,2,10.0097,0.000915527,-0.000152588,-2.42959,0.0538499,-0.0756734,0.0519917,0.07036,-0.0983344,0.143792,-0.127598,-0.0874532,0.011673,0.0188828,0.0128555,0.0128937,0.0270844,0.0395203,-0.0127792,0.0163269,-9.97986,0.0202179,0.00225067,0.0541687,0.039444,0.0418091,-0.00236511,0.0104523,-0.00865936
30,3,10.0097,-0.000305176,0.000305176,-2.42898,0.0544603,-0.0765889,0.0516866,0.0691393,-0.095893,0.143182,-0.126682,-0.0874532,0.00976563,0.0163269,0.00980377,0.0139236,0.0288773,0.043335,-0.0143433,0.0205612,-9.97986,0.0127792,-0.00240326,0.0535583,0.0428391,0.0556946,3.8147e-005,0.00991821,-0.0075531
30,4,10.0097,0.000610352,0.000152588,-2.42867,0.0529344,-0.0756734,0.0529073,0.0694445,-0.0955879,0.144403,-0.126987,-0.0868429,0.0128937,0.0142288,0.0110626,0.014267,0.0283051,0.038414,-0.0136566,0.0215912,-9.97986,0.0168228,0.0043869,0.0554657,0.0505066,0.0618744,0.0111008,0.00930786,-0.0102997
30,5,10.0097,0,0.000457764,-2.42959,0.0541551,-0.0747579,0.0526021,0.0688341,-0.0891792,0.144708,-0.126072,-0.0859274,0.00999451,0.0211716,0.0148392,0.0149155,0.0329208,0.0362015,-0.0189972,0.0185013,-9.97986,0.0149536,0.00118256,0.0563431,0.0559235,0.0570297,0.0102615,0.0130463,-0.00789642
30,6,10.0097,-0.000305176,0.000762939,-2.42714,0.0544603,-0.075063,0.0532125,0.0712755,-0.094062,0.143792,-0.126072,-0.085317,0.00919342,0.0191116,0.0166321,0.0143051,0.0343323,0.0440598,-0.0202942,0.0249863,-9.97986,0.00869751,-0.00160217,0.0521469,0.0641251,0.0415802,0.0149155,0.014534,-0.0110626
30,7,10.0097,-0.000305176,0.00106812,-2.42684,0.055681,-0.0756734,0.0532125,0.0697496,-0.0934516,0.145013,-0.126072,-0.0834859,0.00797272,0.0246048,0.0173569,0.0111008,0.0263214,0.038681,-0.0167465,0.0195313,-9.97986,0.0151443,-0.000267029,0.0493622,0.0601196,0.0236511,0.00488281,0.0137711,-0.010376
30,8,10.0097,-0.000915527,0.000152588,-2.42653,0.055681,-0.0744527,0.0532125,0.0715807,-0.0885688,0.145013,-0.126072,-0.0831808,0.00751495,0.0164413,0.016861,0.0126266,0.0313568,0.0329208,-0.0208282,0.0270462,-9.97986,0.0127029,0.00179291,0.0508499,0.0597763,0.00579834,0.0104141,0.0143433,-0.00865936
30,9,10.0097,0.0012207,0.000152588,-2.42592,0.0559862,-0.0738423,0.054128,0.07036,-0.0928413,0.146539,-0.124241,-0.0813497,0.0123978,0.0271225,0.021286,0.0156021,0.0336456,0.0260925,-0.0227737,0.0283813,-9.97986,0.0157547,-0.000457764,0.0537109,0.0630569,-0.00709534,0.0044632,0.0127792,-0.0119781
31,0,10.0097,-0.000305176,0.000457764,-2.4244,0.0562914,-0.0741475,0.0556539,0.0697496,-0.0919257,0.146844,-0.12363,-0.0813497,0.0110626,0.0240326,0.0188446,0.014534,0.0337601,0.0268173,-0.018158,0.0298691,-9.97986,0.0132751,-0.000572205,0.0526047,0.0574493,-0.0199127,0.000610352,0.010643,-0.00923157
31,1,10.0097,0.00152588,-0.000610352,-2.42501,0.0562914,-0.0735371,0.0544332,0.0724962,-0.0885688,0.146234,-0.124546,-0.0810445,0.00873566,0.0234222,0.0233459,0.0164032,0.0336456,0.0223923,-0.0168991,0.0325775,-9.97986,0.0106812,0.00110626,0.0529861,0.0506973,-0.0134277,-0.00114441,0.00846863,-0.00843048
31,2,10.0097,-0.000610352,0,-2.4247,0.0572069,-0.073232,0.0550435,0.0706652,-0.0903999,0.146844,-0.124851,-0.0807394,0.00904083,0.0291443,0.0277328,0.0146866,0.0315857,0.0180817,-0.017128,0.0333405,-9.97986,0.0087738,0.00312805,0.0485992,0.0546646,-0.0118256,-0.00476837,0.0069809,-0.00713348
31,3,10.0097,0.0012207,-0.000305176,-2.4247,0.0538499,-0.0756734,0.054128,0.0572374,-0.0934516,0.145929,-0.125156,-0.0813497,0.0115585,0.0258255,0.0276184,0.0177002,0.033493,0.0177765,-0.0159073,0.0263214,-9.97986,0.0118256,0.000419617,0.0520706,0.0513077,-0.001297,-0.00545502,0.0116348,-0.00724792
31,4,9.97273,0.000610352,-0.00198364,-2.42714,0.0565965,-0.0735371,0.0513814,0.0370958,-0.0965034,0.146234,-0.127598,-0.0831808,0.0125885,0.0330353,0.0274658,0.0167465,0.0340271,0.0124359,-0.0102997,0.0248718,-9.97986,0.0145721,0.0019455,0.0510025,0.0434113,0.00511169,-0.00347137,0.00759125,-0.00473022
31,5,7.78005,0.00183105,-0.000915527,-2.42653,0.0553758,-0.0738423,0.0544332,0.0480822,-0.090705,0.145929,-0.126072,-0.0813497,0.0107574,0.0287247,0.0224304,0.0154877,0.0386429,0.00694275,-0.00732422,0.0193787,-9.97986,0.0150681,-0.00167847,0.0483704,0.0380325,0.00968933,-0.00679016,0.0141144,-0.00610352
31,6,7.14833,-0.000305176,-0.000915527,-2.42653,0.0562914,-0.073232,0.0544332,0.0584581,-0.0916206,0.145318,-0.126072,-0.0822652,0.0121307,0.0312042,0.0267792,0.0199509,0.0362778,0.00766754,-0.0114822,0.0166702,-9.97986,0.0133514,0.00228882,0.0470352,0.0312805,0.0224686,-0.00522614,0.0134277,-0.00518799
31,7,7.14406,0.000610352,-0.000915527,-2.42592,0.0547655,-0.0741475,0.054128,0.0642565,-0.0897895,0.145318,-0.125766,-0.0825704,0.00911713,0.0342941,0.0301361,0.0108719,0.0387192,0.00602722,-0.00610352,0.0161743,-9.97986,0.0134659,-0.000953674,0.0521088,0.0263214,0.0219727,-0.0120926,0.0105667,-0.00549316
31,8,7.92989,-0.000915527,0,-2.42776,0.0550706,-0.0747579,0.054128,0.0822618,-0.0910102,0.145318,-0.124546,-0.0828756,0.0106049,0.0387955,0.0294876,-0.000686646,0.0408173,0.00831604,-0.00431061,0.0247574,-9.97986,0.0094223,0.000534058,0.045433,0.0232697,0.0216675,-0.0162506,0.013504,-0.00541687
31,9,10.0097,0.00183105,0.00198364,-2.42623,0.0547655,-0.0759786,0.054128,0.110338,-0.0891792,0.146234,-0.12363,-0.0840963,0.0111771,0.0463104,0.0281906,-0.00976563,0.040741,0.00850677,-0.00335693,0.0276566,-9.97986,0.0101089,0.00469208,0.0481033,0.0141907,0.0154495,-0.018158,0.0128937,-0.00705719
32,0,10.0097,0.000305176,-0.000305176,-2.42867,0.0541551,-0.0756734,0.0535176,0.0843981,-0.0968086,0.142572,-0.126682,-0.0865377,0.00896454,0.0566483,0.0420761,-0.0220871,0.0417709,0.00556946,-0.00198364,0.0227737,-9.97986,0.00694275,-0.00289917,0.0452805,0.000991821,0.000762939,-0.0232315,0.0120544,-0.00511169
32,1,10.0097,0.000610352,-0.000915527,-2.42714,0.0538499,-0.0768941,0.0510762,0.0749376,-0.0952827,0.142267,-0.126987,-0.0874532,0.0117111,0.0469971,0.0381851,-0.0282288,0.0437164,0.00705719,-0.00137329,0.0234604,-9.97986,0.00759125,-0.00492096,0.0462341,-0.000534058,-0.00396729,-0.0222778,0.0094223,-0.00408173
32,2,10.0097,-0.000610352,-0.000610352,-2.42989,0.0541551,-0.0768941,0.0522969,0.0712755,-0.095893,0.143792,-0.127598,-0.0871481,0.0101089,0.027504,0.0281143,-0.032196,0.0464249,0.00637054,0.000686646,0.0263214,-9.97986,0.00606537,7.62939e-005,0.0452423,-0.00629425,-0.0119019,-0.018158,0.0115585,-0.000228882
32,3,10.0097,0.000915527,-0.00152588,-2.42867,0.0526292,-0.0753682,0.0516866,0.0688341,-0.0952827,0.143182,-0.128208,-0.0868429,0.0115585,0.0136185,0.0247955,-0.0333023,0.0438309,0.00331879,0.00312805,0.0201416,-9.97986,0.00873566,-0.00152588,0.0447083,-0.0143433,-0.0141525,-0.0117111,0.01194,0.00038147
32,4,10.0097,0.00274658,-0.000610352,-2.42867,0.0532396,-0.0771993,0.0526021,0.0694445,-0.0955879,0.143792,-0.127292,-0.0865377,0.0104523,0.00831604,0.0255966,-0.0348663,0.0473785,0.000839233,0.00141144,0.0139999,-9.97986,0.0130844,-0.000762939,0.0462341,-0.0194931,-0.0101089,-0.0130081,0.0106049,-0.0037384
32,5,10.0097,0.000305176,-0.000762939,-2.42898,0.0544603,-0.0762837,0.0529073,0.0700548,-0.0934516,0.145013,-0.125766,-0.0856222,0.0137329,0.0156021,0.0440979,-0.028801,0.0441742,-0.00267029,0.00274658,0.0149155,-9.97986,0.0190353,0.00526428,0.0451279,-0.0260544,-0.00881195,-0.00659943,0.013504,0.00102997
32,6,10.0097,0.00152588,-0.000762939,-2.42745,0.0547655,-0.0744527,0.0526021,0.0694445,-0.0928413,0.145929,-0.127292,-0.085317,0.00816345,0.0302505,0.0515366,-0.0597,0.0409317,-0.00423431,0.00450134,0.0170135,-9.97986,0.018425,-0.00370026,0.0453949,-0.0333023,-0.00347137,-0.000724792,0.0144958,0.00190735
32,7,10.0097,-0.00213623,0.000152588,-2.42806,0.0547655,-0.0753682,0.0532125,0.0691393,-0.0946723,0.145624,-0.126072,-0.0847066,0.0105667,0.0353622,0.0450134,-0.0531769,0.0503922,-0.001297,0.00358582,0.0144577,-9.97986,0.0159454,0.0025177,0.0406647,-0.0384521,0.00141144,-0.00556946,0.0125885,0.000839233
32,8,10.0097,0.00213623,0.000305176,-2.42531,0.0550706,-0.075063,0.0544332,0.0712755,-0.0919257,0.145318,-0.124546,-0.0828756,0.0119781,0.0365067,0.0460815,-0.0302887,0.0445557,-0.00297546,0.00236511,0.00133514,-9.97986,0.0143051,-0.000534058,0.0415039,-0.0362015,0.00679016,-0.00827789,0.0172424,0.00652313
32,9,10.0097,-0.000610352,-0.000610352,-2.4247,0.0565965,-0.0735371,0.0547383,0.0700548,-0.0925361,0.147455,-0.124241,-0.0822652,0.0144577,0.0470734,0.046463,-0.042305,0.0487518,0.000495911,0.0018692,-0.00289917,-9.97986,0.0137711,0.000801086,0.0398254,-0.0375748,0.00881195,-0.0185394,0.0114059,0.00343323
33,0,10.0097,-0.000915527,-0.000152588,-2.42501,0.0569017,-0.0738423,0.0544332,0.0700548,-0.0925361,0.145318,-0.123935,-0.0810445,0.0115585,0.0391006,0.0234222,-0.0361633,0.0481796,0.00038147,0.00354767,-0.000801086,-9.97986,0.0157547,0.00392914,0.0425339,-0.0456619,0.0104904,-0.0183868,0.0133133,0.00816345
33,1,10.0097,0.00183105,-0.000762939,-2.4247,0.0559862,-0.0729268,0.0538228,0.0718859,-0.0919257,0.145624,-0.124241,-0.0813497,0.010376,0.024147,0.00541687,0.00495911,0.0485229,-0.00148773,0.00385284,0.00450134,-9.97986,0.0174713,-0.00148773,0.0389099,-0.0504684,0.0102615,-0.0152206,0.0159073,0.00377655
33,2,10.0097,0,0.000305176,-2.42531,0.0569017,-0.0744527,0.055959,0.0712755,-0.0922309,0.14776,-0.12363,-0.0816549,0.0110626,0.0204468,-0.000190735,0.0875092,0.0528336,-0.00324249,0.0104523,0.00907898,-9.97986,0.0227737,-0.00526428,0.0341034,-0.0518417,0.00404358,-0.0121307,0.016098,0.00862122
33,3,10.0097,0.000305176,0.000152588,-2.42592,0.0550706,-0.0753682,0.0544332,0.0584581,-0.0937568,0.146234,-0.125156,-0.0810445,0.00747681,0.00183105,-0.00839233,0.133781,0.0498581,-7.62939e-005,0.00610352,0.0155258,-9.97986,0.0256348,0.00324249,0.0413513,-0.051384,-7.62939e-005,-0.0050354,0.0185013,0.00873566
33,4,10.0097,-0.0012207,-0.00183105,-2.42623,0.0553758,-0.0738423,0.054128,0.0377062,-0.095893,0.145929,-0.126987,-0.0825704,0.00480652,-0.0272751,-0.0109863,0.0957108,0.055275,-0.00110626,0.0102234,0.015831,-9.97986,0.0215912,-0.00347137,0.032959,-0.059433,-0.0102997,-0.0109863,0.0145721,0.00606537
33,5,7.95522,0.000915527,-0.00152588,-2.42653,0.0569017,-0.0738423,0.0544332,0.0493029,-0.0916206,0.146844,-0.125766,-0.0822652,0.00362396,-0.0261688,-0.0111389,0.063858,0.0572968,-0.00656128,0.0149155,0.020256,-9.97986,0.0274658,-0.00198364,0.0378799,-0.0602722,-0.0108337,-0.0118637,0.0185013,0.00972748
33,6,7.34456,0.000305176,-0.00137329,-2.42562,0.0559862,-0.0738423,0.0550435,0.0590685,-0.0916206,0.145013,-0.126072,-0.0825704,0.00904083,-0.0198746,-0.000648499,0.0671005,0.0485611,-0.00579834,0.0146103,0.0175858,-9.97986,0.0272751,-0.00499725,0.0345993,-0.0561905,-0.0169373,-0.0172043,0.0186157,0.00789642
33,7,7.35402,-0.000915527,0.000152588,-2.42592,0.0565965,-0.0747579,0.0550435,0.0676134,-0.0919257,0.146844,-0.125766,-0.0828756,0.0130844,-0.00274658,0.00453949,0.0767899,0.047493,-0.00709534,0.0197601,0.0205231,-9.97986,0.0251389,-0.00492096,0.0321198,-0.0520706,-0.00923157,-0.0180435,0.0188828,0.00839233
33,8,8.18318,0.000610352,0.000762939,-2.42714,0.0547655,-0.075063,0.0550435,0.0819567,-0.0900947,0.145929,-0.124851,-0.0831808,0.00976563,0.00972748,0.000419617,0.07164,0.0519943,-0.0062561,0.0143433,0.0126266,-9.97986,0.0209427,-0.00164032,0.0357437,-0.0523758,-0.00671387,-0.0191116,0.0144577,0.00709534
33,9,10.0097,0.00183105,0.00244141,-2.42684,0.0541551,-0.075063,0.0547383,0.112169,-0.088874,0.144098,-0.123935,-0.0850118,0.0116348,0.0177765,-0.0038147,0.0457001,0.0552368,0.000762939,0.0223923,0.0125885,-9.97986,0.0245285,-0.000190735,0.0325394,-0.0544739,0.00347137,-0.0186539,0.0229263,0.0100327
34,0,10.0097,0.00183105,0.000915527,-2.42837,0.0526292,-0.0756734,0.0522969,0.0831774,-0.0952827,0.144403,-0.126682,-0.0868429,0.0124741,0.0149918,-0.00423431,-0.000495911,0.0504684,-0.00606537,0.0257111,0.0139236,-9.97986,0.021553,0.000610352,0.0325775,-0.0547791,0.00152588,-0.0233459,0.0180054,0.00648499
34,1,10.0097,0.000915527,0.000152588,-2.42806,0.0544603,-0.0762837,0.0522969,0.0737169,-0.095893,0.142877,-0.127903,-0.0877584,0.0106049,0.0212097,-3.8147e-005,0.0112534,0.0497055,-0.00724792,0.0257492,0.0140762,-9.97986,0.0192642,-0.00144958,0.0299072,-0.0554657,0.0019455,-0.0288773,0.0187683,0.00705719
34,2,10.0097,0.000610352,-0.000152588,-2.42928,0.0541551,-0.0756734,0.0516866,0.0706652,-0.0955879,0.143487,-0.127292,-0.0877584,0.010643,0.0213623,0.00602722,0.0430298,0.0511932,-0.00999451,0.026741,0.0148392,-9.97986,0.0189209,0.00267029,0.0322723,-0.0516129,0.00789642,-0.0326538,0.019722,0.00705719
34,3,10.0097,0,0.000152588,-2.42898,0.0538499,-0.0762837,0.0513814,0.0697496,-0.0952827,0.144403,-0.127903,-0.0865377,0.0100708,0.0163651,0.0118637,0.0609589,0.0505829,-0.010376,0.0307465,0.0170135,-9.97986,0.0188065,0.000724792,0.0260162,-0.0450516,0.00938416,-0.0301743,0.0197983,0.00900269
34,4,10.0097,-0.000915527,-0.000305176,-2.42928,0.0535448,-0.0756734,0.0519917,0.0694445,-0.0934516,0.143487,-0.126987,-0.0871481,0.00720978,0.0130844,0.0131989,0.0649643,0.0481415,-0.0111389,0.0355911,0.0138474,-9.97986,0.0193024,0.00366211,0.0300598,-0.0383377,0.0094223,-0.0234604,0.0181961,0.00667572
34,5,10.0097,-0.00213623,0,-2.42898,0.0544603,-0.0759786,0.0535176,0.0691393,-0.0946723,0.144708,-0.126377,-0.0859274,0.00938416,0.00907898,0.00514984,0.0443268,0.0485992,-0.0147247,0.035553,0.0186539,-9.97986,0.0190735,0.000419617,0.0285721,-0.0442123,0.00659943,-0.0242233,0.0217056,0.00480652
34,6,10.0097,0.00244141,-0.000762939,-2.42745,0.0550706,-0.0756734,0.0535176,0.0682238,-0.094062,0.145318,-0.126072,-0.0844015,0.00785828,0.00293732,0.00427246,0.0367737,0.0510406,-0.0192261,0.0320435,0.0178528,-9.97986,0.0214767,0.00339508,0.0250244,-0.051651,0.0104904,-0.0203705,0.0188065,0.0103378
34,7,10.0097,0.000610352,-0.000152588,-2.42837,0.0559862,-0.0747579,0.0522969,0.0694445,-0.094062,0.145318,-0.126682,-0.0844015,0.0107956,0.00782013,0.0124741,0.0304794,0.0447464,-0.0215912,0.033226,0.0149155,-9.97986,0.0203323,0.00228882,0.0279236,-0.0551224,0.00244141,-0.0184631,0.0175858,0.010643
34,8,10.0097,0.000610352,0.000305176,-2.42623,0.0553758,-0.0726216,0.0526021,0.0700548,-0.0910102,0.146234,-0.126377,-0.0840963,0.00892639,0.0148773,0.010376,0.0291061,0.0496292,-0.0223923,0.0357056,0.0197601,-9.97986,0.012207,-3.8147e-005,0.0261307,-0.0594711,-0.000915527,-0.0173569,0.0183868,0.0108719
34,9,10.0097,-0.000610352,0,-2.42562,0.0562914,-0.0738423,0.0538228,0.0709703,-0.0922309,0.146234,-0.123935,-0.0825704,0.00907898,0.0207138,0.00907898,0.0244904,0.0487518,-0.0192261,0.0377274,0.0180054,-9.97986,0.0130081,0.000343323,0.0274658,-0.0640869,0.00732422,-0.0121307,0.0209427,0.01194
35,0,10.0097,0.000305176,-0.000457764,-2.42623,0.0569017,-0.0741475,0.0544332,0.07036,-0.0922309,0.148065,-0.124241,-0.0819601,0.0125122,0.0276566,0.00984192,0.0201035,0.0498199,-0.0195313,0.03479,0.0162506,-9.97986,0.0160599,-0.00125885,0.0262833,-0.0699234,0.00312805,-0.0148773,0.0170135,0.0131607
35,1,10.0097,-0.000915527,-0.000305176,-2.4247,0.0565965,-0.0735371,0.0535176,0.0706652,-0.0916206,0.145624,-0.124241,-0.0807394,0.0135422,0.0341034,0.00900269,0.020256,0.0481033,-0.0204468,0.0324631,0.0163651,-9.97986,0.0201416,0.000228882,0.0258255,-0.0663376,0.00743866,-0.0184631,0.015831,0.0126648
35,2,10.0097,0.0012207,0.000457764,-2.42501,0.0587328,-0.0741475,0.054128,0.0697496,-0.0913154,0.14776,-0.124241,-0.0810445,0.00785828,0.025177,0.00976563,0.0207901,0.0426865,-0.0191498,0.0350571,0.0163269,-9.97986,0.0165558,0.000190735,0.0242615,-0.0676727,0.00965118,-0.0183105,0.0111771,0.0108719
35,3,10.0097,0.000610352,0.000457764,-2.42653,0.0565965,-0.0753682,0.0532125,0.0615099,-0.0934516,0.145929,-0.125461,-0.0819601,0.0120544,0.00812531,0.00934601,0.0183868,0.0450134,-0.02491,0.035553,0.0167084,-9.97986,0.017128,0.00263214,0.0259399,-0.0642014,0.00827789,-0.023613,0.0125122,0.0130081
35,4,10.0097,0,-0.000762939,-2.42592,0.0562914,-0.0741475,0.0532125,0.0383165,-0.0952827,0.14776,-0.126987,-0.0819601,0.0104141,0.000762939,0.0082016,0.0149155,0.0438309,-0.0261688,0.034523,0.018959,-9.97986,0.0193405,0.000610352,0.0235748,-0.0614548,0.0134277,-0.0217056,0.0157166,0.0149536
35,5,8.12093,0.0012207,-0.00152588,-2.42592,0.0553758,-0.073232,0.0532125,0.0489977,-0.0928413,0.146844,-0.125461,-0.0816549,0.0105286,0.00545502,0.0056839,0.00980377,0.0430298,-0.0279236,0.0346756,0.0144958,-9.97986,0.0166702,0.00240326,0.0229645,-0.058136,0.0167847,-0.0200272,0.0156403,0.0128937
35,6,7.55147,0,-0.000305176,-2.42684,0.0547655,-0.0738423,0.0544332,0.059984,-0.0910102,0.145318,-0.125156,-0.0822652,0.0115204,0.00583649,0.00850677,0.0134277,0.0430679,-0.0321579,0.0375748,0.0157166,-9.97986,0.017662,0.000228882,0.0263977,-0.0605774,0.0172806,-0.0139236,0.012207,0.0126648
35,7,7.59328,0.000305176,0.000152588,-2.42592,0.0559862,-0.0747579,0.0553487,0.0676134,-0.0922309,0.145624,-0.126072,-0.0831808,0.0104904,0.0113678,0.00434875,0.00972748,0.0432587,-0.0271606,0.0305176,0.0159073,-9.97986,0.0199127,-0.00553131,0.0234604,-0.0650406,0.0147629,-0.0197601,0.0134277,0.0123215
35,8,8.50209,0.000610352,0.000305176,-2.42776,0.0544603,-0.0744527,0.0538228,0.0847032,-0.0910102,0.145929,-0.125156,-0.0831808,0.0106812,0.0201797,-3.8147e-005,0.00915527,0.0381088,-0.0313187,0.0336456,0.0132751,-9.97986,0.014534,-0.000953674,0.0224304,-0.0659561,0.0123978,-0.0152969,0.0180435,0.0115967
35,9,10.0097,-0.000305176,0.00228882,-2.42806,0.0532396,-0.0756734,0.054128,0.109728,-0.0885688,0.144098,-0.124546,-0.0844015,0.0153732,0.0217056,-0.000991821,0.00938416,0.0392914,-0.0304794,0.0321579,0.0126648,-9.97986,0.0153351,-0.00087738,0.0215912,-0.0617599,0.00919342,-0.00854492,0.0167465,0.00961304
36,0,10.0097,0.000610352,0.00137329,-2.42959,0.0529344,-0.0759786,0.0513814,0.0813463,-0.095893,0.143487,-0.126987,-0.0865377,0.012207,0.0191498,0.00492096,0.00904083,0.0388336,-0.0271988,0.0326157,0.0127792,-9.97986,0.0140762,-0.00335693,0.0201416,-0.0636673,0.00968933,-0.0111008,0.0133514,0.00957489
36,1,10.0097,0.000915527,0.000152588,-2.42898,0.0553758,-0.0759786,0.0519917,0.0743273,-0.0946723,0.143182,-0.127598,-0.0871481,0.00934601,0.0259018,0.0169754,0.00587463,0.0434113,-0.0272751,0.0330734,0.014534,-9.97986,0.0159836,0.00236511,0.0238419,-0.0579453,0.0149918,-0.0115204,0.0178146,0.0164032
36,2,10.0097,0.0012207,-0.000915527,-2.42898,0.0529344,-0.0768941,0.0522969,0.0715807,-0.0952827,0.144403,-0.126987,-0.0874532,0.00930786,0.020752,0.0203705,3.8147e-005,0.0373459,-0.0245285,0.0307465,0.017128,-9.97986,0.00980377,-0.00507355,0.0196457,-0.062027,0.0144958,-0.00659943,0.01297,0.0121307
36,3,10.0097,0.000610352,-0.000152588,-2.42989,0.0541551,-0.0765889,0.0513814,0.0694445,-0.0961982,0.142877,-0.127598,-0.0868429,0.00938416,0.0201416,0.0172424,0.00499725,0.0362396,-0.0261688,0.03479,0.0155258,-9.97986,0.0167847,0.0025177,0.0244904,-0.059166,0.0153732,-0.00450134,0.0136948,0.0113297
36,4,10.0097,0.00152588,-0.000305176,-2.42745,0.0523241,-0.075063,0.0529073,0.0697496,-0.0931465,0.143792,-0.127292,-0.0868429,0.0101089,0.0267792,0.0192261,0.00675201,0.0321579,-0.0286865,0.034256,0.0147629,-9.97986,0.0109863,-0.00160217,0.0207138,-0.0586319,0.0182724,0.00205994,0.0156021,0.0134277
36,5,10.0097,-0.000305176,0.000152588,-2.42867,0.0538499,-0.0747579,0.054128,0.0679186,-0.0937568,0.145013,-0.127292,-0.0859274,0.0149918,0.0271606,0.019989,0.00545502,0.0328827,-0.032959,0.03582,0.0128937,-9.97986,0.00869751,-0.00179291,0.0229645,-0.0545883,0.0209045,0.00198364,0.0120544,0.0115204
36,6,10.0097,-0.000610352,0.000457764,-2.42806,0.0541551,-0.0762837,0.0529073,0.0706652,-0.0946723,0.145013,-0.125766,-0.0850118,0.0119019,0.0282669,0.0227737,0.00534058,0.034523,-0.0295258,0.0333023,0.01297,-9.97986,0.017395,-0.00267029,0.0229263,-0.0477982,0.0204086,0.00324249,0.01297,0.0117874
36,7,10.0097,0.00274658,0.000610352,-2.42837,0.0547655,-0.0756734,0.0532125,0.0694445,-0.0934516,0.145013,-0.125156,-0.0831808,0.0117493,0.0276184,0.0226974,0.00427246,0.0305557,-0.0271225,0.0339508,0.0120163,-9.97986,0.0113297,-0.0019455,0.0252151,-0.0471115,0.0208282,0.00160217,0.0112915,0.0152588
36,8,10.0097,-0.000305176,0.000457764,-2.42562,0.055681,-0.0753682,0.054128,0.0694445,-0.0922309,0.146234,-0.126987,-0.0831808,0.0149536,0.0279236,0.0161362,0.000915527,0.0287628,-0.0261307,0.0324249,0.0104904,-9.97986,0.00934601,-0.001297,0.0198364,-0.0482941,0.0179672,-0.00198364,0.0144958,0.0112915
36,9,10.0097,-0.000915527,-0.000152588,-2.4247,0.0569017,-0.0747579,0.0556539,0.0709703,-0.0916206,0.146844,-0.123935,-0.0825704,0.0138474,0.030899,0.0256729,0.00484467,0.0301361,-0.0227356,0.0392151,0.010376,-9.97986,0.0126648,-0.00179291,0.0226212,-0.0517273,0.0207901,-0.000495911,0.0158691,0.0135422
37,0,10.0097,-0.000305176,-0.000457764,-2.42562,0.0578172,-0.0775044,0.054128,0.07036,-0.0910102,0.147455,-0.124241,-0.0816549,0.0144196,0.0284195,0.0228119,0.000801086,0.0283813,-0.022316,0.0333405,0.00789642,-9.97986,0.00782013,-0.00289917,0.0184631,-0.0534439,0.0185013,-0.00495911,0.0143814,0.00846863
37,1,10.0097,0.000610352,0.000152588,-2.42562,0.0569017,-0.073232,0.0538228,0.0706652,-0.0931465,0.146234,-0.124241,-0.0807394,0.0115967,0.02491,0.0225067,0.00492096,0.0250626,-0.0214386,0.0333023,0.0125885,-9.97986,0.0153732,0.00179291,0.0212479,-0.0453568,0.0169754,-0.00801086,0.0143433,0.0102997
37,2,10.0097,0.000305176,0.000152588,-2.4247,0.055681,-0.0741475,0.0556539,0.072191,-0.0897895,0.146844,-0.12363,-0.0807394,0.00968933,0.0289536,0.0220108,0.00404358,0.0296021,-0.0183487,0.0323868,0.0160217,-9.97986,0.0120926,-0.00389099,0.0158691,-0.0497055,0.0134659,-0.0175858,0.0125122,0.00865936
37,3,10.0097,0.000305176,0,-2.42623,0.0526292,-0.0714009,0.054128,0.0596788,-0.0955879,0.146539,-0.125156,-0.0819601,0.014534,0.027504,0.0199509,0.000152588,0.0248718,-0.0215912,0.033493,0.017395,-9.97986,0.0110245,-0.0012207,0.0185013,-0.0430679,0.0141144,-0.0225449,0.0151825,0.0128937
37,4,10.0097,-0.000305176,-0.000915527,-2.42592,0.0553758,-0.0735371,0.0535176,0.0383165,-0.0910102,0.14837,-0.126377,-0.0816549,0.0114441,0.0279236,0.0229645,-0.0112915,0.0227737,-0.0175858,0.0389099,0.0125885,-9.97986,0.0152206,0.000228882,0.0200272,-0.0413895,0.012207,-0.0204086,0.0128174,0.0127792
37,5,7.95278,0.00335693,-0.0012207,-2.4247,0.0553758,-0.0729268,0.0535176,0.0483873,-0.0925361,0.146234,-0.125766,-0.0819601,0.0112915,0.0260925,0.0271225,-0.0134659,0.0203323,-0.019455,0.0322342,0.01091,-9.97986,0.0111771,0.00431061,0.0215149,-0.0374222,0.0144196,-0.0210571,0.0135422,0.00926971
37,6,7.37966,0.000915527,0.000152588,-2.42592,0.0529344,-0.073232,0.0538228,0.0602892,-0.0919257,0.144403,-0.126377,-0.0819601,0.0117111,0.0275421,0.0243759,-0.0175095,0.0275803,-0.0143433,0.0339508,0.0135422,-9.97986,0.0128555,0.00087738,0.0154114,-0.0382233,0.0156784,-0.0198364,0.0128555,0.0082016
37,7,7.3879,0.00183105,0.000152588,-2.42653,0.0550706,-0.0747579,0.0544332,0.0676134,-0.0943672,0.149286,-0.124546,-0.0831808,0.0115204,0.026741,0.0268173,-0.0292969,0.0265884,-0.0190353,0.0341415,0.0120544,-9.97986,0.0111771,3.8147e-005,0.0186157,-0.0350952,0.017128,-0.0151443,0.0144958,0.0104904
37,8,8.19325,-0.000610352,0.000610352,-2.42623,0.0553758,-0.0747579,0.0547383,0.0828722,-0.090705,0.145318,-0.124851,-0.0844015,0.0154877,0.0300217,0.0217819,-0.031929,0.02388,-0.014267,0.0385284,0.0124741,-9.97986,0.0131989,-0.00144958,0.0176239,-0.0333023,0.0185776,-0.00930786,0.0148392,0.00675201
37,9,10.0097,0.0012207,0.00289917,-2.42745,0.0498827,-0.0771993,0.055959,0.112474,-0.0894843,0.145013,-0.12363,-0.0850118,0.0110245,0.0280762,0.0250626,-0.0356674,0.0241089,-0.00888824,0.0371552,0.0123596,-9.97986,0.0154114,-0.000534058,0.0178146,-0.0285721,0.0165558,-0.00793457,0.0154877,0.00614166
38,0,10.0097,0,0.00167847,-2.42837,0.0529344,-0.0759786,0.0513814,0.0822618,-0.094062,0.145624,-0.125766,-0.0874532,0.0115204,0.0297928,0.0226974,-0.0398254,0.0216293,-0.00732422,0.0312042,0.0131226,-9.97986,0.0139999,-0.000534058,0.0201416,-0.0229645,0.0174332,-0.0122833,0.0160217,0.00736237
38,1,10.0097,-0.0012207,0,-2.42928,0.0547655,-0.0775044,0.0513814,0.0743273,-0.0952827,0.143182,-0.127292,-0.0865377,0.0120544,0.0272751,0.0215149,-0.0307465,0.0207901,-0.00770569,0.032196,0.0144958,-9.97986,0.0111008,-0.00087738,0.0205994,-0.0233078,0.0173569,-0.00869751,0.0159836,0.00713348
38,2,10.0097,0.0012207,0,-2.4302,0.0547655,-0.0765889,0.0513814,0.0700548,-0.094062,0.142877,-0.126682,-0.0871481,0.0172424,0.0243759,0.0233078,-0.0214005,0.0178528,-0.00614166,0.03582,0.0143051,-9.97986,0.0133133,0.000114441,0.0165939,-0.0287628,0.0155258,-0.00278473,0.0143433,0.00411987
38,3,10.0097,0.000305176,-0.000152588,-2.42928,0.0532396,-0.0765889,0.050771,0.0706652,-0.0989448,0.142877,-0.126987,-0.0883688,0.0128937,0.021286,0.0214386,-0.0169754,0.0191498,-0.000801086,0.0300598,0.0146484,-9.97986,0.0128555,0.00110626,0.0188828,-0.0178909,0.0141144,-0.00778198,0.0151825,0.00606537
38,4,10.0097,0.0012207,0.000457764,-2.42928,0.0538499,-0.0759786,0.0516866,0.0691393,-0.094062,0.142267,-0.127292,-0.0859274,0.0127411,0.0229263,0.021286,-0.0173187,0.017128,-0.00328064,0.030632,0.0154114,-9.97986,0.0110626,0.00362396,0.0162506,-0.0163269,0.0130463,-0.0111771,0.0186539,0.00709534
38,5,10.0097,0,-0.000305176,-2.42928,0.0569017,-0.0738423,0.0526021,0.0685289,-0.0928413,0.145013,-0.126987,-0.085317,0.0105667,0.0237274,0.029068,-0.00953674,0.0160217,0.00267029,0.0309753,0.0172424,-9.97986,0.00873566,0.00240326,0.0170898,-0.0138474,0.0150681,-0.0177383,0.0176239,0.00778198
38,6,10.0097,-0.000305176,-0.000305176,-2.42745,0.055681,-0.0741475,0.0522969,0.0697496,-0.0989448,0.148675,-0.126682,-0.0856222,0.0120163,0.0232697,0.0268173,-0.00270844,0.0120163,0.00831604,0.0287247,0.0127029,-9.97986,0.0069809,-0.000686646,0.0128174,-0.00793457,0.00778198,-0.0214386,0.0131607,0.00511169
38,7,10.0097,-0.0012207,0.000762939,-2.42714,0.0547655,-0.0759786,0.0526021,0.0685289,-0.0928413,0.145318,-0.126072,-0.0834859,0.0115204,0.0256729,0.0311279,-0.0369644,0.018692,0.00644684,0.0334549,0.0149536,-9.97986,0.0102997,0.00190735,0.0181198,-0.0105286,0.0159836,-0.0271606,0.0155258,0.00564575
38,8,10.0097,0,-0.000152588,-2.42684,0.0523241,-0.0738423,0.0544332,0.0712755,-0.0925361,0.145624,-0.125461,-0.0837911,0.01194,0.0231934,0.0304031,-0.0518036,0.0129318,0.00724792,0.0281906,0.0141907,-9.97986,0.00843048,0.00148773,0.0173187,-0.00854492,0.0154877,-0.0298309,0.0158691,0.00679016
38,9,10.0097,0.00152588,0.000762939,-2.42379,0.0562914,-0.073232,0.0544332,0.07036,-0.0952827,0.145318,-0.124546,-0.0813497,0.0197601,0.0247574,0.0324249,-0.0044632,0.0134659,0.00606537,0.0305557,0.0192261,-9.97986,0.00770569,-0.000114441,0.0126648,-0.00511169,0.0175858,-0.0188446,0.0149918,0.00579834
39,0,10.0097,-0.000305176,0.000305176,-2.4244,0.055681,-0.0741475,0.0544332,0.0709703,-0.0913154,0.148065,-0.123935,-0.0807394,0.0160599,0.0246048,0.0367355,0.0288391,0.0127029,0.00782013,0.0315094,0.0178909,-9.97986,0.0126648,0.00404358,0.0168991,0.00225067,0.0140381,-0.00938416,0.0169754,0.00984192
39,1,10.0097,0.0012207,0.000152588,-2.42501,0.0498827,-0.0738423,0.0550435,0.0724962,-0.0913154,0.146234,-0.125156,-0.0810445,0.0136566,0.0377274,0.0381851,0.0375748,0.0116348,0.00946045,0.0281143,0.0119781,-9.97986,0.0139236,-0.00228882,0.0144958,-0.00164032,0.0106049,-0.000991821,0.0139236,0.00511169
39,2,10.0097,0.00183105,0.000610352,-2.42409,0.0572069,-0.0735371,0.0556539,0.0712755,-0.0971137,0.145318,-0.12363,-0.0804342,0.0111771,0.0411606,0.0416565,0.0338364,0.0134277,0.0131226,0.0275421,0.00614166,-9.97986,0.0133133,0.00205994,0.0147247,0.000305176,0.0157166,0.00587463,0.0130844,0.00617981
39,3,10.0097,0,-0.000305176,-2.42684,0.0562914,-0.075063,0.054128,0.0608995,-0.0934516,0.146539,-0.125156,-0.0819601,0.0106812,0.0271225,0.0381088,0.0640488,0.0137711,0.0141144,0.0294495,0.0117874,-9.97986,0.0117493,0.00171661,0.0149918,0.000953674,0.0113678,0.00881195,0.0148392,0.00320435
39,4,10.0097,0.000610352,-0.000915527,-2.42623,0.0584276,-0.0726216,0.0532125,0.0370958,-0.0949775,0.145929,-0.126682,-0.0813497,0.0115967,0.0237656,0.0419235,0.0963974,0.00904083,0.00934601,0.0255966,0.0115204,-9.97986,0.0136566,0.00167847,0.0159073,0.00831604,0.0153351,0.00831604,0.0152588,0.00621796
39,5,8.00588,0.0012207,-0.00137329,-2.4247,0.0562914,-0.0747579,0.0553487,0.0499132,-0.0919257,0.146234,-0.125766,-0.0813497,0.0125122,0.0331497,0.0392532,0.0750732,0.00770569,0.00789642,0.0277328,0.022316,-9.97986,0.0156784,0.00354767,0.0124359,0.00305176,0.0124359,0.000190735,0.00858307,0.00385284
39,6,7.5298,0.000305176,0,-2.42714,0.0550706,-0.0744527,0.0550435,0.059984,-0.0928413,0.145624,-0.125156,-0.0819601,0.00862122,0.0417709,0.0364304,0.0659561,0.00907898,0.0163269,0.0264359,0.0272369,-9.97986,0.0130844,0.00152588,0.0111771,0.00869751,0.0111008,-0.00667572,0.0123596,0.00610352
39,7,7.55971,0,0.000610352,-2.42745,0.0569017,-0.075063,0.0544332,0.0682238,-0.0928413,0.145624,-0.125461,-0.0825704,0.00892639,0.0460815,0.0326157,0.0786209,0.013237,0.0164032,0.0271988,0.0259399,-9.97986,0.0137711,0.000305176,0.0115585,0.00640869,0.00892639,-0.0152206,0.0122833,0.00862122
39,8,8.3846,0.000915527,0.000915527,-2.42653,0.055681,-0.075063,0.0547383,0.0822618,-0.0876533,0.145318,-0.125156,-0.0831808,0.00801086,0.0457001,0.0261307,0.0794601,0.00732422,0.0146866,0.0260544,0.0320816,-9.97986,0.0130081,0.00160217,0.0111389,0.00629425,0.0094223,-0.0193787,0.0102615,0.00564575
39,9,10.0097,0.000915527,0.00213623,-2.42837,0.0532396,-0.0765889,0.0550435,0.111254,-0.088874,0.145318,-0.123325,-0.0837911,0.00728607,0.0500488,0.0271606,0.0661087,0.0123596,0.0201797,0.0268555,0.0266647,-9.97986,0.0130844,-0.00537872,0.0128937,0.00556946,0.0101471,-0.0131989,0.0136948,0.00850677
40,0,10.0097,-0.000305176,0.000762939,-2.42898,0.0581224,-0.0747579,0.0513814,0.0819567,-0.0952827,0.141961,-0.125766,-0.0865377,0.0082016,0.0470352,0.0256729,0.0334549,0.00404358,0.0185394,0.0246048,0.0245667,-9.97986,0.0125504,0.000343323,0.0111389,0.0075531,0.0100327,-0.00865936,0.0130081,0.00774384
40,1,10.0097,0,0.000152588,-2.42898,0.0547655,-0.0762837,0.0516866,0.0743273,-0.095893,0.143487,-0.126682,-0.0874532,0.0129318,0.0366211,0.02388,0.0307846,0.00984192,0.025444,0.0209427,0.0275421,-9.97986,0.00717163,-0.0019455,0.00679016,0.00640869,0.00923157,-0.00724792,0.0102615,0.00595093
40,2,10.0097,0.000305176,0.000305176,-2.42959,0.0538499,-0.0759786,0.0516866,0.07036,-0.0955879,0.144098,-0.128208,-0.0871481,0.00938416,0.0275803,0.0296402,0.0279236,0.00339508,0.0214767,0.0217438,0.018692,-9.97986,0.0119019,-0.00274658,0.0157928,0.0113678,0.00499725,-0.00617981,0.0115585,0.0030899
40,3,10.0097,0.000305176,0.000610352,-2.42867,0.0581224,-0.0753682,0.0519917,0.0700548,-0.0943672,0.144098,-0.128513,-0.0874532,0.0101471,0.0359344,0.0363159,0.0238037,0.00263214,0.0234985,0.0247192,0.0152206,-9.97986,0.0110245,-0.00225067,0.00831604,0.0160217,0.0115967,-0.00812531,0.00743866,0.00659943
40,4,10.0097,0.0012207,-0.000305176,-2.42898,0.0532396,-0.0759786,0.0532125,0.0694445,-0.0928413,0.145013,-0.127292,-0.0865377,0.0130463,0.0460434,0.0332642,0.0249863,0.00488281,0.0263977,0.0236893,0.0149918,-9.97986,0.00808716,0.00324249,0.00961304,0.0227356,0.010376,-0.00301361,0.00919342,0.00431061
